Data from C_3_DIV_IL_4N_Splice17_13-19-25-476.txt Node
Date: Sat Mar 14 13:19:25 EDT 2020
User: sa697716
Spectrometer: FLMS03696
Trigger mode: 0
Integration Time (sec): 3.180400E-1
Scans to average: 20
Electric dark correction enabled: true
Nonlinearity correction enabled: true
Boxcar width: 5
XAxis mode: Wavelengths
Number of Pixels in Spectrum: 2048
>>>>>Begin Spectral Data<<<<<
187.83	-441124.16
188.298	3242.26
188.766	1697.16
189.233	1527.57
189.701	2206.35
190.169	3009.62
190.636	1182.58
191.104	900.44
191.571	182.12
192.039	-0.11
192.506	-35.18
192.974	435.45
193.441	-785.46
193.908	-105.64
194.375	-65.93
194.842	116.24
195.31	244.39
195.777	255.96
196.244	452.81
196.711	459.65
197.177	542.67
197.644	691.25
198.111	1214.46
198.578	1716.51
199.045	1387.65
199.511	2252.36
199.978	2546.35
200.445	2169.83
200.911	2353.44
201.378	2556.48
201.844	2348.66
202.31	3985.66
202.777	4238.71
203.243	2340.56
203.709	2225.07
204.176	2640.03
204.642	2189.92
205.108	2043.99
205.574	1642.3
206.04	1494.09
206.506	1427.44
206.972	1339.52
207.438	1289.22
207.903	1466.15
208.369	1277.39
208.835	1287.37
209.301	1335.47
209.766	1351.71
210.232	1348.84
210.697	1681.88
211.163	2052.04
211.628	3067.7
212.094	2554.9
212.559	3220.84
213.024	2004.94
213.49	2470.07
213.955	2388.08
214.42	2310.75
214.885	2153.29
215.35	2054.44
215.815	1996.68
216.28	2149.16
216.745	1752.05
217.21	1908.82
217.675	1720.86
218.14	1931.09
218.604	2132.46
219.069	2438.32
219.534	2578.07
219.998	2980.09
220.463	3614.28
220.927	4397.33
221.392	4121.52
221.856	4187.51
222.32	5236.46
222.785	6468.05
223.249	8097.54
223.713	9003.25
224.177	8985.87
224.642	11453.87
225.106	14116.59
225.57	15406.99
226.034	11494.17
226.497	17500.21
226.961	15773.63
227.425	18383.65
227.889	20385.08
228.353	20429.88
228.816	42251.01
229.28	40390.71
229.744	34082.81
230.207	20752.13
230.671	20400.14
231.134	33634.43
231.597	38778.17
232.061	38727.62
232.524	37704.5
232.987	25949.2
233.45	23339.22
233.914	20932.17
234.377	21438.89
234.84	19583.2
235.303	23044.33
235.766	25690.05
236.229	26540.7
236.691	16672.33
237.154	18682.12
237.617	14069.4
238.08	14395.37
238.542	16833.58
239.005	12039.22
239.468	11949.17
239.93	11272.76
240.393	10234.52
240.855	8983.36
241.317	9192.13
241.78	11172.78
242.242	11569.24
242.704	12494.29
243.166	10882.96
243.629	9894.51
244.091	11378.77
244.553	12463.69
245.015	13400.13
245.477	17314.15
245.939	25349.06
246.4	26901.62
246.862	26117.03
247.324	24603.96
247.786	27485.76
248.247	35972.86
248.709	36990.75
249.17	27655.54
249.632	26067.52
250.093	30227.67
250.555	26077.61
251.016	15925.81
251.477	15100.64
251.939	16321.69
252.4	17114.03
252.861	20338.06
253.322	18927.62
253.783	22520.77
254.244	29157.2
254.705	22945.91
255.166	20384.88
255.627	20052.62
256.088	28266.18
256.549	30013.71
257.009	25849.48
257.47	31275.49
257.931	25470.74
258.391	19074.19
258.852	19658.4
259.312	20618.31
259.773	25425.71
260.233	21465.3
260.694	18097.87
261.154	20478.66
261.614	16435.42
262.074	14663.77
262.534	15239.74
262.994	14355.31
263.455	19103.2
263.915	16067.57
264.374	15112.77
264.834	16486.22
265.294	18231.91
265.754	18890.71
266.214	17859.26
266.673	16686.55
267.133	21031.47
267.593	20841.38
268.052	25451.87
268.512	22108.41
268.971	26714.65
269.431	29267.54
269.89	26184.84
270.349	39210.34
270.809	43700.75
271.268	39272.64
271.727	88012.91
272.186	56999.35
272.645	42710.87
273.104	30785.83
273.563	44528.72
274.022	34939.94
274.481	29759.4
274.94	22922.52
275.399	17042.29
275.857	19820.45
276.316	26767.41
276.775	23835.51
277.233	23434.72
277.692	21951.15
278.15	24830.15
278.609	25552.59
279.067	23611.42
279.525	21909
279.984	28293.91
280.442	33973.97
280.9	33481.63
281.358	22031.83
281.816	20511.67
282.274	20092.17
282.732	20747.4
283.19	20840.16
283.648	17966.29
284.106	19128.11
284.564	19437.06
285.021	18038.58
285.479	13436.85
285.937	12216.11
286.394	10732.84
286.852	11049.96
287.309	11607.52
287.767	11240.32
288.224	10703.89
288.682	11746.01
289.139	12909.96
289.596	11804.85
290.053	12247.48
290.511	15445.74
290.968	18725.07
291.425	25384.52
291.882	21147.73
292.339	18423.13
292.796	18234.39
293.252	17136.53
293.709	13620.18
294.166	12195.94
294.623	13456.74
295.079	12906.35
295.536	12971.95
295.992	11790.9
296.449	11657.91
296.905	12108.46
297.362	11615.29
297.818	12207.89
298.274	12689.81
298.731	12904.27
299.187	12745.18
299.643	13669.94
300.099	16545.26
300.555	18123.29
301.011	15105.49
301.467	14576.39
301.923	17005.24
302.379	16584.67
302.835	16268.76
303.291	16261.53
303.746	18497.74
304.202	23378.77
304.658	23487.56
305.113	15752.23
305.569	15451.77
306.024	16447.11
306.479	15597.93
306.935	13175.51
307.39	14357.61
307.845	13274.7
308.301	13347.7
308.756	13005.97
309.211	12546.15
309.666	12876.26
310.121	16032.91
310.576	16221.58
311.031	16105.95
311.486	18462.3
311.94	18424.67
312.395	24659.3
312.85	46320.62
313.305	227529.91
313.759	1181210.24
314.214	85401.7
314.668	67707.35
315.123	56945.45
315.577	20483.82
316.032	18242.45
316.486	22871.17
316.94	18096.27
317.394	12638.09
317.849	9800.55
318.303	9278.33
318.757	8739.17
319.211	9677.11
319.665	8442.06
320.119	8539.46
320.572	12223.66
321.026	11423.01
321.48	9487.57
321.934	10312.71
322.387	10319.05
322.841	11198.63
323.295	10093.15
323.748	11605.54
324.202	11772.71
324.655	14191.27
325.108	19839.76
325.562	14018.99
326.015	16636.45
326.468	12578.1
326.921	14081.72
327.374	13125.95
327.827	13641.15
328.28	15463.96
328.733	10373.14
329.186	9125.38
329.639	8682.46
330.092	7307.87
330.545	6954.66
330.997	7018.11
331.45	7687.57
331.903	9037.86
332.355	15509.79
332.808	15043.93
333.26	12352.53
333.713	13458.36
334.165	13533.81
334.617	18058.1
335.069	14564.85
335.522	26359.94
335.974	29202.92
336.426	26673.35
336.878	18365.09
337.33	9306.33
337.782	9086.12
338.234	11414.14
338.686	13608.26
339.137	16153.11
339.589	15237.54
340.041	11968.95
340.493	10294.42
340.944	10551.85
341.396	11361.22
341.847	9579.11
342.299	11399.88
342.75	13973.16
343.201	12186.15
343.653	14024.43
344.104	17221.31
344.555	13545.21
345.006	21071.67
345.457	16190.59
345.908	12875.81
346.359	12135.27
346.81	9900.88
347.261	10370.78
347.712	10172.76
348.163	10882.16
348.613	11043.02
349.064	10298.51
349.515	9002.34
349.965	9219.98
350.416	11062.43
350.866	12120.01
351.317	13652.7
351.767	22601.03
352.217	28638.94
352.668	23759.2
353.118	21795.48
353.568	20953.48
354.018	16596.02
354.468	17555.83
354.918	12638.85
355.368	11061.31
355.818	15639.62
356.268	45025.36
356.718	188573.8
357.168	46968.13
357.617	23562.89
358.067	26240.1
358.517	24565.58
358.966	28903.65
359.416	32344.75
359.865	34950.09
360.315	41543.73
360.764	19407.4
361.213	10910.15
361.663	10290.5
362.112	12702.33
362.561	20577.28
363.01	15543.35
363.459	13105.85
363.908	14167.77
364.357	12083.34
364.806	20355.12
365.255	14011.42
365.703	12852.72
366.152	12865.18
366.601	10457.27
367.05	8480.41
367.498	7723.37
367.947	8034.12
368.395	8338.5
368.844	7380.79
369.292	8857.57
369.74	6129.83
370.189	9364.57
370.637	10957.19
371.085	9430.16
371.533	11490.5
371.981	11049.51
372.429	10510.73
372.877	10959.2
373.325	9186.46
373.773	9348.68
374.221	8311.23
374.669	10286.72
375.116	8904.25
375.564	8975.83
376.012	10019.47
376.459	8245.15
376.907	9823.8
377.354	11861.58
377.801	11075.21
378.249	12720.94
378.696	16239.25
379.143	19683.59
379.591	20962.93
380.038	35608.41
380.485	25677.95
380.932	27808.8
381.379	25525.32
381.826	18886.74
382.273	13414.28
382.72	11712
383.166	11449.61
383.613	7422.58
384.06	6700.15
384.506	7747.16
384.953	5670.51
385.4	5725.1
385.846	5004.06
386.292	4860.15
386.739	4739
387.185	4672.24
387.631	4670.55
388.078	4537.56
388.524	4848.09
388.97	4475.47
389.416	3748.31
389.862	3986.03
390.308	3769.3
390.754	3832.48
391.2	4152.89
391.645	4255.25
392.091	4104.9
392.537	3975.51
392.983	3972.47
393.428	3934.98
393.874	4206.77
394.319	4237.11
394.765	4036.68
395.21	4148.2
395.655	3888.18
396.101	3644.48
396.546	3298.32
396.991	3313.75
397.436	3076.82
397.881	2977.91
398.326	2811.83
398.771	2678.91
399.216	2335.24
399.661	2098.56
400.106	2102.69
400.551	2163.3
400.995	1948.5
401.44	1930.98
401.885	1820.94
402.329	1845.5
402.774	1768.05
403.218	1723.79
403.663	1660.03
404.107	1711.2
404.551	1731.93
404.995	1587.64
405.44	1530.48
405.884	1554.76
406.328	1503.99
406.772	1501.66
407.216	1370.64
407.66	1326.69
408.104	1253.86
408.547	1174.05
408.991	1139.32
409.435	1096.24
409.879	1084.5
410.322	1070.55
410.766	1036.53
411.209	988.17
411.653	947.2
412.096	930.35
412.54	932.39
412.983	929.58
413.426	936.54
413.869	934.99
414.312	920.15
414.756	886.82
415.199	848.43
415.642	828.74
416.085	833.63
416.527	830.93
416.97	845.15
417.413	803.31
417.856	795.63
418.298	787.07
418.741	780.47
419.184	776.13
419.626	806.58
420.069	808.39
420.511	811.88
420.953	793.68
421.396	787.67
421.838	767.8
422.28	788.69
422.722	793.99
423.164	804.78
423.606	795.58
424.048	796.38
424.49	760.96
424.932	759.77
425.374	748.28
425.816	762.36
426.258	778.05
426.699	788.68
427.141	777.98
427.582	789.28
428.024	784.88
428.465	778.22
428.907	760.65
429.348	752.19
429.789	752.2
430.231	739.89
430.672	752.57
431.113	733.76
431.554	722.82
431.995	705.38
432.436	683.2
432.877	672.16
433.318	665.53
433.759	664.9
434.2	665.05
434.64	658.78
435.081	660.81
435.522	626.36
435.962	605.91
436.403	596.13
436.843	602.65
437.284	589.65
437.724	572.67
438.164	570.92
438.604	557.4
439.045	539.28
439.485	518.71
439.925	508
440.365	495.27
440.805	489.5
441.245	485.81
441.685	471.09
442.125	468.89
442.564	474.26
443.004	465.93
443.444	467.49
443.883	469.25
444.323	466.04
444.762	466.43
445.202	475.11
445.641	486.85
446.081	482.17
446.52	487.58
446.959	486.59
447.398	475.13
447.837	472.38
448.276	464.74
448.716	470.14
449.154	475.41
449.593	468.57
450.032	468.09
450.471	458.77
450.91	460.1
451.349	461.47
451.787	458.73
452.226	468.49
452.664	468.98
453.103	471.25
453.541	471.02
453.98	471.5
454.418	475.17
454.856	469.1
455.295	469.91
455.733	475.38
456.171	477.63
456.609	477.66
457.047	477.03
457.485	485.38
457.923	486.75
458.361	481.25
458.798	483.16
459.236	481.19
459.674	482.63
460.111	484.61
460.549	479.86
460.987	478.09
461.424	477.44
461.862	475.56
462.299	467.46
462.736	466.72
463.173	467.83
463.611	464.84
464.048	464.57
464.485	468.62
464.922	463.73
465.359	460.44
465.796	458.59
466.233	456.18
466.67	452.52
467.106	451.83
467.543	446.61
467.98	439.65
468.416	425.87
468.853	420.82
469.29	408.76
469.726	404.91
470.162	394.5
470.599	384.6
471.035	379.74
471.471	369.9
471.907	367.04
472.344	366.22
472.78	368
473.216	373.07
473.652	369.9
474.088	369.89
474.523	369.5
474.959	374.02
475.395	371.48
475.831	370.16
476.266	372.56
476.702	371.76
477.138	367.06
477.573	366.64
478.008	365.23
478.444	368.15
478.879	372.18
479.314	374.98
479.75	374.73
480.185	376.68
480.62	380.25
481.055	382.9
481.49	386.83
481.925	393.04
482.36	401.93
482.795	413.15
483.229	423.53
483.664	432.18
484.099	432.84
484.534	439.8
484.968	444.49
485.403	445.66
485.837	444.48
486.271	443.57
486.706	444.69
487.14	438.45
487.574	432.38
488.009	428.69
488.443	425.09
488.877	430.34
489.311	432.16
489.745	437.65
490.179	443.01
490.613	453.39
491.046	457.16
491.48	460.48
491.914	461.74
492.348	465.32
492.781	469.2
493.215	471.68
493.648	473.02
494.082	477.79
494.515	479.57
494.948	485.55
495.382	488.43
495.815	493.11
496.248	498.33
496.681	507.9
497.114	517.57
497.547	526.31
497.98	537.28
498.413	544.01
498.846	552.4
499.279	560.41
499.711	564.89
500.144	569.22
500.577	578.63
501.009	588.16
501.442	598.23
501.874	601.21
502.306	604.75
502.739	612.92
503.171	625.23
503.603	629.28
504.036	638.15
504.468	644.98
504.9	655.61
505.332	663.32
505.764	669.39
506.196	676.8
506.627	690.38
507.059	703.03
507.491	711.17
507.923	712.73
508.354	727.3
508.786	737.67
509.217	754
509.649	767.69
510.08	784.32
510.512	800.56
510.943	814.82
511.374	826.32
511.805	843.5
512.237	860.72
512.668	886.99
513.099	910.5
513.53	934.55
513.961	952.59
514.391	979.39
514.822	1007.86
515.253	1038.17
515.684	1059.55
516.114	1084.23
516.545	1103.96
516.975	1126.09
517.406	1142.68
517.836	1145.37
518.267	1151.53
518.697	1168.29
519.127	1173.24
519.558	1180.03
519.988	1183.64
520.418	1193.86
520.848	1209.53
521.278	1217.01
521.708	1248.29
522.138	1259.96
522.567	1286.36
522.997	1307.76
523.427	1320.46
523.857	1335.74
524.286	1344.64
524.716	1357.65
525.145	1372.94
525.575	1382.79
526.004	1395.12
526.433	1375.33
526.863	1375.74
527.292	1369.2
527.721	1375.24
528.15	1380.76
528.579	1381.85
529.008	1391.6
529.437	1410.39
529.866	1422.34
530.295	1436.69
530.724	1448.33
531.152	1470.6
531.581	1483.96
532.01	1497.82
532.438	1504.78
532.867	1517.09
533.295	1531.9
533.723	1537.53
534.152	1536.73
534.58	1536.77
535.008	1523.94
535.436	1526.31
535.865	1533.2
536.293	1544.25
536.721	1557.95
537.149	1579.01
537.576	1580.7
538.004	1591.07
538.432	1597.13
538.86	1595
539.287	1599.91
539.715	1611.13
540.143	1611.64
540.57	1607.21
540.998	1603.47
541.425	1584.47
541.852	1565.56
542.28	1564.21
542.707	1550.91
543.134	1539.29
543.561	1535.48
543.988	1529.83
544.415	1528.75
544.842	1524.91
545.269	1520.42
545.696	1522.81
546.123	1534.49
546.549	1527.6
546.976	1517.72
547.403	1518.34
547.829	1520.71
548.256	1523.02
548.682	1520.34
549.108	1515.58
549.535	1515.44
549.961	1516.35
550.387	1505.56
550.813	1500.72
551.24	1506
551.666	1507.04
552.092	1498.5
552.518	1493.32
552.943	1490.29
553.369	1498.4
553.795	1503.21
554.221	1504.56
554.646	1503.01
555.072	1512.73
555.498	1517.64
555.923	1525.65
556.349	1539.19
556.774	1547.82
557.199	1549.8
557.625	1553.97
558.05	1548.64
558.475	1558.12
558.9	1557.47
559.325	1551.83
559.75	1546.55
560.175	1541.01
560.6	1537.18
561.025	1536.02
561.449	1536.6
561.874	1542.53
562.299	1546.85
562.723	1552.77
563.148	1544.73
563.572	1548.02
563.997	1557.01
564.421	1562.03
564.846	1563.01
565.27	1566.61
565.694	1565.09
566.118	1576.46
566.542	1582.2
566.966	1577.05
567.39	1572.92
567.814	1563.97
568.238	1564.86
568.662	1568.16
569.086	1569.82
569.509	1575.9
569.933	1561.21
570.357	1553.99
570.78	1535.58
571.204	1524.5
571.627	1515.14
572.05	1514.43
572.474	1513.87
572.897	1502.5
573.32	1496.22
573.743	1487.53
574.166	1472.45
574.589	1473.34
575.012	1467.1
575.435	1465.36
575.858	1458.08
576.281	1449.25
576.704	1435.17
577.126	1424.29
577.549	1415.31
577.972	1407.05
578.394	1399.95
578.817	1394.16
579.239	1378.22
579.661	1368.19
580.084	1355.72
580.506	1343.73
580.928	1339.78
581.35	1331.15
581.772	1328
582.194	1316.42
582.616	1306.3
583.038	1294.24
583.46	1285.81
583.882	1283.59
584.303	1286.24
584.725	1282.8
585.147	1286.69
585.568	1296.41
585.99	1306.99
586.411	1313.14
586.833	1327.19
587.254	1328.09
587.675	1339.86
588.096	1348.98
588.518	1344.59
588.939	1330.76
589.36	1329.17
589.781	1319.26
590.202	1296.73
590.623	1289.15
591.043	1286.06
591.464	1274.92
591.885	1272.58
592.305	1267.57
592.726	1256.83
593.147	1257.79
593.567	1253.13
593.987	1246.45
594.408	1241.49
594.828	1238.78
595.248	1234.04
595.669	1219.29
596.089	1213.03
596.509	1207.37
596.929	1195.73
597.349	1195.6
597.769	1187.14
598.189	1181.86
598.608	1183.24
599.028	1185.37
599.448	1185.01
599.867	1174.35
600.287	1170.59
600.706	1166.84
601.126	1158.91
601.545	1157.88
601.965	1156.92
602.384	1152.54
602.803	1155.2
603.222	1151.7
603.641	1145.52
604.061	1142.95
604.48	1139.42
604.898	1146.47
605.317	1150.26
605.736	1151.27
606.155	1149.58
606.574	1141.84
606.992	1145.63
607.411	1141.55
607.829	1132.39
608.248	1128.42
608.666	1125.29
609.085	1124.8
609.503	1117.6
609.921	1112.89
610.339	1114.54
610.758	1112.9
611.176	1109.02
611.594	1101.54
612.012	1097.79
612.43	1101.34
612.847	1106.8
613.265	1107.34
613.683	1109.7
614.101	1109.3
614.518	1104.24
614.936	1095.22
615.353	1082.58
615.771	1079.83
616.188	1078.7
616.606	1075.15
617.023	1068.86
617.44	1057.62
617.857	1050.91
618.274	1043.58
618.691	1038.13
619.108	1030.84
619.525	1024.78
619.942	1029.58
620.359	1031.45
620.776	1027.32
621.192	1024.21
621.609	1021.75
622.026	1025.86
622.442	1030.97
622.859	1033.17
623.275	1026.85
623.691	1030.39
624.108	1040
624.524	1051.42
624.94	1050.31
625.356	1057.99
625.772	1067.87
626.188	1077.2
626.604	1078.36
627.02	1074.31
627.436	1073.07
627.852	1079.3
628.268	1089.78
628.683	1082.52
629.099	1075.93
629.514	1070.85
629.93	1073.81
630.345	1076.5
630.761	1072.47
631.176	1074.83
631.591	1070.51
632.007	1065.99
632.422	1063.51
632.837	1053.47
633.252	1050.91
633.667	1041.5
634.082	1033.83
634.497	1022.89
634.911	1007.38
635.326	1004.15
635.741	989.16
636.155	979.84
636.57	979.11
636.984	978.21
637.399	979.79
637.813	978.14
638.228	975.75
638.642	978.75
639.056	969.57
639.47	968.74
639.884	961.62
640.298	956.51
640.712	954.64
641.126	943.38
641.54	934.31
641.954	927.78
642.368	917.12
642.781	912.56
643.195	897.51
643.609	896.97
644.022	890.46
644.436	885.07
644.849	873.44
645.262	862.89
645.676	862.94
646.089	857.97
646.502	846.11
646.915	841.83
647.328	825.96
647.741	823.7
648.154	812.33
648.567	810.56
648.98	800.57
649.393	800.3
649.805	796.56
650.218	790.17
650.631	779.14
651.043	773.1
651.456	767.41
651.868	767.03
652.28	779.03
652.693	787.87
653.105	790.89
653.517	796.5
653.929	794.69
654.341	798.46
654.753	787.56
655.165	789.35
655.577	786.15
655.989	780.37
656.401	770.5
656.813	742.78
657.224	727.11
657.636	703.58
658.047	688.81
658.459	673.78
658.87	663.34
659.282	653.03
659.693	636.37
660.104	623.84
660.515	611.66
660.926	608.41
661.338	603.11
661.749	595.34
662.159	587.73
662.57	582.64
662.981	577.99
663.392	571.81
663.803	572.19
664.213	568.09
664.624	562.32
665.035	562.06
665.445	551.12
665.855	544.18
666.266	538.05
666.676	534.22
667.086	526.46
667.497	522.97
667.907	517.03
668.317	509.74
668.727	508.29
669.137	507.52
669.547	505.42
669.956	506.28
670.366	506.87
670.776	507.68
671.186	508.71
671.595	510.87
672.005	512.98
672.414	512.44
672.824	511.84
673.233	511.83
673.642	512.68
674.052	515.03
674.461	517.08
674.87	519.42
675.279	517.9
675.688	517.96
676.097	518.22
676.506	517.07
676.915	526.48
677.323	528.2
677.732	528.01
678.141	528.21
678.549	521.04
678.958	520.52
679.366	520.79
679.775	523.73
680.183	534.96
680.592	539.33
681	544.34
681.408	542.81
681.816	550.22
682.224	558.89
682.632	569.82
683.04	593.7
683.448	614.22
683.856	638.94
684.264	667.93
684.671	692.66
685.079	725.78
685.487	761.43
685.894	810.29
686.302	851.6
686.709	886.03
687.116	926.21
687.524	960.84
687.931	992.3
688.338	1020.64
688.745	1042.87
689.152	1069.14
689.559	1104.86
689.966	1140.31
690.373	1157.87
690.78	1189.64
691.187	1238.46
691.593	1276.64
692	1309.5
692.407	1357
692.813	1418.55
693.22	1465.68
693.626	1515.33
694.032	1553.74
694.439	1612.09
694.845	1658.31
695.251	1717.01
695.657	1770.26
696.063	1846.77
696.469	1904.95
696.875	1959.06
697.281	1986.43
697.687	2023.81
698.093	2053.74
698.498	2112.33
698.904	2157.49
699.31	2226.68
699.715	2275.22
700.12	2346.18
700.526	2360.02
700.931	2413.25
701.337	2453.96
701.742	2477.5
702.147	2544.54
702.552	2568.06
702.957	2613.33
703.362	2628.19
703.767	2647.05
704.172	2676.58
704.577	2636.56
704.981	2670.98
705.386	2682.35
705.791	2674.23
706.195	2733.07
706.6	2738.25
707.004	2797.99
707.408	2774.34
707.813	2795.48
708.217	2787.64
708.621	2790.27
709.025	2868.05
709.43	2870.39
709.834	2918.15
710.237	2972.72
710.641	2960.19
711.045	2975
711.449	2970.79
711.853	2993.11
712.256	3023.86
712.66	3051.13
713.064	3110.14
713.467	3143.41
713.87	3229.1
714.274	3262.48
714.677	3345.95
715.08	3471.6
715.484	3604.29
715.887	3763.45
716.29	3915.98
716.693	4077.65
717.096	4263.49
717.499	4360.99
717.901	4376.93
718.304	4396.7
718.707	4415.95
719.109	4333.92
719.512	4308.56
719.915	4202.09
720.317	4154.1
720.719	4186.13
721.122	4163.09
721.524	4124.39
721.926	4094.76
722.328	4169.06
722.731	4159.27
723.133	4181.21
723.535	4331.39
723.937	4346.9
724.338	4386.22
724.74	4418.68
725.142	4387.27
725.544	4386.42
725.945	4411.53
726.347	4403.41
726.748	4397.91
727.15	4409.66
727.551	4380.06
727.952	4356.58
728.354	4331.67
728.755	4329.71
729.156	4295.19
729.557	4267.8
729.958	4168.42
730.359	4118.19
730.76	4103.13
731.161	4056.81
731.562	4037.44
731.962	4035.74
732.363	3984.94
732.763	3935.58
733.164	3963.66
733.564	3911.28
733.965	3836.62
734.365	3811.5
734.766	3833.29
735.166	3804.82
735.566	3762.84
735.966	3742.36
736.366	3738.82
736.766	3692.34
737.166	3716.74
737.566	3683.75
737.966	3664.01
738.365	3695.6
738.765	3690.39
739.165	3633.25
739.564	3610.83
739.964	3644.18
740.363	3607.55
740.763	3604.41
741.162	3596.43
741.561	3570.1
741.96	3533.77
742.36	3547.62
742.759	3549.72
743.158	3579.33
743.557	3588.6
743.955	3620.25
744.354	3585.11
744.753	3628.57
745.152	3597.83
745.55	3637.52
745.949	3632.72
746.348	3633.62
746.746	3647.62
747.144	3618.32
747.543	3599.95
747.941	3636.44
748.339	3580.89
748.737	3576.9
749.136	3570.67
749.534	3620.76
749.932	3600.07
750.33	3617.08
750.727	3660.15
751.125	3639.78
751.523	3625.52
751.921	3661.4
752.318	3638.78
752.716	3685.39
753.113	3694.01
753.511	3710.75
753.908	3710.16
754.305	3698.53
754.703	3746.24
755.1	3790.99
755.497	3838.19
755.894	3984.83
756.291	4120.41
756.688	4370.22
757.085	4706.44
757.482	5178.42
757.878	5697.18
758.275	6164.79
758.672	6803.97
759.068	7323.09
759.465	8069.91
759.861	9026.86
760.258	10140.44
760.654	10713.4
761.05	10628.08
761.447	10136.73
761.843	9443.6
762.239	8722.99
762.635	8392.14
763.031	8078.41
763.427	7631.33
763.822	7157.07
764.218	6689.43
764.614	6078.78
765.01	5672.31
765.405	5408.93
765.801	5210.63
766.196	4952.54
766.592	4809.35
766.987	4570.4
767.382	4408.12
767.778	4338.31
768.173	4238.5
768.568	4184.07
768.963	4089.48
769.358	4100.99
769.753	4065.81
770.148	4003.38
770.542	4001.29
770.937	3976.3
771.332	4046.43
771.726	4061.31
772.121	4017.43
772.515	4062.02
772.91	4049.65
773.304	4103.78
773.699	4053.78
774.093	4094.54
774.487	4134.68
774.881	4166.31
775.275	4162.81
775.669	4130.08
776.063	4162.79
776.457	4189.65
776.851	4130.81
777.245	4124.6
777.638	4150.72
778.032	4239.85
778.425	4211.68
778.819	4246.83
779.212	4218.48
779.606	4189.93
779.999	4204.93
780.392	4193.52
780.786	4253.13
781.179	4269.48
781.572	4301.89
781.965	4312.04
782.358	4264.1
782.751	4306.96
783.143	4266.61
783.536	4320.28
783.929	4350.7
784.322	4438.75
784.714	4462.36
785.107	4460.91
785.499	4516.22
785.891	4500.62
786.284	4482.23
786.676	4594.88
787.068	4582
787.46	4624
787.852	4640.19
788.245	4706.76
788.636	4727.44
789.028	4780.34
789.42	4808.3
789.812	4814.47
790.204	4888.36
790.595	4969.64
790.987	4819.94
791.378	4834.86
791.77	4932.07
792.161	5033.26
792.553	5075.25
792.944	4990.49
793.335	4934.95
793.726	4994.15
794.117	5065.64
794.508	5172.26
794.899	5147.17
795.29	5256.05
795.681	5303.28
796.072	5196.71
796.463	5068.77
796.853	5074.96
797.244	5198.6
797.634	5227.55
798.025	5228.6
798.415	5236.8
798.806	5308.64
799.196	5375.93
799.586	5417.92
799.976	5389.22
800.366	5567.99
800.756	5742.7
801.146	5712.83
801.536	5733.56
801.926	5791.78
802.316	5813.24
802.706	5863.61
803.095	5767.65
803.485	5846.58
803.874	5872.2
804.264	6070.8
804.653	6049.11
805.043	6160.56
805.432	6249.79
805.821	6252.22
806.21	6269.92
806.599	6362.13
806.988	6403.51
807.377	6487.37
807.766	6586.65
808.155	6805.92
808.544	6603.41
808.933	6617.46
809.321	6605.52
809.71	6830.74
810.098	6953.14
810.487	7304.41
810.875	7668.66
811.264	7682.43
811.652	7906.81
812.04	8020.58
812.428	8148.82
812.816	8733.75
813.204	9050.89
813.592	9468.59
813.98	9731.43
814.368	9668.85
814.756	10042.46
815.144	9983.04
815.531	10341.96
815.919	10277.59
816.306	10511.97
816.694	10275.72
817.081	10312.58
817.469	10576.62
817.856	10573.5
818.243	10775.51
818.63	11065.49
819.017	10745.4
819.404	10794.45
819.791	11085.08
820.178	11560.05
820.565	11753.8
820.952	12470.33
821.339	12095.79
821.725	12244.17
822.112	11678.07
822.498	11644.57
822.885	11746.46
823.271	11669.93
823.657	11987.15
824.044	11993.94
824.43	12044.64
824.816	12022.94
825.202	11692.21
825.588	12478.91
825.974	12490.46
826.36	12887.91
826.746	12916.78
827.132	13188.89
827.517	13171.74
827.903	12562.75
828.289	12600.42
828.674	12007.57
829.06	11924.42
829.445	12223.45
829.83	12492.66
830.216	12854.47
830.601	13130.66
830.986	12823.04
831.371	12715.7
831.756	13138.24
832.141	12816.37
832.526	12804.54
832.911	13017.14
833.295	12916.82
833.68	13271.74
834.065	12792.27
834.449	12088.73
834.834	12029.42
835.218	12017.89
835.603	12274.02
835.987	12110.06
836.371	12739.28
836.755	12654.61
837.139	12954.63
837.524	13141.92
837.908	13001.76
838.291	13048.43
838.675	13099.38
839.059	13255.45
839.443	13249.2
839.827	13068.94
840.21	13424.31
840.594	13312.54
840.977	13475.94
841.361	13463.35
841.744	13741.11
842.127	13620.6
842.511	13806.99
842.894	14257.35
843.277	14543.07
843.66	14942.75
844.043	15010.02
844.426	14402.24
844.809	14155.28
845.191	14170.84
845.574	13817.35
845.957	13543.29
846.339	13457.89
846.722	13051
847.104	13099.58
847.487	12963.78
847.869	12979.54
848.252	13187.45
848.634	13440.72
849.016	13636.97
849.398	13729.2
849.78	14373.71
850.162	14369.23
850.544	14682.91
850.926	15158.31
851.307	15090.81
851.689	15303.49
852.071	15633.34
852.452	15884.07
852.834	15870.02
853.215	16186.62
853.597	16300.95
853.978	16516.79
854.359	16872.4
854.741	16120.77
855.122	16045.3
855.503	15831.32
855.884	15934.62
856.265	15900.66
856.646	15976.72
857.026	15671.77
857.407	15623.41
857.788	15739.91
858.169	15955.92
858.549	15311
858.93	15782.31
859.31	15827.61
859.69	15991.84
860.071	15692.15
860.451	15522.23
860.831	14963.46
861.211	15847.27
861.591	16251.08
861.971	16236.45
862.351	16389.01
862.731	16692.12
863.111	16898.17
863.491	17153.31
863.87	17817.21
864.25	18089.72
864.629	17789.99
865.009	18179.82
865.388	18822.85
865.768	20178.49
866.147	20103.89
866.526	18998.49
866.905	19224.55
867.284	20298.54
867.663	19274.71
868.042	18475.84
868.421	18403.86
868.8	18707.81
869.179	18904.81
869.558	17807.94
869.936	16414.68
870.315	16707.98
870.693	17120.65
871.072	18457.08
871.45	17583.53
871.828	17796.72
872.207	18705.42
872.585	18424.3
872.963	18919.08
873.341	18265.67
873.719	18056.51
874.097	17835.81
874.475	18173.99
874.853	18576.11
875.23	17809.21
875.608	18560.23
875.986	20084.36
876.363	19206.95
876.741	19799.46
877.118	19308.45
877.495	20256.15
877.873	20587.8
878.25	21668.05
878.627	20781.44
879.004	21078.32
879.381	20962.43
879.758	20403.87
880.135	18997.92
880.512	20085.68
880.889	19538.17
881.265	19336.77
881.642	19164.5
882.019	19487.32
882.395	19092.33
882.772	19853.38
883.148	18985.61
883.524	18922.18
883.901	18815.67
884.277	19083.27
884.653	18955.11
885.029	19511.73
885.405	21616.57
885.781	21452.65
886.157	20558.85
886.532	20804.62
886.908	20788.21
887.284	23113.95
887.659	23863.06
888.035	24603.33
888.411	25255.28
888.786	25603.23
889.161	26486.17
889.537	25997.59
889.912	26827.12
890.287	26810.35
890.662	27500.78
891.037	27005.17
891.412	25177.88
891.787	24913.52
892.162	24034.1
892.536	24580.25
892.911	23647.66
893.286	23135.6
893.66	22188.05
894.035	22752.15
894.409	24765.71
894.784	23758.72
895.158	24146.25
895.532	25577.62
895.906	26270.01
896.281	26891.24
896.655	26461.62
897.029	30230.01
897.402	31495.26
897.776	35051.91
898.15	34921.43
898.524	34538.38
898.898	35001.01
899.271	39173.49
899.645	33930.15
900.018	32609.14
900.392	33817.99
900.765	34092.68
901.138	31556.69
901.511	31059.22
901.884	28525.59
902.258	26312.95
902.631	27188.6
903.003	31289.2
903.376	28243.82
903.749	31673.95
904.122	33890.28
904.495	37314.59
904.867	37788.57
905.24	32802.99
905.612	30549.77
905.985	31235.85
906.357	32656.08
906.729	31188.97
907.102	26652.02
907.474	25637.5
907.846	25814.54
908.218	25491.83
908.59	22543.44
908.962	21802.86
909.334	23482.43
909.705	24683.65
910.077	23989
910.449	25000.9
910.82	25722.44
911.192	28316.48
911.563	29442.34
911.935	31499.37
912.306	31541.76
912.677	32567.19
913.048	32286.12
913.419	35037.8
913.79	35222.25
914.161	37756.83
914.532	36102.68
914.903	33151.67
915.274	31485.38
915.645	31020.68
916.015	27307.82
916.386	26045.87
916.756	27735.54
917.127	28588.23
917.497	25550.17
917.868	27837.12
918.238	26463.65
918.608	27226.73
918.978	27786.94
919.348	29424.08
919.718	30419.78
920.088	29307.74
920.458	30456.27
920.828	32037.69
921.198	30394.8
921.567	32468.78
921.937	25140.96
922.306	25384.69
922.676	27370.94
923.045	22846.28
923.415	21730.83
923.784	19777.53
924.153	20338.73
924.522	20323.94
924.891	19104.33
925.26	20467.32
925.629	19989.03
925.998	22972.05
926.367	22423.3
926.736	21375.23
927.104	25451.9
927.473	27338.13
927.842	33025.57
928.21	32699.39
928.578	34358.15
928.947	32502.15
929.315	32695.98
929.683	38364.78
930.051	38672.49
930.42	44906.7
930.788	38342.63
931.156	38073.15
931.523	35685.63
931.891	32967.41
932.259	31675.16
932.627	36713.56
932.994	51948.15
933.362	42926.84
933.729	37251.62
934.097	35639.93
934.464	30161.37
934.831	34786.63
935.199	34278.31
935.566	33239.16
935.933	33640.04
936.3	40735.59
936.667	31702.52
937.034	28629.92
937.401	28304.94
937.767	24448.61
938.134	21800.83
938.501	30751.57
938.867	32802.29
939.234	55519.89
939.6	47388.52
939.967	52341.25
940.333	34992.25
940.699	29770.03
941.065	23826.62
941.431	31272.01
941.798	30166.43
942.163	39576.19
942.529	24710.15
942.895	22727.72
943.261	14699.24
943.627	19303.42
943.992	16900.55
944.358	16957.81
944.723	17058.71
945.089	16630.4
945.454	15372.96
945.82	16422.62
946.185	15776.27
946.55	18268.39
946.915	16401.83
947.28	19233.26
947.645	16929.06
948.01	15635.07
948.375	16310.92
948.74	19545.67
949.104	22835.47
949.469	32952.42
949.834	58248.95
950.198	55355.05
950.562	33190.48
950.927	27660.1
951.291	33322
951.655	28399.38
952.02	26632.78
952.384	20161.23
952.748	17553.7
953.112	17132.54
953.476	14907.11
953.839	13767.68
954.203	13611.21
954.567	17040.45
954.931	26831.77
955.294	22934.17
955.658	23048.41
956.021	39208.48
956.385	66403.47
956.748	97921.29
957.111	151591.94
957.474	170102.82
957.837	191264.04
958.2	144554.22
958.563	51956.33
958.926	35122.61
959.289	53316.61
959.652	59571.04
960.015	44685.76
960.377	64133.34
960.74	73150.52
961.102	126353.68
961.465	135556.98
961.827	72816.54
962.189	139674.89
962.552	96814.66
962.914	77583.93
963.276	50299.36
963.638	41568.08
964	41170.2
964.362	27858.29
964.724	26946.61
965.085	19215.84
965.447	15770.95
965.809	17964.16
966.17	18022.95
966.532	19530.92
966.893	17936.38
967.255	16329.14
967.616	19279.32
967.977	15446.51
968.338	16833.13
968.699	13836.25
969.061	13824.12
969.421	13915.77
969.782	15606.17
970.143	13168.94
970.504	13648.99
970.865	15517.99
971.225	15884.98
971.586	15544.43
971.946	22164.01
972.307	19238.59
972.667	25119.25
973.027	25871.2
973.388	31335.84
973.748	21335.85
974.108	23254.8
974.468	31404.14
974.828	24217.9
975.188	18616.97
975.548	17101.68
975.907	14354.28
976.267	16131.64
976.627	13590.39
976.986	14081.58
977.346	13441.23
977.705	12925.25
978.064	11772.09
978.424	9817.47
978.783	10141.26
979.142	11579.31
979.501	11071.33
979.86	11714.06
980.219	11285.53
980.578	14543.33
980.937	16317.72
981.296	14544.88
981.654	14979.55
982.013	23295.12
982.371	30218.9
982.73	28220.48
983.088	31962.07
983.447	34157.54
983.805	48818.35
984.163	102130.03
984.521	113219.56
984.879	165985.56
985.237	-269978.47
985.595	260051.63
985.953	64578.14
986.311	37177.34
986.669	21629.07
987.026	18660.32
987.384	25087.12
987.741	25916.35
988.099	18529.92
988.456	14763.57
988.814	13829.72
989.171	12018.65
989.528	11860.88
989.885	12523.63
990.242	9936.82
990.599	12349.27
990.956	10098.42
991.313	7069.36
991.67	5807.37
992.027	6158.79
992.383	5470.32
992.74	4791.44
993.096	5030.88
993.453	5201.67
993.809	5394.82
994.165	7188.87
994.522	6622.9
994.878	7311.54
995.234	9184.19
995.59	9052.2
995.946	8551.13
996.302	9778.67
996.658	11300.11
997.013	12454.22
997.369	14798.69
997.725	18965.61
998.08	12284.28
998.436	18835.99
998.791	25963.32
999.147	25909.2
999.502	28294.41
999.857	20536.39
1000.212	33486.4
1000.567	47720.08
1000.922	27569.05
1001.277	17543.68
1001.632	13038.57
1001.987	16841.76
1002.342	12093
1002.696	9666.14
1003.051	7722.54
1003.406	9348.85
1003.76	9331.86
1004.114	9202.4
1004.469	7746.59
1004.823	6413.87
1005.177	6907.91
1005.531	5471.63
1005.885	4842.43
1006.239	5471.36
1006.593	6880.44
1006.947	9187.18
1007.301	6883.89
1007.655	7488.55
1008.008	5501.23
1008.362	6187.77
1008.715	8793.12
1009.069	7963.32
1009.422	11966.21
1009.776	23989.93
1010.129	15931.06
1010.482	13273.87
1010.835	11225.12
1011.188	23363.16
1011.541	22036.84
1011.894	-134403.46
1012.247	395422.3
1012.6	27033.99
1012.952	17126.63
1013.305	8817.58
1013.657	6359.45
1014.01	6045.91
1014.362	4997.05
1014.715	4461.77
1015.067	3889.38
1015.419	3799.27
1015.771	3383.94
1016.123	3017.59
1016.475	3087.24
1016.827	3289.11
1017.179	3549.92
1017.531	3579.08
1017.883	3622.2
1018.234	3508.83
1018.586	4424.96
1018.938	4714.15
1019.289	6489.16
1019.64	7411.25
1019.992	6883.98
1020.343	6321.41
1020.694	5021.81
1021.045	4437.66
1021.396	5072.77
1021.747	5464.2
1022.098	6523.23
1022.449	4713.83
1022.8	4365.6
1023.151	3046.61
1023.501	2694.55
1023.852	2933.47
1024.202	3058.51
1024.553	3344.58
1024.903	3288.73
1025.253	2813.67
1025.604	2533.85
1025.954	3131.36
1026.304	3820.33
1026.654	4418.9
1027.004	6495.57
1027.354	10518.61
1027.703	9875.91
1028.053	12856.43
1028.403	18898.85
1028.753	26941.19
1029.102	36372.87
1029.452	185550.04
1029.801	7995.46
1030.15	5142.37
1030.499	4375.6
897.758	2837.5
901.051	2797.69
904.343	2833.34
907.636	2832.36
910.928	2899.26
914.22	2806.44
917.511	2815.6
920.803	2885.55
924.094	2909.21
927.384	2878.71
930.675	2847.54
933.965	2794.56
937.255	2799.53
940.544	2768.21
943.834	2684.96
947.123	2632.31
950.411	2730.63
953.7	2701.27
956.988	2662.17
960.276	2606.26
963.563	2698.88
966.851	2687.62
970.138	2751.57
973.424	2740.96
976.711	2689.22
979.997	2850.71
983.283	2879.85
986.568	2774.86
989.853	2800.48
993.138	2827.7
996.423	2910.74
999.708	2836.89
1002.992	2918.07
1006.275	2725.82
1009.559	2788.43
1012.842	2909.11
1016.125	2834.88
1019.408	2814.29
1022.69	2909.91
1025.972	2924.71
1029.254	2898.77
1032.536	2818.81
1035.817	2853.81
1039.098	2783.01
1042.379	2961.56
1045.659	2947.91
1048.939	2872.6
1052.219	2898.29
1055.498	2916.72
1058.778	2898.9
1062.057	2887.24
1065.335	2905.72
1068.614	2929.36
1071.892	2906.2
1075.17	2989.9
1078.447	2972.88
1081.724	2962.86
1085.001	3006.57
1088.278	2977.21
1091.554	2991.65
1094.83	2989.73
1098.106	3014.01
1101.382	3064.81
1104.657	3062.22
1107.932	3057.34
1111.206	3017.5
1114.481	2974.06
1117.755	2977.55
1121.029	2951.29
1124.302	3005.61
1127.575	2951.07
1130.848	2935.12
1134.121	2890.1
1137.393	2834.94
1140.665	2908.04
1143.937	2878.63
1147.208	2843.59
1150.48	2880.22
1153.75	2864.82
1157.021	2904.35
1160.291	2869.66
1163.561	2913.65
1166.831	2911.79
1170.101	2944.95
1173.37	2924.42
1176.639	2861.92
1179.907	2931.88
1183.176	2930.05
1186.444	2940.95
1189.711	2967.84
1192.979	2976.94
1196.246	2935.8
1199.513	2951.23
1202.78	2945.77
1206.046	2956.1
1209.312	2979.1
1212.578	3009.82
1215.843	2951.91
1219.108	2929.88
1222.373	2951.46
1225.638	2912.88
1228.902	2894.19
1232.166	2862.22
1235.43	2845.08
1238.693	2866.56
1241.956	2868.61
1245.219	2904.94
1248.482	2900.35
1251.744	2894.38
1255.006	3053.01
1258.268	3012.89
1261.529	2952.3
1264.79	2962.45
1268.051	3070.6
1271.312	3086.81
1274.572	3046.13
1277.832	3034.82
1281.092	3028.72
1284.351	2993.36
1287.61	2969.73
1290.869	2878.81
1294.128	2843.71
1297.386	2950.88
1300.644	2937.62
1303.902	2947.17
1307.159	2803.4
1310.416	2860.48
1313.673	2883.22
1316.93	2864.92
1320.186	2916.65
1323.442	2963.41
1326.697	2945.03
1329.953	2944.91
1333.208	2960.44
1336.463	2940.51
1339.717	2872.99
1342.972	3018.98
1346.226	2998.47
1349.479	2923.87
1352.733	2890.1
1355.986	2921.24
1359.238	2896.89
1362.491	2900.13
1365.743	2904.62
1368.995	2902.1
1372.247	2918.37
1375.498	2942.88
1378.749	2949.66
1382	2906.13
1385.251	2966.39
1388.501	2932.78
1391.751	2909.06
1395	2882.23
1398.25	2917.67
1401.499	2919.7
1404.748	2839.82
1407.996	2833.75
1411.244	2818.42
1414.492	2794.74
1417.74	2774.2
1420.987	2786.76
1424.234	2840.9
1427.481	2828.64
1430.728	2887.37
1433.974	2862.26
1437.22	2879.66
1440.465	2883.44
1443.711	2834.87
1446.956	2872.93
1450.201	2867.16
1453.445	2910.15
1456.689	2885.93
1459.933	2898.64
1463.177	2928
1466.42	2899.65
1469.663	2877.67
1472.906	2863.08
1476.148	2957.02
1479.391	2898.73
1482.633	2875.11
1485.874	2882.1
1489.115	2861.14
1492.356	2870.71
1495.597	2847.08
1498.838	2851.27
1502.078	2814.52
1505.318	2756.93
1508.557	2804.5
1511.797	2761.83
1515.036	2855.38
1518.274	2847.61
1521.513	2821.94
1524.751	2848.25
1527.989	2858
1531.227	2866.37
1534.464	2853.61
1537.701	2884.08
1540.938	2904.53
1544.174	2860.72
1547.41	2862.66
1550.646	2903.15
1553.882	2929.78
1557.117	2987.03
1560.352	3002.56
1563.587	2959.96
1566.821	2918.51
1570.055	2959.9
1573.289	2925.54
1576.523	3006.79
1579.756	3010.19
1582.989	3027.61
1586.222	2986.55
1589.454	3029.07
1592.686	2997.3
1595.918	3021.83
1599.15	3003.88
1602.381	3091.8
1605.612	3036.59
1608.843	3136.42
1612.073	3045.57
1615.303	3026.64
1618.533	3015.28
1621.762	3022.27
1624.992	3012.27
1628.221	2992.87
1631.449	2978.13
1634.678	3043.46
1637.906	2994.78
1641.134	3038.28
1644.361	2987.7
1647.588	2979.42
1650.815	2993.74
1654.042	2977.48
1657.269	3008.62
1660.495	2952.92
1663.72	2957.26
1666.946	2922.04
1670.171	2855.54
1673.396	2829.83
1676.621	2821.35
1679.845	2852.9
1683.069	2874.65
1686.293	2925.76
1689.517	2887.17
1692.74	2805.91
1695.963	2842.41
1699.185	2874.08
1702.408	2849.74
1705.63	2897.33
1708.852	2907.64
1712.073	2877.32
1715.294	2854.31
1718.515	2924.09
1721.736	2862.86
1724.956	2867.04
1728.176	2895.71
1731.396	2916.27
1734.616	2908.39
1737.835	2931.93
1741.054	2912.24
1744.272	2903.46
1747.491	2934.76
1750.709	2998.78
1753.927	2885.07
1757.144	2939.23
1760.361	2972.2
1763.578	2973.39
1766.795	2909.58
1770.011	2921.51
1773.227	2968.43
1776.443	3003.66
1779.658	3048.22
1782.874	2993.65
1786.089	2964.24
1789.303	2968.45
1792.518	2977.68
1795.732	2966.4
1798.945	2971.42
1802.159	3025.12
1805.372	2913.78
1808.585	2894.46
1811.797	2892.81
1815.01	2954.85
1818.222	2951.28
1821.434	2902.95
1824.645	2973.13
1827.856	2947.36
1831.067	2983.2
1834.278	2950.51
1837.488	2932.94
1840.698	3091.98
1843.908	3009.29
1847.117	2972.58
1850.326	2837.99
1853.535	2958.28
1856.744	3009.19
1859.952	2916.12
1863.16	2915.04
1866.368	2942.26
1869.575	3040.82
1872.782	2929.15
1875.989	2870.14
1879.196	2970.07
1882.402	2962.54
1885.608	3008.69
1888.814	2895.66
1892.019	2784.87
1895.224	2837.14
1898.429	2825.97
1901.634	2801.83
1904.838	2783.91
1908.042	2829.38
1911.246	2836.17
1914.449	2753.72
1917.652	2758.68
1920.855	2740.78
1924.058	2799.87
1927.26	2835.88
1930.462	2862.97
1933.664	2886.94
1936.865	2818.99
1940.066	2819.58
1943.267	2769.9
1946.467	2786.79
1949.668	2817.95
1952.868	2884.83
1956.067	2856.72
1959.267	2783.13
1962.466	2811.5
1965.665	2800.82
1968.863	2796.04
1972.061	2816.84
1975.259	2819.73
1978.457	2900.82
1981.654	2855.71
1984.852	2854.98
1988.048	2779.49
1991.245	2786.87
1994.441	2872.08
1997.637	2868.01
2000.833	2852.38
2004.028	2891.31
2007.223	2942.03
2010.418	2915.75
2013.613	2882.46
2016.807	2844.3
2020.001	2856.36
2023.194	2906.71
2026.388	2885.13
2029.581	2828.77
2032.774	2873.33
2035.966	2872.44
2039.158	2799.55
2042.35	2831
2045.542	2758.57
2048.733	2865.39
2051.924	2899.73
2055.115	2931.1
2058.306	2867.39
2061.496	2924.28
2064.686	2998.35
2067.875	2911.52
2071.065	2932.26
2074.254	2964.87
2077.442	2916.7
2080.631	3007.54
2083.819	2882.09
2087.007	2861.22
2090.195	2826.44
2093.382	2870.89
2096.569	2849.52
2099.756	2796.48
2102.942	2814.82
2106.128	2816.67
2109.314	2807.15
2112.5	2759.7
2115.685	2744.37
2118.87	2755.41
2122.055	2819.14
2125.239	2781.75
2128.424	2746.77
2131.608	2867.89
2134.791	2846.45
2137.974	2917.46
2141.157	2899.59
2144.34	2843.22
2147.523	2867.77
2150.705	2872.64
2153.887	2857.15
2157.068	2800.25
2160.25	2811.77
2163.431	2855.35
2166.611	2791.83
2169.792	2810.27
2172.972	2692.43
2176.152	2782.71
2179.331	2822.33
2182.511	2799.63
2185.69	2832.35
2188.868	2820.38
2192.047	2885.43
2195.225	2863.59
2198.403	2816.26
2201.58	2808.69
2204.758	2808.5
2207.935	2895.92
2211.111	2774.07
2214.288	2755.27
2217.464	2797.82
2220.64	2772.23
2223.815	2834.95
2226.991	2749.77
2230.166	2771.19
2233.34	2793.7
2236.515	2825.38
2239.689	2903.5
2242.863	2844.25
2246.036	2899.81
2249.209	2907.9
2252.382	2947.99
2255.555	2927.46
2258.727	2857.48
2261.9	2904.12
2265.071	2896.25
2268.243	2902.79
2271.414	2825.93
2274.585	2774.95
2277.756	2846.32
2280.926	2804.86
2284.096	2849.54
2287.266	2747.64
2290.436	2807.73
2293.605	2839.38
2296.774	2865.64
2299.942	2894.74
2303.111	2911.81
2306.279	2958.89
2309.447	2944.39
2312.614	2922.43
2315.781	2941.14
2318.948	2904.31
2322.115	2944.2
2325.281	2844.28
2328.447	2869.54
2331.613	2847.88
2334.779	2811.94
2337.944	2818.16
2341.109	2814.97
2344.274	2797.25
2347.438	2759.04
2350.602	2787.44
2353.766	2806.61
2356.929	2788.35
2360.092	2838.08
2363.255	2782.65
2366.418	2700.42
2369.58	2832.28
2372.742	2584.64
2375.904	2608.82
2379.066	2582.06
2382.227	2622.84
2385.388	2583.41
2388.548	2501.41
2391.709	2563.3
2394.869	2536.96
2398.029	2654.09
2401.188	2676
2404.347	2596.69
2407.506	2761.85
2410.665	2786.1
2413.823	2801.11
2416.981	2749.38
2420.139	2785.95
2423.296	2839.08
2426.453	2811.34
2429.61	2838.31
2432.767	2757.43
2435.923	2792.19
2439.079	2741.91
2442.235	2799.19
2445.391	2719.89
2448.546	2741.53
2451.701	2799.71
2454.855	2760.16
2458.009	2825.21
2461.163	2836.81
2464.317	2783.28
2467.471	2821.52
2470.624	2868.2
2473.777	2852.95
2476.929	2864.75
2480.082	2890.26
2483.234	2851.84
2486.385	2798.93
2489.537	2791.67
2492.688	2738.85
2495.839	2752.96
2498.989	2768.17
2502.14	2749.3
2505.29	2724.76
2508.439	2754.67
2511.589	2669.15
2514.738	2688.96
2517.887	2723.11
2521.035	2793.21
2524.183	2784.9
2527.331	2765.29
2530.479	2732.24
2533.627	2744.34
