Data from C_3_DEC_OH_4N_Splice17_13-33-56-405.txt Node
Date: Sat Mar 14 13:33:56 EDT 2020
User: sa697716
Spectrometer: FLMS03696
Trigger mode: 0
Integration Time (sec): 3.180400E-1
Scans to average: 20
Electric dark correction enabled: true
Nonlinearity correction enabled: true
Boxcar width: 5
XAxis mode: Wavelengths
Number of Pixels in Spectrum: 2048
>>>>>Begin Spectral Data<<<<<
187.83	-373545.05
188.298	2798.99
188.766	1498.9
189.233	1351.94
189.701	1897.41
190.169	2596.41
190.636	981.2
191.104	908.57
191.571	164.16
192.039	-69.67
192.506	-37.81
192.974	624.97
193.441	-912.47
193.908	-230.93
194.375	-38.77
194.842	56.27
195.31	142.75
195.777	182.09
196.244	474.52
196.711	502.33
197.177	627.11
197.644	891.53
198.111	1542.58
198.578	2153.83
199.045	1722.63
199.511	2798.14
199.978	3234.13
200.445	2756.41
200.911	3051.1
201.378	3399.35
201.844	3076.64
202.31	5284.22
202.777	5496.25
203.243	3074.76
203.709	2926.63
204.176	3490.19
204.642	2891.95
205.108	2715.32
205.574	2212.79
206.04	2018.44
206.506	1914.36
206.972	1827.33
207.438	1777.29
207.903	2036.19
208.369	1797.14
208.835	1815.86
209.301	1933.64
209.766	2017.13
210.232	2033.64
210.697	2566.2
211.163	3257.85
211.628	5003.65
212.094	4277.04
212.559	5377.52
213.024	3417.54
213.49	4225.85
213.955	4202.28
214.42	4171.53
214.885	3921.42
215.35	3824.47
215.815	3727.18
216.28	4046.94
216.745	3420.3
217.21	3880.15
217.675	3775.63
218.14	4513.41
218.604	5408.62
219.069	6580.82
219.534	7275.89
219.998	8936.01
220.463	11342.5
220.927	14641.7
221.392	14201.23
221.856	14718.08
222.32	19015.55
222.785	23829.57
223.249	30476.35
223.713	34395.46
224.177	34689.76
224.642	44967.69
225.106	55738.26
225.57	61269.38
226.034	45647.34
226.497	69818.58
226.961	63208.02
227.425	73784.92
227.889	82244.66
228.353	82486.32
228.816	170865.51
229.28	163664.1
229.744	138315.43
230.207	84017.3
230.671	82748.14
231.134	137447.54
231.597	158382.18
232.061	158691.58
232.524	155016.03
232.987	106734.43
233.45	96087.23
233.914	86224.17
234.377	88570.8
234.84	81126.33
235.303	95760.22
235.766	106875.81
236.229	110435.73
236.691	69676.08
237.154	78296.6
237.617	58829.11
238.08	60304.65
238.542	70596.2
239.005	50417.4
239.468	49964.48
239.93	46996.16
240.393	42654.46
240.855	37405.23
241.317	38295.04
241.78	46597.44
242.242	48168
242.704	51942.44
243.166	45192.9
243.629	40937.69
244.091	47162.48
244.553	51683.07
245.015	55590.45
245.477	71957
245.939	105534.47
246.4	111983.82
246.862	108834.47
247.324	102521.85
247.786	114876.2
248.247	150714.43
248.709	155993.08
249.17	116630.08
249.632	109831.04
250.093	127197.73
250.555	109885.75
251.016	66971.26
251.477	63494.32
251.939	68511.54
252.4	71910.24
252.861	85523.85
253.322	79435.5
253.783	94566.87
254.244	122765.02
254.705	96851.36
255.166	86188.45
255.627	84865.48
256.088	119684.6
256.549	127189.88
257.009	109604.19
257.47	133046.06
257.931	108445.27
258.391	81358.32
258.852	83924.32
259.312	88137.64
259.773	109044.85
260.233	92158.33
260.694	77770.6
261.154	88360.85
261.614	70937.48
262.074	63532.23
262.534	66035.46
262.994	62280.74
263.455	83152.28
263.915	70118.95
264.374	66112.51
264.834	72265.56
265.294	80280.46
265.754	83318.15
266.214	79068.18
266.673	74254.49
267.133	93904.57
267.593	93442.86
268.052	114579.52
268.512	99843.42
268.971	120447.5
269.431	132247.68
269.89	118538.79
270.349	177897.94
270.809	198479.07
271.268	178494.63
271.727	400773.81
272.186	259650.92
272.645	194810.74
273.104	140696.36
273.563	203744.08
274.022	160461.59
274.481	136423.69
274.94	105130.39
275.399	78232.71
275.857	91175.47
276.316	123371.25
276.775	109775.97
277.233	108082.97
277.692	101061.26
278.15	114214.73
278.609	117341.01
279.067	108592.85
279.525	100831.36
279.984	130228.66
280.442	156264.28
280.9	153837.22
281.358	101177.4
281.816	94284.92
282.274	92338.57
282.732	95527.26
283.19	96028.13
283.648	82943.2
284.106	88340.87
284.564	89868.4
285.021	83299.61
285.479	62091.92
285.937	56520.91
286.394	49515.15
286.852	50967.22
287.309	53595.48
287.767	51716.88
288.224	49198.18
288.682	54065.49
289.139	59331.98
289.596	54359.69
290.053	56617.35
290.511	71589.99
290.968	86931.45
291.425	118381.1
291.882	98533.31
292.339	85800.16
292.796	85323.49
293.252	80528.42
293.709	63923.45
294.166	57377.21
294.623	63464.4
295.079	60933.11
295.536	61212.54
295.992	55588.83
296.449	54946.84
296.905	57143.14
297.362	54769.92
297.818	57635.1
298.274	59762.1
298.731	60994.31
299.187	60420.16
299.643	64909.93
300.099	78518.15
300.555	86163.38
301.011	72016.28
301.467	69301.36
301.923	81259.42
302.379	79391.93
302.835	77992.49
303.291	78091.78
303.746	88936.44
304.202	112312.29
304.658	112834.38
305.113	75906.57
305.569	74362.63
306.024	79355.9
306.479	75720.53
306.935	63761.55
307.39	69689.29
307.845	64370.81
308.301	64703.24
308.756	63044.09
309.211	60716.65
309.666	62167.75
310.121	77047.89
310.576	78316.21
311.031	77723.66
311.486	89139.35
311.94	89160.59
312.395	119284.37
312.85	224263.32
313.305	1104640.03
313.759	5701877.81
314.214	412961.78
314.668	326929.16
315.123	274856.99
315.577	98351.84
316.032	87394.69
316.486	109433.77
316.94	86212.56
317.394	59981.54
317.849	46620.16
318.303	44162.27
318.757	41708.87
319.211	46174.29
319.665	40494.37
320.119	41038.5
320.572	59005.02
321.026	55131.99
321.48	45899.74
321.934	50164.47
322.387	50307.23
322.841	54294.2
323.295	48670.44
323.748	56211
324.202	56953.08
324.655	68353.52
325.108	95312.8
325.562	67291.8
326.015	80074.21
326.468	60562.92
326.921	67676.56
327.374	63068.38
327.827	65674.78
328.28	74430.05
328.733	49791.78
329.186	43836.13
329.639	41766.7
330.092	35253.36
330.545	33524.71
330.997	33784.43
331.45	36813.66
331.903	43091.66
332.355	74240.66
332.808	72157.08
333.26	59552.86
333.713	64589.77
334.165	65026.36
334.617	86823.29
335.069	70276.13
335.522	127171.9
335.974	140673.67
336.426	128696.07
336.878	89311.45
337.33	45212.83
337.782	44126.12
338.234	55202.26
338.686	66109.41
339.137	78394.51
339.589	73849.26
340.041	57813.38
340.493	49729.49
340.944	50973.82
341.396	54919.75
341.847	46126.29
342.299	54420.49
342.75	66405.65
343.201	58190.01
343.653	67007.11
344.104	82547.75
344.555	65093.9
345.006	101658.66
345.457	77736.06
345.908	61907.58
346.359	58284.97
346.81	47535.63
347.261	50225.83
347.712	49583.74
348.163	53226.72
348.613	53827.18
349.064	50264.21
349.515	44009.36
349.965	45120.21
350.416	54487.24
350.866	59828.63
351.317	67754.11
351.767	112238.94
352.217	141816
352.668	117711.27
353.118	107716.55
353.568	104105.43
354.018	82142.72
354.468	86625.95
354.918	62103.66
355.368	54308.56
355.818	76720.67
356.268	220883.16
356.718	923971.07
357.168	229844.54
357.617	115409.95
358.067	128685.18
358.517	120578.17
358.966	141524.7
359.416	158589.16
359.865	171723.68
360.315	204806.63
360.764	95610.13
361.213	53545.88
361.663	50835.12
362.112	62837.72
362.561	101543.7
363.01	76508.09
363.459	64453.26
363.908	69844.11
364.357	59272.68
364.806	100064.29
365.255	68756.85
365.703	62924.25
366.152	63009.14
366.601	51076.31
367.05	41392.02
367.498	37553.93
367.947	39240.2
368.395	40801.88
368.844	36081.03
369.292	43637.82
369.74	30119.05
370.189	46199.94
370.637	54182.65
371.085	46729.17
371.533	56920.61
371.981	54934.76
372.429	52327.51
372.877	54515.09
373.325	45594.05
373.773	46548.19
374.221	41441.11
374.669	51425.78
375.116	44427.64
375.564	44756.77
376.012	50077.75
376.459	41243.18
376.907	49263.41
377.354	59664.67
377.801	55570.18
378.249	63734.88
378.696	81327.86
379.143	98353.88
379.591	104878.71
380.038	176946.62
380.485	127732.88
380.932	137672.6
381.379	125480.63
381.826	92112.39
382.273	65326.69
382.72	57070.73
383.166	55573.88
383.613	35985.22
384.06	32368.52
384.506	37371.06
384.953	27440.27
385.4	27611.25
385.846	24153.41
386.292	23570.65
386.739	23043.3
387.185	22771.88
387.631	22724.03
388.078	21949.41
388.524	23429.09
388.97	21580.15
389.416	17931.41
389.862	19010.92
390.308	17947.05
390.754	18158.89
391.2	19647.88
391.645	20076.5
392.091	19066.48
392.537	18367.39
392.983	18390.29
393.428	17966.3
393.874	19203.6
394.319	19159.05
394.765	18068.13
395.21	18524.65
395.655	17338.98
396.101	16184.23
396.546	14552.26
396.991	14680.35
397.436	13600.15
397.881	13106.66
398.326	12418.35
398.771	11702.88
399.216	10233.87
399.661	9196.53
400.106	9133.39
400.551	9318
400.995	8338.38
401.44	8230.27
401.885	7722.34
402.329	7793.91
402.774	7458.1
403.218	7187.77
403.663	6917.69
404.107	7094.67
404.551	7134.69
404.995	6536.72
405.44	6293.67
405.884	6383.58
406.328	6175.06
406.772	6147.18
407.216	5584.32
407.66	5393.29
408.104	5130.8
408.547	4802.67
408.991	4643.52
409.435	4469.14
409.879	4400.95
410.322	4338.83
410.766	4180.82
411.209	3964.21
411.653	3801.43
412.096	3716.64
412.54	3717.08
412.983	3683.52
413.426	3681.42
413.869	3674.2
414.312	3592.85
414.756	3455.68
415.199	3290.26
415.642	3188.28
416.085	3192.66
416.527	3169.43
416.97	3220.46
417.413	3052.64
417.856	3025.41
418.298	3001.43
418.741	2988.1
419.184	2987.8
419.626	3119.96
420.069	3123.15
420.511	3138.11
420.953	3065.55
421.396	3033.3
421.838	2957.05
422.28	3021.72
422.722	3027.31
423.164	3065.92
423.606	3005.83
424.048	3001.67
424.49	2848.67
424.932	2834.69
425.374	2800.71
425.816	2857.37
426.258	2913.93
426.699	2950
427.141	2903.06
427.582	2955.08
428.024	2940.96
428.465	2926.03
428.907	2847.38
429.348	2811.48
429.789	2803.6
430.231	2738.54
430.672	2767.77
431.113	2698.97
431.554	2650.26
431.995	2580.61
432.436	2477.65
432.877	2415.77
433.318	2363.98
433.759	2350.92
434.2	2346.21
434.64	2318.9
435.081	2318.96
435.522	2191.24
435.962	2106.29
436.403	2052.54
436.843	2079.73
437.284	2033.89
437.724	1980.26
438.164	1989.39
438.604	1943.43
439.045	1865.35
439.485	1782.93
439.925	1743.88
440.365	1699.51
440.805	1675.83
441.245	1652.61
441.685	1587.64
442.125	1574.31
442.564	1581
443.004	1542.17
443.444	1535.49
443.883	1534.76
444.323	1522.81
444.762	1528.37
445.202	1545.66
445.641	1568.87
446.081	1561.42
446.52	1571.89
446.959	1553.23
447.398	1509.56
447.837	1488.37
448.276	1461.48
448.716	1470.99
449.154	1483.22
449.593	1444.04
450.032	1440.09
450.471	1412.48
450.91	1409.83
451.349	1403.54
451.787	1397.87
452.226	1419.62
452.664	1419.47
453.103	1419.71
453.541	1418.53
453.98	1413.83
454.418	1422.98
454.856	1395.97
455.295	1394.17
455.733	1404.57
456.171	1414.37
456.609	1412.77
457.047	1411.69
457.485	1427.33
457.923	1428.15
458.361	1410.13
458.798	1414.59
459.236	1408.92
459.674	1419
460.111	1423.86
460.549	1408.55
460.987	1402.35
461.424	1399.29
461.862	1391.32
462.299	1370.98
462.736	1367.26
463.173	1369.78
463.611	1349.05
464.048	1342.85
464.485	1351.76
464.922	1338.17
465.359	1329.99
465.796	1302.51
466.233	1288.71
466.67	1272.5
467.106	1266.83
467.543	1254.74
467.98	1238.03
468.416	1208.2
468.853	1199.47
469.29	1163.01
469.726	1150.09
470.162	1121.09
470.599	1113.44
471.035	1105.62
471.471	1080.4
471.907	1076.22
472.344	1071.2
472.78	1073.46
473.216	1089.55
473.652	1078.83
474.088	1078.61
474.523	1076.35
474.959	1087.79
475.395	1080.13
475.831	1074.84
476.266	1084.05
476.702	1082.55
477.138	1072.42
477.573	1071.06
478.008	1067.76
478.444	1072.47
478.879	1081.5
479.314	1086.32
479.75	1086.14
480.185	1091.34
480.62	1103.3
481.055	1109.5
481.49	1118.14
481.925	1133.92
482.36	1152.12
482.795	1185.8
483.229	1219.13
483.664	1245.84
484.099	1251.91
484.534	1270.35
484.968	1283.07
485.403	1285.02
485.837	1283.72
486.271	1281.15
486.706	1281.1
487.14	1266.17
487.574	1244.23
488.009	1230.88
488.443	1218.62
488.877	1227.33
489.311	1228.58
489.745	1239.27
490.179	1247.07
490.613	1264.37
491.046	1269.67
491.48	1274.98
491.914	1272.88
492.348	1277.34
492.781	1279.78
493.215	1277.97
493.648	1275.97
494.082	1280.51
494.515	1274.91
494.948	1282.51
495.382	1286.12
495.815	1288.84
496.248	1292.97
496.681	1309.3
497.114	1321.06
497.547	1331.53
497.98	1346.93
498.413	1349.08
498.846	1358.4
499.279	1366.36
499.711	1366.47
500.144	1362.34
500.577	1370.49
501.009	1379.53
501.442	1385.49
501.874	1377.18
502.306	1369.94
502.739	1369.53
503.171	1383.92
503.603	1378.46
504.036	1381.97
504.468	1380.4
504.9	1386.83
505.332	1385.8
505.764	1380.74
506.196	1380.3
506.627	1391.29
507.059	1399.94
507.491	1401.89
507.923	1386.65
508.354	1396.54
508.786	1399.83
509.217	1413.1
509.649	1421.34
510.08	1435.2
510.512	1445.33
510.943	1452.41
511.374	1455.07
511.805	1469.18
512.237	1482.09
512.668	1510.85
513.099	1531.23
513.53	1552.58
513.961	1564.2
514.391	1590.95
514.822	1618.09
515.253	1649.69
515.684	1668.31
516.114	1691.43
516.545	1703.37
516.975	1722.47
517.406	1731.12
517.836	1722.66
518.267	1717.06
518.697	1726.67
519.127	1719.93
519.558	1717.47
519.988	1709.86
520.418	1710.53
520.848	1720.19
521.278	1719.89
521.708	1737.17
522.138	1741.96
522.567	1767.04
522.997	1786.73
523.427	1793.68
523.857	1803.02
524.286	1806.29
524.716	1814.45
525.145	1827.08
525.575	1830.47
526.004	1838.73
526.433	1813.75
526.863	1806.83
527.292	1790.47
527.721	1791.2
528.15	1793.08
528.579	1788.44
529.008	1794.82
529.437	1814.34
529.866	1823.96
530.295	1837.15
530.724	1846.47
531.152	1870.76
531.581	1881.87
532.01	1895.5
532.438	1899.46
532.867	1910.16
533.295	1925.96
533.723	1928.96
534.152	1923.06
534.58	1920.01
535.008	1900.47
535.436	1899.78
535.865	1904.81
536.293	1917.46
536.721	1930.92
537.149	1955.03
537.576	1955.23
538.004	1966.25
538.432	1971.58
538.86	1967.83
539.287	1973.07
539.715	1987
540.143	1988.2
540.57	1981.72
540.998	1976.68
541.425	1952.55
541.852	1930.03
542.28	1926.88
542.707	1908.18
543.134	1892.74
543.561	1888.26
543.988	1878.61
544.415	1876.11
544.842	1869.71
545.269	1862.64
545.696	1862.89
546.123	1875.68
546.549	1863.75
546.976	1851.17
547.403	1850.94
547.829	1853.17
548.256	1854.73
548.682	1851.88
549.108	1844.63
549.535	1843.13
549.961	1845.59
550.387	1832.9
550.813	1827.14
551.24	1834.9
551.666	1835.96
552.092	1827.79
552.518	1821.75
552.943	1816.81
553.369	1826.01
553.795	1832.8
554.221	1836.65
554.646	1835.54
555.072	1848.71
555.498	1856.02
555.923	1866.72
556.349	1884.37
556.774	1894.49
557.199	1898.45
557.625	1906.53
558.05	1902.48
558.475	1916.28
558.9	1917.3
559.325	1911.73
559.75	1908.54
560.175	1904.5
560.6	1901.28
561.025	1902.56
561.449	1906.73
561.874	1915.7
562.299	1924
562.723	1934.01
563.148	1926.54
563.572	1934.56
563.997	1948.52
564.421	1957.77
564.846	1961.98
565.27	1969.6
565.694	1970.61
566.118	1987.96
566.542	1999.41
566.966	1998.03
567.39	1999.18
567.814	1992.22
568.238	1996.44
568.662	2006.35
569.086	2013.39
569.509	2026.58
569.933	2014.96
570.357	2010.69
570.78	1992.25
571.204	1984.18
571.627	1976.27
572.05	1979.98
572.474	1984.69
572.897	1974.94
573.32	1972.63
573.743	1967.49
574.166	1952.69
574.589	1957.89
575.012	1956.87
575.435	1961.11
575.858	1956.55
576.281	1949.93
576.704	1935.46
577.126	1927.24
577.549	1919.99
577.972	1912.44
578.394	1905.18
578.817	1901.32
579.239	1884.69
579.661	1873.54
580.084	1859.9
580.506	1848.59
580.928	1848.04
581.35	1840.37
581.772	1839.92
582.194	1829.53
582.616	1819.05
583.038	1804.52
583.46	1796.22
583.882	1796.37
584.303	1804.19
584.725	1801.96
585.147	1807.52
585.568	1823.52
585.99	1841.43
586.411	1851.72
586.833	1873.04
587.254	1878.97
587.675	1900.94
588.096	1917.93
588.518	1914.35
588.939	1897.29
589.36	1898.14
589.781	1888.45
590.202	1855.39
590.623	1846.69
591.043	1846.29
591.464	1831.43
591.885	1828.7
592.305	1823.45
592.726	1808.85
593.147	1813.37
593.567	1808.3
593.987	1800.04
594.408	1795.47
594.828	1795.81
595.248	1790.16
595.669	1768.76
596.089	1763.7
596.509	1757.24
596.929	1742.23
597.349	1745.8
597.769	1734.53
598.189	1729.46
598.608	1732.15
599.028	1735.8
599.448	1737.1
599.867	1723.08
600.287	1720.28
600.706	1716.41
601.126	1705.86
601.545	1706.62
601.965	1707.69
602.384	1703.49
602.803	1709.08
603.222	1707.71
603.641	1702.11
604.061	1700.19
604.48	1698.4
604.898	1710.84
605.317	1719
605.736	1724.74
606.155	1724.12
606.574	1715.22
606.992	1724.98
607.411	1722.41
607.829	1713.92
608.248	1712.91
608.666	1713.83
609.085	1716.78
609.503	1710.25
609.921	1706.87
610.339	1713.91
610.758	1717.78
611.176	1716.19
611.594	1709.47
612.012	1709.27
612.43	1719.26
612.847	1733.6
613.265	1739.84
613.683	1750.41
614.101	1756.75
614.518	1756.2
614.936	1747.01
615.353	1731.8
615.771	1730.83
616.188	1734.37
616.606	1734.15
617.023	1729.56
617.44	1713.38
617.857	1708.94
618.274	1700.69
618.691	1695.79
619.108	1686.83
619.525	1681.82
619.942	1694.1
620.359	1701.33
620.776	1698.1
621.192	1695.02
621.609	1693.72
622.026	1704.84
622.442	1713.44
622.859	1721.5
623.275	1714.3
623.691	1723.64
624.108	1741.06
624.524	1761.32
624.94	1762.56
625.356	1776.23
625.772	1795.44
626.188	1811.67
626.604	1815.02
627.02	1808.65
627.436	1804.92
627.852	1813.97
628.268	1830.77
628.683	1818.5
629.099	1807.37
629.514	1801.23
629.93	1807.49
630.345	1813.04
630.761	1807.41
631.176	1813.01
631.591	1806.97
632.007	1798.7
632.422	1797.31
632.837	1783.14
633.252	1781.19
633.667	1769.49
634.082	1760.46
634.497	1746.03
634.911	1722.63
635.326	1721.17
635.741	1701.32
636.155	1692.14
636.57	1700.79
636.984	1706.59
637.399	1714.49
637.813	1719.8
638.228	1724.85
638.642	1737.78
639.056	1729.17
639.47	1737.81
639.884	1734.44
640.298	1732.83
640.712	1739.36
641.126	1728.31
641.54	1722.55
641.954	1722.96
642.368	1714.16
642.781	1711.39
643.195	1692.28
643.609	1702.05
644.022	1702.14
644.436	1704.72
644.849	1695.47
645.262	1686.61
645.676	1698.66
646.089	1699.72
646.502	1685.71
646.915	1687.01
647.328	1667.75
647.741	1673.26
648.154	1660.68
648.567	1660.81
648.98	1645.59
649.393	1652
649.805	1651.94
650.218	1645.29
650.631	1624.48
651.043	1618.59
651.456	1611.14
651.868	1617.04
652.28	1648.51
652.693	1675
653.105	1691.45
653.517	1712.96
653.929	1717.89
654.341	1730.8
654.753	1714.66
655.165	1731.18
655.577	1733.04
655.989	1732.8
656.401	1725.92
656.813	1672.77
657.224	1645.55
657.636	1604.28
658.047	1580.83
658.459	1556.69
658.87	1550.54
659.282	1538.33
659.693	1510.62
660.104	1492.35
660.515	1477.44
660.926	1482.12
661.338	1484.68
661.749	1481.8
662.159	1473.11
662.57	1473.52
662.981	1473.04
663.392	1466.17
663.803	1480.72
664.213	1484.05
664.624	1484.74
665.035	1497.68
665.445	1479.66
665.855	1473.82
666.266	1463.79
666.676	1466.09
667.086	1454.95
667.497	1458.11
667.907	1452.37
668.317	1439.54
668.727	1435.1
669.137	1440.88
669.547	1438.61
669.956	1447.42
670.366	1451.3
670.776	1456.71
671.186	1464.93
671.595	1471.12
672.005	1478.2
672.414	1475.85
672.824	1471.02
673.233	1481.25
673.642	1483.16
674.052	1487.25
674.461	1486.2
674.87	1492.93
675.279	1484.49
675.688	1485.9
676.097	1484.49
676.506	1476.04
676.915	1499.86
677.323	1502.88
677.732	1494.51
678.141	1489.39
678.549	1465.7
678.958	1462.23
679.366	1456.58
679.775	1463.08
680.183	1474.41
680.592	1480.95
681	1484.68
681.408	1466.64
681.816	1474.45
682.224	1485.04
682.632	1494.55
683.04	1539.42
683.448	1572.39
683.856	1614.92
684.264	1663.13
684.671	1707.38
685.079	1759.76
685.487	1817.34
685.894	1901.81
686.302	1963.33
686.709	2004.55
687.116	2056.89
687.524	2089.2
687.931	2110.33
688.338	2122.53
688.745	2126.31
689.152	2131.13
689.559	2154.08
689.966	2171.07
690.373	2154.55
690.78	2165.94
691.187	2207.48
691.593	2225
692	2233.36
692.407	2269.38
692.813	2319.53
693.22	2347.24
693.626	2380.86
694.032	2395.23
694.439	2443.25
694.845	2471.18
695.251	2517.64
695.657	2553.68
696.063	2627.9
696.469	2672.85
696.875	2710.53
697.281	2717.02
697.687	2735.5
698.093	2744.99
698.498	2795.97
698.904	2826.73
699.31	2890.09
699.715	2925.42
700.12	2991.06
700.526	2982.12
700.931	3026.98
701.337	3051.64
701.742	3061.01
702.147	3119.5
702.552	3124.04
702.957	3157.24
703.362	3154.55
703.767	3161.23
704.172	3179.81
704.577	3116.23
704.981	3140.77
705.386	3137.15
705.791	3116.2
706.195	3166.91
706.6	3157.74
707.004	3214.73
707.408	3171.6
707.813	3181.44
708.217	3156.3
708.621	3143.14
709.025	3216.5
709.43	3207.18
709.834	3249.12
710.237	3296.71
710.641	3273.15
711.045	3283.88
711.449	3270.34
711.853	3288.28
712.256	3313.04
712.66	3334.52
713.064	3387.53
713.467	3413.56
713.87	3497.79
714.274	3525.34
714.677	3608.34
715.08	3733.74
715.484	3862.42
715.887	4020.89
716.29	4172.6
716.693	4335.89
717.096	4524.11
717.499	4624.09
717.901	4635.14
718.304	4647.09
718.707	4658.18
719.109	4563.37
719.512	4526.56
719.915	4409.93
720.317	4354.68
720.719	4382.29
721.122	4351.74
721.524	4303.75
721.926	4263.66
722.328	4337.62
722.731	4320.95
723.133	4337.94
723.535	4487.49
723.937	4497.98
724.338	4533.29
724.74	4561.63
725.142	4533.34
725.544	4525.2
725.945	4546.42
726.347	4536.62
726.748	4525.54
727.15	4531.12
727.551	4495.62
727.952	4466.72
728.354	4438.7
728.755	4430.36
729.156	4390.69
729.557	4346.47
729.958	4245.53
730.359	4193.07
730.76	4173.6
731.161	4119.69
731.562	4096.67
731.962	4094.79
732.363	4040.99
732.763	3989.99
733.164	4016.74
733.564	3960.77
733.965	3883.47
734.365	3855.13
734.766	3874.44
735.166	3842.83
735.566	3798.5
735.966	3776.4
736.366	3769.89
736.766	3721.91
737.166	3742.53
737.566	3708.92
737.966	3689.56
738.365	3719.56
738.765	3713.85
739.165	3653.12
739.564	3630.27
739.964	3664.84
740.363	3629.55
740.763	3626.72
741.162	3616.43
741.561	3591.49
741.96	3555.13
742.36	3568.6
742.759	3572.91
743.158	3600.95
743.557	3612.79
743.955	3644.21
744.354	3607.42
744.753	3649.4
745.152	3618.66
745.55	3660
745.949	3652.97
746.348	3653.75
746.746	3663.18
747.144	3633.8
747.543	3614.72
747.941	3653.19
748.339	3599.73
748.737	3598.64
749.136	3593.27
749.534	3640.77
749.932	3620.66
750.33	3638.31
750.727	3679.14
751.125	3663.5
751.523	3648.23
751.921	3687.01
752.318	3658.83
752.716	3703.21
753.113	3710.55
753.511	3727.4
753.908	3727.45
754.305	3718.08
754.703	3766.34
755.1	3814.55
755.497	3859.78
755.894	4007.22
756.291	4140.64
756.688	4395.92
757.085	4731.68
757.482	5203.9
757.878	5723.99
758.275	6194.85
758.672	6828.79
759.068	7351.98
759.465	8102.11
759.861	9062.32
760.258	10178.3
760.654	10755.89
761.05	10663.62
761.447	10173.24
761.843	9472.53
762.239	8742.18
762.635	8406.38
763.031	8092.02
763.427	7641.36
763.822	7161.75
764.218	6691.33
764.614	6080.52
765.01	5669.62
765.405	5406.2
765.801	5209.92
766.196	4953.65
766.592	4816.78
766.987	4579.16
767.382	4417.28
767.778	4347.71
768.173	4249.51
768.568	4197.81
768.963	4104.94
769.358	4118.93
769.753	4084.13
770.148	4021.72
770.542	4023.25
770.937	3997.09
771.332	4068.99
771.726	4085.8
772.121	4043.47
772.515	4084.9
772.91	4074.09
773.304	4125.28
773.699	4078.35
774.093	4119.49
774.487	4161.42
774.881	4194.72
775.275	4192.61
775.669	4157.92
776.063	4191
776.457	4216.37
776.851	4159.8
777.245	4152.9
777.638	4180.3
778.032	4267.46
778.425	4240.92
778.819	4276.7
779.212	4242.31
779.606	4211.67
779.999	4226.86
780.392	4214.42
780.786	4277.35
781.179	4295.54
781.572	4327.73
781.965	4338.73
782.358	4294.03
782.751	4336.38
783.143	4295.76
783.536	4354.13
783.929	4388.36
784.322	4482.64
784.714	4506.07
785.107	4502.83
785.499	4558.62
785.891	4547.3
786.284	4533.29
786.676	4644.09
787.068	4633.37
787.46	4675.25
787.852	4691.02
788.245	4756.84
788.636	4775.41
789.028	4830.29
789.42	4862.05
789.812	4870.19
790.204	4942
790.595	5019.61
790.987	4868.52
791.378	4883.52
791.77	4981.83
792.161	5083.91
792.553	5127.51
792.944	5045.11
793.335	4990.13
793.726	5050.02
794.117	5117.46
794.508	5225.73
794.899	5204.82
795.29	5314.13
795.681	5361.92
796.072	5254.26
796.463	5127.15
796.853	5137.84
797.244	5259.92
797.634	5292.03
798.025	5291.18
798.415	5303.87
798.806	5374.05
799.196	5444.74
799.586	5487.87
799.976	5459.81
800.366	5640.54
800.756	5813.27
801.146	5780.79
801.536	5805.93
801.926	5860.18
802.316	5879.29
802.706	5935.32
803.095	5841.2
803.485	5919.49
803.874	5950.62
804.264	6153.26
804.653	6135.24
805.043	6254.49
805.432	6339.68
805.821	6341.63
806.21	6364.7
806.599	6458.33
806.988	6497.92
807.377	6581.88
807.766	6680.04
808.155	6903.3
808.544	6701.32
808.933	6716.39
809.321	6697.93
809.71	6930.04
810.098	7052.47
810.487	7411.9
810.875	7788.49
811.264	7807.28
811.652	8039.69
812.04	8154.42
812.428	8286.41
812.816	8880.65
813.204	9203.18
813.592	9634.9
813.98	9899.72
814.368	9831.95
814.756	10203.7
815.144	10135.88
815.531	10498.88
815.919	10434.27
816.306	10677.41
816.694	10432.75
817.081	10475.72
817.469	10751.74
817.856	10750.41
818.243	10965.69
818.63	11268.63
819.017	10939.25
819.404	10996.42
819.791	11287.05
820.178	11762.81
820.565	11957.3
820.952	12696.84
821.339	12314.17
821.725	12461.71
822.112	11878.42
822.498	11846.54
822.885	11951.44
823.271	11874.32
823.657	12190.84
824.044	12196.78
824.43	12259.49
824.816	12238.02
825.202	11883.42
825.588	12670.05
825.974	12677.75
826.36	13079.37
826.746	13097.07
827.132	13370.75
827.517	13357.55
827.903	12749.84
828.289	12783.96
828.674	12171.12
829.06	12083.97
829.445	12397.33
829.83	12675.59
830.216	13035.5
830.601	13319.24
830.986	13010.95
831.371	12894.2
831.756	13324.63
832.141	12998
832.526	12986.22
832.911	13205.73
833.295	13110.06
833.68	13467.13
834.065	12980.12
834.449	12271.31
834.834	12216.01
835.218	12206.47
835.603	12473.59
835.987	12306.53
836.371	12940.54
836.755	12862.9
837.139	13170.24
837.524	13349.77
837.908	13203.51
838.291	13248.76
838.675	13297.22
839.059	13449.79
839.443	13432.73
839.827	13243.81
840.21	13608.49
840.594	13494.75
840.977	13644.34
841.361	13623.83
841.744	13919.65
842.127	13799.78
842.511	13989.65
842.894	14440.83
843.277	14734.76
843.66	15153.29
844.043	15228.45
844.426	14607.07
844.809	14362.02
845.191	14385.92
845.574	14028.89
845.957	13744.61
846.339	13663.11
846.722	13254.94
847.104	13314.02
847.487	13180.22
847.869	13185.37
848.252	13401.72
848.634	13660.73
849.016	13862.59
849.398	13954.54
849.78	14608.5
850.162	14614.21
850.544	14930.28
850.926	15412.98
851.307	15344.28
851.689	15560.17
852.071	15906.52
852.452	16148.04
852.834	16123.87
853.215	16431.73
853.597	16551.86
853.978	16779.1
854.359	17123.36
854.741	16352.41
855.122	16276.48
855.503	16048.23
855.884	16149.74
856.265	16099.74
856.646	16189.59
857.026	15886.1
857.407	15837.46
857.788	15959.99
858.169	16169.17
858.549	15521.23
858.93	16002.6
859.31	16040.39
859.69	16213.59
860.071	15904.2
860.451	15748.18
860.831	15174.1
861.211	16069.08
861.591	16483.4
861.971	16465.91
862.351	16631.12
862.731	16930.55
863.111	17140.75
863.491	17393.14
863.87	18060.23
864.25	18330.24
864.629	18023.07
865.009	18421.39
865.388	19074.51
865.768	20445.6
866.147	20362.33
866.526	19227.86
866.905	19451.61
867.284	20527.96
867.663	19487.68
868.042	18669.71
868.421	18601.39
868.8	18895.03
869.179	19083.41
869.558	17961.07
869.936	16546.87
870.315	16837.9
870.693	17242.55
871.072	18591.16
871.45	17711.75
871.828	17946.8
872.207	18873.56
872.585	18594.96
872.963	19113.99
873.341	18451.24
873.719	18240.75
874.097	18024.82
874.475	18373.27
874.853	18805.34
875.23	18028.34
875.608	18795.57
875.986	20328.3
876.363	19437.9
876.741	20030.05
877.118	19524.77
877.495	20487.87
877.873	20830.37
878.25	21927.05
878.627	21023.27
879.004	21306.39
879.381	21196.74
879.758	20633.48
880.135	19208.86
880.512	20308.49
880.889	19751.18
881.265	19542.69
881.642	19369.41
882.019	19687.76
882.395	19287.82
882.772	20056.55
883.148	19184.63
883.524	19104.29
883.901	18990.75
884.277	19264.27
884.653	19131.19
885.029	19687.03
885.405	21801.95
885.781	21631.45
886.157	20743.01
886.532	20985.64
886.908	20963.17
887.284	23309.86
887.659	24070.65
888.035	24823.29
888.411	25460.29
888.786	25800.84
889.161	26696.25
889.537	26198.5
889.912	27041.44
890.287	27013.98
890.662	27706.67
891.037	27197.04
891.412	25359.61
891.787	25105.21
892.162	24219.01
892.536	24783.24
892.911	23863.45
893.286	23358.41
893.66	22414.52
894.035	22981.48
894.409	25021.63
894.784	24023.81
895.158	24441.11
895.532	25887.83
895.906	26600.5
896.281	27244.08
896.655	26806.85
897.029	30610.56
897.402	31876.99
897.776	35490.99
898.15	35359.58
898.524	34976.58
898.898	35428.74
899.271	39642.24
899.645	34325.44
900.018	32951.71
900.392	34144.31
900.765	34411.14
901.138	31862.11
901.511	31370.04
901.884	28806.31
902.258	26581.82
902.631	27466.24
903.003	31585.4
903.376	28490.82
903.749	31951.59
904.122	34188.96
904.495	37630.87
904.867	38104.48
905.24	33069.74
905.612	30785.42
905.985	31469.06
906.357	32887.28
906.729	31386.22
907.102	26819.69
907.474	25800.75
907.846	25976.65
908.218	25657.59
908.59	22694.67
908.962	21961.18
909.334	23663.15
909.705	24870.39
910.077	24143.57
910.449	25141.57
910.82	25851.59
911.192	28467.54
911.563	29579.28
911.935	31625.61
912.306	31658.06
912.677	32660.41
913.048	32342.36
913.419	35087.77
913.79	35284.16
914.161	37852.49
914.532	36169.94
914.903	33240.63
915.274	31555.28
915.645	31115.81
916.015	27408.6
916.386	26143.17
916.756	27848.65
917.127	28718.04
917.497	25643.6
917.868	27898.61
918.238	26506.56
918.608	27274.85
918.978	27827.27
919.348	29472.53
919.718	30444.36
920.088	29331.08
920.458	30472.41
920.828	32050.29
921.198	30374.2
921.567	32459.43
921.937	25147.64
922.306	25373.64
922.676	27346.05
923.045	22844.04
923.415	21707.28
923.784	19761.68
924.153	20326.37
924.522	20310.79
924.891	19092.42
925.26	20467.88
925.629	19983.21
925.998	22973.61
926.367	22436.64
926.736	21393.39
927.104	25454.82
927.473	27340.31
927.842	33003.92
928.21	32642.78
928.578	34284.22
928.947	32418.27
929.315	32609.8
929.683	38235.05
930.051	38513.07
930.42	44705.28
930.788	38183.81
931.156	37885.01
931.523	35538.69
931.891	32865.68
932.259	31576.94
932.627	36599.74
932.994	51800.34
933.362	42825.39
933.729	37164
934.097	35544.35
934.464	30049.67
934.831	34630.75
935.199	34136.72
935.566	33090.76
935.933	33455.15
936.3	40500.6
936.667	31479.42
937.034	28424.23
937.401	28049.53
937.767	24216.44
938.134	21569.86
938.501	30406.89
938.867	32449.09
939.234	54785.38
939.6	46706.15
939.967	51543.22
940.333	34513.71
940.699	29405.66
941.065	23514.95
941.431	30825.22
941.798	29748.11
942.163	39066.92
942.529	24389.39
942.895	22414.84
943.261	14495.44
943.627	19017
943.992	16634.81
944.358	16621.28
944.723	16686.5
945.089	16280.88
945.454	15064.95
945.82	16066.06
946.185	15421.67
946.55	17892.15
946.915	16065.91
947.28	18848.1
947.645	16582.97
948.01	15337.14
948.375	16041.14
948.74	19211.94
949.104	22393.5
949.469	32295.82
949.834	57105.52
950.198	54227.94
950.562	32442.73
950.927	27026.5
951.291	32513.6
951.655	27697.14
952.02	25961.2
952.384	19610.39
952.748	17076.38
953.112	16674.99
953.476	14517.88
953.839	13417.7
954.203	13283.51
954.567	16640.99
954.931	26162.34
955.294	22417.31
955.658	22567.48
956.021	38391.11
956.385	65024.88
956.748	96061.76
957.111	148649.69
957.474	166735.68
957.837	187593.48
958.2	141811.16
958.563	50995.11
958.926	34495.28
959.289	52318.59
959.652	58446.65
960.015	43844.21
960.377	62926.21
960.74	71738.9
961.102	124014.02
961.465	133351.23
961.827	71727.77
962.189	137623.4
962.552	95451.43
962.914	76429.21
963.276	49576.91
963.638	40943.31
964	40519.63
964.362	27405.97
964.724	26499.84
965.085	18883.77
965.447	15475.13
965.809	17566.27
966.17	17559.16
966.532	18977.12
966.893	17451.92
967.255	15880.5
967.616	18749.09
967.977	15013.76
968.338	16393.59
968.699	13454.93
969.061	13460.91
969.421	13541.79
969.782	15212
970.143	12881.03
970.504	13370.74
970.865	15218.78
971.225	15575.29
971.586	15232.79
971.946	21731.75
972.307	18848.33
972.667	24654.07
973.027	25373.09
973.388	30724.54
973.748	20871.18
974.108	22708.91
974.468	30665.19
974.828	23648.57
975.188	18177.72
975.548	16697.31
975.907	14021.96
976.267	15733.37
976.627	13224.08
976.986	13714.21
977.346	13081.13
977.705	12590.06
978.064	11470.45
978.424	9547.33
978.783	9836.97
979.142	11228.27
979.501	10761.96
979.86	11389.97
980.219	10973.97
980.578	14138.82
980.937	15829.11
981.296	14113.17
981.654	14506.92
982.013	22527.82
982.371	29217.52
982.73	27328.12
983.088	30916.35
983.447	32977.72
983.805	47024.96
984.163	98311.34
984.521	108986.44
984.879	159521.54
985.237	-259212.01
985.595	250318.33
985.953	62206.21
986.311	35969.85
986.669	20898.94
987.026	18052.48
987.384	24252.97
987.741	25070.44
988.099	17954.93
988.456	14356.98
988.814	13469.61
989.171	11726.79
989.528	11535.55
989.885	12190.57
990.242	9660.54
990.599	12025.51
990.956	9823.7
991.313	6879.1
991.67	5658.41
992.027	6005.85
992.383	5341.28
992.74	4690.76
993.096	4934.71
993.453	5123.98
993.809	5312.94
994.165	7074.52
994.522	6508.22
994.878	7182.48
995.234	9014.5
995.59	8873.73
995.946	8360.72
996.302	9538.3
996.658	11030.95
997.013	12138.42
997.369	14434.66
997.725	18515.19
998.08	11996.06
998.436	18387
998.791	25356.13
999.147	25309.09
999.502	27640.4
999.857	20086.73
1000.212	32681.03
1000.567	46431.77
1000.922	26685.76
1001.277	16930.7
1001.632	12536.12
1001.987	16129.37
1002.342	11561.65
1002.696	9257.5
1003.051	7395.84
1003.406	8960.07
1003.76	8914.92
1004.114	8784.9
1004.469	7406.75
1004.823	6135.84
1005.177	6610.21
1005.531	5242.9
1005.885	4661.68
1006.239	5274.76
1006.593	6627.81
1006.947	8872.75
1007.301	6654.25
1007.655	7272.06
1008.008	5345.54
1008.362	6010.15
1008.715	8614.21
1009.069	7826.88
1009.422	11836.19
1009.776	23718.92
1010.129	15735.2
1010.482	13101.79
1010.835	11055.94
1011.188	22983.1
1011.541	21649.64
1011.894	-132317.73
1012.247	387213.88
1012.6	26284.59
1012.952	16600.43
1013.305	8512.95
1013.657	6154.54
1014.01	5836.02
1014.362	4829.95
1014.715	4323.55
1015.067	3781.6
1015.419	3690.21
1015.771	3274.13
1016.123	2938.37
1016.475	3027.2
1016.827	3225.28
1017.179	3476.54
1017.531	3486.57
1017.883	3556.16
1018.234	3470.11
1018.586	4362.78
1018.938	4634.73
1019.289	6434.75
1019.64	7386.81
1019.992	6828.79
1020.343	6241.22
1020.694	4966.45
1021.045	4383.12
1021.396	5020.28
1021.747	5425.55
1022.098	6447.96
1022.449	4680.84
1022.8	4350.54
1023.151	3019.94
1023.501	2680.54
1023.852	2926.8
1024.202	3049.8
1024.553	3342.93
1024.903	3291.98
1025.253	2842.31
1025.604	2564.84
1025.954	3188.67
1026.304	3879.79
1026.654	4529.7
1027.004	6655.47
1027.354	10741.73
1027.703	10118.35
1028.053	13288.19
1028.403	19580.29
1028.753	28116.25
1029.102	37816.26
1029.452	192303.9
1029.801	8262.66
1030.15	5340.86
1030.499	4497.67
897.758	3239.97
901.051	3222.18
904.343	3257.74
907.636	3248.58
910.928	3314.8
914.22	3217.45
917.511	3228.95
920.803	3317.79
924.094	3364.1
927.384	3314.33
930.675	3276.66
933.965	3217.6
937.255	3209.72
940.544	3177.02
943.834	3037.93
947.123	2997.25
950.411	3100.91
953.7	3062.86
956.988	3008.92
960.276	2954.46
963.563	3077.18
966.851	3056.72
970.138	3134.16
973.424	3109.96
976.711	3056.48
979.997	3303.4
983.283	3319.82
986.568	3192.16
989.853	3238.11
993.138	3266.13
996.423	3345.99
999.708	3257.19
1002.992	3371.2
1006.275	3107.51
1009.559	3213.19
1012.842	3355.13
1016.125	3254.78
1019.408	3231.63
1022.69	3357.06
1025.972	3361.52
1029.254	3326.34
1032.536	3220.44
1035.817	3266.12
1039.098	3169.27
1042.379	3429.87
1045.659	3381
1048.939	3288.54
1052.219	3334.2
1055.498	3365.43
1058.778	3333.48
1062.057	3325.87
1065.335	3344.33
1068.614	3375.27
1071.892	3335.03
1075.17	3440.45
1078.447	3413.11
1081.724	3397.71
1085.001	3449.74
1088.278	3415.1
1091.554	3436.01
1094.83	3434.31
1098.106	3456.05
1101.382	3520.11
1104.657	3520.72
1107.932	3517.52
1111.206	3461.55
1114.481	3423.32
1117.755	3433.3
1121.029	3395.29
1124.302	3438.37
1127.575	3371.13
1130.848	3347.85
1134.121	3295.54
1137.393	3227.56
1140.665	3309.63
1143.937	3284.44
1147.208	3200.51
1150.48	3218.99
1153.75	3200.51
1157.021	3269.74
1160.291	3225.91
1163.561	3261.48
1166.831	3284.33
1170.101	3320.36
1173.37	3318.52
1176.639	3238.74
1179.907	3316.76
1183.176	3358.8
1186.444	3367.96
1189.711	3399.83
1192.979	3397.34
1196.246	3361.14
1199.513	3384.57
1202.78	3376.76
1206.046	3382.07
1209.312	3408.01
1212.578	3445.93
1215.843	3372.21
1219.108	3356.76
1222.373	3380.65
1225.638	3329.07
1228.902	3305.33
1232.166	3281.67
1235.43	3256.45
1238.693	3271.7
1241.956	3280.36
1245.219	3305.31
1248.482	3311.58
1251.744	3303.11
1255.006	3485.37
1258.268	3454.06
1261.529	3383.22
1264.79	3395.6
1268.051	3512.81
1271.312	3535.04
1274.572	3488.57
1277.832	3477.81
1281.092	3483.77
1284.351	3428.23
1287.61	3399.13
1290.869	3289.39
1294.128	3231.87
1297.386	3374.11
1300.644	3360.8
1303.902	3370.19
1307.159	3215.96
1310.416	3275.63
1313.673	3293.98
1316.93	3260.77
1320.186	3327.88
1323.442	3385.62
1326.697	3356.07
1329.953	3372.61
1333.208	3381.48
1336.463	3370.1
1339.717	3291.68
1342.972	3391.94
1346.226	3396.24
1349.479	3307.85
1352.733	3260.86
1355.986	3309.59
1359.238	3279.01
1362.491	3277.74
1365.743	3284.04
1368.995	3285.57
1372.247	3300.95
1375.498	3318.42
1378.749	3372.23
1382	3319.05
1385.251	3392.6
1388.501	3368.75
1391.751	3331.68
1395	3315.81
1398.25	3357.44
1401.499	3351.89
1404.748	3260.85
1407.996	3183.62
1411.244	3179.24
1414.492	3149.83
1417.74	3120.11
1420.987	3146.4
1424.234	3197.55
1427.481	3200.84
1430.728	3253.87
1433.974	3229.64
1437.22	3264.75
1440.465	3267.68
1443.711	3264.3
1446.956	3299.42
1450.201	3309.87
1453.445	3357.94
1456.689	3318.73
1459.933	3336.84
1463.177	3364.5
1466.42	3332.76
1469.663	3310.64
1472.906	3273.16
1476.148	3418.38
1479.391	3304.42
1482.633	3291.23
1485.874	3287.35
1489.115	3248.87
1492.356	3276.87
1495.597	3244.45
1498.838	3256.66
1502.078	3205.41
1505.318	3124.67
1508.557	3179.91
1511.797	3090.64
1515.036	3258.68
1518.274	3243.01
1521.513	3231.3
1524.751	3263.01
1527.989	3266.97
1531.227	3270.71
1534.464	3235.71
1537.701	3291.66
1540.938	3319.54
1544.174	3276.03
1547.41	3288.85
1550.646	3324.56
1553.882	3343.83
1557.117	3393.72
1560.352	3420.28
1563.587	3366.83
1566.821	3317.74
1570.055	3379.8
1573.289	3334.32
1576.523	3433.08
1579.756	3431.14
1582.989	3445.25
1586.222	3401.77
1589.454	3452.49
1592.686	3414.87
1595.918	3433.3
1599.15	3408.89
1602.381	3523.52
1605.612	3443.14
1608.843	3542.4
1612.073	3443.32
1615.303	3420.77
1618.533	3400.08
1621.762	3416.69
1624.992	3419.66
1628.221	3380.3
1631.449	3369.55
1634.678	3464.23
1637.906	3401.98
1641.134	3459.69
1644.361	3403.66
1647.588	3387.81
1650.815	3399.19
1654.042	3396.3
1657.269	3431.83
1660.495	3375.36
1663.72	3331.25
1666.946	3314.66
1670.171	3216.5
1673.396	3196.82
1676.621	3193.97
1679.845	3248.48
1683.069	3287.32
1686.293	3348.06
1689.517	3297.02
1692.74	3190.67
1695.963	3210.68
1699.185	3299.95
1702.408	3247.87
1705.63	3307.63
1708.852	3307.4
1712.073	3281.24
1715.294	3237.89
1718.515	3278.55
1721.736	3217.5
1724.956	3193.98
1728.176	3227.72
1731.396	3245.27
1734.616	3245.88
1737.835	3253.75
1741.054	3247.49
1744.272	3247.33
1747.491	3257.71
1750.709	3349.42
1753.927	3237.67
1757.144	3303.36
1760.361	3362.86
1763.578	3375.76
1766.795	3306.85
1770.011	3331.91
1773.227	3394.25
1776.443	3421.72
1779.658	3466.1
1782.874	3414.59
1786.089	3377
1789.303	3381.56
1792.518	3394.93
1795.732	3383.22
1798.945	3384
1802.159	3447.01
1805.372	3298.56
1808.585	3271.99
1811.797	3274.44
1815.01	3359.52
1818.222	3362.4
1821.434	3242.38
1824.645	3349.49
1827.856	3304.96
1831.067	3352.58
1834.278	3288.59
1837.488	3277
1840.698	3459.6
1843.908	3360.49
1847.117	3320.9
1850.326	3143.73
1853.535	3287.8
1856.744	3409.84
1859.952	3287.21
1863.16	3284.9
1866.368	3313.79
1869.575	3460.39
1872.782	3344.64
1875.989	3294.16
1879.196	3425.06
1882.402	3424.04
1885.608	3477.24
1888.814	3333.43
1892.019	3210.35
1895.224	3267.52
1898.429	3269.15
1901.634	3238.26
1904.838	3223.51
1908.042	3264.43
1911.246	3265.43
1914.449	3156.58
1917.652	3172.08
1920.855	3157.52
1924.058	3236.12
1927.26	3263.43
1930.462	3300.21
1933.664	3310.28
1936.865	3241.28
1940.066	3236.69
1943.267	3188.57
1946.467	3213.83
1949.668	3249.34
1952.868	3313.47
1956.067	3273.15
1959.267	3195.97
1962.466	3228.88
1965.665	3218.42
1968.863	3216.98
1972.061	3249.03
1975.259	3252.99
1978.457	3340.17
1981.654	3290.36
1984.852	3290.18
1988.048	3194.42
1991.245	3216.33
1994.441	3297.09
1997.637	3315.92
2000.833	3294.87
2004.028	3340.16
2007.223	3386.16
2010.418	3348.33
2013.613	3314.45
2016.807	3251.99
2020.001	3278.33
2023.194	3353.95
2026.388	3315.79
2029.581	3263.59
2032.774	3294.67
2035.966	3289.28
2039.158	3198.15
2042.35	3233.43
2045.542	3162.54
2048.733	3291.57
2051.924	3356.04
2055.115	3398.11
2058.306	3308.69
2061.496	3376.33
2064.686	3463.33
2067.875	3383.46
2071.065	3414.49
2074.254	3454.16
2077.442	3402.83
2080.631	3503.9
2083.819	3341.14
2087.007	3304.32
2090.195	3258.19
2093.382	3318.71
2096.569	3294.12
2099.756	3232.27
2102.942	3230.82
2106.128	3222.91
2109.314	3221.38
2112.5	3154.42
2115.685	3140.56
2118.87	3154.22
2122.055	3229.37
2125.239	3175.21
2128.424	3128.92
2131.608	3291.24
2134.791	3270.91
2137.974	3357.14
2141.157	3337.35
2144.34	3261.25
2147.523	3288
2150.705	3281.88
2153.887	3280.24
2157.068	3199.27
2160.25	3228.21
2163.431	3293.61
2166.611	3201.36
2169.792	3213.04
2172.972	3083.44
2176.152	3202.14
2179.331	3247.38
2182.511	3222.05
2185.69	3256.31
2188.868	3237.68
2192.047	3323.83
2195.225	3283.21
2198.403	3225.75
2201.58	3229.32
2204.758	3232.91
2207.935	3325.85
2211.111	3177.29
2214.288	3154.75
2217.464	3204.58
2220.64	3196.49
2223.815	3262.55
2226.991	3169.07
2230.166	3193.73
2233.34	3206.23
2236.515	3249.16
2239.689	3340.05
2242.863	3273.59
2246.036	3336.2
2249.209	3359.96
2252.382	3410.54
2255.555	3377.74
2258.727	3293.01
2261.9	3345.32
2265.071	3335.28
2268.243	3350.27
2271.414	3259.91
2274.585	3185.77
2277.756	3266.91
2280.926	3222.09
2284.096	3278.05
2287.266	3155.25
2290.436	3222.94
2293.605	3264.13
2296.774	3284.19
2299.942	3328.34
2303.111	3341.71
2306.279	3383.52
2309.447	3373.76
2312.614	3353.6
2315.781	3368.26
2318.948	3325.53
2322.115	3370.41
2325.281	3268.47
2328.447	3306.32
2331.613	3285.63
2334.779	3234.09
2337.944	3250.61
2341.109	3241.75
2344.274	3217.67
2347.438	3181.19
2350.602	3212.92
2353.766	3234.36
2356.929	3214.6
2360.092	3264.85
2363.255	3189.25
2366.418	3079.51
2369.58	3254.84
2372.742	2927.08
2375.904	2966.55
2379.066	2929.5
2382.227	2978.19
2385.388	2934.55
2388.548	2835.81
2391.709	2910.08
2394.869	2877.04
2398.029	3037.01
2401.188	3072.72
2404.347	2969.29
2407.506	3187.39
2410.665	3209.3
2413.823	3239.89
2416.981	3165.57
2420.139	3222.01
2423.296	3282.97
2426.453	3257.5
2429.61	3282.6
2432.767	3167.81
2435.923	3220.9
2439.079	3099.98
2442.235	3196.09
2445.391	3099.32
2448.546	3104.95
2451.701	3179.23
2454.855	3113.05
2458.009	3198.78
2461.163	3219.18
2464.317	3164.99
2467.471	3207.28
2470.624	3246.52
2473.777	3297.29
2476.929	3282.64
2480.082	3313.42
2483.234	3282.38
2486.385	3155.13
2489.537	3157.14
2492.688	3077.08
2495.839	3096.01
2498.989	3096.28
2502.14	3077.34
2505.29	3042.07
2508.439	3073.9
2511.589	2973.28
2514.738	3004.37
2517.887	3033.61
2521.035	3184.54
2524.183	3185.36
2527.331	3155.35
2530.479	3101.45
2533.627	3123.77
