Data from C_3_HIR_IL_4N_Splice17_13-39-12-709.txt Node
Date: Sat Mar 14 13:39:12 EDT 2020
User: sa697716
Spectrometer: FLMS03696
Trigger mode: 0
Integration Time (sec): 3.180400E-1
Scans to average: 20
Electric dark correction enabled: true
Nonlinearity correction enabled: true
Boxcar width: 5
XAxis mode: Wavelengths
Number of Pixels in Spectrum: 2048
>>>>>Begin Spectral Data<<<<<
187.83	-483523.89
188.298	3434.4
188.766	1815.67
189.233	1590.18
189.701	2201.13
190.169	3145.85
190.636	1238.94
191.104	1005.37
191.571	188.86
192.039	-78.5
192.506	-126.7
192.974	573.07
193.441	-960.96
193.908	-214.63
194.375	-117.16
194.842	-32.91
195.31	112.93
195.777	199.9
196.244	502
196.711	587.29
197.177	740.57
197.644	1047.54
198.111	1834.1
198.578	2566.36
199.045	2049.4
199.511	3321.4
199.978	3845.89
200.445	3251.41
200.911	3578.93
201.378	3953.71
201.844	3563.27
202.31	6040.74
202.777	6246.24
203.243	3450.98
203.709	3272.68
204.176	3857.5
204.642	3198.54
205.108	2993.46
205.574	2425.15
206.04	2208.61
206.506	2068.23
206.972	1948.65
207.438	1869.37
207.903	2123.41
208.369	1832.13
208.835	1807.2
209.301	1895.56
209.766	1903.37
210.232	1855.17
210.697	2277.76
211.163	2785.4
211.628	4147.32
212.094	3451.48
212.559	4228.84
213.024	2620.64
213.49	3241.8
213.955	3151.81
214.42	3039.37
214.885	2845.9
215.35	2732.71
215.815	2639.74
216.28	2788.1
216.745	2239.93
217.21	2374.48
217.675	2114.19
218.14	2325.68
218.604	2486.73
219.069	2750.8
219.534	2819.31
219.998	3158.02
220.463	3714.59
220.927	4411.79
221.392	4056.96
221.856	4033.94
222.32	4999.09
222.785	6092.77
223.249	7551.38
223.713	8373.27
224.177	8328.15
224.642	10575.02
225.106	12955.42
225.57	14069.68
226.034	10483.48
226.497	15881.44
226.961	14347.97
227.425	16631.4
227.889	18368.23
228.353	18308.47
228.816	37597.29
229.28	35914.74
229.744	30231.33
230.207	18386.77
230.671	18040.75
231.134	29596.17
231.597	34196.3
232.061	34053.35
232.524	33230.64
232.987	22871.9
233.45	20603.22
233.914	18509.89
234.377	18912.5
234.84	17326.55
235.303	20410.61
235.766	22821.89
236.229	23608.15
236.691	14862.9
237.154	16732.53
237.617	12598.08
238.08	12931.87
238.542	15134.97
239.005	10836.99
239.468	10774.74
239.93	10161.78
240.393	9240.7
240.855	8123.84
241.317	8334.89
241.78	10120.62
242.242	10472.49
242.704	11360.53
243.166	9910.62
243.629	9049.91
244.091	10435.51
244.553	11444.41
245.015	12332.69
245.477	15956.64
245.939	23405.44
246.4	24880.73
246.862	24237.42
247.324	22856.69
247.786	25547.34
248.247	33482.87
248.709	34403.68
249.17	25810.58
249.632	24451.26
250.093	28400.49
250.555	24584.93
251.016	15014.1
251.477	14256.2
251.939	15423.77
252.4	16219.92
252.861	19270.65
253.322	17980.11
253.783	21436.18
254.244	27780.29
254.705	21885.66
255.166	19448.21
255.627	19139.66
256.088	27059.3
256.549	28773.49
257.009	24774.8
257.47	30009.3
257.931	24452.98
258.391	18311.34
258.852	18880.03
259.312	19760.97
259.773	24353.23
260.233	20611.13
260.694	17416.83
261.154	19724.6
261.614	15854.22
262.074	14158.79
262.534	14731.44
262.994	13892.8
263.455	18485.81
263.915	15583.59
264.374	14659.29
264.834	15998.72
265.294	17698.57
265.754	18311.75
266.214	17305.27
266.673	16203.08
267.133	20433.9
267.593	20252.17
268.052	24781.05
268.512	21518.47
268.971	25976.03
269.431	28524.72
269.89	25548.53
270.349	38302.9
270.809	42728.14
271.268	38437.27
271.727	85882.58
272.186	55654.22
272.645	41718.77
273.104	30006.4
273.563	43496.45
274.022	34070.12
274.481	28997.13
274.94	22323.25
275.399	16573.98
275.857	19247.25
276.316	26014.92
276.775	23191.44
277.233	22835.45
277.692	21420.59
278.15	24318.95
278.609	25102.04
279.067	23279.27
279.525	21678.29
279.984	28026.27
280.442	33700.02
280.9	33377.31
281.358	21997.78
281.816	20509.79
282.274	20067.12
282.732	20704.62
283.19	20769.29
283.648	17892.03
284.106	19072.21
284.564	19358.24
285.021	17980.95
285.479	13369.33
285.937	12135.65
286.394	10648.78
286.852	10962.97
287.309	11560.36
287.767	11201.06
288.224	10667.67
288.682	11711.11
289.139	12858.95
289.596	11777.15
290.053	12220.87
290.511	15440.19
290.968	18724.83
291.425	25392.92
291.882	21195.43
292.339	18456.98
292.796	18284.08
293.252	17218.59
293.709	13682.21
294.166	12276.94
294.623	13567.09
295.079	13023.87
295.536	13131.07
295.992	11923.52
296.449	11815.13
296.905	12282.46
297.362	11793.38
297.818	12411.87
298.274	12906.7
298.731	13139.38
299.187	12993.09
299.643	13965.08
300.099	16911.25
300.555	18506.89
301.011	15484.06
301.467	14963.67
301.923	17484.01
302.379	17087.34
302.835	16786.39
303.291	16834.98
303.746	19161.65
304.202	24229.61
304.658	24324.03
305.113	16366.83
305.569	16077.28
306.024	17145.48
306.479	16268.04
306.935	13745.37
307.39	14964.47
307.845	13835.12
308.301	13915.9
308.756	13574.21
309.211	13083.98
309.666	13408.27
310.121	16661.84
310.576	16912.36
311.031	16758.77
311.486	19206.01
311.94	19167.91
312.395	25672.87
312.85	48287.37
313.305	237050.78
313.759	1231874.55
314.214	89320.97
314.668	71007.13
315.123	59985.18
315.577	21571.72
316.032	19274.49
316.486	24168.91
316.94	19172.39
317.394	13394.76
317.849	10418.51
318.303	9848.04
318.757	9291.24
319.211	10292.61
319.665	8992.17
320.119	9071.8
320.572	12986.04
321.026	12130.29
321.48	10111.2
321.934	10982.05
322.387	10959.95
322.841	11820.79
323.295	10720.22
323.748	12315.2
324.202	12512.56
324.655	15053.43
325.108	21118.1
325.562	14914.31
326.015	17719.76
326.468	13387.71
326.921	15011.73
327.374	14037.48
327.827	14673.1
328.28	16540.6
328.733	11119.21
329.186	9767.86
329.639	9309.84
330.092	7833.41
330.545	7487.63
330.997	7568.24
331.45	8299.59
331.903	9754.51
332.355	16794.18
332.808	16327.99
333.26	13481.93
333.713	14670.93
334.165	14779.46
334.617	19730.03
335.069	15931.58
335.522	28709.53
335.974	31799.56
336.426	29047.25
336.878	20040.23
337.33	10178.33
337.782	9916.12
338.234	12448.74
338.686	14870.2
339.137	17625.53
339.589	16587
340.041	12997.45
340.493	11210.91
340.944	11478.87
341.396	12391.9
341.847	10455.58
342.299	12368.03
342.75	15154.86
343.201	13196.33
343.653	15190.75
344.104	18697.46
344.555	14732.01
345.006	22938.12
345.457	17655.28
345.908	14016.76
346.359	13187.95
346.81	10727.35
347.261	11280.55
347.712	11092.49
348.163	11913.74
348.613	12096.49
349.064	11297.98
349.515	9923.26
349.965	10201.79
350.416	12240.74
350.866	13422.55
351.317	15137.87
351.767	25135.89
352.217	31791.15
352.668	26357.86
353.118	24156.91
353.568	23228.42
354.018	18365.04
354.468	19359.87
354.918	13839.06
355.368	12104.19
355.818	17109.66
356.268	49205.84
356.718	206289.5
357.168	51425.24
357.617	25804.92
358.067	28622.97
358.517	26804.22
358.966	31529.61
359.416	35401.24
359.865	38349.36
360.315	45644.99
360.764	21322.01
361.213	11976.02
361.663	11293.31
362.112	13912.08
362.561	22503.3
363.01	17002.2
363.459	14361.14
363.908	15501.61
364.357	13188.52
364.806	22260.89
365.255	15305.79
365.703	14056.74
366.152	14092.04
366.601	11439.04
367.05	9298.21
367.498	8462.56
367.947	8818.98
368.395	9147.2
368.844	8119.69
369.292	9734.46
369.74	6745.99
370.189	10321.65
370.637	12110.43
371.085	10417.37
371.533	12675.57
371.981	12207.82
372.429	11676.37
372.877	12199.74
373.325	10240.75
373.773	10392.67
374.221	9244.5
374.669	11439.48
375.116	9868.53
375.564	9930.15
376.012	11112.92
376.459	9179.7
376.907	10961.2
377.354	13204.18
377.801	12345.91
378.249	14161.22
378.696	18113.05
379.143	21987.14
379.591	23412.92
380.038	39719.58
380.485	28843.52
380.932	31167.67
381.379	28682.66
381.826	21227.39
382.273	15148.64
382.72	13239.81
383.166	12963.64
383.613	8470.25
384.06	7683.05
384.506	8988.98
384.953	6672.99
385.4	6763.29
385.846	6025.79
386.292	5941.86
386.739	5924.82
387.185	5968.64
387.631	6148.17
388.078	6159.59
388.524	6801.35
388.97	6464.37
389.416	5509.97
389.862	5972.87
390.308	5754.67
390.754	5957.51
391.2	6656.62
391.645	7059.23
392.091	7064.28
392.537	7084.16
392.983	7305.56
393.428	7359.14
393.874	8095.61
394.319	8461.77
394.765	8488.26
395.21	9347.34
395.655	9399.71
396.101	9413.9
396.546	9057.9
396.991	9732.57
397.436	9645.07
397.881	9989.11
398.326	10209.95
398.771	10372.24
399.216	9718.59
399.661	9300.64
400.106	9765.63
400.551	10501.73
400.995	9844.72
401.44	10128.1
401.885	9845.69
402.329	10264.2
402.774	10118.77
403.218	10025.87
403.663	9944.52
404.107	10515.8
404.551	10923.24
404.995	10365.95
405.44	10356.81
405.884	10903.59
406.328	10919.6
406.772	11231.09
407.216	10539.12
407.66	10553.88
408.104	10459.71
408.547	10172.71
408.991	10182.14
409.435	10109.98
409.879	10211.62
410.322	10310.65
410.766	10187.92
411.209	9930.86
411.653	9815.05
412.096	9881.75
412.54	10153.7
412.983	10308.94
413.426	10530.04
413.869	10757.7
414.312	10738.27
414.756	10573.95
415.199	10292.23
415.642	10172.34
416.085	10354.4
416.527	10441.46
416.97	10768.27
417.413	10319.77
417.856	10335.86
418.298	10324.23
418.741	10311.69
419.184	10356.2
419.626	10857.62
420.069	10908.09
420.511	11020.23
420.953	10853.45
421.396	10845.16
421.838	10677.75
422.28	11024.62
422.722	11166.29
423.164	11496.81
423.606	11461.63
424.048	11632.13
424.49	11172.77
424.932	11266.69
425.374	11255.94
425.816	11539.69
426.258	11728.38
426.699	11730.69
427.141	11326.3
427.582	11323.02
428.024	11143.42
428.465	11114.64
428.907	10950.21
429.348	11009.02
429.789	11157.12
430.231	11027.01
430.672	11301.86
431.113	11235.22
431.554	11384.83
431.995	11566.76
432.436	11547.51
432.877	11642.85
433.318	11660.33
433.759	11807.04
434.2	11946.03
434.64	11958.36
435.081	12139.97
435.522	11673.53
435.962	11446.79
436.403	11357.54
436.843	11691.92
437.284	11610.25
437.724	11442.16
438.164	11627.16
438.604	11464.28
439.045	11091.24
439.485	10703.74
439.925	10606.75
440.365	10461.51
440.805	10420.21
441.245	10336.17
441.685	9997.44
442.125	9970.08
442.564	10055.28
443.004	9816.68
443.444	9809.09
443.883	9846.31
444.323	9855.74
444.762	9963.7
445.202	10141.29
445.641	10318.22
446.081	10340.93
446.52	10435.47
446.959	10358.71
447.398	10137.43
447.837	10075.24
448.276	9951.31
448.716	10071.4
449.154	10173.44
449.593	9873.26
450.032	9791.37
450.471	9609.08
450.91	9576.55
451.349	9485.55
451.787	9402.58
452.226	9479.72
452.664	9411.77
453.103	9354.77
453.541	9271.42
453.98	9122.78
454.418	9107.3
454.856	8862.59
455.295	8779.01
455.733	8738.19
456.171	8713.81
456.609	8625.67
457.047	8519.79
457.485	8539.44
457.923	8471.53
458.361	8311.53
458.798	8320.78
459.236	8274.9
459.674	8351.27
460.111	8368.92
460.549	8300.83
460.987	8300.7
461.424	8293.94
461.862	8286.06
462.299	8184.57
462.736	8174.42
463.173	8229.43
463.611	8118.3
464.048	8118.09
464.485	8199.93
464.922	8164.6
465.359	8169.15
465.796	7966.39
466.233	7951.21
466.67	7891.47
467.106	7898.67
467.543	7886.88
467.98	7828.33
468.416	7706.43
468.853	7697.71
469.29	7507.3
469.726	7455.73
470.162	7277.63
470.599	7301.13
471.035	7254.08
471.471	7101.82
471.907	7093.84
472.344	7051.57
472.78	7041.26
473.216	7110.87
473.652	6987.44
474.088	6940.86
474.523	6858.91
474.959	6878.55
475.395	6765.07
475.831	6658.09
476.266	6636.46
476.702	6558.72
477.138	6415.31
477.573	6329.1
478.008	6229.26
478.444	6167.19
478.879	6125.31
479.314	6073.76
479.75	5987.75
480.185	5942.59
480.62	5917.63
481.055	5870.6
481.49	5819.36
481.925	5813.64
482.36	5799.38
482.795	5868.51
483.229	5942.37
483.664	5971.8
484.099	5904.35
484.534	5898.02
484.968	5866.59
485.403	5806.76
485.837	5734.7
486.271	5656.59
486.706	5597.99
487.14	5502.43
487.574	5365.38
488.009	5273.36
488.443	5187.31
488.877	5185.31
489.311	5160.72
489.745	5171.67
490.179	5169.84
490.613	5198.34
491.046	5199.35
491.48	5197.53
491.914	5158.53
492.348	5157.51
492.781	5147.78
493.215	5127.28
493.648	5115
494.082	5122.5
494.515	5092.74
494.948	5108.29
495.382	5118.43
495.815	5111.39
496.248	5107.9
496.681	5158.63
497.114	5199.91
497.547	5220.3
497.98	5251.81
498.413	5230.48
498.846	5238.44
499.279	5246.22
499.711	5228.98
500.144	5193.64
500.577	5202.25
501.009	5221.66
501.442	5222.31
501.874	5166.67
502.306	5134
502.739	5114.76
503.171	5164.15
503.603	5131.82
504.036	5131.08
504.468	5105.77
504.9	5112.39
505.332	5094.37
505.764	5056.76
506.196	5037.19
506.627	5056.48
507.059	5062.62
507.491	5060.02
507.923	4972.74
508.354	4981.69
508.786	4969.67
509.217	4990.53
509.649	4996.51
510.08	5021.85
510.512	5028.39
510.943	5030.68
511.374	5015.41
511.805	5036.94
512.237	5055.98
512.668	5137.7
513.099	5189.75
513.53	5230.88
513.961	5236.41
514.391	5286.85
514.822	5332.86
515.253	5397.2
515.684	5416.24
516.114	5450.44
516.545	5448.39
516.975	5466.32
517.406	5450.38
517.836	5381.31
518.267	5331.93
518.697	5327.6
519.127	5276.44
519.558	5239.31
519.988	5189.1
520.418	5164.42
520.848	5164.94
521.278	5137.96
521.708	5037.45
522.138	5027.8
522.567	5077.14
522.997	5105.59
523.427	5102.58
523.857	5101.89
524.286	5085.06
524.716	5085.97
525.145	5097.21
525.575	5089.81
526.004	5096.61
526.433	5127.31
526.863	5092.97
527.292	5027.84
527.721	5015.09
528.15	5010.52
528.579	4992.19
529.008	5004.45
529.437	5050.2
529.866	5068.59
530.295	5093.63
530.724	5102.24
531.152	5155.48
531.581	5170.26
532.01	5200.89
532.438	5206.03
532.867	5230.17
533.295	5264.33
533.723	5264.42
534.152	5242.34
534.58	5226.9
535.008	5170.88
535.436	5164.05
535.865	5176.05
536.293	5208.56
536.721	5241.23
537.149	5298.51
537.576	5292.72
538.004	5320.51
538.432	5337.14
538.86	5326.96
539.287	5345.09
539.715	5380.07
540.143	5391.6
540.57	5383.47
540.998	5378.79
541.425	5316.15
541.852	5269.1
542.28	5276.29
542.707	5242.36
543.134	5213.63
543.561	5211.28
543.988	5199.85
544.415	5211.22
544.842	5205.47
545.269	5192.5
545.696	5204.83
546.123	5257.86
546.549	5237.59
546.976	5207.41
547.403	5213.97
547.829	5229.78
548.256	5248.07
548.682	5246.68
549.108	5231.64
549.535	5241.15
549.961	5257.26
550.387	5228.16
550.813	5215.89
551.24	5242.95
551.666	5254.76
552.092	5234.67
552.518	5225.47
552.943	5212.34
553.369	5243.3
553.795	5268.3
554.221	5274.65
554.646	5270.53
555.072	5300.47
555.498	5321.15
555.923	5349.41
556.349	5393.6
556.774	5419.51
557.199	5422.03
557.625	5446.76
558.05	5429.39
558.475	5461.91
558.9	5460.68
559.325	5438.25
559.75	5426.09
560.175	5411.07
560.6	5397.64
561.025	5395.15
561.449	5402.26
561.874	5420.65
562.299	5429.23
562.723	5450.37
563.148	5416.59
563.572	5424.95
563.997	5452.9
564.421	5466.56
564.846	5464.19
565.27	5466.8
565.694	5455.91
566.118	5480.11
566.542	5492.21
566.966	5465.73
567.39	5442.38
567.814	5402.72
568.238	5397.6
568.662	5409.12
569.086	5413.72
569.509	5439.6
569.933	5399.6
570.357	5390.08
570.78	5342.25
571.204	5318.42
571.627	5308.42
572.05	5329.64
572.474	5356.12
572.897	5350.81
573.32	5359.19
573.743	5368.54
574.166	5344.43
574.589	5383.01
575.012	5394.67
575.435	5432
575.858	5444.03
576.281	5450.76
576.704	5441.87
577.126	5447.98
577.549	5453.34
577.972	5465.82
578.394	5469.18
578.817	5480.25
579.239	5458.67
579.661	5452.71
580.084	5433.52
580.506	5429.3
580.928	5455.59
581.35	5457.29
581.772	5476.1
582.194	5463.94
582.616	5450.35
583.038	5435.82
583.46	5435.43
583.882	5453.54
584.303	5500.46
584.725	5519.81
585.147	5535.03
585.568	5591.36
585.99	5646.45
586.411	5683.73
586.833	5749.17
587.254	5768.81
587.675	5837.05
588.096	5901.12
588.518	5896.11
588.939	5846.29
589.36	5849.55
589.781	5844.43
590.202	5741.29
590.623	5726.78
591.043	5734.72
591.464	5698.34
591.885	5691.03
592.305	5675.85
592.726	5624.89
593.147	5626.99
593.567	5602.71
593.987	5567.04
594.408	5538.39
594.828	5531.6
595.248	5491.43
595.669	5400.02
596.089	5355.44
596.509	5313.99
596.929	5238.67
597.349	5218.14
597.769	5158.26
598.189	5108.55
598.608	5089.14
599.028	5070.64
599.448	5048.17
599.867	4983.2
600.287	4953.43
600.706	4918.25
601.126	4865.29
601.545	4845.45
601.965	4830.02
602.384	4803.44
602.803	4808.97
603.222	4785.97
603.641	4762.18
604.061	4747.94
604.48	4738.36
604.898	4772.26
605.317	4799.35
605.736	4816.35
606.155	4817.44
606.574	4797.28
606.992	4830.06
607.411	4827.31
607.829	4819.05
608.248	4828.31
608.666	4841.06
609.085	4859.08
609.503	4847.02
609.921	4844.5
610.339	4874.46
610.758	4896.06
611.176	4903.54
611.594	4892.31
612.012	4904.27
612.43	4935.69
612.847	4981.43
613.265	5001.25
613.683	5039.91
614.101	5068.68
614.518	5080.56
614.936	5066.73
615.353	5033.29
615.771	5042.52
616.188	5066.72
616.606	5075.4
617.023	5072.75
617.44	5039.62
617.857	5040.94
618.274	5029.67
618.691	5022.74
619.108	5004.18
619.525	4997.32
619.942	5036.94
620.359	5059.48
620.776	5050.53
621.192	5040.31
621.609	5038.13
622.026	5067.58
622.442	5096.44
622.859	5115.48
623.275	5093.6
623.691	5121.08
624.108	5171.25
624.524	5235.78
624.94	5239.94
625.356	5284.16
625.772	5346.57
626.188	5401.36
626.604	5413.48
627.02	5400.75
627.436	5394.19
627.852	5423.96
628.268	5474.77
628.683	5443.9
629.099	5415.83
629.514	5407.5
629.93	5433.01
630.345	5460.96
630.761	5456.12
631.176	5484.29
631.591	5467.2
632.007	5458.65
632.422	5473.76
632.837	5447.89
633.252	5454.29
633.667	5433.28
634.082	5415.71
634.497	5384.75
634.911	5323.37
635.326	5336.58
635.741	5291.6
636.155	5285.8
636.57	5320.6
636.984	5353.56
637.399	5392.15
637.813	5433.21
638.228	5467.13
638.642	5531.47
639.056	5531.24
639.47	5582.98
639.884	5590.82
640.298	5611.46
640.712	5654.25
641.126	5647.55
641.54	5661.69
641.954	5701.22
642.368	5694.74
642.781	5699.77
643.195	5667.31
643.609	5722.79
644.022	5748.13
644.436	5782.05
644.849	5777.27
645.262	5769.95
645.676	5835.74
646.089	5856.4
646.502	5813.24
646.915	5832.71
647.328	5796.28
647.741	5825.68
648.154	5795.81
648.567	5802.67
648.98	5759.75
649.393	5796.13
649.805	5810.32
650.218	5802.21
650.631	5736.86
651.043	5734.91
651.456	5724.41
651.868	5754.25
652.28	5878.82
652.693	5973.47
653.105	6026.78
653.517	6087.06
653.929	6088.61
654.341	6129.85
654.753	6066.18
655.165	6130.63
655.577	6145.22
655.989	6157.01
656.401	6155.26
656.813	5971.28
657.224	5905.04
657.636	5805.15
658.047	5761.8
658.459	5714.26
658.87	5734.78
659.282	5732.3
659.693	5656.38
660.104	5618.13
660.515	5587.75
660.926	5632.75
661.338	5678.69
661.749	5695.54
662.159	5679.99
662.57	5715.46
662.981	5738.71
663.392	5735.94
663.803	5813.59
664.213	5853.27
664.624	5876.8
665.035	5948.58
665.445	5896.54
665.855	5881.21
666.266	5853.86
666.676	5876.8
667.086	5843.23
667.497	5862.6
667.907	5844.36
668.317	5800
668.727	5768.92
669.137	5796.86
669.547	5792.6
669.956	5828.27
670.366	5856.12
670.776	5878.33
671.186	5917.9
671.595	5945.11
672.005	5981.79
672.414	5968
672.824	5947.23
673.233	6005.54
673.642	6013.89
674.052	6025.17
674.461	6022.99
674.87	6053.02
675.279	6015.46
675.688	6024.6
676.097	6012.24
676.506	5971.8
676.915	6076.07
677.323	6084.71
677.732	6055.72
678.141	6039.68
678.549	5947.96
678.958	5931.53
679.366	5909.48
679.775	5936.75
680.183	5963.84
680.592	5983.54
681	5991.44
681.408	5896.04
681.816	5908.42
682.224	5925.93
682.632	5924.67
683.04	6064.81
683.448	6141.99
683.856	6221.43
684.264	6302.05
684.671	6364.5
685.079	6452.41
685.487	6548.34
685.894	6738.37
686.302	6837.95
686.709	6853.97
687.116	6903.95
687.524	6882.76
687.931	6839.76
688.338	6788.53
688.745	6734.59
689.152	6688.91
689.559	6681.51
689.966	6650.88
690.373	6513.66
690.78	6455.27
691.187	6484.34
691.593	6438.45
692	6371.93
692.407	6373.09
692.813	6414.44
693.22	6403.63
693.626	6411.19
694.032	6375.66
694.439	6430.04
694.845	6437.55
695.251	6494.04
695.657	6523.73
696.063	6651.42
696.469	6694.95
696.875	6724.45
697.281	6676.98
697.687	6648.05
698.093	6593.07
698.498	6631.86
698.904	6629.48
699.31	6701.82
699.715	6709.21
700.12	6797.1
700.526	6723.37
700.931	6778.55
701.337	6796.03
701.742	6782.1
702.147	6881.78
702.552	6866.62
702.957	6921.21
703.362	6892.98
703.767	6886.72
704.172	6912.71
704.577	6758.09
704.981	6795.83
705.386	6768.32
705.791	6696.18
706.195	6784.91
706.6	6747.59
707.004	6857.48
707.408	6748.57
707.813	6753.51
708.217	6683.03
708.621	6640.17
709.025	6777.62
709.43	6732.46
709.834	6799.29
710.237	6886.71
710.641	6819.54
711.045	6819.04
711.449	6764.49
711.853	6770.36
712.256	6801.84
712.66	6827.29
713.064	6909.23
713.467	6919.87
713.87	7036.57
714.274	7017.44
714.677	7083.69
715.08	7219.27
715.484	7349.19
715.887	7512.2
716.29	7662.17
716.693	7807.67
717.096	7994.17
717.499	8034.87
717.901	7957.92
718.304	7938.26
718.707	7965.84
719.109	7851.48
719.512	7853.42
719.915	7705.37
720.317	7671.87
720.719	7770.79
721.122	7762.86
721.524	7712.48
721.926	7658.49
722.328	7791.79
722.731	7740.73
723.133	7722.53
723.535	7933.21
723.937	7891.69
724.338	7904.19
724.74	7907.88
725.142	7773.75
725.544	7752.16
725.945	7770.46
726.347	7755.32
726.748	7734.13
727.15	7744.12
727.551	7683.02
727.952	7631.16
728.354	7582.7
728.755	7585.09
729.156	7545.51
729.557	7566.47
729.958	7422.78
730.359	7385.22
730.76	7405.29
731.161	7371.96
731.562	7383.79
731.962	7436.29
732.363	7388.84
732.763	7337.33
733.164	7421.05
733.564	7347.05
733.965	7219.91
734.365	7182.99
734.766	7230.63
735.166	7170.99
735.566	7080.93
735.966	7033.85
736.366	7014.71
736.766	6918.78
737.166	6962.51
737.566	6904.21
737.966	6862.38
738.365	6916.34
738.765	6900.31
739.165	6788.81
739.564	6747.8
739.964	6815.85
740.363	6754.65
740.763	6758.29
741.162	6747.22
741.561	6699.92
741.96	6633.72
742.36	6666.04
742.759	6677.56
743.158	6738.85
743.557	6760.63
743.955	6820.67
744.354	6751.4
744.753	6827.86
745.152	6762.27
745.55	6836.14
745.949	6820.04
746.348	6810.65
746.746	6822.21
747.144	6751.38
747.543	6707.05
747.941	6760.89
748.339	6644.76
748.737	6621.9
749.136	6596.23
749.534	6674.3
749.932	6617.99
750.33	6639.35
750.727	6707.9
751.125	6666.65
751.523	6637.11
751.921	6685.45
752.318	6629.72
752.716	6700.34
753.113	6705.6
753.511	6728.01
753.908	6714.55
754.305	6679.66
754.703	6751.75
755.1	6817.53
755.497	6881.33
755.894	7109
756.291	7274.71
756.688	7571.02
757.085	7916.57
757.482	8394.34
757.878	8850.49
758.275	9182.07
758.672	9740.21
759.068	10096.06
759.465	10702.93
759.861	11497
760.258	12394.79
760.654	12680.75
761.05	12354
761.447	11783.13
761.843	11110.28
762.239	10469.66
762.635	10291.65
763.031	10098.83
763.427	9712.85
763.822	9299.86
764.218	8906.1
764.614	8316.73
765.01	7976.88
765.405	7809.81
765.801	7709.7
766.196	7498.3
766.592	7428.72
766.987	7186.43
767.382	7036.08
767.778	7019.51
768.173	6930.9
768.568	6892.32
768.963	6776.15
769.358	6829.6
769.753	6790.87
770.148	6696.48
770.542	6705.24
770.937	6672.17
771.332	6789.4
771.726	6812.39
772.121	6724.94
772.515	6785.03
772.91	6761.8
773.304	6844.53
773.699	6750.11
774.093	6813.59
774.487	6874.61
774.881	6916.72
775.275	6898.51
775.669	6833.87
776.063	6881.12
776.457	6914.5
776.851	6810.13
777.245	6787.56
777.638	6819.28
778.032	6949.63
778.425	6888.81
778.819	6932.38
779.212	6871.79
779.606	6808.93
779.999	6817.37
780.392	6779.94
780.786	6865.02
781.179	6876.64
781.572	6916.2
781.965	6910.97
782.358	6826.76
782.751	6880.63
783.143	6801.58
783.536	6868.02
783.929	6899.01
784.322	7016.77
784.714	7033.03
785.107	7005.22
785.499	7068.6
785.891	7011.35
786.284	6960.69
786.676	7094.81
787.068	7037.58
787.46	7064.96
787.852	7053.78
788.245	7121.31
788.636	7126.09
789.028	7174.2
789.42	7188.76
789.812	7166.29
790.204	7247.56
790.595	7337.74
790.987	7096.8
791.378	7105.16
791.77	7234.97
792.161	7364.15
792.553	7408.94
792.944	7262.69
793.335	7165.23
793.726	7223.13
794.117	7304.4
794.508	7440.84
794.899	7388.52
795.29	7528.66
795.681	7570.02
796.072	7392.55
796.463	7179.95
796.853	7171.1
797.244	7318.88
797.634	7330.19
798.025	7308.55
798.415	7295.51
798.806	7362.5
799.196	7422.74
799.586	7441.25
799.976	7366.4
800.366	7575.18
800.756	7788
801.146	7711.27
801.536	7714.98
801.926	7765.15
802.316	7768.95
802.706	7819.63
803.095	7676.7
803.485	7765.13
803.874	7788.39
804.264	8036.33
804.653	7990.85
805.043	8119.12
805.432	8206.73
805.821	8185.19
806.21	8175.67
806.599	8260
806.988	8267.94
807.377	8322.49
807.766	8402.25
808.155	8627.19
808.544	8318.88
808.933	8277.41
809.321	8201.28
809.71	8421.79
810.098	8498.04
810.487	8855.02
810.875	9211.91
811.264	9137.88
811.652	9311.13
812.04	9333.58
812.428	9370.05
812.816	9920.75
813.204	10159.68
813.592	10493.98
813.98	10656.88
814.368	10471.27
814.756	10768.69
815.144	10616.15
815.531	10919.47
815.919	10786.78
816.306	10973.29
816.694	10683.47
817.081	10707.93
817.469	10977.25
817.856	10991.16
818.243	11222.59
818.63	11548.01
819.017	11215.28
819.404	11244.55
819.791	11501.02
820.178	11928
820.565	12085.16
820.952	12790.92
821.339	12366.96
821.725	12478.17
822.112	11861.76
822.498	11787.25
822.885	11847.84
823.271	11746.76
823.657	12067.56
824.044	12100.18
824.43	12177.07
824.816	12159.65
825.202	11793.55
825.588	12548.96
825.974	12514.82
826.36	12852.32
826.746	12825.68
827.132	13042.98
827.517	12982.11
827.903	12336.93
828.289	12319.26
828.674	11702.66
829.06	11585.15
829.445	11856.04
829.83	12086.86
830.216	12418.94
830.601	12670.52
830.986	12350.28
831.371	12239.2
831.756	12621.88
832.141	12293.75
832.526	12272.74
832.911	12467.69
833.295	12377.46
833.68	12709.04
834.065	12255.01
834.449	11574.58
834.834	11513.97
835.218	11501.47
835.603	11739.39
835.987	11572.63
836.371	12169.5
836.755	12077.66
837.139	12350.28
837.524	12508.06
837.908	12363.94
838.291	12392.8
838.675	12425.82
839.059	12566.03
839.443	12539.04
839.827	12345.16
840.21	12668.01
840.594	12546.95
840.977	12675.89
841.361	12642.45
841.744	12885.59
842.127	12758.55
842.511	12909.41
842.894	13315.61
843.277	13565.03
843.66	13927.62
844.043	13969.18
844.426	13383.61
844.809	13139.85
845.191	13144.19
845.574	12799.34
845.957	12525.88
846.339	12422.47
846.722	12030.68
847.104	12048.16
847.487	11883.91
847.869	11861.56
848.252	12032.25
848.634	12236.26
849.016	12385.82
849.398	12441.74
849.78	13000.45
850.162	12982.62
850.544	13238.14
850.926	13619.25
851.307	13509.92
851.689	13665.81
852.071	13935.12
852.452	14113.79
852.834	14065.89
853.215	14304.29
853.597	14381.37
853.978	14556.93
854.359	14830.75
854.741	14163.5
855.122	14109.58
855.503	13934.22
855.884	14037.82
856.265	14009.11
856.646	14092.2
857.026	13841.6
857.407	13793.46
857.788	13892.09
858.169	14066.06
858.549	13494.27
858.93	13895.53
859.31	13906.56
859.69	14035.21
860.071	13744.61
860.451	13587.72
860.831	13075.51
861.211	13817.11
861.591	14160.49
861.971	14121.48
862.351	14232.7
862.731	14455.04
863.111	14587.68
863.491	14772.42
863.87	15301.99
864.25	15485.97
864.629	15190.37
865.009	15488.2
865.388	16003.74
865.768	17116.58
866.147	17022.61
866.526	16048.28
866.905	16219.04
867.284	17123.2
867.663	16252.54
868.042	15566.95
868.421	15523.81
868.8	15773.9
869.179	15924.74
869.558	14981.82
869.936	13800.54
870.315	14038.52
870.693	14381.51
871.072	15499.94
871.45	14745.38
871.828	14925.2
872.207	15677.17
872.585	15418.73
872.963	15806.43
873.341	15257.26
873.719	15074.7
874.097	14881.15
874.475	15142.18
874.853	15466.69
875.23	14814.87
875.608	15431.42
875.986	16665.63
876.363	15931.45
876.741	16420.24
877.118	16009.28
877.495	16775.38
877.873	17025.85
878.25	17898.36
878.627	17144.82
879.004	17369.35
879.381	17261.47
879.758	16784.88
880.135	15615.69
880.512	16497.19
880.889	16035.93
881.265	15850.72
881.642	15694.48
882.019	15948.85
882.395	15610.05
882.772	16225.54
883.148	15507.48
883.524	15439.71
883.901	15342.35
884.277	15559.64
884.653	15433.97
885.029	15866.53
885.405	17555.38
885.781	17407.63
886.157	16671.71
886.532	16860.64
886.908	16838.35
887.284	18720.74
887.659	19314.41
888.035	19897.99
888.411	20394.91
888.786	20665.08
889.161	21361.08
889.537	20951.87
889.912	21601.45
890.287	21560.64
890.662	22087.48
891.037	21641.95
891.412	20128.61
891.787	19874.56
892.162	19134.01
892.536	19537.23
892.911	18764.23
893.286	18309.85
893.66	17513.22
894.035	17906.54
894.409	19426.53
894.784	18585.72
895.158	18834.9
895.532	19893.13
895.906	20382.12
896.281	20797.97
896.655	20397.36
897.029	23214.91
897.402	24116.14
897.776	26769.07
898.15	26597.06
898.524	26279.29
898.898	26578.73
899.271	29729.21
899.645	25724.3
900.018	24686.92
900.392	25606.08
900.765	25821.23
901.138	23917.3
901.511	23571.81
901.884	21689.74
902.258	20060.17
902.631	20772.59
903.003	23949.11
903.376	21627.99
903.749	24277.21
904.122	26021.45
904.495	28653.74
904.867	29021.06
905.24	25172.89
905.612	23404.92
905.985	23888.37
906.357	24933.28
906.729	23722.74
907.102	20220.79
907.474	19404.61
907.846	19489.98
908.218	19183.68
908.59	16932.66
908.962	16342.4
909.334	17587.42
909.705	18469.28
910.077	17913.51
910.449	18618.72
910.82	19141.06
911.192	21039.74
911.563	21862.29
911.935	23379.06
912.306	23394.89
912.677	24138.6
913.048	23899.95
913.419	25888.03
913.79	26002.82
914.161	27875.29
914.532	26654.91
914.903	24469.84
915.274	23234.71
915.645	22890.91
916.015	20132.71
916.386	19206.86
916.756	20443.76
917.127	21089.66
917.497	18872.25
917.868	20572.41
918.238	19570.28
918.608	20149.22
918.978	20594.16
919.348	21824.82
919.718	22576.48
920.088	21779.12
920.458	22659.65
920.828	23869.43
921.198	22660.54
921.567	24203.84
921.937	18737.69
922.306	18890.09
922.676	20367.97
923.045	17003.55
923.415	16168.38
923.784	14719.62
924.153	15132.06
924.522	15107.85
924.891	14191.51
925.26	15197.07
925.629	14836.81
925.998	17038.63
926.367	16635.49
926.736	15828.15
927.104	18802.55
927.473	20147.73
927.842	24253.15
928.21	23932.26
928.578	25060.54
928.947	23628.31
929.315	23661.27
929.683	27679.64
930.051	27804.63
930.42	32149.79
930.788	27356.18
931.156	27052.66
931.523	25301.41
931.891	23339.21
932.259	22378.46
932.627	25880.99
932.994	36514.98
933.362	30180.81
933.729	26142.9
934.097	24977.5
934.464	21133.79
934.831	24332.39
935.199	23964.06
935.566	23247.53
935.933	23507.14
936.3	28501.67
936.667	22207.64
937.034	20151.97
937.401	19918.28
937.767	17230.14
938.134	15393.85
938.501	21740.16
938.867	23324.57
939.234	39546.53
939.6	33798.95
939.967	37452.66
940.333	25150.79
940.699	21474.31
941.065	17186.91
941.431	22600.92
941.798	21803.26
942.163	28620.6
942.529	17885.35
942.895	16404.56
943.261	10614.73
943.627	13936.25
943.992	12188.81
944.358	12193.48
944.723	12255.39
945.089	11921.79
945.454	11002.33
945.82	11748.08
946.185	11281.71
946.55	13080.76
946.915	11748.23
947.28	13812.44
947.645	12172.22
948.01	11264.98
948.375	11771.57
948.74	14069.84
949.104	16417.17
949.469	23663.05
949.834	41787.95
950.198	39771.97
950.562	23817.46
950.927	19818.6
951.291	23790.86
951.655	20219.87
952.02	18922.39
952.384	14282.6
952.748	12448.91
953.112	12176.63
953.476	10598.83
953.839	9802.59
954.203	9701.98
954.567	12125.71
954.931	19039.98
955.294	16291.64
955.658	16403.68
956.021	27927.62
956.385	47231.9
956.748	69639.09
957.111	107364.15
957.474	120290.63
957.837	135224.7
958.2	102049.91
958.563	36705.28
958.926	24910.5
959.289	37790.87
959.652	42221.2
960.015	31686.21
960.377	45513.76
960.74	51959.7
961.102	89849.5
961.465	96852.55
961.827	52412.31
962.189	100601.66
962.552	69877.42
962.914	55943.83
963.276	36306.33
963.638	29984.73
964	29682.94
964.362	20075.57
964.724	19382.79
965.085	13862.02
965.447	11361.33
965.809	12854.34
966.17	12853.42
966.532	13902.74
966.893	12780.74
967.255	11650.6
967.616	13768.16
967.977	11037.61
968.338	12084.12
968.699	9971.22
969.061	9969.78
969.421	10063.99
969.782	11297.33
970.143	9583.3
970.504	9970.76
970.865	11346.68
971.225	11623.26
971.586	11388.4
971.946	16217.48
972.307	14061.47
972.667	18352.79
973.027	18908.8
973.388	22857.99
973.748	15562.45
974.108	16936.14
974.468	22832.18
974.828	17676.81
975.188	13567
975.548	12446.12
975.907	10469.15
976.267	11703.75
976.627	9862.4
976.986	10223.05
977.346	9733.46
977.705	9354.28
978.064	8521.43
978.424	7103.21
978.783	7293.76
979.142	8346.5
979.501	8016.69
979.86	8492.65
980.219	8197.73
980.578	10549.74
980.937	11811.86
981.296	10558.63
981.654	10892.51
982.013	16934.57
982.371	21985.53
982.73	20580.24
983.088	23301.33
983.447	24913.58
983.805	35626.71
984.163	74557.46
984.521	82855
984.879	121447.23
985.237	-197982.83
985.595	190825.78
985.953	47380.09
986.311	27341
986.669	15885.61
987.026	13714.62
987.384	18367.49
987.741	18986.17
988.099	13666.18
988.456	10904.09
988.814	10239.53
989.171	8895.92
989.528	8752.5
989.885	9268.27
990.242	7358.96
990.599	9174.77
990.956	7516.27
991.313	5276.74
991.67	4337.73
992.027	4645.55
992.383	4129.93
992.74	3624.45
993.096	3815.24
993.453	3962.8
993.809	4107.35
994.165	5470.54
994.522	5071.69
994.878	5588.48
995.234	7011.69
995.59	6923.68
995.946	6461.8
996.302	7377.94
996.658	8507.57
997.013	9350.14
997.369	11134.47
997.725	14301.07
998.08	9270.32
998.436	14113.82
998.791	19506.9
999.147	19503.45
999.502	21252.14
999.857	15457.18
1000.212	25268.54
1000.567	36038.89
1000.922	20850.5
1001.277	13295.03
1001.632	9845.36
1001.987	12720.13
1002.342	9141.03
1002.696	7315.07
1003.051	5853.48
1003.406	7106.79
1003.76	7069.72
1004.114	6935.72
1004.469	5852.26
1004.823	4847.44
1005.177	5208.79
1005.531	4137.07
1005.885	3661.41
1006.239	4154.47
1006.593	5219.16
1006.947	6975.61
1007.301	5243.63
1007.655	5733.08
1008.008	4239.03
1008.362	4775.19
1008.715	6803.31
1009.069	6186.69
1009.422	9409.39
1009.776	18945.63
1010.129	12542.12
1010.482	10438.62
1010.835	8811.51
1011.188	18276.95
1011.541	17167.26
1011.894	-104464.06
1012.247	307118.2
1012.6	20856.84
1012.952	13243.37
1013.305	6735.84
1013.657	4860.53
1014.01	4612.19
1014.362	3821.38
1014.715	3457.37
1015.067	3050.35
1015.419	2992.6
1015.771	2677.29
1016.123	2396.97
1016.475	2484.85
1016.827	2637.45
1017.179	2868.15
1017.531	2888.97
1017.883	2952.35
1018.234	2900.82
1018.586	3657.04
1018.938	3896.52
1019.289	5415.59
1019.64	6155.87
1019.992	5720.09
1020.343	5218.99
1020.694	4194.8
1021.045	3684.98
1021.396	4201.61
1021.747	4531.82
1022.098	5349.91
1022.449	3865.19
1022.8	3556.33
1023.151	2488.88
1023.501	2233.96
1023.852	2425.17
1024.202	2548.59
1024.553	2758.93
1024.903	2730.78
1025.253	2386.75
1025.604	2162.91
1025.954	2697.2
1026.304	3249.54
1026.654	3783.56
1027.004	5509.41
1027.354	8810.87
1027.703	8407.71
1028.053	10875.91
1028.403	16166.03
1028.753	23344.15
1029.102	31053.54
1029.452	157195.7
1029.801	6756.03
1030.15	4396.34
1030.499	3706.4
897.758	3322.48
901.051	3309.66
904.343	3349.06
907.636	3340.17
910.928	3410.14
914.22	3308.5
917.511	3321.07
920.803	3409.35
924.094	3457.95
927.384	3406.46
930.675	3369.19
933.965	3310.42
937.255	3300.67
940.544	3264.65
943.834	3112.02
947.123	3070.93
950.411	3180.22
953.7	3142.44
956.988	3085.05
960.276	3031
963.563	3158.9
966.851	3137.83
970.138	3217.43
973.424	3195.61
976.711	3141.79
979.997	3404.73
983.283	3419.77
986.568	3285.12
989.853	3335.26
993.138	3368.15
996.423	3453.64
999.708	3361.37
1002.992	3482.7
1006.275	3201.55
1009.559	3310.39
1012.842	3452.6
1016.125	3356.42
1019.408	3334.64
1022.69	3466.93
1025.972	3466.46
1029.254	3435.5
1032.536	3322.96
1035.817	3369.48
1039.098	3268.47
1042.379	3545.17
1045.659	3493.66
1048.939	3404.8
1052.219	3447.51
1055.498	3474.22
1058.778	3441.29
1062.057	3434.81
1065.335	3452.44
1068.614	3486.49
1071.892	3448.04
1075.17	3553.54
1078.447	3528.78
1081.724	3512.38
1085.001	3566.34
1088.278	3528.75
1091.554	3554.59
1094.83	3552.85
1098.106	3577.1
1101.382	3643.29
1104.657	3642.68
1107.932	3641.56
1111.206	3583.92
1114.481	3542.1
1117.755	3553.09
1121.029	3511.19
1124.302	3563.18
1127.575	3489.9
1130.848	3466.38
1134.121	3417.52
1137.393	3347.22
1140.665	3429.97
1143.937	3408.35
1147.208	3305.67
1150.48	3331.58
1153.75	3313.91
1157.021	3386.59
1160.291	3339.66
1163.561	3379.4
1166.831	3402.24
1170.101	3437
1173.37	3419.25
1176.639	3338.89
1179.907	3414.11
1183.176	3475.58
1186.444	3478.53
1189.711	3511.43
1192.979	3510.21
1196.246	3469.11
1199.513	3494.63
1202.78	3489.23
1206.046	3494.67
1209.312	3537.62
1212.578	3573.76
1215.843	3501.55
1219.108	3480.19
1222.373	3507.41
1225.638	3452.69
1228.902	3428.18
1232.166	3389.55
1235.43	3365.22
1238.693	3378.59
1241.956	3383.49
1245.219	3413.35
1248.482	3418.91
1251.744	3408.52
1255.006	3598.49
1258.268	3559.55
1261.529	3484.88
1264.79	3503.95
1268.051	3635.46
1271.312	3657.71
1274.572	3611.13
1277.832	3604.57
1281.092	3606.47
1284.351	3551.84
1287.61	3521.12
1290.869	3405.03
1294.128	3355.78
1297.386	3502.14
1300.644	3485.2
1303.902	3499.22
1307.159	3335.7
1310.416	3397.94
1313.673	3417.01
1316.93	3382.83
1320.186	3457.72
1323.442	3514.17
1326.697	3491.05
1329.953	3503.38
1333.208	3512.94
1336.463	3495.92
1339.717	3420.83
1342.972	3510.74
1346.226	3517.26
1349.479	3423.84
1352.733	3379.02
1355.986	3419.53
1359.238	3389.76
1362.491	3386.28
1365.743	3391.91
1368.995	3394.71
1372.247	3408.97
1375.498	3421.37
1378.749	3492.74
1382	3427.06
1385.251	3505.64
1388.501	3477.76
1391.751	3443.22
1395	3421.08
1398.25	3462.74
1401.499	3455.72
1404.748	3362.89
1407.996	3269.36
1411.244	3266.57
1414.492	3238.69
1417.74	3212.16
1420.987	3232.74
1424.234	3285.59
1427.481	3289.1
1430.728	3344.42
1433.974	3319.27
1437.22	3351.55
1440.465	3353.29
1443.711	3362.05
1446.956	3396.12
1450.201	3406.86
1453.445	3452.68
1456.689	3414.81
1459.933	3432.55
1463.177	3459.02
1466.42	3430.68
1469.663	3408.38
1472.906	3374.88
1476.148	3525.55
1479.391	3398.42
1482.633	3387.41
1485.874	3382.96
1489.115	3345.75
1492.356	3376.85
1495.597	3343.91
1498.838	3357.88
1502.078	3302.2
1505.318	3218.19
1508.557	3276.07
1511.797	3185.32
1515.036	3373.22
1518.274	3352.38
1521.513	3338.29
1524.751	3371.92
1527.989	3376.71
1531.227	3383.14
1534.464	3351.92
1537.701	3407.03
1540.938	3437.06
1544.174	3395.91
1547.41	3409.58
1550.646	3446.14
1553.882	3471.13
1557.117	3525.69
1560.352	3553.51
1563.587	3499.9
1566.821	3446.76
1570.055	3509.63
1573.289	3466.31
1576.523	3569.68
1579.756	3563.42
1582.989	3580.85
1586.222	3538.49
1589.454	3588.38
1592.686	3556.14
1595.918	3573.82
1599.15	3551.99
1602.381	3667.67
1605.612	3587.62
1608.843	3695.6
1612.073	3591.67
1615.303	3573.61
1618.533	3547.64
1621.762	3561.2
1624.992	3564.15
1628.221	3521.7
1631.449	3505.7
1634.678	3600.19
1637.906	3541.93
1641.134	3598.7
1644.361	3539.16
1647.588	3523.8
1650.815	3532.06
1654.042	3529.97
1657.269	3566.86
1660.495	3515.18
1663.72	3448.34
1666.946	3443.41
1670.171	3340.37
1673.396	3312.61
1676.621	3314.56
1679.845	3367.11
1683.069	3409.35
1686.293	3473.31
1689.517	3419.04
1692.74	3309.34
1695.963	3328.89
1699.185	3437.54
1702.408	3378.29
1705.63	3436.6
1708.852	3444.8
1712.073	3411.59
1715.294	3374.61
1718.515	3393.03
1721.736	3337.16
1724.956	3294.95
1728.176	3334.18
1731.396	3348.69
1734.616	3350.44
1737.835	3356.1
1741.054	3354.41
1744.272	3350.34
1747.491	3361.76
1750.709	3452.76
1753.927	3354.65
1757.144	3412.34
1760.361	3493.75
1763.578	3502.62
1766.795	3431.35
1770.011	3451.39
1773.227	3517.91
1776.443	3546.11
1779.658	3591.01
1782.874	3535.54
1786.089	3494.81
1789.303	3499.89
1792.518	3513.6
1795.732	3503.37
1798.945	3506.62
1802.159	3568.94
1805.372	3422.09
1808.585	3390.3
1811.797	3395.84
1815.01	3480.82
1818.222	3486.47
1821.434	3348.74
1824.645	3464.83
1827.856	3418.71
1831.067	3469.98
1834.278	3382.24
1837.488	3375.71
1840.698	3565.04
1843.908	3461.49
1847.117	3418
1850.326	3235.79
1853.535	3380.52
1856.744	3520.83
1859.952	3388.2
1863.16	3387.27
1866.368	3410.39
1869.575	3578.57
1872.782	3448.96
1875.989	3391.72
1879.196	3527.47
1882.402	3519.03
1885.608	3572.55
1888.814	3426.67
1892.019	3295.4
1895.224	3351.81
1898.429	3347.4
1901.634	3317.26
1904.838	3299.55
1908.042	3340.56
1911.246	3340.87
1914.449	3225.92
1917.652	3245.1
1920.855	3229.31
1924.058	3306.7
1927.26	3335.08
1930.462	3372.4
1933.664	3389.03
1936.865	3313.12
1940.066	3308.27
1943.267	3257.41
1946.467	3283.84
1949.668	3324.79
1952.868	3389.63
1956.067	3347.38
1959.267	3268.58
1962.466	3303.37
1965.665	3290.96
1968.863	3284.51
1972.061	3324.9
1975.259	3328.98
1978.457	3420.73
1981.654	3368.31
1984.852	3365.63
1988.048	3269.51
1991.245	3292.87
1994.441	3379.5
1997.637	3396.58
2000.833	3378.81
2004.028	3426.47
2007.223	3462.42
2010.418	3427.61
2013.613	3395.03
2016.807	3332.99
2020.001	3360.4
2023.194	3437.05
2026.388	3398.12
2029.581	3348.02
2032.774	3378.16
2035.966	3373.61
2039.158	3282.35
2042.35	3325.38
2045.542	3246.76
2048.733	3383.48
2051.924	3445.25
2055.115	3488.78
2058.306	3397.01
2061.496	3468.89
2064.686	3553.59
2067.875	3474.01
2071.065	3507.78
2074.254	3547.58
2077.442	3493.64
2080.631	3599.35
2083.819	3428.59
2087.007	3393.77
2090.195	3346.43
2093.382	3409.94
2096.569	3381.59
2099.756	3316.83
2102.942	3318.04
2106.128	3306.41
2109.314	3305.76
2112.5	3238.42
2115.685	3222.65
2118.87	3237.28
2122.055	3313.8
2125.239	3257.72
2128.424	3209.49
2131.608	3378.75
2134.791	3359.34
2137.974	3447.3
2141.157	3427.53
2144.34	3348.92
2147.523	3363.21
2150.705	3357.42
2153.887	3354.07
2157.068	3270.9
2160.25	3300.85
2163.431	3366.47
2166.611	3274.2
2169.792	3286.78
2172.972	3151.37
2176.152	3274.37
2179.331	3321.7
2182.511	3309.71
2185.69	3346.38
2188.868	3330.12
2192.047	3418.85
2195.225	3377.42
2198.403	3319.31
2201.58	3321.65
2204.758	3321.94
2207.935	3424.59
2211.111	3270.02
2214.288	3248.51
2217.464	3298.22
2220.64	3285.29
2223.815	3352.52
2226.991	3253.45
2230.166	3280.37
2233.34	3294.86
2236.515	3333.99
2239.689	3430.58
2242.863	3358.35
2246.036	3423.8
2249.209	3445.23
2252.382	3499.25
2255.555	3467.9
2258.727	3381.83
2261.9	3433.34
2265.071	3425.23
2268.243	3434.51
2271.414	3343.65
2274.585	3268.72
2277.756	3349.07
2280.926	3303.96
2284.096	3360.78
2287.266	3232.96
2290.436	3304.11
2293.605	3347.77
2296.774	3369.74
2299.942	3412.36
2303.111	3433.05
2306.279	3475.75
2309.447	3466.19
2312.614	3448.94
2315.781	3461.14
2318.948	3416.68
2322.115	3461.89
2325.281	3354.81
2328.447	3391.47
2331.613	3372.69
2334.779	3318.77
2337.944	3333.01
2341.109	3325.03
2344.274	3298.87
2347.438	3256.23
2350.602	3291.35
2353.766	3313.66
2356.929	3295
2360.092	3341.76
2363.255	3268.79
2366.418	3155.22
2369.58	3335.6
2372.742	2993.89
2375.904	3033.82
2379.066	2993.23
2382.227	3045.09
2385.388	3004.59
2388.548	2903.2
2391.709	2979.69
2394.869	2950.05
2398.029	3107.01
2401.188	3145.34
2404.347	3038
2407.506	3269.98
2410.665	3294.67
2413.823	3326.03
2416.981	3252.08
2420.139	3302.84
2423.296	3365.87
2426.453	3338.66
2429.61	3365.44
2432.767	3252.94
2435.923	3309.9
2439.079	3176.07
2442.235	3270.24
2445.391	3170.32
2448.546	3177.48
2451.701	3254.63
2454.855	3188.78
2458.009	3273.9
2461.163	3293.5
2464.317	3235.13
2467.471	3278.56
2470.624	3313.77
2473.777	3377.49
2476.929	3366.1
2480.082	3394.89
2483.234	3362.93
2486.385	3219.9
2489.537	3224.32
2492.688	3148.22
2495.839	3165.23
2498.989	3170.23
2502.14	3146.54
2505.29	3116.68
2508.439	3147.43
2511.589	3043.73
2514.738	3073.6
2517.887	3102.95
2521.035	3273.28
2524.183	3263.44
2527.331	3230.33
2530.479	3179.67
2533.627	3199.25
