Data from C_3_DEC_ON_6N_Splice17_13-36-16-336.txt Node
Date: Sat Mar 14 13:36:16 EDT 2020
User: sa697716
Spectrometer: FLMS03696
Trigger mode: 0
Integration Time (sec): 3.180400E-1
Scans to average: 20
Electric dark correction enabled: true
Nonlinearity correction enabled: true
Boxcar width: 5
XAxis mode: Wavelengths
Number of Pixels in Spectrum: 2048
>>>>>Begin Spectral Data<<<<<
187.83	-437220.39
188.298	3187.41
188.766	1625.08
189.233	1521.49
189.701	2126
190.169	3007.17
190.636	1144.76
191.104	885.96
191.571	134.24
192.039	-68.29
192.506	-72.27
192.974	687.15
193.441	-849.36
193.908	-399.51
194.375	-67.37
194.842	-6.55
195.31	154.78
195.777	217.24
196.244	463.31
196.711	471.93
197.177	572.91
197.644	752.95
198.111	1297.35
198.578	1779.17
199.045	1431.42
199.511	2307.56
199.978	2664.73
200.445	2283.3
200.911	2523.36
201.378	2758.17
201.844	2517.91
202.31	4274.88
202.777	4491.58
203.243	2509.85
203.709	2370.52
204.176	2774.31
204.642	2291.89
205.108	2145.08
205.574	1729.02
206.04	1547.73
206.506	1466.26
206.972	1369.92
207.438	1316.21
207.903	1491.04
208.369	1299.7
208.835	1309.48
209.301	1401.44
209.766	1417.2
210.232	1390.32
210.697	1704.24
211.163	2115.13
211.628	3183.15
212.094	2678.13
212.559	3375.17
213.024	2107.05
213.49	2594.19
213.955	2534.64
214.42	2448.8
214.885	2272.78
215.35	2199.04
215.815	2184.85
216.28	2317.32
216.745	1868.15
217.21	2031.47
217.675	1813.06
218.14	2022.93
218.604	2237.01
219.069	2530.25
219.534	2668.13
219.998	3082.68
220.463	3716.18
220.927	4465.28
221.392	4168.73
221.856	4225.11
222.32	5275.38
222.785	6542.75
223.249	8243.02
223.713	9199.34
224.177	9211.77
224.642	11782.44
225.106	14509.78
225.57	15832.52
226.034	11864.45
226.497	18098.29
226.961	16392.6
227.425	19205.57
227.889	21323.86
228.353	21321.57
228.816	44026.1
229.28	42229.2
229.744	35575.65
230.207	21715.26
230.671	21422.95
231.134	35382.54
231.597	40973.61
232.061	40969.63
232.524	39913.46
232.987	27584
233.45	24941.96
233.914	22424.63
234.377	22949.39
234.84	21089.33
235.303	24870.25
235.766	27795.47
236.229	28770.32
236.691	18113.68
237.154	20375.18
237.617	15370.47
238.08	15753.93
238.542	18443.39
239.005	13215.9
239.468	13177.66
239.93	12445.64
240.393	11348.73
240.855	9996.94
241.317	10244.44
241.78	12482.5
242.242	12942.54
242.704	14033.36
243.166	12236.77
243.629	11148.04
244.091	12851.08
244.553	14085.14
245.015	15152.74
245.477	19592.84
245.939	28709.8
246.4	30552.66
246.862	29720.08
247.324	28029.92
247.786	31306.02
248.247	41057.45
248.709	42313.63
249.17	31720.18
249.632	29995.65
250.093	34854.46
250.555	30143.9
251.016	18408.77
251.477	17470
251.939	18868.81
252.4	19818.53
252.861	23547.08
253.322	21933.26
253.783	26105.83
254.244	33796.98
254.705	26587.47
255.166	23571.65
255.627	23214.97
256.088	32767.44
256.549	34767.75
257.009	29930.5
257.47	36254.72
257.931	29548.27
258.391	22126.42
258.852	22793.65
259.312	23898.41
259.773	29494.84
260.233	24983.83
260.694	21052.56
261.154	23842.93
261.614	19159.61
262.074	17131.49
262.534	17818.43
262.994	16785.71
263.455	22324.47
263.915	18813.07
264.374	17723.71
264.834	19345.68
265.294	21397.46
265.754	22162.65
266.214	20981.13
266.673	19620.65
267.133	24728.2
267.593	24506.08
268.052	29968.67
268.512	26056.46
268.971	31444.86
269.431	34444.45
269.89	30818.92
270.349	46211.19
270.809	51480.91
271.268	46228.54
271.727	103664.1
272.186	67113.01
272.645	50254.15
273.104	36222.33
273.563	52380.46
274.022	41112.57
274.481	34972.3
274.94	26959.48
275.399	20017.71
275.857	23277.18
276.316	31477.06
276.775	27989.38
277.233	27560.6
277.692	25841.58
278.15	29260.56
278.609	30153.57
279.067	27876.39
279.525	25912.73
279.984	33437.22
280.442	40133.64
280.9	39676.89
281.358	26106.05
281.816	24347.72
282.274	23845.72
282.732	24621.86
283.19	24703.67
283.648	21319.58
284.106	22730.7
284.564	23108.57
285.021	21432.83
285.479	15970.7
285.937	14487.55
286.394	12729.03
286.852	13120.96
287.309	13812.15
287.767	13365.58
288.224	12745.77
288.682	13974.63
289.139	15356.63
289.596	14061.12
290.053	14612.02
290.511	18486.05
290.968	22486.88
291.425	30508.24
291.882	25399.3
292.339	22079.75
292.796	21892.46
293.252	20611.21
293.709	16428.73
294.166	14726.36
294.623	16278.73
295.079	15646.74
295.536	15746.03
295.992	14291.54
296.449	14128.02
296.905	14720.6
297.362	14178.78
297.818	14914.51
298.274	15515.42
298.731	15781.82
299.187	15620.76
299.643	16763.4
300.099	20284.62
300.555	22241.58
301.011	18587.76
301.467	17964.21
301.923	20966.45
302.379	20443.51
302.835	20110.38
303.291	20111.13
303.746	22912.86
304.202	28961.19
304.658	29141.15
305.113	19614.68
305.569	19228.99
306.024	20501.94
306.479	19518.02
306.935	16492.37
307.39	17995.88
307.845	16633.48
308.301	16757.04
308.756	16339.75
309.211	15780.18
309.666	16196.71
310.121	20133.5
310.576	20426.66
311.031	20293.86
311.486	23201.5
311.94	23182.35
312.395	31069.65
312.85	58448.39
313.305	287905.73
313.759	1493050.86
314.214	108169.59
314.668	85705
315.123	72111.2
315.577	25943.24
316.032	23110.22
316.486	29035.23
316.94	22955.57
317.394	16019.4
317.849	12463.92
318.303	11786.53
318.757	11146.35
319.211	12354.44
319.665	10828.07
320.119	10963.72
320.572	15700.23
321.026	14702.47
321.48	12242.34
321.934	13334.08
322.387	13358.72
322.841	14416.84
323.295	13006.83
323.748	14961.23
324.202	15156.99
324.655	18224.87
325.108	25554.87
325.562	18086.46
326.015	21472.27
326.468	16267.18
326.921	18239.68
327.374	17006.61
327.827	17778.7
328.28	20100.08
328.733	13479.63
329.186	11890.86
329.639	11322.85
330.092	9527.49
330.545	9080.41
330.997	9177.71
331.45	10038.22
331.903	11770.47
332.355	20317.68
332.808	19703.25
333.26	16243.71
333.713	17679.04
334.165	17765.46
334.617	23746.31
335.069	19172.89
335.522	34678.34
335.974	38394.6
336.426	35028.21
336.878	24248.93
337.33	12293.36
337.782	12034.5
338.234	15085.85
338.686	18012.33
339.137	21406.81
339.589	20177.63
340.041	15831.08
340.493	13622.71
340.944	13981.8
341.396	15091.11
341.847	12714.72
342.299	15009.08
342.75	18344.12
343.201	16061.44
343.653	18492.73
344.104	22702.4
344.555	17882.33
345.006	27839.35
345.457	21382.85
345.908	16949.71
346.359	15987.73
346.81	13036.37
347.261	13759.74
347.712	13555.48
348.163	14512.79
348.613	14733.11
349.064	13803.22
349.515	12089.09
349.965	12423.29
350.416	14941.91
350.866	16424.46
351.317	18516.8
351.767	30673.27
352.217	38711.79
352.668	32172.53
353.118	29588.29
353.568	28512.82
354.018	22546.26
354.468	23841.39
354.918	17123.83
355.368	15017.82
355.818	21236.14
356.268	61228.38
356.718	257133.04
357.168	64154.8
357.617	32145.1
358.067	35703.9
358.517	33528.19
358.966	39346.89
359.416	44186.7
359.865	47755.34
360.315	56893.71
360.764	26644.79
361.213	14933.44
361.663	14119.58
362.112	17443.09
362.561	28172.03
363.01	21317.95
363.459	17921.79
363.908	19431.71
364.357	16517.46
364.806	27947.68
365.255	19212.11
365.703	17619.55
366.152	17696.41
366.601	14360.21
367.05	11669.48
367.498	10635.05
367.947	11101.35
368.395	11544.33
368.844	10230.46
369.292	12310.84
369.74	8516.3
370.189	13048.3
370.637	15277.41
371.085	13161.33
371.533	15984.37
371.981	15362.28
372.429	14688.42
372.877	15307.56
373.325	12868.23
373.773	13089.44
374.221	11661.63
374.669	14457.53
375.116	12495.17
375.564	12619.97
376.012	14131.85
376.459	11709.63
376.907	13993.48
377.354	16878.16
377.801	15732.93
378.249	18016.54
378.696	23048.96
379.143	27884.56
379.591	29723.66
380.038	50263.94
380.485	36274.5
380.932	39176.57
381.379	35917.82
381.826	26501.69
382.273	18844.52
382.72	16493.19
383.166	16069.96
383.613	10426.76
384.06	9398.86
384.506	10862.97
384.953	7986.77
385.4	8027.46
385.846	7010.17
386.292	6795.44
386.739	6639.68
387.185	6552.08
387.631	6549.88
388.078	6383.76
388.524	6816.35
388.97	6295.28
389.416	5254.17
389.862	5574.03
390.308	5286.02
390.754	5379.12
391.2	5838.25
391.645	5967.67
392.091	5723.15
392.537	5536.48
392.983	5522.73
393.428	5461.21
393.874	5855.71
394.319	5890.35
394.765	5608.98
395.21	5771.37
395.655	5414.22
396.101	5080.25
396.546	4597.94
396.991	4639.51
397.436	4314.2
397.881	4173.55
398.326	3944.83
398.771	3739.83
399.216	3275.97
399.661	2944.88
400.106	2944.13
400.551	3026.55
400.995	2715.79
401.44	2691.39
401.885	2530.75
402.329	2564.17
402.774	2470.66
403.218	2404.22
403.663	2315.88
404.107	2384.45
404.551	2413.23
404.995	2207.72
405.44	2126.94
405.884	2162.26
406.328	2090.14
406.772	2091.71
407.216	1905.88
407.66	1841.55
408.104	1745.09
408.547	1638.22
408.991	1585.44
409.435	1524.8
409.879	1512.3
410.322	1496.54
410.766	1450.66
411.209	1386.94
411.653	1330.81
412.096	1310.33
412.54	1314.79
412.983	1309.08
413.426	1318.61
413.869	1318.27
414.312	1298.77
414.756	1250.99
415.199	1193.02
415.642	1161.2
416.085	1166.25
416.527	1159.1
416.97	1174.2
417.413	1116.65
417.856	1106.73
418.298	1096.17
418.741	1090.7
419.184	1085.96
419.626	1131.14
420.069	1133.44
420.511	1141.98
420.953	1117.65
421.396	1110.3
421.838	1083.66
422.28	1108.56
422.722	1114.31
423.164	1130.41
423.606	1114.61
424.048	1114.15
424.49	1061.3
424.932	1056.97
425.374	1040.66
425.816	1058.3
426.258	1078.86
426.699	1090.51
427.141	1073.5
427.582	1090.9
428.024	1084.02
428.465	1073.98
428.907	1050.64
429.348	1039.11
429.789	1040.36
430.231	1022.68
430.672	1038.55
431.113	1015.31
431.554	1001.53
431.995	978.75
432.436	945.47
432.877	924.39
433.318	911.91
433.759	906.17
434.2	905.54
434.64	896.41
435.081	898.91
435.522	851.45
435.962	821.25
436.403	802.73
436.843	811.17
437.284	793.49
437.724	772.8
438.164	772.14
438.604	756.91
439.045	727.51
439.485	699.4
439.925	683.16
440.365	665.88
440.805	656.92
441.245	652.77
441.685	632.45
442.125	627.61
442.564	633.28
443.004	620.13
443.444	618.85
443.883	622.56
444.323	616.62
444.762	618.16
445.202	627.56
445.641	640.47
446.081	634.11
446.52	638.62
446.959	634.01
447.398	619.45
447.837	613.16
448.276	602
448.716	607.28
449.154	610.99
449.593	598.49
450.032	597.19
450.471	584.49
450.91	586.61
451.349	584.77
451.787	581.59
452.226	591.09
452.664	592.64
453.103	593.95
453.541	592.35
453.98	595.96
454.418	600.04
454.856	592.08
455.295	591.76
455.733	596.25
456.171	599.91
456.609	600.79
457.047	599.51
457.485	609.23
457.923	611.98
458.361	604.18
458.798	604.33
459.236	600.96
459.674	603.36
460.111	606.16
460.549	601.24
460.987	597.88
461.424	595.62
461.862	591.22
462.299	580.31
462.736	579.74
463.173	581.59
463.611	576.67
464.048	575.2
464.485	579.21
464.922	572.79
465.359	567.32
465.796	566.25
466.233	563.48
466.67	561.01
467.106	560.47
467.543	553.21
467.98	545.97
468.416	530.33
468.853	525.71
469.29	509.93
469.726	504.48
470.162	492.95
470.599	482.79
471.035	476.68
471.471	465.05
471.907	461.84
472.344	459.45
472.78	461.94
473.216	467.84
473.652	462.51
474.088	462.16
474.523	462.57
474.959	466.31
475.395	462.64
475.831	460.89
476.266	463.55
476.702	462.72
477.138	459.41
477.573	457.39
478.008	456.05
478.444	459.74
478.879	464.91
479.314	466.92
479.75	467.04
480.185	468.43
480.62	472.9
481.055	475.26
481.49	479.48
481.925	486.45
482.36	496.63
482.795	510.34
483.229	523.64
483.664	533.74
484.099	534.97
484.534	543.32
484.968	549.28
485.403	550.59
485.837	549.9
486.271	548.66
486.706	547.94
487.14	540.24
487.574	531.93
488.009	526.98
488.443	522.27
488.877	529.2
489.311	530.74
489.745	537.6
490.179	543.29
490.613	554.46
491.046	558.84
491.48	564.18
491.914	566.09
492.348	570.84
492.781	574.94
493.215	578.11
493.648	578.4
494.082	583.79
494.515	583.34
494.948	590.13
495.382	593.74
495.815	598.69
496.248	603.59
496.681	615.27
497.114	625.79
497.547	635.39
497.98	647.26
498.413	654.72
498.846	664.37
499.279	673.49
499.711	678.84
500.144	682.24
500.577	692.69
501.009	704.16
501.442	715.02
501.874	718.86
502.306	722.35
502.739	732.71
503.171	747.81
503.603	752.56
504.036	763.16
504.468	771.01
504.9	783.77
505.332	792.06
505.764	798.85
506.196	806.1
506.627	821.18
507.059	836.21
507.491	843.98
507.923	843.84
508.354	861.01
508.786	873.31
509.217	892.04
509.649	907.66
510.08	927.19
510.512	945.2
510.943	961.06
511.374	974.13
511.805	994.9
512.237	1015.85
512.668	1049.1
513.099	1075.9
513.53	1104.42
513.961	1125.95
514.391	1159.21
514.822	1193.61
515.253	1229.62
515.684	1257.51
516.114	1288.45
516.545	1311.7
516.975	1339.3
517.406	1358.77
517.836	1364.02
518.267	1373.54
518.697	1394
519.127	1400.65
519.558	1410.14
519.988	1415.7
520.418	1427.51
520.848	1445.87
521.278	1457.19
521.708	1492.53
522.138	1507.27
522.567	1539.05
522.997	1564.92
523.427	1580.9
523.857	1599.39
524.286	1611.72
524.716	1628.8
525.145	1649.15
525.575	1661.63
526.004	1677.1
526.433	1657.13
526.863	1657.94
527.292	1649.99
527.721	1657.19
528.15	1665.12
528.579	1666.99
529.008	1678.49
529.437	1702.36
529.866	1717.52
530.295	1735.69
530.724	1749.56
531.152	1777.65
531.581	1794.05
532.01	1813.02
532.438	1821.91
532.867	1836.77
533.295	1856.53
533.723	1862.96
534.152	1860.68
534.58	1861.5
535.008	1846.77
535.436	1850.05
535.865	1858.52
536.293	1872.72
536.721	1888.51
537.149	1915.86
537.576	1920.2
538.004	1932.95
538.432	1941.06
538.86	1939.83
539.287	1946.02
539.715	1960.07
540.143	1962.39
540.57	1957.15
540.998	1954.37
541.425	1932.88
541.852	1910.78
542.28	1907.52
542.707	1890.34
543.134	1877.3
543.561	1873.18
543.988	1867.66
544.415	1867.13
544.842	1862.18
545.269	1857.01
545.696	1859.38
546.123	1872.63
546.549	1862.21
546.976	1850.44
547.403	1851.29
547.829	1853.83
548.256	1857.07
548.682	1852.59
549.108	1845.63
549.535	1845.81
549.961	1847.81
550.387	1834.67
550.813	1831.05
551.24	1839.31
551.666	1842.3
552.092	1834.33
552.518	1829.34
552.943	1824.27
553.369	1833.93
553.795	1841.43
554.221	1842.6
554.646	1841.15
555.072	1854.07
555.498	1858.68
555.923	1869.56
556.349	1885.88
556.774	1895.78
557.199	1897.25
557.625	1904.4
558.05	1899.51
558.475	1910.94
558.9	1911.56
559.325	1903.72
559.75	1898.06
560.175	1892.52
560.6	1885.59
561.025	1883.38
561.449	1883.92
561.874	1890.64
562.299	1896.42
562.723	1903.2
563.148	1893.11
563.572	1896.78
563.997	1908.42
564.421	1914.53
564.846	1916.94
565.27	1921.8
565.694	1919.85
566.118	1932.92
566.542	1941.46
566.966	1934.02
567.39	1929.9
567.814	1917.72
568.238	1917.69
568.662	1922.54
569.086	1924.99
569.509	1931.89
569.933	1915.46
570.357	1907.58
570.78	1886.02
571.204	1873.44
571.627	1863.27
572.05	1861.79
572.474	1864.14
572.897	1852.04
573.32	1844.13
573.743	1834.09
574.166	1814.69
574.589	1815.24
575.012	1807.7
575.435	1807.19
575.858	1797.91
576.281	1786.48
576.704	1771.01
577.126	1757.47
577.549	1746.58
577.972	1736.79
578.394	1727.2
578.817	1721.68
579.239	1703.15
579.661	1690.99
580.084	1675.76
580.506	1662.26
580.928	1659.1
581.35	1648.84
581.772	1646.46
582.194	1633.07
582.616	1620.33
583.038	1605.32
583.46	1595.03
583.882	1592.09
584.303	1596.28
584.725	1591.47
585.147	1595.4
585.568	1606.75
585.99	1618.91
586.411	1625.85
586.833	1641.7
587.254	1643.83
587.675	1658.85
588.096	1670.47
588.518	1666.4
588.939	1649.64
589.36	1647.63
589.781	1635.08
590.202	1606.3
590.623	1596.81
591.043	1593.48
591.464	1580.22
591.885	1576.57
592.305	1569.78
592.726	1555.73
593.147	1556.26
593.567	1550.98
593.987	1543.59
594.408	1537.45
594.828	1535.08
595.248	1530.03
595.669	1510.93
596.089	1502.76
596.509	1495.25
596.929	1482.11
597.349	1482.99
597.769	1472.13
598.189	1464.68
598.608	1465.29
599.028	1468.2
599.448	1468.07
599.867	1454.03
600.287	1448.8
600.706	1445.21
601.126	1435.43
601.545	1434.82
601.965	1432.61
602.384	1427.17
602.803	1430.32
603.222	1426.07
603.641	1418.91
604.061	1414.88
604.48	1410.56
604.898	1419.02
605.317	1424.33
605.736	1426.88
606.155	1423.12
606.574	1414.59
606.992	1420.54
607.411	1415.71
607.829	1406.11
608.248	1402.44
608.666	1400.62
609.085	1401.12
609.503	1392.58
609.921	1385.95
610.339	1387.97
610.758	1387.01
611.176	1380.83
611.594	1371.26
612.012	1366.66
612.43	1370.94
612.847	1376.83
613.265	1376.83
613.683	1380.39
614.101	1381.98
614.518	1377.8
614.936	1367.19
615.353	1352.39
615.771	1350.06
616.188	1350.08
616.606	1347.05
617.023	1339.45
617.44	1325.15
617.857	1317.05
618.274	1307.9
618.691	1301.47
619.108	1291.37
619.525	1285.45
619.942	1292.72
620.359	1295.66
620.776	1290
621.192	1285.87
621.609	1283.51
622.026	1291.05
622.442	1297.66
622.859	1300.66
623.275	1292.46
623.691	1297.88
624.108	1309.23
624.524	1321.98
624.94	1321.53
625.356	1331.71
625.772	1345.8
626.188	1356.72
626.604	1357.17
627.02	1353.21
627.436	1351.69
627.852	1359.4
628.268	1372.18
628.683	1362.03
629.099	1353.52
629.514	1347.13
629.93	1350.52
630.345	1353.62
630.761	1349.76
631.176	1353.69
631.591	1348.12
632.007	1342.29
632.422	1338.13
632.837	1325.61
633.252	1323.38
633.667	1311.96
634.082	1302.34
634.497	1287.82
634.911	1267.4
635.326	1261.75
635.741	1242.25
636.155	1229.66
636.57	1229.04
636.984	1227.94
637.399	1228.01
637.813	1224.48
638.228	1221.94
638.642	1224.67
639.056	1214.15
639.47	1212.6
639.884	1203.29
640.298	1194.32
640.712	1190.45
641.126	1174.76
641.54	1164.3
641.954	1156.56
642.368	1142.38
642.781	1133.58
643.195	1113.67
643.609	1110.86
644.022	1102.67
644.436	1095.61
644.849	1082
645.262	1067.59
645.676	1068.02
646.089	1060.1
646.502	1043.38
646.915	1037.38
647.328	1018.01
647.741	1013.85
648.154	999.43
648.567	996.58
648.98	982.76
649.393	981.58
649.805	978.11
650.218	969.19
650.631	954.14
651.043	947.42
651.456	940.73
651.868	940.92
652.28	956.88
652.693	968.79
653.105	972.33
653.517	981.23
653.929	981
654.341	985.29
654.753	971.7
655.165	976.35
655.577	972.19
655.989	966.35
656.401	956.77
656.813	922.28
657.224	902.87
657.636	874.55
658.047	856.07
658.459	837.03
658.87	825.9
659.282	814.15
659.693	793.52
660.104	779.22
660.515	764.01
660.926	759.98
661.338	754.29
661.749	745.26
662.159	734.87
662.57	728.63
662.981	721.98
663.392	714.67
663.803	716.11
664.213	712.1
664.624	706.05
665.035	708.4
665.445	695.28
665.855	688.4
666.266	681.46
666.676	678.05
667.086	669.02
667.497	667.19
667.907	660.69
668.317	651.22
668.727	648.83
669.137	647.76
669.547	643.5
669.956	644.92
670.366	645.32
670.776	645.26
671.186	648.19
671.595	650.24
672.005	651.42
672.414	650.65
672.824	650.27
673.233	652.77
673.642	655.11
674.052	658.9
674.461	660.81
674.87	665.01
675.279	663.95
675.688	663.4
676.097	666.11
676.506	665.01
676.915	678.18
677.323	680.68
677.732	679.15
678.141	679.42
678.549	669.88
678.958	670.56
679.366	671.04
679.775	674.79
680.183	688.13
680.592	694.06
681	700.69
681.408	696.14
681.816	704.58
682.224	714.98
682.632	726.93
683.04	756.51
683.448	782.18
683.856	813.4
684.264	850.82
684.671	883.56
685.079	924.47
685.487	969.49
685.894	1032.4
686.302	1086.74
686.709	1131.87
687.116	1186.16
687.524	1231.83
687.931	1270.93
688.338	1306.01
688.745	1336.7
689.152	1373.32
689.559	1420.12
689.966	1467.57
690.373	1489.76
690.78	1533.83
691.187	1598.89
691.593	1647.9
692	1691.58
692.407	1755.66
692.813	1834.94
693.22	1897.75
693.626	1959.21
694.032	2009.24
694.439	2086.43
694.845	2147.58
695.251	2223.51
695.657	2291.18
696.063	2392.14
696.469	2467.77
696.875	2538.39
697.281	2575.89
697.687	2621.84
698.093	2661.82
698.498	2739.46
698.904	2796.33
699.31	2887.61
699.715	2951.55
700.12	3043.43
700.526	3059.38
700.931	3129.39
701.337	3179.43
701.742	3212.86
702.147	3298.63
702.552	3327.22
702.957	3385.35
703.362	3404.79
703.767	3429.17
704.172	3466.71
704.577	3416.49
704.981	3464.99
705.386	3479.77
705.791	3472.23
706.195	3546.14
706.6	3552.93
707.004	3633.75
707.408	3601.85
707.813	3630.62
708.217	3618.48
708.621	3619.57
709.025	3717.81
709.43	3715.47
709.834	3773.97
710.237	3841.74
710.641	3823.92
711.045	3844.7
711.449	3837.26
711.853	3865.51
712.256	3903.27
712.66	3938.96
713.064	4013.11
713.467	4053.71
713.87	4166.83
714.274	4211.48
714.677	4319.31
715.08	4482.55
715.484	4652.17
715.887	4858.04
716.29	5055.49
716.693	5263.13
717.096	5503.65
717.499	5633.78
717.901	5657.02
718.304	5678.96
718.707	5701.72
719.109	5595.1
719.512	5559.58
719.915	5419.63
720.317	5355.88
720.719	5396.03
721.122	5365.52
721.524	5315.98
721.926	5272.11
722.328	5369.65
722.731	5358.32
723.133	5385.15
723.535	5576.15
723.937	5592.41
724.338	5641.47
724.74	5682.72
725.142	5638.54
725.544	5633.65
725.945	5661.89
726.347	5654.86
726.748	5646.7
727.15	5661.06
727.551	5621.94
727.952	5594.92
728.354	5563.55
728.755	5561.93
729.156	5517.32
729.557	5481.25
729.958	5358.83
730.359	5295.74
730.76	5275.41
731.161	5212.63
731.562	5182.07
731.962	5182.46
732.363	5116.06
732.763	5052.31
733.164	5087.34
733.564	5018.01
733.965	4925.23
734.365	4887.19
734.766	4913.12
735.166	4873.66
735.566	4819.13
735.966	4795.2
736.366	4788.57
736.766	4728.44
737.166	4759.83
737.566	4716.92
737.966	4693.55
738.365	4729.31
738.765	4726.51
739.165	4651.69
739.564	4624.27
739.964	4668.4
740.363	4621.72
740.763	4619.62
741.162	4606.85
741.561	4572.31
741.96	4526.41
742.36	4544.11
742.759	4551.08
743.158	4588.46
743.557	4604.61
743.955	4643.74
744.354	4598.66
744.753	4656.85
745.152	4614.33
745.55	4669.24
745.949	4663.72
746.348	4665.93
746.746	4683.29
747.144	4643.42
747.543	4618.62
747.941	4664.38
748.339	4596.58
748.737	4588.13
749.136	4578.56
749.534	4644.36
749.932	4614.31
750.33	4638.1
750.727	4691.95
751.125	4669.72
751.523	4655.6
751.921	4701.16
752.318	4671.49
752.716	4728.16
753.113	4743.4
753.511	4767.78
753.908	4765.13
754.305	4751.94
754.703	4811.16
755.1	4872.89
755.497	4930.19
755.894	5116.31
756.291	5290.2
756.688	5610.85
757.085	6044.63
757.482	6651.87
757.878	7317.21
758.275	7919.65
758.672	8740
759.068	9415.74
759.465	10369.67
759.861	11603.76
760.258	13035.38
760.654	13782.14
761.05	13677.02
761.447	13051.18
761.843	12150.41
762.239	11221.71
762.635	10798.93
763.031	10399.04
763.427	9815.97
763.822	9209.18
764.218	8605.08
764.614	7819.75
765.01	7290.11
765.405	6948.15
765.801	6690.63
766.196	6360.99
766.592	6174.41
766.987	5867.9
767.382	5655.36
767.778	5567.91
768.173	5439.3
768.568	5366.31
768.963	5244.75
769.358	5263.07
769.753	5216.9
770.148	5133.32
770.542	5130.92
770.937	5099.78
771.332	5186.8
771.726	5206.59
772.121	5146.32
772.515	5200.05
772.91	5186.51
773.304	5255.58
773.699	5193.7
774.093	5248.12
774.487	5303.99
774.881	5345.56
775.275	5340.43
775.669	5299.24
776.063	5342.82
776.457	5376.81
776.851	5302.12
777.245	5294.53
777.638	5326.47
778.032	5436.11
778.425	5399.1
778.819	5440.81
779.212	5403.78
779.606	5368.26
779.999	5388.43
780.392	5372.01
780.786	5452.86
781.179	5473.46
781.572	5516.05
781.965	5529.6
782.358	5477.11
782.751	5534.51
783.143	5485.79
783.536	5558.72
783.929	5597.21
784.322	5713.13
784.714	5742.9
785.107	5739.63
785.499	5813.13
785.891	5796.16
786.284	5778.02
786.676	5915.45
787.068	5894.78
787.46	5944.68
787.852	5960.76
788.245	6046.62
788.636	6074.13
789.028	6142.72
789.42	6182.62
789.812	6193.17
790.204	6283.07
790.595	6382.17
790.987	6188.93
791.378	6214.96
791.77	6342.48
792.161	6477.48
792.553	6535.65
792.944	6427.87
793.335	6363.41
793.726	6438.84
794.117	6525.59
794.508	6663.65
794.899	6631.68
795.29	6774.94
795.681	6830.67
796.072	6695.03
796.463	6524.33
796.853	6535.4
797.244	6693.54
797.634	6728.89
798.025	6723.74
798.415	6738.75
798.806	6829.97
799.196	6918.03
799.586	6969.98
799.976	6936.41
800.366	7163.83
800.756	7393.84
801.146	7358.61
801.536	7386.9
801.926	7457.73
802.316	7488.41
802.706	7561.13
803.095	7442.87
803.485	7546.61
803.874	7591.7
804.264	7850.95
804.653	7825.72
805.043	7970.51
805.432	8078.8
805.821	8081.42
806.21	8107.69
806.599	8228.81
806.988	8279.18
807.377	8381.63
807.766	8512.72
808.155	8790.69
808.544	8532.75
808.933	8550.04
809.321	8530.95
809.71	8826.55
810.098	8984.94
810.487	9448.26
810.875	9928.75
811.264	9948.37
811.652	10247.35
812.04	10395.86
812.428	10561.61
812.816	11319.58
813.204	11741.28
813.592	12289.87
813.98	12627.18
814.368	12546.94
814.756	13026.04
815.144	12945.05
815.531	13419.98
815.919	13339.96
816.306	13652.18
816.694	13346.71
817.081	13405.36
817.469	13758.49
817.856	13759.93
818.243	14027.12
818.63	14411.14
819.017	13993.22
819.404	14061.11
819.791	14442.51
820.178	15058.03
820.565	15315.35
820.952	16256.86
821.339	15760.99
821.725	15941.32
822.112	15202.36
822.498	15168.41
822.885	15311.51
823.271	15217.47
823.657	15634.3
824.044	15636.17
824.43	15713.27
824.816	15676.92
825.202	15230.63
825.588	16256.36
825.974	16279.79
826.36	16792.35
826.746	16819.71
827.132	17156.55
827.517	17133.47
827.903	16346.36
828.289	16383.03
828.674	15602.34
829.06	15489.14
829.445	15883.18
829.83	16235.07
830.216	16699.42
830.601	17063.97
830.986	16659.42
831.371	16532.66
831.756	17084.71
832.141	16648.12
832.526	16635.29
832.911	16914.87
833.295	16799.72
833.68	17256.95
834.065	16632.67
834.449	15722.54
834.834	15647.48
835.218	15639.34
835.603	15973.75
835.987	15757.55
836.371	16586.67
836.755	16482.99
837.139	16873.38
837.524	17108.18
837.908	16936.05
838.291	16990.88
838.675	17052.71
839.059	17246.84
839.443	17227.22
839.827	16994.56
840.21	17457.54
840.594	17310.61
840.977	17509.31
841.361	17493.6
841.744	17860.54
842.127	17705.93
842.511	17949.75
842.894	18542.07
843.277	18927.4
843.66	19468.19
844.043	19542.74
844.426	18747.67
844.809	18435.05
845.191	18462.59
845.574	18002.51
845.957	17640.98
846.339	17533.75
846.722	17013.32
847.104	17077.68
847.487	16899.41
847.869	16911.63
848.252	17185.31
848.634	17517.59
849.016	17777.31
849.398	17906.36
849.78	18746.11
850.162	18751.85
850.544	19155.82
850.926	19777.3
851.307	19689.75
851.689	19973.56
852.071	20412.82
852.452	20732.04
852.834	20701.79
853.215	21094.84
853.597	21247.68
853.978	21535.55
854.359	21985.24
854.741	21008.99
855.122	20904.57
855.503	20616.84
855.884	20744.34
856.265	20685.33
856.646	20803.18
857.026	20417.44
857.407	20344.72
857.788	20497.87
858.169	20785.09
858.549	19950.53
858.93	20568.96
859.31	20619.73
859.69	20830.48
860.071	20432.15
860.451	20231.19
860.831	19502.41
861.211	20648.14
861.591	21202.21
861.971	21172.89
862.351	21364.37
862.731	21743.33
863.111	22000.71
863.491	22325.26
863.87	23189.35
864.25	23531.55
864.629	23128.47
865.009	23627.62
865.388	24469.21
865.768	26204.88
866.147	26113.89
866.526	24667.4
866.905	24960.1
867.284	26361.11
867.663	25024.92
868.042	23984.06
868.421	23897.44
868.8	24293.4
869.179	24546.99
869.558	23121.03
869.936	21322.17
870.315	21696.65
870.693	22229.38
871.072	23975.76
871.45	22833.53
871.828	23131.1
872.207	24319.39
872.585	23958.47
872.963	24609.53
873.341	23757.73
873.719	23471.17
874.097	23182.28
874.475	23627.2
874.853	24159.18
875.23	23159.83
875.608	24131.59
875.986	26106.83
876.363	24969.56
876.741	25736.91
877.118	25086.62
877.495	26316.8
877.873	26756.68
878.25	28165.73
878.627	27006.62
879.004	27390.43
879.381	27243.03
879.758	26533.47
880.135	24694.61
880.512	26095.21
880.889	25402.36
881.265	25131.72
881.642	24910.94
882.019	25321.75
882.395	24805.66
882.772	25785.08
883.148	24661.91
883.524	24569.29
883.901	24420.39
884.277	24785.77
884.653	24621.26
885.029	25328.18
885.405	28052.67
885.781	27836.64
886.157	26686.95
886.532	27012.34
886.908	26992.62
887.284	30005.1
887.659	30976.6
888.035	31916.54
888.411	32728.39
888.786	33173.2
889.161	34309.37
889.537	33673.79
889.912	34735.89
890.287	34714.02
890.662	35593.46
891.037	34936.65
891.412	32570.34
891.787	32237.69
892.162	31116.07
892.536	31844.21
892.911	30647.65
893.286	29990.86
893.66	28762.09
894.035	29494.75
894.409	32100.71
894.784	30801.81
895.158	31315.68
895.532	33168.57
895.906	34061.21
896.281	34872.32
896.655	34309.13
897.029	39208.41
897.402	40843.51
897.776	45473.66
898.15	45305.18
898.524	44835.28
898.898	45439.52
899.271	50869.27
899.645	44053.27
900.018	42304.38
900.392	43851.35
900.765	44199.27
901.138	40887.51
901.511	40253.75
901.884	36977.09
902.258	34127.75
902.631	35251.2
903.003	40548.8
903.376	36583.34
903.749	41021.59
904.122	43935.06
904.495	48370.52
904.867	48983.63
905.24	42513.79
905.612	39570.85
905.985	40435.48
906.357	42261.64
906.729	40340.5
907.102	34434.06
907.474	33115.26
907.846	33314.5
908.218	32862.82
908.59	29053.09
908.962	28094.61
909.334	30256.8
909.705	31807.81
910.077	30883.7
910.449	32144.96
910.82	33039.29
911.192	36384.25
911.563	37823.29
911.935	40506.41
912.306	40574.59
912.677	41890.21
913.048	41496.49
913.419	45022.67
913.79	45252.61
914.161	48525.03
914.532	46384.68
914.903	42619.67
915.274	40495.55
915.645	39889.19
916.015	35096.27
916.386	33463.42
916.756	35616.77
917.127	36710.6
917.497	32802.66
917.868	35709.1
918.238	33932.22
918.608	34908.13
918.978	35624.56
919.348	37714.32
919.718	38966.24
920.088	37527.06
920.458	38983.56
920.828	41024.72
921.198	38920
921.567	41593.26
921.937	32199.31
922.306	32530.38
922.676	35086.39
923.045	29302.79
923.415	27874.36
923.784	25386.19
924.153	26114.27
924.522	26086.89
924.891	24525.72
925.26	26278.74
925.629	25627.04
925.998	29493.52
926.367	28787.89
926.736	27410.1
927.104	32634.49
927.473	35027.22
927.842	42292.52
928.21	41867.35
928.578	44030.77
928.947	41611.84
929.315	41871.42
929.683	49191.2
930.051	49537
930.42	57539.84
930.788	49195.81
931.156	48797.21
931.523	45762.25
931.891	42322.56
932.259	40654.51
932.627	47082.04
932.994	66660.92
933.362	55038.9
933.729	47749.87
934.097	45714.84
934.464	38657.31
934.831	44588.45
935.199	43938.87
935.566	42615.19
935.933	43111.82
936.3	52250.9
936.667	40675.49
937.034	36717.01
937.401	36341.16
937.767	31359.44
938.134	27897.66
938.501	39368.72
938.867	41973.18
939.234	71027.5
939.6	60575.83
939.967	66841.57
940.333	44702.24
940.699	38038.8
941.065	30452.56
941.431	39900.57
941.798	38462.99
942.163	50554.51
942.529	31537.22
942.895	29029.36
943.261	18780.4
943.627	24649.9
943.992	21576.32
944.358	21605.68
944.723	21706.54
945.089	21171.59
945.454	19570.46
945.82	20885.52
946.185	20065.12
946.55	23270.73
946.915	20879.48
947.28	24497.03
947.645	21560.23
948.01	19936.56
948.375	20815.66
948.74	24953.68
949.104	29127.01
949.469	42055.92
949.834	74357.79
950.198	70572.02
950.562	42289.94
950.927	35201.71
951.291	42328.99
951.655	36041.51
952.02	33815.09
952.384	25542.32
952.748	22224.34
953.112	21661.55
953.476	18816.79
953.839	17407.29
954.203	17230.98
954.567	21526.35
954.931	33866.25
955.294	28997.38
955.658	29186.55
956.021	49602.4
956.385	84034.43
956.748	123987.01
957.111	192220.67
957.474	216143.97
957.837	243214.14
958.2	183835.66
958.563	66207.11
958.926	44793.85
959.289	67944.46
959.652	75835.56
960.015	56929.02
960.377	81809.22
960.74	93415.39
961.102	161336.18
961.465	173212.63
961.827	92923.19
962.189	178270.59
962.552	123537.65
962.914	99075.48
963.276	64256.13
963.638	53153.13
964	52582.5
964.362	35511.73
964.724	34286.57
965.085	24455.63
965.447	20048.32
965.809	22809.26
966.17	22852.68
966.532	24720.36
966.893	22708.68
967.255	20678.81
967.616	24377.37
967.977	19513.12
968.338	21305.47
968.699	17522.88
969.061	17507.78
969.421	17597.37
969.782	19750.36
970.143	16660.1
970.504	17268.38
970.865	19610.58
971.225	20036.23
971.586	19611.22
971.946	27941.21
972.307	24254.35
972.667	31682.27
973.027	32617.19
973.388	39539.14
973.748	26903.22
974.108	29318.97
974.468	39628.73
974.828	30581.66
975.188	23511.73
975.548	21577.44
975.907	18134.72
976.267	20330.73
976.627	17120.28
976.986	17732.7
977.346	16918.78
977.705	16262.95
978.064	14799.99
978.424	12319.81
978.783	12717.87
979.142	14512.27
979.501	13905.41
979.86	14706.16
980.219	14164.64
980.578	18221.44
980.937	20435.57
981.296	18192.26
981.654	18692.19
982.013	29056.45
982.371	37665.39
982.73	35192.86
983.088	39855.12
983.447	42579.19
983.805	60798.61
984.163	127249.09
984.521	141134.03
984.879	206849.52
985.237	-336885.38
985.595	325652.13
985.953	81074.99
986.311	46798.97
986.669	27148.19
987.026	23457.18
987.384	31521.28
987.741	32578.75
988.099	23268.56
988.456	18549.11
988.814	17387.98
989.171	15109.41
989.528	14857.78
989.885	15658.7
990.242	12407.89
990.599	15432.38
990.956	12617.31
991.313	8809.06
991.67	7232.66
992.027	7692.23
992.383	6845.15
992.74	5996.23
993.096	6298.7
993.453	6542.95
993.809	6793.06
994.165	9050.11
994.522	8331.68
994.878	9186.63
995.234	11549.27
995.59	11370.64
995.946	10718.86
996.302	12225.69
996.658	14117.76
997.013	15538.59
997.369	18446.02
997.725	23593.49
998.08	15299.49
998.436	23497
998.791	32397.21
999.147	32302.83
999.502	35298.7
999.857	25667.69
1000.212	41835.97
1000.567	59633.02
1000.922	34344.37
1001.277	21804.85
1001.632	16181.93
1001.987	20805.34
1002.342	14929.05
1002.696	11933.37
1003.051	9525.46
1003.406	11553.62
1003.76	11483.42
1004.114	11312.29
1004.469	9500.35
1004.823	7853.75
1005.177	8469.13
1005.531	6724.14
1005.885	5975.88
1006.239	6741.8
1006.593	8455.3
1006.947	11335.82
1007.301	8470.99
1007.655	9239.59
1008.008	6783.28
1008.362	7623.04
1008.715	10893.76
1009.069	9860.06
1009.422	14860.93
1009.776	29808.56
1010.129	19777.02
1010.482	16496.86
1010.835	13913.55
1011.188	29029.66
1011.541	27362.86
1011.894	-167326.89
1012.247	492527.06
1012.6	33519.7
1012.952	21220.62
1013.305	10877.17
1013.657	7839.92
1014.01	7421.74
1014.362	6130.68
1014.715	5468.09
1015.067	4765.71
1015.419	4659.78
1015.771	4133.84
1016.123	3679.93
1016.475	3781.51
1016.827	4027
1017.179	4342.57
1017.531	4366.37
1017.883	4455.38
1018.234	4312.17
1018.586	5436.54
1018.938	5788.59
1019.289	7985.11
1019.64	9129.26
1019.992	8500.84
1020.343	7775.68
1020.694	6174.15
1021.045	5450.63
1021.396	6212.54
1021.747	6691.73
1022.098	8010.48
1022.449	5803.55
1022.8	5351.87
1023.151	3743.57
1023.501	3312.58
1023.852	3576.85
1024.202	3733.07
1024.553	4083.95
1024.903	3992.96
1025.253	3429.98
1025.604	3078.69
1025.954	3818.54
1026.304	4658.06
1026.654	5439.57
1027.004	7915.48
1027.354	12793.91
1027.703	12123.61
1028.053	15853.19
1028.403	23277.9
1028.753	33512.45
1029.102	45404.38
1029.452	232562.84
1029.801	10001.76
1030.15	6436.52
1030.499	5430.3
897.758	3315.47
901.051	3304.07
904.343	3339.56
907.636	3330.39
910.928	3400.17
914.22	3301.18
917.511	3315.33
920.803	3405.21
924.094	3453.76
927.384	3400.33
930.675	3363.86
933.965	3304.06
937.255	3295.1
940.544	3261.42
943.834	3109.91
947.123	3068.21
950.411	3176.13
953.7	3137.83
956.988	3080.65
960.276	3027.18
963.563	3151.77
966.851	3128.85
970.138	3209.91
973.424	3183.23
976.711	3132.92
979.997	3395.54
983.283	3409.38
986.568	3274.51
989.853	3325.55
993.138	3356.92
996.423	3440.09
999.708	3348.97
1002.992	3470.55
1006.275	3190.16
1009.559	3301.67
1012.842	3441.22
1016.125	3345.14
1019.408	3322.36
1022.69	3450.54
1025.972	3450.01
1029.254	3420.25
1032.536	3308.31
1035.817	3356.11
1039.098	3255.96
1042.379	3531.58
1045.659	3478.88
1048.939	3386.81
1052.219	3430.08
1055.498	3460.86
1058.778	3431.88
1062.057	3423.64
1065.335	3438.55
1068.614	3474.18
1071.892	3436.45
1075.17	3541.13
1078.447	3513.65
1081.724	3499.23
1085.001	3553.12
1088.278	3513.29
1091.554	3540.36
1094.83	3537.06
1098.106	3560.92
1101.382	3626.2
1104.657	3625.48
1107.932	3621.18
1111.206	3564.92
1114.481	3524.38
1117.755	3534.05
1121.029	3494.87
1124.302	3544.25
1127.575	3469.44
1130.848	3444.79
1134.121	3395
1137.393	3324.83
1140.665	3406.39
1143.937	3385.73
1147.208	3285.47
1150.48	3311.73
1153.75	3290.63
1157.021	3365.58
1160.291	3317.77
1163.561	3358.03
1166.831	3383.32
1170.101	3418.01
1173.37	3403.93
1176.639	3322.62
1179.907	3397.8
1183.176	3455.14
1186.444	3460.62
1189.711	3494.48
1192.979	3493.66
1196.246	3454.09
1199.513	3475.92
1202.78	3467.71
1206.046	3473.3
1209.312	3514.12
1212.578	3550.28
1215.843	3477.67
1219.108	3458.53
1222.373	3483.48
1225.638	3427.69
1228.902	3400.72
1232.166	3367.1
1235.43	3345.85
1238.693	3359.34
1241.956	3367.66
1245.219	3394.73
1248.482	3403.13
1251.744	3392.27
1255.006	3584.56
1258.268	3545.75
1261.529	3474.93
1264.79	3490.65
1268.051	3623.56
1271.312	3642.52
1274.572	3594.19
1277.832	3588.77
1281.092	3589.82
1284.351	3532.69
1287.61	3503.74
1290.869	3385.93
1294.128	3332.8
1297.386	3481.24
1300.644	3464.71
1303.902	3474.27
1307.159	3314.42
1310.416	3378.93
1313.673	3392.97
1316.93	3364.32
1320.186	3433.84
1323.442	3492.63
1326.697	3466.76
1329.953	3482.49
1333.208	3489.21
1336.463	3475.81
1339.717	3399.62
1342.972	3489.92
1346.226	3498.94
1349.479	3405.98
1352.733	3355.86
1355.986	3406.14
1359.238	3374.03
1362.491	3374.2
1365.743	3379.51
1368.995	3380.59
1372.247	3397.5
1375.498	3409.77
1378.749	3476.76
1382	3414.76
1385.251	3493.66
1388.501	3466.63
1391.751	3428.15
1395	3408.95
1398.25	3449.21
1401.499	3441.5
1404.748	3348.29
1407.996	3253.79
1411.244	3252.64
1414.492	3226.65
1417.74	3194.81
1420.987	3218.73
1424.234	3268.59
1427.481	3276.13
1430.728	3329.29
1433.974	3302.87
1437.22	3335.84
1440.465	3341.31
1443.711	3348.29
1446.956	3379.51
1450.201	3389.53
1453.445	3437.99
1456.689	3399.45
1459.933	3419.57
1463.177	3442.98
1466.42	3412.09
1469.663	3391.66
1472.906	3356.32
1476.148	3506.65
1479.391	3381.88
1482.633	3373.19
1485.874	3368.99
1489.115	3329.53
1492.356	3358.56
1495.597	3326.66
1498.838	3343.53
1502.078	3289.05
1505.318	3204.08
1508.557	3261.18
1511.797	3168.04
1515.036	3352.95
1518.274	3332.34
1521.513	3322.32
1524.751	3358.32
1527.989	3361.87
1531.227	3365.22
1534.464	3328.09
1537.701	3386.04
1540.938	3416.16
1544.174	3376.9
1547.41	3390.69
1550.646	3425.95
1553.882	3447.97
1557.117	3500.44
1560.352	3523.94
1563.587	3472.92
1566.821	3420.64
1570.055	3484.2
1573.289	3441.36
1576.523	3544.95
1579.756	3540.83
1582.989	3555.45
1586.222	3512.58
1589.454	3567.03
1592.686	3526.89
1595.918	3549.05
1599.15	3523.79
1602.381	3641.26
1605.612	3559.21
1608.843	3661.58
1612.073	3554.97
1615.303	3535.35
1618.533	3511.57
1621.762	3528.61
1624.992	3529.7
1628.221	3491.35
1631.449	3476.71
1634.678	3576.75
1637.906	3515.02
1641.134	3571.41
1644.361	3514.49
1647.588	3500.2
1650.815	3507.12
1654.042	3507.69
1657.269	3543.36
1660.495	3492.64
1663.72	3430.34
1666.946	3417.81
1670.171	3312.29
1673.396	3292.13
1676.621	3293.27
1679.845	3348.48
1683.069	3391.86
1686.293	3455.82
1689.517	3400.92
1692.74	3290.6
1695.963	3306.44
1699.185	3412.88
1702.408	3356.42
1705.63	3416.25
1708.852	3418.16
1712.073	3390.38
1715.294	3348.56
1718.515	3370.33
1721.736	3314.68
1724.956	3275.35
1728.176	3313.09
1731.396	3331.07
1734.616	3329.59
1737.835	3335.77
1741.054	3330.49
1744.272	3330.74
1747.491	3338.09
1750.709	3433.15
1753.927	3331.22
1757.144	3390.01
1760.361	3465.91
1763.578	3477.53
1766.795	3405.42
1770.011	3429.77
1773.227	3497.7
1776.443	3526.86
1779.658	3569.52
1782.874	3517.29
1786.089	3475.86
1789.303	3480.76
1792.518	3495.31
1795.732	3483.54
1798.945	3486.32
1802.159	3547.02
1805.372	3395.86
1808.585	3365.49
1811.797	3367.93
1815.01	3457.07
1818.222	3460.52
1821.434	3324.97
1824.645	3441.94
1827.856	3393.72
1831.067	3446.43
1834.278	3363.15
1837.488	3357.79
1840.698	3549.39
1843.908	3442.51
1847.117	3403.59
1850.326	3219.1
1853.535	3366.23
1856.744	3504.9
1859.952	3375.65
1863.16	3372.98
1866.368	3397.53
1869.575	3563.45
1872.782	3435.26
1875.989	3379.81
1879.196	3516.96
1882.402	3508.74
1885.608	3561.99
1888.814	3413.47
1892.019	3285.22
1895.224	3338.05
1898.429	3339.64
1901.634	3307.6
1904.838	3289.95
1908.042	3334.43
1911.246	3332.13
1914.449	3216.48
1917.652	3239.3
1920.855	3223.81
1924.058	3304.62
1927.26	3330.64
1930.462	3367.58
1933.664	3379.36
1936.865	3308.73
1940.066	3301.97
1943.267	3251.54
1946.467	3282.04
1949.668	3321.27
1952.868	3383.05
1956.067	3341.01
1959.267	3260.99
1962.466	3295.66
1965.665	3284.23
1968.863	3280.32
1972.061	3316.1
1975.259	3323.03
1978.457	3412.13
1981.654	3357.87
1984.852	3357.19
1988.048	3260.1
1991.245	3284.88
1994.441	3367.97
1997.637	3387.75
2000.833	3370.29
2004.028	3417.98
2007.223	3460.84
2010.418	3421.61
2013.613	3388.58
2016.807	3325.14
2020.001	3354.2
2023.194	3432.63
2026.388	3395.43
2029.581	3346.14
2032.774	3375.91
2035.966	3370.26
2039.158	3277.05
2042.35	3315.68
2045.542	3240.34
2048.733	3379.58
2051.924	3444.66
2055.115	3488.07
2058.306	3394.96
2061.496	3461.44
2064.686	3547.48
2067.875	3468.71
2071.065	3504.18
2074.254	3542.86
2077.442	3492.27
2080.631	3597.3
2083.819	3422.85
2087.007	3388.78
2090.195	3338.86
2093.382	3403.01
2096.569	3377.26
2099.756	3315.28
2102.942	3312.36
2106.128	3298.8
2109.314	3301.42
2112.5	3229.13
2115.685	3215.56
2118.87	3231.42
2122.055	3306.36
2125.239	3251.14
2128.424	3201.47
2131.608	3370.91
2134.791	3346.64
2137.974	3436.59
2141.157	3416.52
2144.34	3336.01
2147.523	3352.94
2150.705	3346.23
2153.887	3345.45
2157.068	3259.05
2160.25	3293.54
2163.431	3359.33
2166.611	3264.37
2169.792	3278.21
2172.972	3144.51
2176.152	3268.44
2179.331	3316.33
2182.511	3299.71
2185.69	3337.51
2188.868	3318.9
2192.047	3408.05
2195.225	3362.59
2198.403	3308.23
2201.58	3310.86
2204.758	3312.81
2207.935	3413.69
2211.111	3257.29
2214.288	3233.81
2217.464	3286.67
2220.64	3274.9
2223.815	3342.94
2226.991	3245.6
2230.166	3270.71
2233.34	3284.62
2236.515	3324.09
2239.689	3419.91
2242.863	3349.73
2246.036	3416.6
2249.209	3442.14
2252.382	3495.45
2255.555	3460.29
2258.727	3372.44
2261.9	3428.88
2265.071	3419.49
2268.243	3429.84
2271.414	3340.51
2274.585	3265.56
2277.756	3344.89
2280.926	3299.29
2284.096	3355.19
2287.266	3229.21
2290.436	3301.38
2293.605	3344.16
2296.774	3360.49
2299.942	3408.88
2303.111	3426.6
2306.279	3471.8
2309.447	3459.95
2312.614	3440.53
2315.781	3453.08
2318.948	3408.21
2322.115	3453.32
2325.281	3349.14
2328.447	3389.74
2331.613	3371.23
2334.779	3315.06
2337.944	3331.38
2341.109	3321.11
2344.274	3296.48
2347.438	3256.82
2350.602	3291.86
2353.766	3315.92
2356.929	3295.2
2360.092	3344.33
2363.255	3265.37
2366.418	3150.02
2369.58	3331.17
2372.742	2988.13
2375.904	3030.99
2379.066	2989.89
2382.227	3041.57
2385.388	2998.6
2388.548	2895.49
2391.709	2972.87
2394.869	2939.36
2398.029	3103.07
2401.188	3143.69
2404.347	3036.36
2407.506	3265.34
2410.665	3285.03
2413.823	3319.39
2416.981	3244.53
2420.139	3300.43
2423.296	3360.03
2426.453	3337.1
2429.61	3362.44
2432.767	3243.79
2435.923	3298.7
2439.079	3165.65
2442.235	3265.63
2445.391	3166.37
2448.546	3167.69
2451.701	3246.83
2454.855	3177.74
2458.009	3267.47
2461.163	3283.56
2464.317	3228.98
2467.471	3274.04
2470.624	3309.09
2473.777	3373.79
2476.929	3357.09
2480.082	3389.82
2483.234	3361.01
2486.385	3217.09
2489.537	3221.48
2492.688	3144.61
2495.839	3162.82
2498.989	3161.98
2502.14	3142.22
2505.29	3109.51
2508.439	3139.29
2511.589	3036.33
2514.738	3066.65
2517.887	3094.42
2521.035	3263.71
2524.183	3260.47
2527.331	3223.96
2530.479	3170.88
2533.627	3194.26
