Data from C_3_DIV_IL_4N_Splice17_13-19-19-541.txt Node
Date: Sat Mar 14 13:19:19 EDT 2020
User: sa697716
Spectrometer: FLMS03696
Trigger mode: 0
Integration Time (sec): 3.180400E-1
Scans to average: 20
Electric dark correction enabled: true
Nonlinearity correction enabled: true
Boxcar width: 5
XAxis mode: Wavelengths
Number of Pixels in Spectrum: 2048
>>>>>Begin Spectral Data<<<<<
187.83	-355304.58
188.298	2530.14
188.766	1287.33
189.233	1226
189.701	1759.39
190.169	2453.23
190.636	913.52
191.104	700.6
191.571	117.22
192.039	-90.51
192.506	-67.77
192.974	549.13
193.441	-788.88
193.908	-447.16
194.375	-92.31
194.842	22.45
195.31	72.06
195.777	131.56
196.244	328.64
196.711	391.23
197.177	473.43
197.644	680.83
198.111	1175.51
198.578	1618.23
199.045	1327.84
199.511	2175.43
199.978	2497.25
200.445	2159.26
200.911	2410.06
201.378	2673.34
201.844	2432.7
202.31	4134.69
202.777	4289.49
203.243	2408.15
203.709	2302.7
204.176	2760.08
204.642	2288.6
205.108	2152.86
205.574	1750.02
206.04	1591.83
206.506	1470.79
206.972	1389
207.438	1356.66
207.903	1542.61
208.369	1356.2
208.835	1363.92
209.301	1423.81
209.766	1433.05
210.232	1418.15
210.697	1743.18
211.163	2143.24
211.628	3259.33
212.094	2733.2
212.559	3383.15
213.024	2101.09
213.49	2559.4
213.955	2454.27
214.42	2368.89
214.885	2232.14
215.35	2153.86
215.815	2097.73
216.28	2221.28
216.745	1797.21
217.21	1941.34
217.675	1756.81
218.14	1978.73
218.604	2166.45
219.069	2481.29
219.534	2609.86
219.998	2998.36
220.463	3595.27
220.927	4367.12
221.392	4092.98
221.856	4146.54
222.32	5182.87
222.785	6383.44
223.249	8000.75
223.713	8951.28
224.177	8903.59
224.642	11359.4
225.106	13964.89
225.57	15253.49
226.034	11397.02
226.497	17318.58
226.961	15661.11
227.425	18263.47
227.889	20233.58
228.353	20232.55
228.816	41736.96
229.28	39939.25
229.744	33635.03
230.207	20435.3
230.671	20086.97
231.134	33013.18
231.597	38048.65
232.061	37890.2
232.524	36827.07
232.987	25325.79
233.45	22777.65
233.914	20420.02
234.377	20872.74
234.84	19083.9
235.303	22473.6
235.766	25027.02
236.229	25886.13
236.691	16282.61
237.154	18262.25
237.617	13769.99
238.08	14075.56
238.542	16453.16
239.005	11735.38
239.468	11654.5
239.93	10973.83
240.393	9964.93
240.855	8744.59
241.317	8945.05
241.78	10858.3
242.242	11224.3
242.704	12106.7
243.166	10543.69
243.629	9574.74
244.091	11034.53
244.553	12080.02
245.015	13001.61
245.477	16818.09
245.939	24627.88
246.4	26094.2
246.862	25343.22
247.324	23902.34
247.786	26739.6
248.247	35028.52
248.709	36101.87
249.17	26987.91
249.632	25449.31
250.093	29490.5
250.555	25418.9
251.016	15514.92
251.477	14713.53
251.939	15907.84
252.4	16690.32
252.861	19797.92
253.322	18412.57
253.783	21883.2
254.244	28389.47
254.705	22341.08
255.166	19841.33
255.627	19565.78
256.088	27603.36
256.549	29358.14
257.009	25230.55
257.47	30565.85
257.931	24903.83
258.391	18677.65
258.852	19263.68
259.312	20188.34
259.773	24919.3
260.233	21080
260.694	17785.82
261.154	20145.7
261.614	16183.34
262.074	14465.43
262.534	15052.29
262.994	14179.95
263.455	18869.87
263.915	15905.79
264.374	14964.75
264.834	16338.41
265.294	18054.69
265.754	18679.26
266.214	17669.99
266.673	16513.66
267.133	20823.6
267.593	20601.96
268.052	25189.3
268.512	21877.75
268.971	26371.96
269.431	28900.13
269.89	25850.93
270.349	38801.57
270.809	43198.31
271.268	38845.64
271.727	87043.59
272.186	56388.66
272.645	42339.93
273.104	30523.6
273.563	44200.87
274.022	34714.14
274.481	29567.74
274.94	22786.46
275.399	16908.48
275.857	19691.51
276.316	26602.7
276.775	23694.23
277.233	23326.79
277.692	21838.18
278.15	24738.01
278.609	25480.51
279.067	23573.51
279.525	21904.83
279.984	28290.28
280.442	33989.61
280.9	33522.05
281.358	22051.9
281.816	20562.34
282.274	20133.99
282.732	20767.15
283.19	20841.22
283.648	17970.32
284.106	19130.38
284.564	19394.62
285.021	17984.81
285.479	13398.88
285.937	12166.2
286.394	10692.27
286.852	10994.48
287.309	11544.16
287.767	11177.8
288.224	10642.95
288.682	11664.25
289.139	12798.89
289.596	11718.85
290.053	12163.46
290.511	15345.17
290.968	18602.16
291.425	25198.43
291.882	20949.59
292.339	18235.32
292.796	18043.71
293.252	16938.9
293.709	13464.63
294.166	12064.4
294.623	13323.99
295.079	12777.27
295.536	12852.35
295.992	11677.31
296.449	11519.71
296.905	11962.28
297.362	11480.59
297.818	12069.98
298.274	12552.01
298.731	12766.88
299.187	12632.16
299.643	13559.38
300.099	16399.81
300.555	17960.12
301.011	14994.05
301.467	14498.83
301.923	16957.43
302.379	16542.95
302.835	16225.53
303.291	16245.16
303.746	18478.01
304.202	23338.11
304.658	23454.88
305.113	15780.94
305.569	15469.58
306.024	16485.59
306.479	15645.83
306.935	13203.57
307.39	14405.01
307.845	13325.39
308.301	13402.66
308.756	13062.9
309.211	12581.72
309.666	12862.1
310.121	15952.55
310.576	16165.32
311.031	16028.05
311.486	18358.49
311.94	18326.61
312.395	24490.08
312.85	45935.4
313.305	224794.68
313.759	1165997.3
314.214	84452.91
314.668	67092.03
315.123	56466.11
315.577	20297.13
316.032	18050.76
316.486	22630.88
316.94	17903.62
317.394	12468.62
317.849	9703.37
318.303	9206.55
318.757	8685.36
319.211	9601.85
319.665	8395.49
320.119	8501.63
320.572	12162.22
321.026	11377.56
321.48	9444.51
321.934	10249.66
322.387	10252.04
322.841	11074.9
323.295	9968.6
323.748	11449.95
324.202	11614.31
324.655	13934.98
325.108	19551.32
325.562	13816.23
326.015	16381.29
326.468	12422.91
326.921	13934.83
327.374	13034.35
327.827	13585.39
328.28	15378.07
328.733	10330.11
329.186	9095.7
329.639	8664.42
330.092	7279.96
330.545	6947.82
330.997	7021.8
331.45	7688.35
331.903	9018.26
332.355	15490.05
332.808	15071.74
333.26	12415.87
333.713	13472.77
334.165	13579.87
334.617	18176.83
335.069	14676.68
335.522	26500.47
335.974	29378.17
336.426	26772.79
336.878	18546.38
337.33	9435.44
337.782	9211.15
338.234	11570.28
338.686	13850.68
339.137	16395.69
339.589	15413.57
340.041	12078.89
340.493	10376.15
340.944	10609.05
341.396	11461.22
341.847	9647.26
342.299	11404.65
342.75	13930.14
343.201	12148.72
343.653	13923.6
344.104	17139.61
344.555	13483.13
345.006	20936.3
345.457	16112.91
345.908	12791.11
346.359	12024.19
346.81	9790.47
347.261	10288.5
347.712	10121.5
348.163	10851.38
348.613	11060.03
349.064	10323.94
349.515	9037.36
349.965	9290.66
350.416	11162.78
350.866	12275.62
351.317	13829.11
351.767	22843.08
352.217	28911.18
352.668	23976.9
353.118	21995.43
353.568	21103.78
354.018	16660.97
354.468	17616.96
354.918	12642.68
355.368	11052.2
355.818	15607.86
356.268	44974.85
356.718	189049.65
357.168	47018.78
357.617	23590.13
358.067	26198.04
358.517	24603.78
358.966	28952.6
359.416	32477.47
359.865	35113.06
360.315	41846.54
360.764	19545.17
361.213	10952.77
361.663	10344.06
362.112	12766.29
362.561	20670.23
363.01	15613.12
363.459	13147.7
363.908	14217.02
364.357	12098.18
364.806	20449.88
365.255	14047.41
365.703	12873.61
366.152	12924.16
366.601	10498.04
367.05	8540.35
367.498	7775.43
367.947	8112.99
368.395	8444.28
368.844	7503.64
369.292	9021.14
369.74	6227.19
370.189	9531.07
370.637	11215.49
371.085	9668.42
371.533	11772.08
371.981	11323.73
372.429	10789.56
372.877	11221.66
373.325	9348.22
373.773	9490.08
374.221	8426.35
374.669	10444.76
375.116	9005.49
375.564	9068.61
376.012	10125.89
376.459	8353.1
376.907	9981.41
377.354	12047.98
377.801	11284.58
378.249	13003.08
378.696	16586.55
379.143	20117.22
379.591	21374.94
380.038	36301.8
380.485	26184.22
380.932	28237.67
381.379	25936.04
381.826	19107.01
382.273	13592.42
382.72	11840.36
383.166	11555.34
383.613	7493.29
384.06	6753.71
384.506	7827.03
384.953	5731.37
385.4	5764.44
385.846	5061.75
386.292	4896.57
386.739	4771.5
387.185	4693.8
387.631	4690.06
388.078	4568.49
388.524	4895.45
388.97	4519.88
389.416	3786.1
389.862	4036.29
390.308	3823.34
390.754	3880.12
391.2	4204.72
391.645	4310.19
392.091	4154.12
392.537	4024.45
392.983	4004.59
393.428	3956.9
393.874	4249.02
394.319	4270.47
394.765	4056.86
395.21	4157.14
395.655	3894
396.101	3655.56
396.546	3303.45
396.991	3307.81
397.436	3073.46
397.881	2975.51
398.326	2806.39
398.771	2660.68
399.216	2321.38
399.661	2090.12
400.106	2098.22
400.551	2158.64
400.995	1938.9
401.44	1922.52
401.885	1813.87
402.329	1834.08
402.774	1766.23
403.218	1722.26
403.663	1659.82
404.107	1709.21
404.551	1725.42
404.995	1580.45
405.44	1520.4
405.884	1544.45
406.328	1494.81
406.772	1492.85
407.216	1361.93
407.66	1311.76
408.104	1238.42
408.547	1158.99
408.991	1124.47
409.435	1078.55
409.879	1068.27
410.322	1052.66
410.766	1017.83
411.209	971.8
411.653	935.04
412.096	918.29
412.54	921.56
412.983	918.54
413.426	926.12
413.869	924.76
414.312	913.25
414.756	878.61
415.199	843.68
415.642	823.87
416.085	826.55
416.527	820.23
416.97	834.45
417.413	793.23
417.856	784.69
418.298	773.26
418.741	765.94
419.184	761.84
419.626	793.4
420.069	793.49
420.511	799.24
420.953	783.21
421.396	778.57
421.838	758.07
422.28	777.37
422.722	784
423.164	795.29
423.606	786.02
424.048	785.74
424.49	748.76
424.932	744.56
425.374	732.03
425.816	741.61
426.258	755.74
426.699	763.76
427.141	751.83
427.582	762.33
428.024	757.6
428.465	751.66
428.907	732.74
429.348	723.13
429.789	726.33
430.231	715.8
430.672	727.5
431.113	709.24
431.554	699.97
431.995	682.75
432.436	662.83
432.877	652.77
433.318	644.93
433.759	644.5
434.2	644.97
434.64	637.28
435.081	637.82
435.522	604.89
435.962	586.58
436.403	576.76
436.843	583.34
437.284	568.52
437.724	551.71
438.164	550.02
438.604	537.62
439.045	518.27
439.485	499.58
439.925	488.09
440.365	476.8
440.805	468.67
441.245	465.29
441.685	451.73
442.125	449.68
442.564	452.88
443.004	444.1
443.444	445.09
443.883	448.21
444.323	443.68
444.762	443.62
445.202	451.45
445.641	462.79
446.081	458.14
446.52	462.81
446.959	461.27
447.398	452.38
447.837	450.35
448.276	443.57
448.716	448.5
449.154	451.7
449.593	444.53
450.032	443.16
450.471	435.41
450.91	436.91
451.349	436.7
451.787	433.27
452.226	441.15
452.664	439.81
453.103	441.15
453.541	439.65
453.98	442.52
454.418	444.78
454.856	440.09
455.295	439.07
455.733	443.9
456.171	447.03
456.609	446.89
457.047	447.52
457.485	456.09
457.923	457.66
458.361	451.15
458.798	451.88
459.236	452.39
459.674	454.03
460.111	456.46
460.549	450.51
460.987	448.75
461.424	447.81
461.862	444.59
462.299	436.79
462.736	435.97
463.173	438.81
463.611	435.94
464.048	435.33
464.485	438.85
464.922	434.42
465.359	432.79
465.796	432.02
466.233	429.58
466.67	427.49
467.106	428.69
467.543	422.35
467.98	415.95
468.416	403.32
468.853	397.81
469.29	385.72
469.726	381.62
470.162	370.27
470.599	360.77
471.035	357.68
471.471	348.86
471.907	343.92
472.344	342.87
472.78	345.12
473.216	349.23
473.652	346.53
474.088	345.09
474.523	344.7
474.959	349.18
475.395	346.64
475.831	344.99
476.266	346.43
476.702	346.87
477.138	343.91
477.573	342.45
478.008	341.45
478.444	343.41
478.879	348.26
479.314	350.86
479.75	351.13
480.185	353.12
480.62	355.56
481.055	357.93
481.49	361.33
481.925	367.45
482.36	376.35
482.795	386.39
483.229	396.39
483.664	405.35
484.099	406.14
484.534	412.59
484.968	416.81
485.403	418.3
485.837	417.86
486.271	416.9
486.706	416.71
487.14	410.84
487.574	405.89
488.009	402.81
488.443	398.58
488.877	403.85
489.311	405.36
489.745	410.28
490.179	415.14
490.613	424.12
491.046	427.63
491.48	431.65
491.914	432.74
492.348	436.16
492.781	439.19
493.215	441.4
493.648	442.08
494.082	446.11
494.515	448.29
494.948	455.55
495.382	458.71
495.815	463.18
496.248	468.36
496.681	478.01
497.114	487.42
497.547	496.87
497.98	508.12
498.413	515.47
498.846	524.65
499.279	531.32
499.711	534.69
500.144	539.16
500.577	549.54
501.009	558.8
501.442	569.39
501.874	572.71
502.306	576.55
502.739	585.7
503.171	599.07
503.603	604.63
504.036	614.91
504.468	623.37
504.9	635.11
505.332	642.39
505.764	649.47
506.196	657.1
506.627	670.85
507.059	683.96
507.491	692.06
507.923	694.43
508.354	709.83
508.786	721.91
509.217	738.3
509.649	752.26
510.08	770.19
510.512	787
510.943	802.02
511.374	814.89
511.805	833.7
512.237	852.37
512.668	880.03
513.099	903.39
513.53	927.5
513.961	946.68
514.391	974.55
514.822	1004.02
515.253	1034.79
515.684	1058.11
516.114	1084.8
516.545	1104.21
516.975	1128.39
517.406	1145.58
517.836	1150.19
518.267	1158.1
518.697	1175.9
519.127	1182.45
519.558	1190.6
519.988	1195.73
520.418	1206.51
520.848	1223.35
521.278	1233.7
521.708	1265.23
522.138	1278.18
522.567	1306.04
522.997	1328.74
523.427	1343.22
523.857	1358.79
524.286	1369.38
524.716	1384.24
525.145	1401.97
525.575	1412.5
526.004	1426.43
526.433	1408.46
526.863	1409.44
527.292	1402.51
527.721	1408.66
528.15	1415.15
528.579	1416.88
529.008	1427.46
529.437	1447.09
529.866	1459.08
530.295	1474.34
530.724	1485.27
531.152	1509.44
531.581	1523.25
532.01	1539.78
532.438	1548.58
532.867	1561.18
533.295	1578.4
533.723	1584.14
534.152	1583.32
534.58	1583.39
535.008	1569.91
535.436	1573.24
535.865	1578.16
536.293	1589.76
536.721	1603.19
537.149	1623.73
537.576	1626.81
538.004	1636.88
538.432	1643.05
538.86	1641.74
539.287	1647.94
539.715	1659.35
540.143	1660.11
540.57	1656.83
540.998	1653.06
541.425	1632.67
541.852	1615.57
542.28	1613.02
542.707	1600.01
543.134	1588.57
543.561	1585.48
543.988	1580.03
544.415	1579.54
544.842	1575.6
545.269	1570.64
545.696	1572.83
546.123	1585.23
546.549	1575.98
546.976	1566.66
547.403	1566.49
547.829	1569.42
548.256	1572.36
548.682	1569.5
549.108	1564.6
549.535	1564.68
549.961	1566.81
550.387	1556.67
550.813	1552.57
551.24	1559.25
551.666	1559.98
552.092	1552.39
552.518	1546.74
552.943	1541.91
553.369	1549.49
553.795	1554.88
554.221	1555.35
554.646	1553.08
555.072	1563.6
555.498	1567.8
555.923	1575.98
556.349	1589.25
556.774	1596.55
557.199	1597.7
557.625	1602.15
558.05	1597
558.475	1606.91
558.9	1607.73
559.325	1602.3
559.75	1595.98
560.175	1591.06
560.6	1585.52
561.025	1584.46
561.449	1586.72
561.874	1591.74
562.299	1596.08
562.723	1602.54
563.148	1593.49
563.572	1596.89
563.997	1604.72
564.421	1608.76
564.846	1609.8
565.27	1613.96
565.694	1611.96
566.118	1621.71
566.542	1629.13
566.966	1622.74
567.39	1618.15
567.814	1608.31
568.238	1606.9
568.662	1610.94
569.086	1613.56
569.509	1617.5
569.933	1602.96
570.357	1595.21
570.78	1574.94
571.204	1562.8
571.627	1553.72
572.05	1551.02
572.474	1549.96
572.897	1538.14
573.32	1531.29
573.743	1521.47
574.166	1505.35
574.589	1505.43
575.012	1498.73
575.435	1497.75
575.858	1488.39
576.281	1477.47
576.704	1463.53
577.126	1453.1
577.549	1443.88
577.972	1434.94
578.394	1427.27
578.817	1422.84
579.239	1405.62
579.661	1393.66
580.084	1381.84
580.506	1370.9
580.928	1367.14
581.35	1357.75
581.772	1353.41
582.194	1341.18
582.616	1329.77
583.038	1316.03
583.46	1305.56
583.882	1302.04
584.303	1305.46
584.725	1299.85
585.147	1301.89
585.568	1311.27
585.99	1321.7
586.411	1328.27
586.833	1341.88
587.254	1342.5
587.675	1354.19
588.096	1364.8
588.518	1360.7
588.939	1346.14
589.36	1344.35
589.781	1334.52
590.202	1311.22
590.623	1304.04
591.043	1301.01
591.464	1289.92
591.885	1287.76
592.305	1283.66
592.726	1271.34
593.147	1272.64
593.567	1269.07
593.987	1262.47
594.408	1258.26
594.828	1255.49
595.248	1249.62
595.669	1234.64
596.089	1228.98
596.509	1222.29
596.929	1209.97
597.349	1211.8
597.769	1202.19
598.189	1196.53
598.608	1198.33
599.028	1199.17
599.448	1199.23
599.867	1188.63
600.287	1183.9
600.706	1179.66
601.126	1172.14
601.545	1171.57
601.965	1169.57
602.384	1165.67
602.803	1167.81
603.222	1163.49
603.641	1157.86
604.061	1154.58
604.48	1150.29
604.898	1156.8
605.317	1160.25
605.736	1160.86
606.155	1158.21
606.574	1149.03
606.992	1152.97
607.411	1148.27
607.829	1139.34
608.248	1136.02
608.666	1132.76
609.085	1131.59
609.503	1123.74
609.921	1117.99
610.339	1119.71
610.758	1117.39
611.176	1112.98
611.594	1104.34
612.012	1100.01
612.43	1102.47
612.847	1106.74
613.265	1106.5
613.683	1109.25
614.101	1109.59
614.518	1105.63
614.936	1095.63
615.353	1083.7
615.771	1080.48
616.188	1080.25
616.606	1077.02
617.023	1070.92
617.44	1058.18
617.857	1051.74
618.274	1044.03
618.691	1038.18
619.108	1029.06
619.525	1024.06
619.942	1028.23
620.359	1029.88
620.776	1024.51
621.192	1019.81
621.609	1017.04
622.026	1022.3
622.442	1027.14
622.859	1029.15
623.275	1022.83
623.691	1027.74
624.108	1035.78
624.524	1046.86
624.94	1046.83
625.356	1055.13
625.772	1065.36
626.188	1073.91
626.604	1074.87
627.02	1070.9
627.436	1069.13
627.852	1074.86
628.268	1083.98
628.683	1076.87
629.099	1069.72
629.514	1065.06
629.93	1066.83
630.345	1070.93
630.761	1067.78
631.176	1070.15
631.591	1065.73
632.007	1060.72
632.422	1057.17
632.837	1047.41
633.252	1044.49
633.667	1035.23
634.082	1026.96
634.497	1016.04
634.911	998.16
635.326	994.29
635.741	979.98
636.155	969.93
636.57	969.54
636.984	968.38
637.399	969.12
637.813	966.82
638.228	964.8
638.642	966.54
639.056	956.64
639.47	957.23
639.884	948.65
640.298	942.04
640.712	939.31
641.126	927.27
641.54	918.74
641.954	911.54
642.368	899.97
642.781	892.75
643.195	877.6
643.609	876.4
644.022	869.51
644.436	865.22
644.849	852.7
645.262	842.05
645.676	841.57
646.089	835.25
646.502	822.65
646.915	817.27
647.328	801.87
647.741	799.21
648.154	788.47
648.567	784.74
648.98	772.49
649.393	772.07
649.805	768.93
650.218	761.7
650.631	750.48
651.043	744.61
651.456	739.76
651.868	738.96
652.28	749.4
652.693	757.38
653.105	761.07
653.517	766.47
653.929	765.14
654.341	766.37
654.753	756.93
655.165	759.46
655.577	756.21
655.989	750.47
656.401	742.7
656.813	714.78
657.224	698.01
657.636	673.74
658.047	659.28
658.459	642.41
658.87	633.43
659.282	621.77
659.693	604.57
660.104	591.31
660.515	578.06
660.926	573.71
661.338	569.26
661.749	562.34
662.159	555.03
662.57	549.14
662.981	543.92
663.392	536.45
663.803	537.07
664.213	532.51
664.624	526.97
665.035	526.95
665.445	516.01
665.855	510.62
666.266	503.97
666.676	499.78
667.086	492
667.497	490.96
667.907	485.35
668.317	477.38
668.727	475.71
669.137	474.67
669.547	473.1
669.956	472.7
670.366	471.49
670.776	471.25
671.186	473.15
671.595	475.23
672.005	475.23
672.414	475.72
672.824	475.56
673.233	475.32
673.642	476.87
674.052	479.57
674.461	482.67
674.87	484.96
675.279	484.19
675.688	484.03
676.097	486.01
676.506	485.07
676.915	492.75
677.323	494.02
677.732	494.94
678.141	494.79
678.549	487.96
678.958	487.31
679.366	488.12
679.775	492.68
680.183	502.54
680.592	507.51
681	513.33
681.408	511.87
681.816	520.21
682.224	528.13
682.632	539.71
683.04	562.79
683.448	582.41
683.856	607.09
684.264	634.77
684.671	660.56
685.079	691.16
685.487	726.37
685.894	774.14
686.302	814.97
686.709	852.58
687.116	893.05
687.524	930.19
687.931	963.66
688.338	993.78
688.745	1019.7
689.152	1049.12
689.559	1087.69
689.966	1125.85
690.373	1148.62
690.78	1184.28
691.187	1235
691.593	1275.46
692	1310.95
692.407	1362.5
692.813	1424.99
693.22	1475.03
693.626	1526.5
694.032	1570.07
694.439	1632.56
694.845	1682.2
695.251	1742.57
695.657	1799.68
696.063	1882.86
696.469	1944.61
696.875	2002.36
697.281	2035.23
697.687	2076.53
698.093	2109.64
698.498	2172.7
698.904	2221.57
699.31	2294.23
699.715	2350.59
700.12	2425.1
700.526	2440.07
700.931	2497.14
701.337	2539.88
701.742	2567.13
702.147	2636.25
702.552	2661.95
702.957	2711.8
703.362	2729.92
703.767	2753.4
704.172	2785.62
704.577	2747.96
704.981	2786.1
705.386	2799.72
705.791	2794.48
706.195	2857.37
706.6	2863.84
707.004	2931.02
707.408	2903.95
707.813	2925.49
708.217	2916.11
708.621	2916.66
709.025	2996.98
709.43	2999.36
709.834	3048.93
710.237	3106.79
710.641	3095.49
711.045	3113.46
711.449	3109.65
711.853	3135.54
712.256	3168.68
712.66	3200.1
713.064	3261.45
713.467	3294.38
713.87	3384.61
714.274	3423.72
714.677	3514.24
715.08	3646.13
715.484	3787.51
715.887	3955.04
716.29	4116.62
716.693	4289.44
717.096	4486.38
717.499	4596.12
717.901	4619.49
718.304	4641.9
718.707	4659.13
719.109	4573.44
719.512	4545.99
719.915	4432.11
720.317	4383.37
720.719	4418.45
721.122	4392.58
721.524	4351
721.926	4317.25
722.328	4397.01
722.731	4389.62
723.133	4411.27
723.535	4567.73
723.937	4583.1
724.338	4627.09
724.74	4657.92
725.142	4626.11
725.544	4624.63
725.945	4650.41
726.347	4645.44
726.748	4637.94
727.15	4648.11
727.551	4619.82
727.952	4596.9
728.354	4572.37
728.755	4571.44
729.156	4536.43
729.557	4506.15
729.958	4405.35
730.359	4354.97
730.76	4340.5
731.161	4291.06
731.562	4271.33
731.962	4273.95
732.363	4218.5
732.763	4166.44
733.164	4194.63
733.564	4140.77
733.965	4063.04
734.365	4036.17
734.766	4061.54
735.166	4028.82
735.566	3985.82
735.966	3965.12
736.366	3958.13
736.766	3910.11
737.166	3936.87
737.566	3902.96
737.966	3882.82
738.365	3914.75
738.765	3908.79
739.165	3845.84
739.564	3823.89
739.964	3859.77
740.363	3820.91
740.763	3818.17
741.162	3808.98
741.561	3781.95
741.96	3745.28
742.36	3759.15
742.759	3764.32
743.158	3795.6
743.557	3805.63
743.955	3837.4
744.354	3800.51
744.753	3846.53
745.152	3815.74
745.55	3859.43
745.949	3854.35
746.348	3852.91
746.746	3866.32
747.144	3832.35
747.543	3813.27
747.941	3854.66
748.339	3797.1
748.737	3790.45
749.136	3784.19
749.534	3833.19
749.932	3810.51
750.33	3829.4
750.727	3875.13
751.125	3855.32
751.523	3843.32
751.921	3880.31
752.318	3852.18
752.716	3900.27
753.113	3912.03
753.511	3932.95
753.908	3935.12
754.305	3922.31
754.703	3972.97
755.1	4023.03
755.497	4071.38
755.894	4225.54
756.291	4369.09
756.688	4637.4
757.085	4992.89
757.482	5491.47
757.878	6037.46
758.275	6532.6
758.672	7214.58
759.068	7767.37
759.465	8558.65
759.861	9580
760.258	10761.67
760.654	11368.54
761.05	11274.59
761.447	10756.05
761.843	10016.56
762.239	9246.58
762.635	8895.95
763.031	8561.74
763.427	8082.81
763.822	7579.43
764.218	7081.34
764.614	6435.08
765.01	6006.83
765.405	5727.03
765.801	5518.59
766.196	5250.48
766.592	5099.56
766.987	4844.86
767.382	4672.09
767.778	4601.91
768.173	4494.79
768.568	4436.94
768.963	4338.09
769.358	4353.16
769.753	4316.43
770.148	4247.4
770.542	4244.31
770.937	4219.91
771.332	4296.18
771.726	4311.71
772.121	4259.61
772.515	4305.76
772.91	4296.04
773.304	4352.21
773.699	4297.77
774.093	4338.69
774.487	4383.4
774.881	4419.42
775.275	4415.76
775.669	4379.74
776.063	4416.12
776.457	4444.81
776.851	4381.77
777.245	4373.69
777.638	4400.54
778.032	4491.58
778.425	4466.22
778.819	4500.61
779.212	4464.14
779.606	4432.17
779.999	4449.24
780.392	4433.81
780.786	4498.79
781.179	4517.49
781.572	4551.95
781.965	4562.75
782.358	4516.94
782.751	4559.88
783.143	4523.16
783.536	4585.92
783.929	4622.58
784.322	4713.49
784.714	4739.14
785.107	4737.12
785.499	4798.13
785.891	4782.98
786.284	4763.48
786.676	4877.56
787.068	4862.87
787.46	4903.2
787.852	4916.49
788.245	4985.49
788.636	5011.81
789.028	5068.66
789.42	5102.92
789.812	5109.47
790.204	5188.38
790.595	5276.18
790.987	5119.42
791.378	5139.22
791.77	5247.48
792.161	5359.11
792.553	5406.67
792.944	5319.84
793.335	5264.88
793.726	5323.82
794.117	5398.48
794.508	5508.03
794.899	5479.88
795.29	5596.29
795.681	5643.58
796.072	5528.5
796.463	5387.18
796.853	5394.04
797.244	5521.25
797.634	5549.93
798.025	5550.45
798.415	5561.52
798.806	5633.13
799.196	5705.85
799.586	5749.86
799.976	5721.69
800.366	5908.13
800.756	6097.12
801.146	6064.6
801.536	6089.15
801.926	6148.35
802.316	6170.77
802.706	6229.58
803.095	6133.53
803.485	6216.73
803.874	6252.44
804.264	6466.39
804.653	6449.28
805.043	6564.74
805.432	6654.53
805.821	6656.24
806.21	6675.08
806.599	6768.84
806.988	6806.47
807.377	6898.24
807.766	7004.28
808.155	7234.31
808.544	7019.18
808.933	7031.5
809.321	7020.46
809.71	7261.24
810.098	7392.48
810.487	7772.2
810.875	8166.61
811.264	8182.43
811.652	8420.1
812.04	8543.42
812.428	8679.68
812.816	9299.39
813.204	9640.58
813.592	10088.66
813.98	10363.52
814.368	10289.75
814.756	10680.18
815.144	10612.82
815.531	10998.45
815.919	10935.01
816.306	11185.31
816.694	10926.17
817.081	10974.76
817.469	11259.11
817.856	11255.01
818.243	11477.95
818.63	11797.64
819.017	11454.71
819.404	11514.42
819.791	11825.09
820.178	12316.59
820.565	12524.33
820.952	13295.36
821.339	12891.16
821.725	13038.69
822.112	12434.93
822.498	12402.39
822.885	12503.8
823.271	12428.18
823.657	12765.3
824.044	12769.95
824.43	12835.08
824.816	12800.15
825.202	12437.09
825.588	13269.81
825.974	13286.04
826.36	13706.52
826.746	13730.43
827.132	14023.67
827.517	14001.9
827.903	13362.04
828.289	13398.13
828.674	12760.63
829.06	12680.62
829.445	13005.04
829.83	13296.71
830.216	13686.72
830.601	13991.09
830.986	13661.1
831.371	13551.51
831.756	14015.25
832.141	13661.95
832.526	13653.32
832.911	13891.15
833.295	13796.11
833.68	14175.02
834.065	13666.38
834.449	12914.65
834.834	12847.68
835.218	12846.09
835.603	13116.62
835.987	12934.71
836.371	13608.37
836.755	13520.23
837.139	13838.67
837.524	14025
837.908	13885.21
838.291	13925.28
838.675	13973.64
839.059	14139.5
839.443	14121.84
839.827	13930.04
840.21	14312.62
840.594	14194.01
840.977	14359.6
841.361	14346.65
841.744	14649.89
842.127	14518.08
842.511	14720.48
842.894	15209.52
843.277	15513.46
843.66	15943.78
844.043	16016.43
844.426	15361.46
844.809	15109.7
845.191	15135.48
845.574	14758.04
845.957	14462.05
846.339	14371.87
846.722	13939.09
847.104	13983.84
847.487	13843.36
847.869	13860.79
848.252	14077.65
848.634	14347.82
849.016	14556.99
849.398	14649.6
849.78	15327.86
850.162	15333.78
850.544	15666.17
850.926	16176.2
851.307	16109.63
851.689	16343.67
852.071	16699.89
852.452	16965.65
852.834	16950.78
853.215	17271.52
853.597	17393.49
853.978	17641.68
854.359	18012.19
854.741	17217.48
855.122	17134
855.503	16895.22
855.884	17002.44
856.265	16959.35
856.646	17055.36
857.026	16736.96
857.407	16678.03
857.788	16809.83
858.169	17042.03
858.549	16358.32
858.93	16861.36
859.31	16903.45
859.69	17079.7
860.071	16742.68
860.451	16567.4
860.831	15971.39
861.211	16897.74
861.591	17347.96
861.971	17323.32
862.351	17472.28
862.731	17779.41
863.111	17987.52
863.491	18259.65
863.87	18977.09
864.25	19273.5
864.629	18960.36
865.009	19371.66
865.388	20076.34
865.768	21515.28
866.147	21447.76
866.526	20267.55
866.905	20519.62
867.284	21675.23
867.663	20579.33
868.042	19707.09
868.421	19628.86
868.8	19951.79
869.179	20141.61
869.558	18967.47
869.936	17488.63
870.315	17789.78
870.693	18222.73
871.072	19645.9
871.45	18718.89
871.828	18957.28
872.207	19945.45
872.585	19655.07
872.963	20191.86
873.341	19508.44
873.719	19277.08
874.097	19042.47
874.475	19408.98
874.853	19848.84
875.23	19021.72
875.608	19819.54
875.986	21446.55
876.363	20501.5
876.741	21126.31
877.118	20595.89
877.495	21600.88
877.873	21955.18
878.25	23104.96
878.627	22152.14
879.004	22465.57
879.381	22351.61
879.758	21753.77
880.135	20247.4
880.512	21399.68
880.889	20822.01
881.265	20603.32
881.642	20432.66
882.019	20772.92
882.395	20344.03
882.772	21151.91
883.148	20220.12
883.524	20144.55
883.901	20026.51
884.277	20319.89
884.653	20195.12
885.029	20772.45
885.405	22998.7
885.781	22826.7
886.157	21891.7
886.532	22156.67
886.908	22144.94
887.284	24621.91
887.659	25414.88
888.035	26194.22
888.411	26880.37
888.786	27244
889.161	28198.59
889.537	27656.7
889.912	28526.01
890.287	28482.27
890.662	29212.68
891.037	28662.75
891.412	26720.71
891.787	26445.79
892.162	25519.96
892.536	26092.7
892.911	25100.92
893.286	24556.27
893.66	23564.35
894.035	24161
894.409	26313.89
894.784	25253.23
895.158	25676.05
895.532	27205.04
895.906	27948.66
896.281	28601.96
896.655	28158.51
897.029	32161.63
897.402	33483.74
897.776	37274.15
898.15	37138.33
898.524	36721.3
898.898	37187.84
899.271	41649.95
899.645	36074.05
900.018	34637.07
900.392	35921.86
900.765	36185.13
901.138	33483.45
901.511	32979.63
901.884	30297.27
902.258	27944.12
902.631	28897.29
903.003	33265.87
903.376	30016.94
903.749	33661.56
904.122	36051.91
904.495	39703.67
904.867	40207.2
905.24	34922.32
905.612	32518.84
905.985	33256.75
906.357	34794.18
906.729	33192.27
907.102	28378.98
907.474	27297.21
907.846	27484.28
908.218	27115.01
908.59	23956.93
908.962	23187.01
909.334	24984.99
909.705	26267.29
910.077	25507.38
910.449	26552.35
910.82	27297.88
911.192	30020.05
911.563	31202.34
911.935	33377.51
912.306	33404.75
912.677	34506.11
913.048	34155.67
913.419	37047.04
913.79	37237.02
914.161	39921.56
914.532	38157.47
914.903	35065.51
915.274	33328.37
915.645	32829.78
916.015	28887.87
916.386	27554
916.756	29333.97
917.127	30257.35
917.497	27042.99
917.868	29442.05
918.238	27989.6
918.608	28790.99
918.978	29400.83
919.348	31120.01
919.718	32157.09
920.088	31002.08
920.458	32234.32
920.828	33900.12
921.198	32167.29
921.567	34346.24
921.937	26598.96
922.306	26839.81
922.676	28947.57
923.045	24149.26
923.415	22940.46
923.784	20884.28
924.153	21467.44
924.522	21463.26
924.891	20181.24
925.26	21596.87
925.629	21096.21
925.998	24254.36
926.367	23677.8
926.736	22561.67
927.104	26877.57
927.473	28897.33
927.842	34908.07
928.21	34565.98
928.578	36299.22
928.947	34348.61
929.315	34560.82
929.683	40525.62
930.051	40838.98
930.42	47438.54
930.788	40535.62
931.156	40220.47
931.523	37710.15
931.891	34831.06
932.259	33471.48
932.627	38804.02
932.994	54885.63
933.362	45392.73
933.729	39377.08
934.097	37659.94
934.464	31843.39
934.831	36714.15
935.199	36172.01
935.566	35063.68
935.933	35491.54
936.3	42955.44
936.667	33415.1
937.034	30176.34
937.401	29803.84
937.767	25750.35
938.134	22934.19
938.501	32359.26
938.867	34488.01
939.234	58311.2
939.6	49709.06
939.967	54873.65
940.333	36724.61
940.699	31282.59
941.065	25059.58
941.431	32887.28
941.798	31719.76
942.163	41701.63
942.529	26049.41
942.895	23998.53
943.261	15536.13
943.627	20418.65
943.992	17885.78
944.358	17930.76
944.723	18030.46
945.089	17580.3
945.454	16249.4
945.82	17367.33
946.185	16697.77
946.55	19365.43
946.915	17372.71
947.28	20366.48
947.645	17945.2
948.01	16575.26
948.375	17275.65
948.74	20665.84
949.104	24105.55
949.469	34803.2
949.834	61422.29
950.198	58256.43
950.562	34916.76
950.927	29072.24
951.291	35017.65
951.655	29794.11
952.02	27968.83
952.384	21179.34
952.748	18429.68
953.112	17986.02
953.476	15639.91
953.839	14462.25
954.203	14295.69
954.567	17865.21
954.931	28131.31
955.294	24029.46
955.658	24181.91
956.021	41115.36
956.385	69648.15
956.748	102798.83
957.111	159190.29
957.474	178682.59
957.837	201329.34
958.2	152288.82
958.563	54770.36
958.926	37029.61
959.289	56208.62
959.652	62757.32
960.015	47068.62
960.377	67439
960.74	76901.53
961.102	132675.12
961.465	142576.9
961.827	76438.03
962.189	146759.03
962.552	101787.6
962.914	81687.43
963.276	53018.51
963.638	43801.9
964	43343.48
964.362	29323.64
964.724	28356.34
965.085	20247.79
965.447	16594.63
965.809	18875.37
966.17	18869.28
966.532	20427.1
966.893	18730.45
967.255	17058.21
967.616	20154.92
967.977	16148.95
968.338	17640.34
968.699	14499.54
969.061	14487.76
969.421	14578.61
969.782	16354.06
970.143	13812.69
970.504	14308.77
970.865	16259.29
971.225	16619.28
971.586	16222.34
971.946	23116.44
972.307	20050.91
972.667	26196.9
973.027	26965.94
973.388	32672.71
973.748	22245.41
974.108	24253.79
974.468	32719.91
974.828	25248.23
975.188	19396.91
975.548	17794.94
975.907	14950.07
976.267	16747.17
976.627	14086.89
976.986	14600.23
977.346	13918.44
977.705	13369.78
978.064	12176.24
978.424	10152.76
978.783	10478.52
979.142	11977.14
979.501	11499.14
979.86	12139.17
980.219	11710.76
980.578	15098.36
980.937	16923.68
981.296	15089.72
981.654	15518.48
982.013	24112.6
982.371	31296.83
982.73	29261.46
983.088	33097.14
983.447	35383.59
983.805	50691.82
984.163	106121.72
984.521	117582.96
984.879	172232.96
985.237	-280530.77
985.595	270951.98
985.953	67414.15
986.311	38831.49
986.669	22526.12
987.026	19430.37
987.384	26012.52
987.741	26815.92
988.099	19168.91
988.456	15282.82
988.814	14301.91
989.171	12405
989.528	12229.31
989.885	12910.12
990.242	10268.28
990.599	12789.43
990.956	10469.25
991.313	7334.44
991.67	6033.76
992.027	6399.62
992.383	5699.61
992.74	5009.52
993.096	5259.73
993.453	5449.3
993.809	5654.96
994.165	7505.67
994.522	6903.92
994.878	7615.6
995.234	9555.09
995.59	9419.54
995.946	8891.29
996.302	10128.28
996.658	11713.08
997.013	12906.33
997.369	15325.56
997.725	19634.36
998.08	12738.99
998.436	19578.31
998.791	27003.47
999.147	26950.98
999.502	29429.42
999.857	21369.37
1000.212	34845.35
1000.567	49525.79
1000.922	28541.39
1001.277	18112
1001.632	13399.08
1001.987	17257.46
1002.342	12346.23
1002.696	9866.49
1003.051	7876.21
1003.406	9517.6
1003.76	9493.08
1004.114	9357.33
1004.469	7871.5
1004.823	6514.94
1005.177	7028.22
1005.531	5586.77
1005.885	4957
1006.239	5615.68
1006.593	7045.78
1006.947	9455.29
1007.301	7082.61
1007.655	7713.81
1008.008	5668.97
1008.362	6379.45
1008.715	9116.55
1009.069	8281.15
1009.422	12484.54
1009.776	25008.05
1010.129	16608.04
1010.482	13896.54
1010.835	11693.16
1011.188	24363.2
1011.541	22953.17
1011.894	-140138.35
1012.247	411815.02
1012.6	28063.8
1012.952	17750.97
1013.305	9108.52
1013.657	6590.9
1014.01	6224.46
1014.362	5130.88
1014.715	4595.49
1015.067	4009.5
1015.419	3914.62
1015.771	3462.84
1016.123	3092.93
1016.475	3178.66
1016.827	3387.79
1017.179	3656.59
1017.531	3675.74
1017.883	3740.66
1018.234	3618.56
1018.586	4553.79
1018.938	4859.69
1019.289	6739.41
1019.64	7720.87
1019.992	7157.89
1020.343	6568.11
1020.694	5199.9
1021.045	4583.1
1021.396	5245.27
1021.747	5662.18
1022.098	6815.86
1022.449	4946.63
1022.8	4539.08
1023.151	3158.87
1023.501	2814.06
1023.852	3060.25
1024.202	3170.53
1024.553	3486.47
1024.903	3407.58
1025.253	2919.75
1025.604	2630.85
1025.954	3251.82
1026.304	3958.26
1026.654	4631.4
1027.004	6769.73
1027.354	10878.05
1027.703	10306.4
1028.053	13539.63
1028.403	19790.06
1028.753	28534.42
1029.102	38610.38
1029.452	197749.72
1029.801	8507.65
1030.15	5491.61
1030.499	4671.07
897.758	2830.82
901.051	2793.06
904.343	2827.98
907.636	2827.01
910.928	2893.75
914.22	2800.61
917.511	2809.58
920.803	2880.36
924.094	2904.24
927.384	2874.91
930.675	2841.86
933.965	2789.49
937.255	2794.52
940.544	2763.54
943.834	2681.02
947.123	2628.87
950.411	2728.28
953.7	2698.77
956.988	2660.48
960.276	2603.71
963.563	2696.16
966.851	2685.68
970.138	2749.62
973.424	2738.77
976.711	2687.62
979.997	2847.23
983.283	2877.9
986.568	2773.4
989.853	2799.18
993.138	2825.69
996.423	2909.97
999.708	2836.96
1002.992	2916.32
1006.275	2724.2
1009.559	2786.11
1012.842	2905.67
1016.125	2832.49
1019.408	2810.95
1022.69	2905.94
1025.972	2919.38
1029.254	2893.72
1032.536	2814.29
1035.817	2849.46
1039.098	2778.16
1042.379	2956.24
1045.659	2944.34
1048.939	2868.82
1052.219	2895.01
1055.498	2911.55
1058.778	2894.82
1062.057	2884.34
1065.335	2903.94
1068.614	2927.27
1071.892	2902.88
1075.17	2989.02
1078.447	2969.94
1081.724	2958.59
1085.001	3002.58
1088.278	2973.99
1091.554	2989.11
1094.83	2986.85
1098.106	3010.73
1101.382	3061.26
1104.657	3057.77
1107.932	3054.48
1111.206	3014.74
1114.481	2972.98
1117.755	2976.15
1121.029	2950.21
1124.302	3004.48
1127.575	2948.74
1130.848	2931.65
1134.121	2888.19
1137.393	2832.03
1140.665	2907.96
1143.937	2878.18
1147.208	2841.85
1150.48	2877.33
1153.75	2861.66
1157.021	2903.2
1160.291	2868.51
1163.561	2914.65
1166.831	2910.79
1170.101	2945.1
1173.37	2924.3
1176.639	2860.21
1179.907	2929.05
1183.176	2927.76
1186.444	2940.47
1189.711	2969.01
1192.979	2976.58
1196.246	2936.2
1199.513	2953.65
1202.78	2949.1
1206.046	2956.9
1209.312	2983.76
1212.578	3014.25
1215.843	2957.09
1219.108	2935.02
1222.373	2953.52
1225.638	2914.74
1228.902	2897.21
1232.166	2863.74
1235.43	2844.3
1238.693	2867.54
1241.956	2868
1245.219	2902.55
1248.482	2899.26
1251.744	2893.87
1255.006	3054.56
1258.268	3014.76
1261.529	2953.33
1264.79	2963.03
1268.051	3070.3
1271.312	3087.68
1274.572	3048.51
1277.832	3036.44
1281.092	3031.53
1284.351	2995.25
1287.61	2970.93
1290.869	2877.78
1294.128	2845.42
1297.386	2951.89
1300.644	2937.46
1303.902	2948.72
1307.159	2804.38
1310.416	2860.27
1313.673	2886.62
1316.93	2865.33
1320.186	2917.95
1323.442	2963.86
1326.697	2945.02
1329.953	2944.95
1333.208	2960.94
1336.463	2942.02
1339.717	2873.38
1342.972	3018.22
1346.226	2996.94
1349.479	2921.21
1352.733	2888.23
1355.986	2917.45
1359.238	2894.59
1362.491	2898.99
1365.743	2904.36
1368.995	2899.17
1372.247	2915.32
1375.498	2940.88
1378.749	2948.03
1382	2903.57
1385.251	2962.57
1388.501	2931.5
1391.751	2906.57
1395	2879.74
1398.25	2914.28
1401.499	2914.24
1404.748	2837.34
1407.996	2830.53
1411.244	2814.37
1414.492	2791.24
1417.74	2769.61
1420.987	2783.82
1424.234	2836.39
1427.481	2826.13
1430.728	2882.8
1433.974	2859.08
1437.22	2878.05
1440.465	2879.31
1443.711	2831.6
1446.956	2871.66
1450.201	2864.24
1453.445	2908
1456.689	2882.71
1459.933	2896.31
1463.177	2924.44
1466.42	2898.84
1469.663	2875.1
1472.906	2861.71
1476.148	2955.18
1479.391	2896.48
1482.633	2871.63
1485.874	2877.57
1489.115	2859.12
1492.356	2867.29
1495.597	2842.95
1498.838	2847.79
1502.078	2810.03
1505.318	2752.85
1508.557	2798.29
1511.797	2759.74
1515.036	2853.7
1518.274	2844.84
1521.513	2822.47
1524.751	2846.69
1527.989	2859.94
1531.227	2868.34
1534.464	2855.88
1537.701	2886.31
1540.938	2907.78
1544.174	2862.4
1547.41	2863.55
1550.646	2904.2
1553.882	2931.87
1557.117	2988.32
1560.352	3004.17
1563.587	2959.93
1566.821	2917.96
1570.055	2961.51
1573.289	2926.34
1576.523	3008.18
1579.756	3012.44
1582.989	3031.08
1586.222	2990.56
1589.454	3033.37
1592.686	3000.95
1595.918	3027.05
1599.15	3011.05
1602.381	3098.14
1605.612	3041.93
1608.843	3141.94
1612.073	3050.19
1615.303	3032.78
1618.533	3019.75
1621.762	3024.78
1624.992	3014.97
1628.221	2996.83
1631.449	2981.54
1634.678	3045.7
1637.906	2996.68
1641.134	3039.64
1644.361	2991.16
1647.588	2981.54
1650.815	2995.89
1654.042	2979.69
1657.269	3012.3
1660.495	2955.95
1663.72	2959.63
1666.946	2923.67
1670.171	2857.55
1673.396	2832.82
1676.621	2823.79
1679.845	2853.77
1683.069	2877.19
1686.293	2928.07
1689.517	2889.42
1692.74	2806.92
1695.963	2844.02
1699.185	2875.52
1702.408	2850.73
1705.63	2896.63
1708.852	2907.54
1712.073	2879.11
1715.294	2856.01
1718.515	2923.64
1721.736	2863.06
1724.956	2865.68
1728.176	2895.22
1731.396	2915.43
1734.616	2907.61
1737.835	2931.35
1741.054	2915.22
1744.272	2903.65
1747.491	2933.2
1750.709	2997.52
1753.927	2884.86
1757.144	2939.17
1760.361	2974.36
1763.578	2973.2
1766.795	2909.51
1770.011	2923.33
1773.227	2969.43
1776.443	3002.18
1779.658	3050.11
1782.874	2994.21
1786.089	2966.79
1789.303	2971.29
1792.518	2979.6
1795.732	2968.52
1798.945	2976.66
1802.159	3028.98
1805.372	2914.64
1808.585	2896.83
1811.797	2896.74
1815.01	2954.88
1818.222	2952.76
1821.434	2902.65
1824.645	2971.37
1827.856	2945.95
1831.067	2981.29
1834.278	2947.54
1837.488	2931.37
1840.698	3091.49
1843.908	3008.58
1847.117	2971.79
1850.326	2839.09
1853.535	2958.67
1856.744	3008.84
1859.952	2916.07
1863.16	2916.72
1866.368	2944.39
1869.575	3042.24
1872.782	2929.95
1875.989	2871.46
1879.196	2968.75
1882.402	2960.91
1885.608	3007.73
1888.814	2894.1
1892.019	2784.84
1895.224	2837.85
1898.429	2822.91
1901.634	2799.04
1904.838	2780.94
1908.042	2824.33
1911.246	2830.39
1914.449	2750.32
1917.652	2753.33
1920.855	2735.11
1924.058	2795.41
1927.26	2829.64
1930.462	2858.37
1933.664	2883.37
1936.865	2813.61
1940.066	2815.83
1943.267	2768.68
1946.467	2783.91
1949.668	2815.49
1952.868	2883.98
1956.067	2855.59
1959.267	2781.92
1962.466	2810.72
1965.665	2797.31
1968.863	2793.01
1972.061	2816.39
1975.259	2818.21
1978.457	2899.79
1981.654	2856
1984.852	2853.74
1988.048	2777.44
1991.245	2785.22
1994.441	2871.09
1997.637	2866.37
2000.833	2849.58
2004.028	2888.95
2007.223	2939
2010.418	2912.66
2013.613	2876.96
2016.807	2840.06
2020.001	2852.58
2023.194	2904.56
2026.388	2880.61
2029.581	2826.54
2032.774	2869.98
2035.966	2871.34
2039.158	2797.55
2042.35	2827.75
2045.542	2754.66
2048.733	2863.12
2051.924	2896.76
2055.115	2929.06
2058.306	2864.21
2061.496	2922.98
2064.686	2995.07
2067.875	2907.9
2071.065	2928.9
2074.254	2960.4
2077.442	2912.66
2080.631	3005
2083.819	2879.86
2087.007	2857.99
2090.195	2825.08
2093.382	2867.32
2096.569	2845.93
2099.756	2792.81
2102.942	2813.1
2106.128	2815.56
2109.314	2806.98
2112.5	2759.08
2115.685	2740.99
2118.87	2752.03
2122.055	2816.94
2125.239	2777.26
2128.424	2746.4
2131.608	2866.52
2134.791	2844.47
2137.974	2914.2
2141.157	2897.24
2144.34	2841.17
2147.523	2866.3
2150.705	2873.98
2153.887	2855.77
2157.068	2798.83
2160.25	2810.73
2163.431	2851.6
2166.611	2788.86
2169.792	2805.16
2172.972	2691.23
2176.152	2778.22
2179.331	2818.1
2182.511	2794.42
2185.69	2826.67
2188.868	2816.29
2192.047	2882.08
2195.225	2860.59
2198.403	2815.26
2201.58	2804.8
2204.758	2807.45
2207.935	2891.77
2211.111	2771.08
2214.288	2752.7
2217.464	2795.41
2220.64	2770.03
2223.815	2832.48
2226.991	2746.63
2230.166	2767.41
2233.34	2788.53
2236.515	2823.94
2239.689	2899.8
2242.863	2841.11
2246.036	2897.43
2249.209	2905.25
2252.382	2944.2
2255.555	2925.11
2258.727	2855.5
2261.9	2901.96
2265.071	2892.92
2268.243	2900.5
2271.414	2823.26
2274.585	2774.36
2277.756	2845.63
2280.926	2801.62
2284.096	2846.49
2287.266	2744.8
2290.436	2805.22
2293.605	2837.49
2296.774	2863.66
2299.942	2893.75
2303.111	2907.67
2306.279	2955.25
2309.447	2942.32
2312.614	2919.09
2315.781	2939.48
2318.948	2901.65
2322.115	2942.03
2325.281	2840.37
2328.447	2864.7
2331.613	2841.05
2334.779	2804.98
2337.944	2812.66
2341.109	2809.79
2344.274	2790.24
2347.438	2752.91
2350.602	2782.49
2353.766	2801.1
2356.929	2783.89
2360.092	2832.36
2363.255	2776.8
2366.418	2696.51
2369.58	2828.52
2372.742	2582.35
2375.904	2604.17
2379.066	2576.94
2382.227	2616.48
2385.388	2578.33
2388.548	2498.12
2391.709	2558.68
2394.869	2533.65
2398.029	2650.65
2401.188	2672.11
2404.347	2593.82
2407.506	2758.27
2410.665	2784.01
2413.823	2799.64
2416.981	2748.4
2420.139	2784.2
2423.296	2836.65
2426.453	2810.72
2429.61	2836.14
2432.767	2756.68
2435.923	2791.78
2439.079	2740.49
2442.235	2799.12
2445.391	2720.55
2448.546	2739.26
2451.701	2798.49
2454.855	2759.08
2458.009	2823.37
2461.163	2832.67
2464.317	2781.58
2467.471	2818.54
2470.624	2865.57
2473.777	2849.46
2476.929	2860.35
2480.082	2883.45
2483.234	2847.61
2486.385	2795.2
2489.537	2787.3
2492.688	2735.47
2495.839	2749.96
2498.989	2763.92
2502.14	2744.89
2505.29	2721.98
2508.439	2751.81
2511.589	2666.35
2514.738	2685.27
2517.887	2720.54
2521.035	2787.97
2524.183	2782.08
2527.331	2762.26
2530.479	2730.25
2533.627	2742.47
