Data from C_3_DIV_OH_2N_Splice17_12-47-39-981.txt Node
Date: Sat Mar 14 12:47:39 EDT 2020
User: sa697716
Spectrometer: FLMS03696
Trigger mode: 0
Integration Time (sec): 3.180400E-1
Scans to average: 20
Electric dark correction enabled: true
Nonlinearity correction enabled: true
Boxcar width: 5
XAxis mode: Wavelengths
Number of Pixels in Spectrum: 2048
>>>>>Begin Spectral Data<<<<<
187.83	-420716.49
188.298	3003.49
188.766	1547.71
189.233	1444.54
189.701	2010.58
190.169	2714.73
190.636	1107.21
191.104	877.68
191.571	150.77
192.039	-58.68
192.506	-134.5
192.974	389.09
193.441	-643.74
193.908	-263.42
194.375	-45.81
194.842	14.02
195.31	101.1
195.777	209.85
196.244	389.84
196.711	332.61
197.177	361.9
197.644	442.33
198.111	777.02
198.578	1106.7
199.045	897.05
199.511	1422.97
199.978	1595.76
200.445	1343.1
200.911	1463.46
201.378	1573.41
201.844	1442.67
202.31	2462.39
202.777	2608.21
203.243	1446.01
203.709	1342.5
204.176	1594.1
204.642	1328.32
205.108	1261.65
205.574	1024.09
206.04	898.01
206.506	841.67
206.972	776.52
207.438	748.1
207.903	825.41
208.369	740.02
208.835	757.91
209.301	801.22
209.766	806.14
210.232	795.34
210.697	975.35
211.163	1196.39
211.628	1775.24
212.094	1553.51
212.559	1961.76
213.024	1230.33
213.49	1513.16
213.955	1457.52
214.42	1379.19
214.885	1285.01
215.35	1239.94
215.815	1269.66
216.28	1364.49
216.745	1113.56
217.21	1200.71
217.675	1072.15
218.14	1200.71
218.604	1278.85
219.069	1451.03
219.534	1537.13
219.998	1734.84
220.463	2071.49
220.927	2429.29
221.392	2285.29
221.856	2303.59
222.32	2830.26
222.785	3473.51
223.249	4340.2
223.713	4845.55
224.177	4837.22
224.642	6116.2
225.106	7535.33
225.57	8194.1
226.034	6168.15
226.497	9361.1
226.961	8500.74
227.425	9952.51
227.889	11025.88
228.353	11023.45
228.816	22699.16
229.28	21768.89
229.744	18374.94
230.207	11257.76
230.671	11116
231.134	18254.4
231.597	21139.56
232.061	21057.13
232.524	20489.28
232.987	14150.4
233.45	12829.27
233.914	11560.53
234.377	11801.86
234.84	10836.05
235.303	12729.27
235.766	14177.78
236.229	14661.63
236.691	9200.73
237.154	10337.38
237.617	7785.2
238.08	7963.96
238.542	9281.82
239.005	6641.95
239.468	6611.56
239.93	6237.04
240.393	5682.36
240.855	5002.65
241.317	5119.29
241.78	6226.49
242.242	6454.25
242.704	7029.28
243.166	6146.1
243.629	5622.84
244.091	6488.08
244.553	7104.44
245.015	7656.06
245.477	9899.72
245.939	14511.84
246.4	15429
246.862	14977.67
247.324	14125.42
247.786	15759.94
248.247	20627.13
248.709	21162.26
249.17	15856.24
249.632	15085.53
250.093	17602.41
250.555	15248.34
251.016	9333.7
251.477	8887.5
251.939	9637.6
252.4	10124.73
252.861	12032.84
253.322	11252.25
253.783	13418.25
254.244	17412.36
254.705	13678.66
255.166	12108.18
255.627	11939.86
256.088	16899.2
256.549	17967.72
257.009	15444.84
257.47	18727.61
257.931	15220.04
258.391	11388.85
258.852	11740.47
259.312	12302.73
259.773	15200.89
260.233	12903.41
260.694	10911.02
261.154	12350.91
261.614	9938.07
262.074	8911.17
262.534	9306.6
262.994	8805.86
263.455	11731.48
263.915	9906.01
264.374	9339.92
264.834	10209.69
265.294	11297.25
265.754	11707.2
266.214	11091.59
266.673	10405.13
267.133	13119.15
267.593	13005.86
268.052	15945.89
268.512	13880.42
268.971	16816.83
269.431	18469.82
269.89	16532.98
270.349	24795.69
270.809	27707.67
271.268	24942.7
271.727	55914.67
272.186	36257.54
272.645	27235.99
273.104	19628
273.563	28449.49
274.022	22291.05
274.481	19014.81
274.94	14693.53
275.399	10922.48
275.857	12691.45
276.316	17187.1
276.775	15310.65
277.233	15131.57
277.692	14198.81
278.15	16118.92
278.609	16640.19
279.067	15443.09
279.525	14392.41
279.984	18576.9
280.442	22341.62
280.9	22120.9
281.358	14546.95
281.816	13584.5
282.274	13291.8
282.732	13685.45
283.19	13729.03
283.648	11828.57
284.106	12593.2
284.564	12760.88
285.021	11857.21
285.479	8850.24
285.937	8027.9
286.394	7073.56
286.852	7260.71
287.309	7645.82
287.767	7448.59
288.224	7120.59
288.682	7831.76
289.139	8638.01
289.596	7939.05
290.053	8258.01
290.511	10420.61
290.968	12692.69
291.425	17199.52
291.882	14395.48
292.339	12558.28
292.796	12408.19
293.252	11673.33
293.709	9316.64
294.166	8342.85
294.623	9212.14
295.079	8842.64
295.536	8920.99
295.992	8105.88
296.449	8036.56
296.905	8362.9
297.362	8024.84
297.818	8462.42
298.274	8818.11
298.731	8965.96
299.187	8881.24
299.643	9537.45
300.099	11530.67
300.555	12631.89
301.011	10571.93
301.467	10242.3
301.923	11971.92
302.379	11687.36
302.835	11477.08
303.291	11492.14
303.746	13054.81
304.202	16503.49
304.658	16570.37
305.113	11162.37
305.569	10954.19
306.024	11645.67
306.479	11022.54
306.935	9310.7
307.39	10153.92
307.845	9381.4
308.301	9447
308.756	9208.75
309.211	8858.46
309.666	9077.3
310.121	11293.18
310.576	11446.34
311.031	11363.47
311.486	13003.51
311.94	12931.49
312.395	17316.35
312.85	32433.75
313.305	158205.05
313.759	824563.22
314.214	59778.1
314.668	47466.24
315.123	39995.34
315.577	14423.65
316.032	12860.92
316.486	16109.14
316.94	12753.93
317.394	8934.99
317.849	6967.45
318.303	6606.66
318.757	6221.1
319.211	6896.46
319.665	6045.89
320.119	6115.21
320.572	8715.38
321.026	8159.74
321.48	6808.84
321.934	7404.98
322.387	7394.03
322.841	7999.96
323.295	7241.05
323.748	8316.27
324.202	8439.55
324.655	10163.47
325.108	14255.57
325.562	10097.37
326.015	11966.74
326.468	9052.72
326.921	10159.24
327.374	9502.15
327.827	9918.06
328.28	11220.11
328.733	7556.46
329.186	6641.41
329.639	6315.13
330.092	5305.51
330.545	5057.49
330.997	5116.78
331.45	5616.05
331.903	6606.23
332.355	11308.05
332.808	10947.18
333.26	8990.34
333.713	9759.87
334.165	9786.83
334.617	13018.91
335.069	10479.25
335.522	18954.29
335.974	20890.94
336.426	18933.45
336.878	12997.84
337.33	6607.49
337.782	6473.97
338.234	8170.96
338.686	9739.81
339.137	11571.68
339.589	10940.4
340.041	8614.07
340.493	7392.12
340.944	7605.06
341.396	8235.09
341.847	6983.45
342.299	8279.49
342.75	10149.22
343.201	8793.58
343.653	10074.49
344.104	12409.03
344.555	9761.2
345.006	15123.86
345.457	11691.66
345.908	9249.34
346.359	8727.97
346.81	7113.37
347.261	7472.77
347.712	7342.12
348.163	7900.93
348.613	8083.94
349.064	7581.33
349.515	6635.59
349.965	6841.07
350.416	8189.59
350.866	8999.57
351.317	10118.09
351.767	16745.08
352.217	21205.99
352.668	17625.86
353.118	16185.04
353.568	15497.23
354.018	12234.18
354.468	12951
354.918	9311.72
355.368	8151.67
355.818	11537.6
356.268	33230.19
356.718	139670.16
357.168	34826.6
357.617	17452.95
358.067	19341.95
358.517	18174.76
358.966	21400.1
359.416	24060.71
359.865	25939.02
360.315	30841.46
360.764	14442.53
361.213	8105.7
361.663	7638.71
362.112	9390.37
362.561	15157.15
363.01	11485.19
363.459	9667.78
363.908	10427.04
364.357	8880.63
364.806	14966.05
365.255	10305.14
365.703	9459.52
366.152	9509.55
366.601	7740.94
367.05	6332.72
367.498	5769.24
367.947	6017.75
368.395	6255.03
368.844	5553.6
369.292	6652.22
369.74	4619.68
370.189	7072.87
370.637	8273.79
371.085	7123.26
371.533	8653.61
371.981	8295.51
372.429	7950.72
372.877	8284.55
373.325	6953.15
373.773	7083.94
374.221	6306.56
374.669	7799.95
375.116	6743.59
375.564	6803.82
376.012	7606.95
376.459	6289.12
376.907	7532.92
377.354	9073.8
377.801	8479.74
378.249	9775.08
378.696	12510.7
379.143	15187.9
379.591	16279.65
380.038	27629.75
380.485	20024.95
380.932	21710.03
381.379	20010.04
381.826	14757.17
382.273	10482.61
382.72	9162.36
383.166	8953.7
383.613	5809.71
384.06	5251.83
384.506	6069.74
384.953	4463.55
385.4	4487.08
385.846	3930.7
386.292	3811.38
386.739	3737.43
387.185	3696.96
387.631	3703.24
388.078	3609.05
388.524	3868.61
388.97	3591.51
389.416	3014.65
389.862	3223.31
390.308	3067.6
390.754	3127.68
391.2	3400.18
391.645	3486.94
392.091	3393.02
392.537	3310.39
392.983	3311.29
393.428	3297.91
393.874	3525.99
394.319	3568.03
394.765	3429.59
395.21	3566.14
395.655	3392.88
396.101	3223.46
396.546	2948.8
396.991	3000.56
397.436	2826.56
397.881	2775.77
398.326	2659.17
398.771	2579.04
399.216	2292.58
399.661	2087.43
400.106	2114.8
400.551	2199.53
400.995	2001.49
401.44	2010.58
401.885	1907.39
402.329	1945.01
402.774	1890.85
403.218	1854.33
403.663	1798.92
404.107	1863.8
404.551	1900.51
404.995	1757.19
405.44	1707.76
405.884	1749.51
406.328	1704.46
406.772	1717.07
407.216	1578.98
407.66	1543.79
408.104	1483.03
408.547	1406.57
408.991	1377.84
409.435	1338.41
409.879	1334.31
410.322	1329.76
410.766	1296.9
411.209	1247.35
411.653	1211.05
412.096	1203.1
412.54	1209.35
412.983	1211.53
413.426	1227.22
413.869	1233.71
414.312	1222.1
414.756	1184.81
415.199	1136.24
415.642	1114.17
416.085	1121.12
416.527	1118.75
416.97	1141.91
417.413	1090.4
417.856	1078.69
418.298	1066.23
418.741	1059.42
419.184	1053.76
419.626	1097.41
420.069	1096.93
420.511	1102.17
420.953	1083.64
421.396	1077.54
421.838	1050.69
422.28	1078.39
422.722	1090.8
423.164	1115.01
423.606	1106.29
424.048	1112.07
424.49	1065
424.932	1066
425.374	1055.44
425.816	1073.48
426.258	1087.94
426.699	1090.91
427.141	1063.46
427.582	1065.97
428.024	1049.43
428.465	1037.88
428.907	1015.97
429.348	1011.72
429.789	1023.95
430.231	1010.02
430.672	1031.54
431.113	1015.04
431.554	1016.18
431.995	1013.98
432.436	1004.81
432.877	1004.49
433.318	1004.85
433.759	1012.84
434.2	1020.12
434.64	1014.2
435.081	1024.52
435.522	977.94
435.962	952.29
436.403	942.6
436.843	962.49
437.284	946.43
437.724	925.56
438.164	931.42
438.604	913.78
439.045	884.11
439.485	854.76
439.925	843.2
440.365	831.57
440.805	827.48
441.245	823.64
441.685	796.65
442.125	793.69
442.564	800.71
443.004	785.11
443.444	786.38
443.883	790.58
444.323	788.23
444.762	793.23
445.202	806.27
445.641	825.28
446.081	822.38
446.52	834.69
446.959	832.12
447.398	819.18
447.837	817.97
448.276	811.94
448.716	823.72
449.154	832.53
449.593	814.94
450.032	813.43
450.471	798.47
450.91	798.77
451.349	796.62
451.787	792.71
452.226	802.35
452.664	798.94
453.103	797.68
453.541	795.73
453.98	795.82
454.418	801.23
454.856	788.07
455.295	787.1
455.733	793.71
456.171	795.91
456.609	793.33
457.047	792.53
457.485	802.4
457.923	802.38
458.361	791.71
458.798	792.36
459.236	790.24
459.674	797.62
460.111	802.45
460.549	795.97
460.987	794.76
461.424	796.02
461.862	793.06
462.299	783.39
462.736	785.23
463.173	789.01
463.611	783.09
464.048	782.83
464.485	790.94
464.922	786.97
465.359	786.86
465.796	782.03
466.233	781.57
466.67	780.44
467.106	782.56
467.543	778.32
467.98	774.88
468.416	760.97
468.853	761.63
469.29	745.36
469.726	742.49
470.162	727.92
470.599	723.21
471.035	719.72
471.471	707.66
471.907	709.1
472.344	709.32
472.78	712.11
473.216	723.05
473.652	715.73
474.088	715.47
474.523	714.74
474.959	722.4
475.395	717.83
475.831	716.09
476.266	719.97
476.702	717.3
477.138	709.28
477.573	708.1
478.008	706.08
478.444	710.25
478.879	716.4
479.314	718.71
479.75	716.94
480.185	718.08
480.62	721.57
481.055	721.51
481.49	724.36
481.925	729.99
482.36	735.1
482.795	743.65
483.229	750.32
483.664	753.27
484.099	745.83
484.534	748.91
484.968	748.49
485.403	744.19
485.837	738.12
486.271	732.35
486.706	731.58
487.14	723.94
487.574	716.15
488.009	713.82
488.443	709.84
488.877	717.07
489.311	718.75
489.745	726.53
490.179	731.92
490.613	745.12
491.046	750.15
491.48	753.69
491.914	752.69
492.348	757.79
492.781	761.43
493.215	763.46
493.648	766.24
494.082	772.57
494.515	772.83
494.948	780.21
495.382	783.13
495.815	785.75
496.248	790.25
496.681	802.55
497.114	811.03
497.547	818.03
497.98	828.1
498.413	829.75
498.846	835.17
499.279	840.01
499.711	843.05
500.144	843.71
500.577	852.29
501.009	859.82
501.442	866.8
501.874	866.47
502.306	869.75
502.739	880.44
503.171	898.41
503.603	903.62
504.036	914.14
504.468	918.02
504.9	928.32
505.332	934.72
505.764	939.89
506.196	947.2
506.627	962.02
507.059	973.21
507.491	978.36
507.923	974.29
508.354	988.05
508.786	998.44
509.217	1016.26
509.649	1029.96
510.08	1047.07
510.512	1060.24
510.943	1071.81
511.374	1078.52
511.805	1094.61
512.237	1110.84
512.668	1137.58
513.099	1157.6
513.53	1172.68
513.961	1181.83
514.391	1201.83
514.822	1223.71
515.253	1249.72
515.684	1266.27
516.114	1289.71
516.545	1306.49
516.975	1326.89
517.406	1341.7
517.836	1343.92
518.267	1355.62
518.697	1379.31
519.127	1389.92
519.558	1400.91
519.988	1407.73
520.418	1422.43
520.848	1443.34
521.278	1456.25
521.708	1468.43
522.138	1483.22
522.567	1515.12
522.997	1537.29
523.427	1545.93
523.857	1555.54
524.286	1559.91
524.716	1572.12
525.145	1587.72
525.575	1597.2
526.004	1608.63
526.433	1609.01
526.863	1607.9
527.292	1598.63
527.721	1608.31
528.15	1621.34
528.579	1630.08
529.008	1646.72
529.437	1670.08
529.866	1681.9
530.295	1695.09
530.724	1703.7
531.152	1725.77
531.581	1738.36
532.01	1752.81
532.438	1758.41
532.867	1768.62
533.295	1784.01
533.723	1787.67
534.152	1784.98
534.58	1786.08
535.008	1771.96
535.436	1774.34
535.865	1782.05
536.293	1793.72
536.721	1806.02
537.149	1824.91
537.576	1822.52
538.004	1828.79
538.432	1834.74
538.86	1832.45
539.287	1837.03
539.715	1849.5
540.143	1853.28
540.57	1851.16
540.998	1848.92
541.425	1830.42
541.852	1815.25
542.28	1820.69
542.707	1811.44
543.134	1802.62
543.561	1803.98
543.988	1801.54
544.415	1804.41
544.842	1801.09
545.269	1795.87
545.696	1802.32
546.123	1819.62
546.549	1812.71
546.976	1802.65
547.403	1806.13
547.829	1811.28
548.256	1816.06
548.682	1817.09
549.108	1813.77
549.535	1817.12
549.961	1823.02
550.387	1812.57
550.813	1809.69
551.24	1819.48
551.666	1823.42
552.092	1815.69
552.518	1811.47
552.943	1806.76
553.369	1813.85
553.795	1818.87
554.221	1818.98
554.646	1814.45
555.072	1822.66
555.498	1823.73
555.923	1829.09
556.349	1838.44
556.774	1841.69
557.199	1839.29
557.625	1842.58
558.05	1834.5
558.475	1843.28
558.9	1841.02
559.325	1832.26
559.75	1825.22
560.175	1818.41
560.6	1811.83
561.025	1810.05
561.449	1811.26
561.874	1815.07
562.299	1816.6
562.723	1819.73
563.148	1806.15
563.572	1806.23
563.997	1811.7
564.421	1814.13
564.846	1810.32
565.27	1809.19
565.694	1802.41
566.118	1809.35
566.542	1812.66
566.966	1801.02
567.39	1792.97
567.814	1777.84
568.238	1772.44
568.662	1774.27
569.086	1773.42
569.509	1779.93
569.933	1766.35
570.357	1760.84
570.78	1742.64
571.204	1731.68
571.627	1723.84
572.05	1724.82
572.474	1727.52
572.897	1718.69
573.32	1714.14
573.743	1707.26
574.166	1690.64
574.589	1690.23
575.012	1683.04
575.435	1681.3
575.858	1671.88
576.281	1662.52
576.704	1648.37
577.126	1639.7
577.549	1631.92
577.972	1623.95
578.394	1616.14
578.817	1612.29
579.239	1597.69
579.661	1587.86
580.084	1577.16
580.506	1568.01
580.928	1567.37
581.35	1559.9
581.772	1556.67
582.194	1543.88
582.616	1530.95
583.038	1514.92
583.46	1502.66
583.882	1497.7
584.303	1499.27
584.725	1491.48
585.147	1489.19
585.568	1491.34
585.99	1491.22
586.411	1484.41
586.833	1487.29
587.254	1480.1
587.675	1485.03
588.096	1489.84
588.518	1477.34
588.939	1455.44
589.36	1447.23
589.781	1433.14
590.202	1408.59
590.623	1403.88
591.043	1405.35
591.464	1397.05
591.885	1394.9
592.305	1389.64
592.726	1377.08
593.147	1378.8
593.567	1374.35
593.987	1368.25
594.408	1362.53
594.828	1357.28
595.248	1350
595.669	1333.16
596.089	1326.24
596.509	1319.1
596.929	1306.71
597.349	1305.94
597.769	1294.61
598.189	1286.61
598.608	1284.2
599.028	1282.76
599.448	1280.49
599.867	1266.68
600.287	1261.06
600.706	1256.32
601.126	1247.48
601.545	1246.22
601.965	1243.8
602.384	1237.87
602.803	1239.37
603.222	1234.07
603.641	1228.21
604.061	1224.88
604.48	1219.51
604.898	1225.19
605.317	1226.49
605.736	1225.45
606.155	1219.49
606.574	1207.66
606.992	1209.05
607.411	1201.18
607.829	1190.64
608.248	1184.64
608.666	1178.67
609.085	1175.55
609.503	1164.6
609.921	1157.01
610.339	1155.44
610.758	1150.37
611.176	1144.2
611.594	1134.28
612.012	1129.11
612.43	1130.15
612.847	1132.42
613.265	1131.01
613.683	1131.64
614.101	1130.04
614.518	1123.75
614.936	1113.55
615.353	1101.58
615.771	1098.29
616.188	1097.79
616.606	1094.61
617.023	1087.92
617.44	1076.04
617.857	1070.19
618.274	1063.85
618.691	1058.84
619.108	1050.46
619.525	1044.66
619.942	1048.91
620.359	1048.82
620.776	1042.16
621.192	1035.69
621.609	1030.98
622.026	1032.76
622.442	1034.01
622.859	1033.51
623.275	1024.9
623.691	1026.89
624.108	1033.45
624.524	1041.05
624.94	1037.18
625.356	1042.19
625.772	1050.26
626.188	1057.49
626.604	1057.95
627.02	1052.46
627.436	1049.17
627.852	1053.32
628.268	1061.34
628.683	1051.77
629.099	1044.69
629.514	1039.9
629.93	1042.65
630.345	1045.02
630.761	1041.64
631.176	1043.96
631.591	1040.17
632.007	1036.08
632.422	1033.64
632.837	1024.27
633.252	1023.6
633.667	1015.71
634.082	1010.01
634.497	1001.17
634.911	989.16
635.326	986.82
635.741	974.47
636.155	967.72
636.57	969.24
636.984	971.12
637.399	974.16
637.813	974.48
638.228	974.11
638.642	979.1
639.056	970.93
639.47	971.16
639.884	966.01
640.298	962.54
640.712	963.04
641.126	954.91
641.54	949.02
641.954	946.07
642.368	938.58
642.781	935.48
643.195	922.32
643.609	923.37
644.022	918.59
644.436	914.1
644.849	902.67
645.262	891.86
645.676	891.39
646.089	885.54
646.502	872.82
646.915	866.88
647.328	852.92
647.741	851.71
648.154	842.88
648.567	842.24
648.98	833.45
649.393	835.43
649.805	834.39
650.218	830.3
650.631	819.75
651.043	816.52
651.456	813.66
651.868	813.43
652.28	825.33
652.693	831.53
653.105	829.81
653.517	830.13
653.929	824.5
654.341	823.65
654.753	809.98
655.165	812.15
655.577	808.1
655.989	802.46
656.401	794.77
656.813	770.34
657.224	759.91
657.636	742.28
658.047	735.17
658.459	725.6
658.87	723.08
659.282	717.52
659.693	704.14
660.104	692.89
660.515	682.35
660.926	682.42
661.338	678.01
661.749	671.13
662.159	664.78
662.57	660.53
662.981	655.66
663.392	648.05
663.803	650.92
664.213	646.58
664.624	642.57
665.035	644.31
665.445	631.71
665.855	626.11
666.266	618.85
666.676	615.46
667.086	607.27
667.497	605.84
667.907	600.08
668.317	590.02
668.727	587.3
669.137	585.43
669.547	580.76
669.956	579.83
670.366	578.38
670.776	578.81
671.186	578.96
671.595	579.54
672.005	578.92
672.414	576.91
672.824	574.59
673.233	573.5
673.642	574.75
674.052	577.2
674.461	579.5
674.87	582.28
675.279	579.01
675.688	578.11
676.097	578.75
676.506	576.13
676.915	584.71
677.323	585.85
677.732	584.01
678.141	581.74
678.549	571.98
678.958	569.99
679.366	568.06
679.775	569.43
680.183	577.85
680.592	581.45
681	583.98
681.408	578.63
681.816	581.47
682.224	586.82
682.632	593.92
683.04	613.37
683.448	627.05
683.856	642.81
684.264	660.41
684.671	673.76
685.079	690.8
685.487	713
685.894	746.45
686.302	772.8
686.709	793.36
687.116	816.44
687.524	836.91
687.931	855.73
688.338	873.42
688.745	889.64
689.152	908.52
689.559	935.11
689.966	960.3
690.373	970.79
690.78	992.07
691.187	1026.33
691.593	1052.54
692	1072.12
692.407	1104.21
692.813	1148.14
693.22	1180.68
693.626	1215.76
694.032	1244.53
694.439	1290.8
694.845	1325.74
695.251	1372.36
695.657	1412.09
696.063	1470.65
696.469	1514.79
696.875	1555.77
697.281	1575.04
697.687	1601.56
698.093	1620.89
698.498	1663
698.904	1692.36
699.31	1740.94
699.715	1777.02
700.12	1830.96
700.526	1842.6
700.931	1886.24
701.337	1920.08
701.742	1943.35
702.147	1997.81
702.552	2019.96
702.957	2059.83
703.362	2076.47
703.767	2098.44
704.172	2126.51
704.577	2099.95
704.981	2130.67
705.386	2142.1
705.791	2138.64
706.195	2184.03
706.6	2190.9
707.004	2243.54
707.408	2226.74
707.813	2247.43
708.217	2241.73
708.621	2245.1
709.025	2308.55
709.43	2312.97
709.834	2353.55
710.237	2399.54
710.641	2392.55
711.045	2407.64
711.449	2406.03
711.853	2424.89
712.256	2448.64
712.66	2471.24
713.064	2514.47
713.467	2535.67
713.87	2592.44
714.274	2603.15
714.677	2651.05
715.08	2728.8
715.484	2807.3
715.887	2901.45
716.29	2988.13
716.693	3078.73
717.096	3185.06
717.499	3231.61
717.901	3223.98
718.304	3233.05
718.707	3253.71
719.109	3206.99
719.512	3206.1
719.915	3145.23
720.317	3126.67
720.719	3166.79
721.122	3162.08
721.524	3147.79
721.926	3135.78
722.328	3199.67
722.731	3193.12
723.133	3202.41
723.535	3308.02
723.937	3310.62
724.338	3331.62
724.74	3351.74
725.142	3349.36
725.544	3350.92
725.945	3377.09
726.347	3373.81
726.748	3371.81
727.15	3381.95
727.551	3363.25
727.952	3346.82
728.354	3329.56
728.755	3334.77
729.156	3314.3
729.557	3281.64
729.958	3220.24
730.359	3191
730.76	3195.66
731.161	3178.31
731.562	3178.48
731.962	3195.99
732.363	3173.73
732.763	3148.69
733.164	3182.68
733.564	3151.07
733.965	3099.49
734.365	3084.1
734.766	3108.98
735.166	3088.22
735.566	3053.93
735.966	3039.94
736.366	3036.48
736.766	2997.36
737.166	3020.11
737.566	2994.73
737.966	2979.69
738.365	3006.65
738.765	3003.71
739.165	2955.68
739.564	2938.96
739.964	2969.75
740.363	2943.49
740.763	2945.33
741.162	2943.67
741.561	2926.44
741.96	2900.86
742.36	2918.21
742.759	2923.95
743.158	2950.48
743.557	2960.83
743.955	2988.24
744.354	2960.26
744.753	2996.44
745.152	2970.62
745.55	3003.89
745.949	2996.48
746.348	2997.52
746.746	3003.06
747.144	2976.37
747.543	2960.37
747.941	2988.7
748.339	2941.08
748.737	2934.13
749.136	2926.39
749.534	2964.89
749.932	2944.73
750.33	2958.61
750.727	2992
751.125	2978.6
751.523	2968.54
751.921	2997.67
752.318	2977.29
752.716	3015.75
753.113	3023.12
753.511	3038.58
753.908	3040.81
754.305	3032.83
754.703	3070.62
755.1	3107.19
755.497	3142.36
755.894	3251.06
756.291	3340.66
756.688	3508.39
757.085	3713.67
757.482	4001.09
757.878	4295.23
758.275	4532.16
758.672	4883.1
759.068	5148.35
759.465	5551.17
759.861	6073.68
760.258	6683.66
760.654	6941.35
761.05	6811.36
761.447	6489.53
761.843	6076.71
762.239	5673.29
762.635	5518.77
763.031	5373.8
763.427	5124.43
763.822	4862.64
764.218	4609.67
764.614	4256.03
765.01	4035.26
765.405	3911.13
765.801	3827.73
766.196	3691.13
766.592	3627.98
766.987	3490.19
767.382	3398.76
767.778	3376.64
768.173	3320.13
768.568	3294.29
768.963	3232.62
769.358	3255.58
769.753	3235.66
770.148	3190.78
770.542	3195.58
770.937	3178.43
771.332	3236.46
771.726	3250.88
772.121	3214.13
772.515	3247.45
772.91	3237.09
773.304	3278.52
773.699	3237.88
774.093	3267.83
774.487	3298.19
774.881	3320.82
775.275	3315.85
775.669	3285.22
776.063	3309.48
776.457	3327.93
776.851	3280.53
777.245	3274.83
777.638	3292.46
778.032	3357.27
778.425	3331.81
778.819	3356.02
779.212	3330.08
779.606	3304.5
779.999	3312.74
780.392	3297.29
780.786	3338.91
781.179	3347.22
781.572	3366.53
781.965	3369.16
782.358	3329.84
782.751	3359.52
783.143	3323.98
783.536	3358.49
783.929	3373.58
784.322	3434.51
784.714	3444.45
785.107	3436.4
785.499	3472.52
785.891	3453.37
786.284	3432.14
786.676	3503.97
787.068	3483.14
787.46	3503.32
787.852	3503.33
788.245	3546.9
788.636	3553.53
789.028	3586.67
789.42	3601.54
789.812	3599.22
790.204	3645.55
790.595	3699.89
790.987	3583.24
791.378	3589.1
791.77	3656.72
792.161	3731.02
792.553	3759.4
792.944	3693.32
793.335	3648.43
793.726	3684.38
794.117	3729.44
794.508	3801.74
794.899	3776.17
795.29	3850.28
795.681	3880.24
796.072	3795.57
796.463	3702.16
796.853	3704.08
797.244	3788.49
797.634	3799.8
798.025	3790.39
798.415	3790.07
798.806	3831.69
799.196	3871.03
799.586	3895.52
799.976	3865.2
800.366	3983.5
800.756	4084.84
801.146	4050.56
801.536	4055.85
801.926	4088.86
802.316	4100.5
802.706	4133.17
803.095	4062.12
803.485	4114.06
803.874	4126.91
804.264	4260.6
804.653	4240.28
805.043	4317.37
805.432	4372.16
805.821	4366.19
806.21	4367.11
806.599	4415.93
806.988	4425.14
807.377	4465.27
807.766	4516.78
808.155	4650.9
808.544	4498.06
808.933	4488.36
809.321	4460.64
809.71	4588.42
810.098	4648
810.487	4863.28
810.875	5083.69
811.264	5068.04
811.652	5194.64
812.04	5234.98
812.428	5284.07
812.816	5621.97
813.204	5790.02
813.592	6010.99
813.98	6137.97
814.368	6061.06
814.756	6257.19
815.144	6188.92
815.531	6389.1
815.919	6319.34
816.306	6445.72
816.694	6283.63
817.081	6301.25
817.469	6465.15
817.856	6474.53
818.243	6611.37
818.63	6794.48
819.017	6601.76
819.404	6626.06
819.791	6780.84
820.178	7045.7
820.565	7147.35
820.952	7577.89
821.339	7343.01
821.725	7419.44
822.112	7065.27
822.498	7032.93
822.885	7085.01
823.271	7030.41
823.657	7225.93
824.044	7242.1
824.43	7290.31
824.816	7293.72
825.202	7082.67
825.588	7538.25
825.974	7531.33
826.36	7752.06
826.746	7749.15
827.132	7895.03
827.517	7870.61
827.903	7495.18
828.289	7504.88
828.674	7137.53
829.06	7072.01
829.445	7241.99
829.83	7402.49
830.216	7611.03
830.601	7773.93
830.986	7587.05
831.371	7526.43
831.756	7776.39
832.141	7590.04
832.526	7582.89
832.911	7715.99
833.295	7655.43
833.68	7872.24
834.065	7593.44
834.449	7178.03
834.834	7147.09
835.218	7145.67
835.603	7298.58
835.987	7201.67
836.371	7565.7
836.755	7515.81
837.139	7684.94
837.524	7794.06
837.908	7702.05
838.291	7723.79
838.675	7751.56
839.059	7838.66
839.443	7821.82
839.827	7706.93
840.21	7912.33
840.594	7845.78
840.977	7930.08
841.361	7916.11
841.744	8077.5
842.127	8003.27
842.511	8106.39
842.894	8361.77
843.277	8525.8
843.66	8764.4
844.043	8800.16
844.426	8439.43
844.809	8292.26
845.191	8304.47
845.574	8099.06
845.957	7934.65
846.339	7886.59
846.722	7639.67
847.104	7660.51
847.487	7566.41
847.869	7563.91
848.252	7679.69
848.634	7813.61
849.016	7917.16
849.398	7962.34
849.78	8324.48
850.162	8314.14
850.544	8483.64
850.926	8748.65
851.307	8696.54
851.689	8809.64
852.071	8984.22
852.452	9103.6
852.834	9084.64
853.215	9246.92
853.597	9302.46
853.978	9426.41
854.359	9613.3
854.741	9184.45
855.122	9143.42
855.503	9031.66
855.884	9095.09
856.265	9080.44
856.646	9131.67
857.026	8961.77
857.407	8936.58
857.788	9000.13
858.169	9108.38
858.549	8743.77
858.93	9007.6
859.31	9022.14
859.69	9099.95
860.071	8922.86
860.451	8821.22
860.831	8501.14
861.211	8991.41
861.591	9221.54
861.971	9204.81
862.351	9280.05
862.731	9433.05
863.111	9531
863.491	9665.37
863.87	10030.69
864.25	10160.63
864.629	9986.35
865.009	10190.52
865.388	10553.22
865.768	11292.62
866.147	11243.8
866.526	10618.92
866.905	10738.7
867.284	11335.02
867.663	10762.89
868.042	10313.65
868.421	10279.07
868.8	10436.36
869.179	10546.92
869.558	9927.66
869.936	9151.26
870.315	9310.44
870.693	9547.39
871.072	10290.55
871.45	9798.19
871.828	9920.46
872.207	10423.29
872.585	10268.09
872.963	10546.17
873.341	10177.76
873.719	10057.14
874.097	9930.26
874.475	10112.27
874.853	10327.51
875.23	9896.58
875.608	10312.73
875.986	11152.44
876.363	10662.97
876.741	10995.43
877.118	10721.54
877.495	11246.02
877.873	11423.28
878.25	12015.18
878.627	11517.03
879.004	11681.39
879.381	11613.94
879.758	11308.5
880.135	10518.2
880.512	11112.64
880.889	10799.79
881.265	10673.71
881.642	10569.72
882.019	10745.51
882.395	10530.87
882.772	10954.76
883.148	10473.94
883.524	10436.6
883.901	10367.69
884.277	10519.99
884.653	10449.12
885.029	10753.29
885.405	11922.65
885.781	11830.6
886.157	11336.49
886.532	11472.11
886.908	11453.5
887.284	12730.79
887.659	13145.95
888.035	13545.26
888.411	13886.97
888.786	14074.93
889.161	14558
889.537	14265.36
889.912	14719.4
890.287	14690.38
890.662	15044.74
891.037	14756.45
891.412	13747.55
891.787	13589.6
892.162	13099.18
892.536	13392.02
892.911	12871.03
893.286	12568.41
893.66	12050.79
894.035	12337.75
894.409	13412.1
894.784	12858.37
895.158	13055.13
895.532	13813.4
895.906	14170.09
896.281	14483.32
896.655	14238.12
897.029	16247.98
897.402	16906.23
897.776	18788.95
898.15	18708.86
898.524	18494.07
898.898	18724.09
899.271	20958.85
899.645	18145.13
900.018	17420.13
900.392	18069.43
900.765	18195.61
901.138	16834.75
901.511	16571.23
901.884	15247.35
902.258	14069.88
902.631	14559.36
903.003	16769.4
903.376	15126.97
903.749	16955.45
904.122	18149.16
904.495	19993.63
904.867	20242.94
905.24	17573.99
905.612	16370.02
905.985	16703.77
906.357	17444.74
906.729	16627.82
907.102	14181.65
907.474	13627.53
907.846	13704.8
908.218	13525
908.59	11957.61
908.962	11563.56
909.334	12434.8
909.705	13064.17
910.077	12679.4
910.449	13205.93
910.82	13577.49
911.192	14956.15
911.563	15548.29
911.935	16629.8
912.306	16639.22
912.677	17154.12
913.048	16994.9
913.419	18456.98
913.79	18546.52
914.161	19881.36
914.532	19001.82
914.903	17450.78
915.274	16551.54
915.645	16306.29
916.015	14351.54
916.386	13684.8
916.756	14558.92
917.127	15007.15
917.497	13417.64
917.868	14604.07
918.238	13889.58
918.608	14275.85
918.978	14573.23
919.348	15435.53
919.718	15950.59
920.088	15380.85
920.458	16009.09
920.828	16861.72
921.198	15986.3
921.567	17084.6
921.937	13238.24
922.306	13353.66
922.676	14405.73
923.045	12041.15
923.415	11453.64
923.784	10433
924.153	10734.99
924.522	10721.19
924.891	10068.04
925.26	10796.41
925.629	10517.29
925.998	12073.24
926.367	11778.5
926.736	11237.7
927.104	13349.33
927.473	14314.01
927.842	17273.83
928.21	17046.51
928.578	17873.7
928.947	16897.68
929.315	16975.03
929.683	19905.16
930.051	20027.87
930.42	23239.48
930.788	19797.24
931.156	19638.34
931.523	18414.53
931.891	16984.28
932.259	16309.47
932.627	18897.38
932.994	26648.53
933.362	21984
933.729	19064.65
934.097	18247.69
934.464	15423.39
934.831	17759.38
935.199	17490.97
935.566	16956.86
935.933	17160.69
936.3	20799.73
936.667	16166.89
937.034	14694.71
937.401	14535.41
937.767	12563.41
938.134	11205.37
938.501	15810.17
938.867	16893.86
939.234	28526.71
939.6	24310.59
939.967	26869.47
940.333	18044.92
940.699	15360.84
941.065	12248.72
941.431	16084.59
941.798	15535.11
942.163	20402.64
942.529	12756.61
942.895	11729.58
943.261	7604.95
943.627	9997.02
943.992	8764.31
944.358	8748.54
944.723	8817.86
945.089	8579.03
945.454	7927.18
945.82	8443.34
946.185	8090.47
946.55	9371.21
946.915	8411.69
947.28	9875.14
947.645	8695.63
948.01	8038.39
948.375	8388.76
948.74	10038.92
949.104	11721.29
949.469	16867.11
949.834	29795.06
950.198	28370.57
950.562	17022.52
950.927	14204.98
951.291	17077.95
951.655	14511.69
952.02	13557.87
952.384	10255.82
952.748	8941.43
953.112	8756.48
953.476	7629.68
953.839	7068.31
954.203	7011.85
954.567	8754.68
954.931	13725.03
955.294	11780.46
955.658	11859.11
956.021	20181.66
956.385	34116.62
956.748	50298.25
957.111	77819.89
957.474	87222.38
957.837	97984.32
958.2	73910.68
958.563	26585.05
958.926	18003.19
959.289	27181.62
959.652	30407.17
960.015	22852.76
960.377	32852.82
960.74	37450.11
961.102	64476.56
961.465	69573.17
961.827	37657.4
962.189	72170.45
962.552	50120.21
962.914	40222.99
963.276	26177.08
963.638	21627.27
964	21425.4
964.362	14510.92
964.724	14010.68
965.085	10014.43
965.447	8205.58
965.809	9263.52
966.17	9271.69
966.532	10032.86
966.893	9212.35
967.255	8389.22
967.616	9893.75
967.977	7924.05
968.338	8650.38
968.699	7135.64
969.061	7130.05
969.421	7179.5
969.782	8068.29
970.143	6835.83
970.504	7114.81
970.865	8098.79
971.225	8322.38
971.586	8147.53
971.946	11601.45
972.307	10080.97
972.667	13137.07
973.027	13560.33
973.388	16413.31
973.748	11192.42
974.108	12182.61
974.468	16387.36
974.828	12679.16
975.188	9681.24
975.548	8884.13
975.907	7473.32
976.267	8356.5
976.627	7060.89
976.986	7298.71
977.346	6966.84
977.705	6683.33
978.064	6082.87
978.424	5082.03
978.783	5217.01
979.142	5964.96
979.501	5738.82
979.86	6074.18
980.219	5854.11
980.578	7509.77
980.937	8426.95
981.296	7509.24
981.654	7742.5
982.013	12008.27
982.371	15565.53
982.73	14548.07
983.088	16464.71
983.447	17531.06
983.805	25039.12
984.163	52340.66
984.521	58124.5
984.879	84829.85
985.237	-138293.98
985.595	133655.8
985.953	33313.26
986.311	19161.55
986.669	11168.69
987.026	9635.06
987.384	12904.98
987.741	13321.4
988.099	9601.74
988.456	7681.83
988.814	7231.19
989.171	6265.62
989.528	6109.97
989.885	6442.6
990.242	5122.53
990.599	6352.83
990.956	5200.65
991.313	3649.37
991.67	2988.69
992.027	3199.39
992.383	2845.58
992.74	2506.77
993.096	2645.24
993.453	2756.69
993.809	2855.49
994.165	3797.22
994.522	3528.33
994.878	3880.12
995.234	4869.02
995.59	4819.73
995.946	4483.73
996.302	5124.89
996.658	5891.14
997.013	6464.96
997.369	7705.98
997.725	9904.86
998.08	6419.17
998.436	9741.57
998.791	13482.96
999.147	13527.96
999.502	14771.86
999.857	10736.31
1000.212	17391.63
1000.567	24801.16
1000.922	14305.38
1001.277	9122.54
1001.632	6774.92
1001.987	8718.48
1002.342	6260.8
1002.696	5008.61
1003.051	3995.52
1003.406	4826.44
1003.76	4789.21
1004.114	4739.36
1004.469	3984.99
1004.823	3291.93
1005.177	3532.44
1005.531	2799.77
1005.885	2497.81
1006.239	2834.1
1006.593	3564.91
1006.947	4779.85
1007.301	3602.62
1007.655	3919.2
1008.008	2874.59
1008.362	3234.33
1008.715	4624.64
1009.069	4178.89
1009.422	6337.65
1009.776	12652.87
1010.129	8344.91
1010.482	6944.64
1010.835	5825.44
1011.188	12102.21
1011.541	11438.58
1011.894	-69678.71
1012.247	204941.53
1012.6	13910.24
1012.952	8831.58
1013.305	4479.4
1013.657	3272.31
1014.01	3121.05
1014.362	2572.37
1014.715	2344.07
1015.067	2071.66
1015.419	2035.46
1015.771	1828.6
1016.123	1646.44
1016.475	1698.57
1016.827	1821.36
1017.179	1982.06
1017.531	1970.94
1017.883	1993.89
1018.234	1976.68
1018.586	2474.29
1018.938	2639.47
1019.289	3616.99
1019.64	4082.48
1019.992	3764.28
1020.343	3445.08
1020.694	2743.56
1021.045	2446.66
1021.396	2798.89
1021.747	3073.3
1022.098	3612.5
1022.449	2624.05
1022.8	2411.75
1023.151	1720.17
1023.501	1544.12
1023.852	1654.21
1024.202	1736.29
1024.553	1884.44
1024.903	1852.05
1025.253	1620.2
1025.604	1453.89
1025.954	1806.81
1026.304	2146.79
1026.654	2484.6
1027.004	3563.81
1027.354	5688.43
1027.703	5532.39
1028.053	7050.9
1028.403	10331.19
1028.753	14549.8
1029.102	19244.05
1029.452	96982.96
1029.801	4150.94
1030.15	2716.46
1030.499	2257.75
897.758	2839.32
901.051	2807.48
904.343	2838.54
907.636	2834.75
910.928	2902.85
914.22	2808.01
917.511	2817.33
920.803	2886.16
924.094	2909.78
927.384	2879.57
930.675	2847.05
933.965	2796.2
937.255	2798.19
940.544	2769.09
943.834	2687.57
947.123	2632.77
950.411	2731.09
953.7	2700.63
956.988	2660.81
960.276	2602.47
963.563	2690.41
966.851	2679.65
970.138	2744.61
973.424	2730.87
976.711	2677.85
979.997	2838.05
983.283	2868.95
986.568	2765.98
989.853	2789.04
993.138	2815.55
996.423	2896.73
999.708	2825.48
1002.992	2903.43
1006.275	2711.16
1009.559	2771.28
1012.842	2891.9
1016.125	2815.77
1019.408	2792.78
1022.69	2887.92
1025.972	2899.03
1029.254	2872.24
1032.536	2794.3
1035.817	2828.99
1039.098	2760.41
1042.379	2931.07
1045.659	2916.6
1048.939	2842.77
1052.219	2866.5
1055.498	2882.35
1058.778	2860.18
1062.057	2849.01
1065.335	2868.37
1068.614	2887.07
1071.892	2862.94
1075.17	2941.93
1078.447	2927.73
1081.724	2915.02
1085.001	2952.3
1088.278	2925.31
1091.554	2936.84
1094.83	2936.22
1098.106	2956.16
1101.382	3004.79
1104.657	3006.19
1107.932	3000.62
1111.206	2963.43
1114.481	2919.3
1117.755	2924.54
1121.029	2900.49
1124.302	2949.51
1127.575	2894.45
1130.848	2877.09
1134.121	2836.8
1137.393	2782.41
1140.665	2850.54
1143.937	2824.62
1147.208	2787.03
1150.48	2820.67
1153.75	2804.27
1157.021	2843.59
1160.291	2811.86
1163.561	2853.3
1166.831	2852.88
1170.101	2885.63
1173.37	2863.6
1176.639	2805.18
1179.907	2866.62
1183.176	2863.42
1186.444	2877.07
1189.711	2904.73
1192.979	2913.48
1196.246	2869.36
1199.513	2890.13
1202.78	2881.66
1206.046	2890.6
1209.312	2916.92
1212.578	2941.59
1215.843	2890.33
1219.108	2869.32
1222.373	2890.67
1225.638	2853.15
1228.902	2834.45
1232.166	2807.6
1235.43	2788.06
1238.693	2814.07
1241.956	2813.11
1245.219	2849.32
1248.482	2851.11
1251.744	2842.94
1255.006	3003.41
1258.268	2956.52
1261.529	2896.74
1264.79	2905.68
1268.051	3007.01
1271.312	3028.44
1274.572	2984.98
1277.832	2974.78
1281.092	2966.05
1284.351	2929.49
1287.61	2908
1290.869	2813.13
1294.128	2781.87
1297.386	2885.56
1300.644	2872.47
1303.902	2884.67
1307.159	2740.59
1310.416	2795.98
1313.673	2818.16
1316.93	2804.34
1320.186	2852.96
1323.442	2900.5
1326.697	2888.46
1329.953	2889.79
1333.208	2908.91
1336.463	2895.65
1339.717	2830.3
1342.972	2975.85
1346.226	2957.76
1349.479	2886.32
1352.733	2853.32
1355.986	2885.97
1359.238	2861.45
1362.491	2862.96
1365.743	2867.64
1368.995	2867.73
1372.247	2876.35
1375.498	2904.91
1378.749	2910.78
1382	2871.01
1385.251	2934.8
1388.501	2897.73
1391.751	2877.13
1395	2854.07
1398.25	2893.6
1401.499	2896.44
1404.748	2816.22
1407.996	2818.29
1411.244	2802.92
1414.492	2784.26
1417.74	2759.52
1420.987	2772.34
1424.234	2832.68
1427.481	2818.32
1430.728	2879.1
1433.974	2850.78
1437.22	2874.28
1440.465	2875.74
1443.711	2828.03
1446.956	2865.61
1450.201	2857.29
1453.445	2905.4
1456.689	2875.57
1459.933	2891.47
1463.177	2918.72
1466.42	2887.52
1469.663	2864.45
1472.906	2848.81
1476.148	2938.88
1479.391	2882.22
1482.633	2855.53
1485.874	2860.26
1489.115	2840.37
1492.356	2849.06
1495.597	2819.93
1498.838	2824.6
1502.078	2787.3
1505.318	2730.56
1508.557	2773.95
1511.797	2732.22
1515.036	2817.96
1518.274	2805.1
1521.513	2781.17
1524.751	2804.71
1527.989	2811.46
1531.227	2820.44
1534.464	2805.02
1537.701	2832.09
1540.938	2851.76
1544.174	2806.76
1547.41	2807.8
1550.646	2847.64
1553.882	2877.66
1557.117	2926.57
1560.352	2938.71
1563.587	2896.95
1566.821	2853.03
1570.055	2892.47
1573.289	2856.77
1576.523	2936.58
1579.756	2937.74
1582.989	2953.91
1586.222	2911.34
1589.454	2950.73
1592.686	2921.63
1595.918	2945.77
1599.15	2927.93
1602.381	3012.76
1605.612	2957.07
1608.843	3054.16
1612.073	2967.08
1615.303	2946.94
1618.533	2933.93
1621.762	2942.19
1624.992	2932.89
1628.221	2911.1
1631.449	2894.61
1634.678	2963.07
1637.906	2910.6
1641.134	2955.39
1644.361	2907.39
1647.588	2893.44
1650.815	2911.17
1654.042	2895.31
1657.269	2924.19
1660.495	2866.84
1663.72	2885.18
1666.946	2850.47
1670.171	2781.99
1673.396	2762.98
1676.621	2752.64
1679.845	2782.96
1683.069	2807.25
1686.293	2851.55
1689.517	2819.2
1692.74	2742.64
1695.963	2774.98
1699.185	2798.58
1702.408	2775.4
1705.63	2820.33
1708.852	2826.22
1712.073	2802.38
1715.294	2779.11
1718.515	2846.7
1721.736	2792.78
1724.956	2791.71
1728.176	2819.23
1731.396	2843.33
1734.616	2830.7
1737.835	2854.92
1741.054	2838.79
1744.272	2840.55
1747.491	2863.91
1750.709	2927.71
1753.927	2820.76
1757.144	2871
1760.361	2908.48
1763.578	2907.18
1766.795	2849.76
1770.011	2862.97
1773.227	2908.56
1776.443	2942.03
1779.658	2981.84
1782.874	2932.46
1786.089	2904.74
1789.303	2908.27
1792.518	2918.82
1795.732	2906.36
1798.945	2916.51
1802.159	2967.34
1805.372	2859.63
1808.585	2841.76
1811.797	2846.9
1815.01	2906.31
1818.222	2901.47
1821.434	2861.78
1824.645	2928.72
1827.856	2906.49
1831.067	2945.39
1834.278	2909.43
1837.488	2892.5
1840.698	3053.07
1843.908	2972.47
1847.117	2936.66
1850.326	2806.54
1853.535	2925.05
1856.744	2973.45
1859.952	2883.61
1863.16	2888.54
1866.368	2917.91
1869.575	3023.69
1872.782	2912.14
1875.989	2853.75
1879.196	2957.21
1882.402	2950.59
1885.608	2999.9
1888.814	2896.53
1892.019	2787.98
1895.224	2845.9
1898.429	2830.07
1901.634	2805.13
1904.838	2785.84
1908.042	2839.6
1911.246	2848.02
1914.449	2766.43
1917.652	2769.56
1920.855	2749.47
1924.058	2803.98
1927.26	2838.25
1930.462	2870.88
1933.664	2895.49
1936.865	2830.42
1940.066	2836.89
1943.267	2782.52
1946.467	2799.51
1949.668	2830.55
1952.868	2900.94
1956.067	2874.63
1959.267	2803.29
1962.466	2832.83
1965.665	2814.32
1968.863	2812.59
1972.061	2830.62
1975.259	2829.49
1978.457	2912.08
1981.654	2865.71
1984.852	2864.99
1988.048	2789.03
1991.245	2796.91
1994.441	2884.6
1997.637	2876.82
2000.833	2855.5
2004.028	2895.88
2007.223	2948.14
2010.418	2922.59
2013.613	2882.78
2016.807	2847.23
2020.001	2862.18
2023.194	2909.94
2026.388	2882.05
2029.581	2827.79
2032.774	2872.16
2035.966	2876.4
2039.158	2802.61
2042.35	2834.09
2045.542	2759.91
2048.733	2868.03
2051.924	2900.36
2055.115	2927.98
2058.306	2865.49
2061.496	2929.26
2064.686	2997.78
2067.875	2912.57
2071.065	2930.41
2074.254	2959.46
2077.442	2907.24
2080.631	3003.55
2083.819	2881.28
2087.007	2858.05
2090.195	2825.53
2093.382	2865.6
2096.569	2841.88
2099.756	2792.77
2102.942	2811.69
2106.128	2816.14
2109.314	2808.78
2112.5	2766.19
2115.685	2740.48
2118.87	2752.22
2122.055	2821.82
2125.239	2780.37
2128.424	2751.93
2131.608	2866.97
2134.791	2848.44
2137.974	2913.29
2141.157	2898.76
2144.34	2842.8
2147.523	2863.82
2150.705	2873.8
2153.887	2856.06
2157.068	2797.53
2160.25	2806.13
2163.431	2849.03
2166.611	2787.58
2169.792	2800.56
2172.972	2688.35
2176.152	2776.23
2179.331	2815.16
2182.511	2793.77
2185.69	2822.78
2188.868	2816.05
2192.047	2878.13
2195.225	2861.94
2198.403	2810.97
2201.58	2806.17
2204.758	2804.38
2207.935	2892.26
2211.111	2771.7
2214.288	2754.19
2217.464	2795.27
2220.64	2775.78
2223.815	2833.79
2226.991	2749.09
2230.166	2771.74
2233.34	2798.31
2236.515	2827.19
2239.689	2906.16
2242.863	2846
2246.036	2903.44
2249.209	2909.42
2252.382	2950.07
2255.555	2929.34
2258.727	2862.66
2261.9	2907.51
2265.071	2898.08
2268.243	2903.49
2271.414	2829.72
2274.585	2785.01
2277.756	2855.63
2280.926	2809.64
2284.096	2855.48
2287.266	2751.5
2290.436	2812.36
2293.605	2843.43
2296.774	2876.15
2299.942	2900.3
2303.111	2918.4
2306.279	2965.23
2309.447	2950.73
2312.614	2929.09
2315.781	2950.29
2318.948	2918.06
2322.115	2959.84
2325.281	2857.2
2328.447	2881.99
2331.613	2855.68
2334.779	2824.6
2337.944	2829.12
2341.109	2830.11
2344.274	2811.43
2347.438	2772.99
2350.602	2800.45
2353.766	2815.07
2356.929	2800.15
2360.092	2844.3
2363.255	2790.56
2366.418	2712.73
2369.58	2844.44
2372.742	2596.13
2375.904	2617.71
2379.066	2588.91
2382.227	2628.29
2385.388	2590.92
2388.548	2509.81
2391.709	2570.97
2394.869	2548.69
2398.029	2661.17
2401.188	2679.63
2404.347	2602.29
2407.506	2771.73
2410.665	2798.37
2413.823	2810.15
2416.981	2761
2420.139	2796.93
2423.296	2850.1
2426.453	2821.98
2429.61	2847.83
2432.767	2771.09
2435.923	2808.94
2439.079	2754.09
2442.235	2808.81
2445.391	2727.48
2448.546	2753.53
2451.701	2808.69
2454.855	2770.99
2458.009	2833.26
2461.163	2838.67
2464.317	2794.44
2467.471	2831.71
2470.624	2877.55
2473.777	2863.44
2476.929	2873.45
2480.082	2900.86
2483.234	2861.41
2486.385	2809.36
2489.537	2803.44
2492.688	2756.17
2495.839	2776.97
2498.989	2785.46
2502.14	2768.19
2505.29	2746.56
2508.439	2775.67
2511.589	2692.99
2514.738	2704.94
2517.887	2738
2521.035	2812.63
2524.183	2799.58
2527.331	2776.16
2530.479	2742.24
2533.627	2755
