Data from C_3_DEC_CT_2N_Splice17_13-00-49-498.txt Node
Date: Sat Mar 14 13:00:49 EDT 2020
User: sa697716
Spectrometer: FLMS03696
Trigger mode: 0
Integration Time (sec): 3.180400E-1
Scans to average: 20
Electric dark correction enabled: true
Nonlinearity correction enabled: true
Boxcar width: 5
XAxis mode: Wavelengths
Number of Pixels in Spectrum: 2048
>>>>>Begin Spectral Data<<<<<
187.83	-260667.3
188.298	1911.06
188.766	1031.48
189.233	928.29
189.701	1348.73
190.169	1890.17
190.636	686.92
191.104	546.98
191.571	77.17
192.039	-113.82
192.506	-158.56
192.974	298.25
193.441	-551.78
193.908	-120.24
194.375	-51.85
194.842	-1.54
195.31	125.62
195.777	165.83
196.244	401.78
196.711	578.04
197.177	733.82
197.644	1042.51
198.111	1818.9
198.578	2549.87
199.045	2076.66
199.511	3443.67
199.978	4070.31
200.445	3433.3
200.911	3815.56
201.378	4303.15
201.844	3888.21
202.31	6644.05
202.777	6935.49
203.243	3849.7
203.709	3705.58
204.176	4409.83
204.642	3628.35
205.108	3397.9
205.574	2793.43
206.04	2573.19
206.506	2420.22
206.972	2294.38
207.438	2242.83
207.903	2565.63
208.369	2254.1
208.835	2243.01
209.301	2358.19
209.766	2441.47
210.232	2428.74
210.697	3017.53
211.163	3753.44
211.628	5685.27
212.094	4764.8
212.559	5858.51
213.024	3677.32
213.49	4487.4
213.955	4391.34
214.42	4318.78
214.885	4021.6
215.35	3853.19
215.815	3688.02
216.28	3938.77
216.745	3245.06
217.21	3551.32
217.675	3343.35
218.14	3816.07
218.604	4403.31
219.069	5174.98
219.534	5532.94
219.998	6597
220.463	8166.59
220.927	10322.43
221.392	9837.44
221.856	10086.95
222.32	12900.31
222.785	16027.3
223.249	20408.76
223.713	22905.56
224.177	22996.56
224.642	29715.98
225.106	36762.75
225.57	40372.47
226.034	30032
226.497	45904.47
226.961	41499.12
227.425	48366.33
227.889	53902.54
228.353	54018.81
228.816	111781.27
229.28	107058.71
229.744	90435.37
230.207	54989.24
230.671	54153.16
231.134	89874.84
231.597	103644.37
232.061	103947.68
232.524	101653.48
232.987	70045.52
233.45	63033.2
233.914	56595.27
234.377	58144.7
234.84	53200.23
235.303	62776.63
235.766	70075.71
236.229	72407.94
236.691	45653.07
237.154	51312.51
237.617	38574.89
238.08	39547.94
238.542	46309.63
239.005	33101.51
239.468	32850.68
239.93	30983.8
240.393	28168.73
240.855	24736.06
241.317	25354.35
241.78	30880.06
242.242	31904.26
242.704	34454.99
243.166	29981.32
243.629	27210.49
244.091	31363.63
244.553	34379.84
245.015	37001.9
245.477	47903.15
245.939	70309.1
246.4	74728.32
246.862	72701.3
247.324	68605.92
247.786	76831.52
248.247	100885.73
248.709	104403.24
249.17	78141.96
249.632	73622.98
250.093	85357.19
250.555	73787.63
251.016	44976.25
251.477	42679.67
251.939	46087.18
252.4	48407.68
252.861	57658.59
253.322	53635.71
253.783	63913.69
254.244	83021.87
254.705	65583.5
255.166	58371.63
255.627	57527.94
256.088	81210.74
256.549	86355.6
257.009	74449.94
257.47	90484.75
257.931	73832.98
258.391	55416.79
258.852	57186.14
259.312	60038.6
259.773	74214.47
260.233	62747.27
260.694	52974.07
261.154	60243.11
261.614	48338.3
262.074	43275.02
262.534	44981.58
262.994	42420.83
263.455	56614.1
263.915	47735.53
264.374	45052.52
264.834	49268.92
265.294	54777.25
265.754	56805.76
266.214	53824.38
266.673	50528.48
267.133	63903.38
267.593	63522.34
268.052	77804.08
268.512	67749.22
268.971	81739.23
269.431	89722.83
269.89	80459.16
270.349	120623.53
270.809	134608.59
271.268	121142.4
271.727	272175.95
272.186	176334.67
272.645	132354.74
273.104	95638.76
273.563	138558.86
274.022	109178.93
274.481	92823.78
274.94	71554.7
275.399	53283.92
275.857	62135.1
276.316	84134.56
276.775	74887.34
277.233	73810.55
277.692	69075.32
278.15	78156.87
278.609	80375.36
279.067	74429.01
279.525	69198.65
279.984	89413.37
280.442	107352
280.9	105695.75
281.358	69517.04
281.816	64796.69
282.274	63449.38
282.732	65594.42
283.19	65881.05
283.648	56901.9
284.106	60588.53
284.564	61611.03
285.021	57088.93
285.479	42525.41
285.937	38693.41
286.394	33911.92
286.852	34896.64
287.309	36670.63
287.767	35393.03
288.224	33662.7
288.682	36932.78
289.139	40522.98
289.596	37086.16
290.053	38573.46
290.511	48769.13
290.968	59194.57
291.425	80508.72
291.882	66985.54
292.339	58317.79
292.796	57969.29
293.252	54648.25
293.709	43395.3
294.166	38914.63
294.623	43021.61
295.079	41309.49
295.536	41449.66
295.992	37637.14
296.449	37185.12
296.905	38661.86
297.362	37052.76
297.818	38972.71
298.274	40441.18
298.731	41258.65
299.187	40840.51
299.643	43868.12
300.099	53021.51
300.555	58194.73
301.011	48628.59
301.467	46804.12
301.923	54852.87
302.379	53586.03
302.835	52663.27
303.291	52739.03
303.746	60040.1
304.202	75825.75
304.658	76122.1
305.113	51260.48
305.569	50225.61
306.024	53545.77
306.479	51067.44
306.935	43014.22
307.39	47000.08
307.845	43372.91
308.301	43591.74
308.756	42436.86
309.211	40844.53
309.666	41824.56
310.121	51793.04
310.576	52540.21
311.031	52157.17
311.486	59770.82
311.94	59663.04
312.395	79747.5
312.85	149850.63
313.305	737006.63
313.759	3808399.7
314.214	276254
314.668	218891.1
315.123	184043.18
315.577	66000.51
316.032	58672.38
316.486	73497.84
316.94	57967.77
317.394	40349.15
317.849	31367.44
318.303	29715.85
318.757	28073.46
319.211	31021.17
319.665	27187.92
320.119	27534.44
320.572	39521.75
321.026	36924.6
321.48	30736.32
321.934	33586.68
322.387	33696
322.841	36379.32
323.295	32603.49
323.748	37590.76
324.202	38153.33
324.655	45726.06
325.108	63793.06
325.562	45032.09
326.015	53555.1
326.468	40466.12
326.921	45198.77
327.374	42061.4
327.827	43738.51
328.28	49535.85
328.733	33156.19
329.186	29108.18
329.639	27730.72
330.092	23383.6
330.545	22246.53
330.997	22400.34
331.45	24431.91
331.903	28587.68
332.355	49211.56
332.808	47824.69
333.26	39462.63
333.713	42790.4
334.165	43143.11
334.617	57635.14
335.069	46611.51
335.522	84334.11
335.974	93241.66
336.426	85262.31
336.878	59150.49
337.33	29970.07
337.782	29256.96
338.234	36569.15
338.686	43764.18
339.137	51850.95
339.589	48832.88
340.041	38244.22
340.493	32875.11
340.944	33707.68
341.396	36285.13
341.847	30461.52
342.299	35891.1
342.75	43799.5
343.201	38384.15
343.653	44214.24
344.104	54332.28
344.555	42741.28
345.006	66650.89
345.457	50922.71
345.908	40474.43
346.359	38068.61
346.81	31022.38
347.261	32717.19
347.712	32237.65
348.163	34529.83
348.613	34829.05
349.064	32506.7
349.515	28478.73
349.965	29160.99
350.416	35154.58
350.866	38591.8
351.317	43627.78
351.767	72229.89
352.217	91342.8
352.668	75755.89
353.118	69399.12
353.568	67076.19
354.018	52979.19
354.468	55781.3
354.918	39982.27
355.368	34962.53
355.818	49322.01
356.268	141875.42
356.718	592815.59
357.168	147346.42
357.617	73867.16
358.067	82246.5
358.517	77006.38
358.966	90210.55
359.416	101076.39
359.865	109182.21
360.315	130095.32
360.764	60759.53
361.213	34048.15
361.663	32301.62
362.112	39916.64
362.561	64528.9
363.01	48572.29
363.459	40866.86
363.908	44285.77
364.357	37589.94
364.806	63573.75
365.255	43708.39
365.703	40011.6
366.152	40060.16
366.601	32437.93
367.05	26268.77
367.498	23845.82
367.947	24939.15
368.395	25948.89
368.844	22948.69
369.292	27706.62
369.74	19125.97
370.189	29281.44
370.637	34281.68
371.085	29556.05
371.533	36021.81
371.981	34745.44
372.429	33113.72
372.877	34517.34
373.325	28869.06
373.773	29432.87
374.221	26211.23
374.669	32499.5
375.116	28076.93
375.564	28310.71
376.012	31669.18
376.459	26061.02
376.907	31124.02
377.354	37586.86
377.801	34949.41
378.249	40106.27
378.696	51271.17
379.143	62055.66
379.591	66134.67
380.038	111773.36
380.485	80713.36
380.932	87026.36
381.379	79509.02
381.826	58401.27
382.273	41539.02
382.72	36346.7
383.166	35380.71
383.613	22909.74
384.06	20615.66
384.506	23845.9
384.953	17503.41
385.4	17599.25
385.846	15400.78
386.292	15009.52
386.739	14687.99
387.185	14508.62
387.631	14480.29
388.078	14018.7
388.524	14963.23
388.97	13802.46
389.416	11489.33
389.862	12190.37
390.308	11537.58
390.754	11682.61
391.2	12657.03
391.645	12942.99
392.091	12323.04
392.537	11882.15
392.983	11895.5
393.428	11661.32
393.874	12483.94
394.319	12464.42
394.765	11788.55
395.21	12090.44
395.655	11316.98
396.101	10570.52
396.546	9513.02
396.991	9601.33
397.436	8906.16
397.881	8591.8
398.326	8139.06
398.771	7674.16
399.216	6713.19
399.661	6035.33
400.106	6000.09
400.551	6133.26
400.995	5497.48
401.44	5435.49
401.885	5098.59
402.329	5140.19
402.774	4921.76
403.218	4744.63
403.663	4561.96
404.107	4675.98
404.551	4704.54
404.995	4309.24
405.44	4147.39
405.884	4202.26
406.328	4062.27
406.772	4040.24
407.216	3675.37
407.66	3547.96
408.104	3371.68
408.547	3155.25
408.991	3052.54
409.435	2933.45
409.879	2889.66
410.322	2852.5
410.766	2750.94
411.209	2611.13
411.653	2505.13
412.096	2450.57
412.54	2447.03
412.983	2428.41
413.426	2428.97
413.869	2425.36
414.312	2377.87
414.756	2289.57
415.199	2177.26
415.642	2112.8
416.085	2112.74
416.527	2098.73
416.97	2131.53
417.413	2024.56
417.856	2003.76
418.298	1985.07
418.741	1970.37
419.184	1963.48
419.626	2046.56
420.069	2046.15
420.511	2055.61
420.953	2008.96
421.396	1988.05
421.838	1937.71
422.28	1979.78
422.722	1985.46
423.164	2016.18
423.606	1983.91
424.048	1979.98
424.49	1879.11
424.932	1872.43
425.374	1847.44
425.816	1881.96
426.258	1919.56
426.699	1942.48
427.141	1911.39
427.582	1940.83
428.024	1928.95
428.465	1915.87
428.907	1867.8
429.348	1843.72
429.789	1840.5
430.231	1798.16
430.672	1821.32
431.113	1775.41
431.554	1741.77
431.995	1696.85
432.436	1632.63
432.877	1592.8
433.318	1564.4
433.759	1557.55
434.2	1555.23
434.64	1537.69
435.081	1541.09
435.522	1455.78
435.962	1400.84
436.403	1369.73
436.843	1387.16
437.284	1358.32
437.724	1320.67
438.164	1323.01
438.604	1292.12
439.045	1242.12
439.485	1188.46
439.925	1162.72
440.365	1134.5
440.805	1119.01
441.245	1105.01
441.685	1064.01
442.125	1055.19
442.564	1059.92
443.004	1033.21
443.444	1028.99
443.883	1027.79
444.323	1019.58
444.762	1020.05
445.202	1030.53
445.641	1045.38
446.081	1037.17
446.52	1042.34
446.959	1029.12
447.398	1002.82
447.837	988.06
448.276	969.49
448.716	977.43
449.154	984.15
449.593	957.49
450.032	950.97
450.471	932.24
450.91	930.8
451.349	926.42
451.787	920.91
452.226	931.22
452.664	929.94
453.103	928.24
453.541	924.95
453.98	920.02
454.418	926.32
454.856	910.57
455.295	907.7
455.733	912.77
456.171	916.98
456.609	915.3
457.047	914.93
457.485	925.68
457.923	925.6
458.361	912.16
458.798	914.46
459.236	909.53
459.674	915.57
460.111	917.92
460.549	907.65
460.987	904.05
461.424	901.28
461.862	896.33
462.299	882.84
462.736	881.99
463.173	884.47
463.611	873.67
464.048	872.51
464.485	878.35
464.922	870.13
465.359	865.38
465.796	850.3
466.233	843.5
466.67	834.52
467.106	830.88
467.543	822.9
467.98	810.89
468.416	790.55
468.853	783.62
469.29	759.41
469.726	750.37
470.162	731.31
470.599	723.98
471.035	718.09
471.471	700.62
471.907	697.6
472.344	693.25
472.78	696.04
473.216	704.66
473.652	696.82
474.088	696.58
474.523	694.64
474.959	700.55
475.395	693.42
475.831	688.33
476.266	691.17
476.702	688.85
477.138	679.59
477.573	676.01
478.008	671.52
478.444	672.47
478.879	677.18
479.314	679.72
479.75	678.73
480.185	681.36
480.62	686.17
481.055	689.39
481.49	693.12
481.925	702.35
482.36	713.38
482.795	733.19
483.229	751.55
483.664	765.36
484.099	766.35
484.534	776.88
484.968	783.45
485.403	784.42
485.837	781.72
486.271	778.89
486.706	778.61
487.14	768.64
487.574	754.71
488.009	746.19
488.443	738.53
488.877	744.13
489.311	743.21
489.745	748.4
490.179	751.9
490.613	763.75
491.046	767.09
491.48	769.53
491.914	767.62
492.348	770.15
492.781	772.26
493.215	770.85
493.648	768.53
494.082	771.3
494.515	767.89
494.948	773.83
495.382	774.49
495.815	776.29
496.248	777.83
496.681	787.61
497.114	795.05
497.547	800.61
497.98	809.64
498.413	811.63
498.846	817.35
499.279	822.33
499.711	821.64
500.144	820.29
500.577	824.74
501.009	830.99
501.442	835.21
501.874	832.25
502.306	829.94
502.739	831.75
503.171	841.58
503.603	839.44
504.036	843.88
504.468	843.88
504.9	848.36
505.332	850.75
505.764	850.61
506.196	852.37
506.627	860.57
507.059	867.76
507.491	871.74
507.923	865.21
508.354	874.76
508.786	879.74
509.217	891.79
509.649	901.96
510.08	915.05
510.512	925.52
510.943	935.78
511.374	943.01
511.805	958.69
512.237	973.34
512.668	999
513.099	1020.28
513.53	1042.9
513.961	1060.49
514.391	1087.02
514.822	1115.27
515.253	1146.1
515.684	1167.13
516.114	1192.91
516.545	1211.68
516.975	1234.61
517.406	1251.64
517.836	1255
518.267	1261.87
518.697	1279.02
519.127	1283.83
519.558	1291.72
519.988	1296.01
520.418	1308.11
520.848	1325.95
521.278	1335.63
521.708	1363.43
522.138	1378.12
522.567	1409.05
522.997	1434.82
523.427	1450.65
523.857	1469.2
524.286	1481.46
524.716	1498.07
525.145	1518.2
525.575	1531.35
526.004	1548.12
526.433	1537.09
526.863	1540.84
527.292	1535.64
527.721	1544.13
528.15	1553.99
528.579	1558.25
529.008	1571.18
529.437	1596.53
529.866	1612.06
530.295	1630.7
530.724	1645.59
531.152	1672.88
531.581	1688.99
532.01	1707.62
532.438	1717.87
532.867	1732.93
533.295	1752.57
533.723	1761.61
534.152	1762.22
534.58	1764.57
535.008	1751.3
535.436	1754.09
535.865	1764.15
536.293	1777.96
536.721	1794.22
537.149	1819.26
537.576	1823.9
538.004	1837.31
538.432	1845.14
538.86	1844.22
539.287	1851.98
539.715	1866.96
540.143	1871.17
540.57	1867.21
540.998	1864.51
541.425	1842.98
541.852	1823.12
542.28	1821.87
542.707	1806.31
543.134	1794.88
543.561	1792.59
543.988	1786.18
544.415	1786.47
544.842	1782.4
545.269	1777.52
545.696	1780.76
546.123	1795.47
546.549	1786.64
546.976	1775.93
547.403	1778
547.829	1780.17
548.256	1782.93
548.682	1780.1
549.108	1774.04
549.535	1774.14
549.961	1776.38
550.387	1764.92
550.813	1760.16
551.24	1768.96
551.666	1770.53
552.092	1761.19
552.518	1755.7
552.943	1750.17
553.369	1757.85
553.795	1762.76
554.221	1764.14
554.646	1761.15
555.072	1770.17
555.498	1773.03
555.923	1780.21
556.349	1793.7
556.774	1801.79
557.199	1801.27
557.625	1804.84
558.05	1798.13
558.475	1808.22
558.9	1805.29
559.325	1795.72
559.75	1788.2
560.175	1781.04
560.6	1773.34
561.025	1770.18
561.449	1768.5
561.874	1770.8
562.299	1773.33
562.723	1777.53
563.148	1763.36
563.572	1764.66
563.997	1771.55
564.421	1773.58
564.846	1770.79
565.27	1770.2
565.694	1763.93
566.118	1771.14
566.542	1775.86
566.966	1765.17
567.39	1756.97
567.814	1743.86
568.238	1738.75
568.662	1739.71
569.086	1739.52
569.509	1743.34
569.933	1725.53
570.357	1715.01
570.78	1691.48
571.204	1676.58
571.627	1664.46
572.05	1659.89
572.474	1657.2
572.897	1642.79
573.32	1633.57
573.743	1621.98
574.166	1602.95
574.589	1601.58
575.012	1592.35
575.435	1590.15
575.858	1579.44
576.281	1568.07
576.704	1552.46
577.126	1538.63
577.549	1528.24
577.972	1517.74
578.394	1506.9
578.817	1500.2
579.239	1481.91
579.661	1469.88
580.084	1455.58
580.506	1443.76
580.928	1439.21
581.35	1428.2
581.772	1423.62
582.194	1411.26
582.616	1399.08
583.038	1385.12
583.46	1373.95
583.882	1369.81
584.303	1373.44
584.725	1367.6
585.147	1368.72
585.568	1377.4
585.99	1387.91
586.411	1394.32
586.833	1406.34
587.254	1407.51
587.675	1419.54
588.096	1429.86
588.518	1425.43
588.939	1408.82
589.36	1406.48
589.781	1395.05
590.202	1369.68
590.623	1360.92
591.043	1357.98
591.464	1346.54
591.885	1342.69
592.305	1337.98
592.726	1325.56
593.147	1326.24
593.567	1320.3
593.987	1313.87
594.408	1309.88
594.828	1306.91
595.248	1301.62
595.669	1285.53
596.089	1278.74
596.509	1272.17
596.929	1259.38
597.349	1260.1
597.769	1250.21
598.189	1245.11
598.608	1245.38
599.028	1246.11
599.448	1246.24
599.867	1234.98
600.287	1230.48
600.706	1226.34
601.126	1217.83
601.545	1215.62
601.965	1213.14
602.384	1208.2
602.803	1210.05
603.222	1205.26
603.641	1198.24
604.061	1193.97
604.48	1188.95
604.898	1194.28
605.317	1197.8
605.736	1197.72
606.155	1194.6
606.574	1185.37
606.992	1188.93
607.411	1183.74
607.829	1181.11
608.248	1177.91
608.666	1175.93
609.085	1174.56
609.503	1166.5
609.921	1160.81
610.339	1161.98
610.758	1161.65
611.176	1157.16
611.594	1148.25
612.012	1143.53
612.43	1140.67
612.847	1145.87
613.265	1145.37
613.683	1148.05
614.101	1149.01
614.518	1144.24
614.936	1135.08
615.353	1121.92
615.771	1120.06
616.188	1121.42
616.606	1118.88
617.023	1112.71
617.44	1099.85
617.857	1093.63
618.274	1086.85
618.691	1081.96
619.108	1073.85
619.525	1069.62
619.942	1075.16
620.359	1077.21
620.776	1071.84
621.192	1068.92
621.609	1066.54
622.026	1072.77
622.442	1078.7
622.859	1083.09
623.275	1076.3
623.691	1081.34
624.108	1090.96
624.524	1103.47
624.94	1103.61
625.356	1113.15
625.772	1124.72
626.188	1135.48
626.604	1137.05
627.02	1132.81
627.436	1129.84
627.852	1136.48
628.268	1147.9
628.683	1139.98
629.099	1132.96
629.514	1128.92
629.93	1132.11
630.345	1135.96
630.761	1132.76
631.176	1136.71
631.591	1132.87
632.007	1128.33
632.422	1127.15
632.837	1118.09
633.252	1117.13
633.667	1108.16
634.082	1100.56
634.497	1090.57
634.911	1075.22
635.326	1073.05
635.741	1057.89
636.155	1049.4
636.57	1052.6
636.984	1052.9
637.399	1054.71
637.813	1054.49
638.228	1054.06
638.642	1058.78
639.056	1050.36
639.47	1051.14
639.884	1044.4
640.298	1040.2
640.712	1040.06
641.126	1029.74
641.54	1023.42
641.954	1020.24
642.368	1011.4
642.781	1007.97
643.195	993.89
643.609	995.25
644.022	990.85
644.436	989.05
644.849	979.83
645.262	971.63
645.676	974.77
646.089	972.95
646.502	961.29
646.915	958.88
647.328	944.73
647.741	945.74
648.154	936.53
648.567	936.9
648.98	926.6
649.393	929.94
649.805	929.63
650.218	924.11
650.631	911.37
651.043	907.98
651.456	904.28
651.868	906.35
652.28	922.95
652.693	936.32
653.105	942.79
653.517	952.95
653.929	953.7
654.341	959.47
654.753	949.98
655.165	956.72
655.577	955.53
655.989	952.55
656.401	947.51
656.813	915.82
657.224	899.48
657.636	876.02
658.047	862.85
658.459	847.52
658.87	842.14
659.282	834.48
659.693	819
660.104	809.74
660.515	801.27
660.926	804.12
661.338	806.18
661.749	804.68
662.159	800.8
662.57	800.65
662.981	801.38
663.392	798.31
663.803	806.47
664.213	808.75
664.624	808.44
665.035	815.12
665.445	804.97
665.855	802.19
666.266	797.42
666.676	798.31
667.086	793.05
667.497	795.54
667.907	792.85
668.317	787.53
668.727	787.11
669.137	791.12
669.547	792.6
669.956	797.7
670.366	801.62
670.776	806.68
671.186	812.4
671.595	817.91
672.005	822.09
672.414	822.56
672.824	820.32
673.233	825.84
673.642	828.78
674.052	831.68
674.461	833.83
674.87	838.22
675.279	835.72
675.688	838.53
676.097	839.31
676.506	836.32
676.915	851.56
677.323	855.14
677.732	853.55
678.141	852.02
678.549	839.87
678.958	838.1
679.366	835.92
679.775	839.47
680.183	847.67
680.592	852.01
681	856.05
681.408	846.2
681.816	851.22
682.224	856.62
682.632	862.63
683.04	888.39
683.448	907.56
683.856	933.2
684.264	962.57
684.671	986.95
685.079	1018.06
685.487	1052.71
685.894	1101.2
686.302	1137.12
686.709	1163.1
687.116	1196.03
687.524	1220.64
687.931	1239.57
688.338	1252.75
688.745	1261.09
689.152	1274.96
689.559	1299.43
689.966	1324.44
690.373	1331.32
690.78	1356.69
691.187	1401.81
691.593	1435.24
692	1463.68
692.407	1509.94
692.813	1572.1
693.22	1622.02
693.626	1674.93
694.032	1718.27
694.439	1786.44
694.845	1841.67
695.251	1912.6
695.657	1976.15
696.063	2072.17
696.469	2147.61
696.875	2219.18
697.281	2266.07
697.687	2321.19
698.093	2370.85
698.498	2457.02
698.904	2525.83
699.31	2624.69
699.715	2702.58
700.12	2808.43
700.526	2844.06
700.931	2928.9
701.337	3001.11
701.742	3053.73
702.147	3156.62
702.552	3206.45
702.957	3284.07
703.362	3326.3
703.767	3376.45
704.172	3437.71
704.577	3411.51
704.981	3478.96
705.386	3517.51
705.791	3528.85
706.195	3626.48
706.6	3657.65
707.004	3764.34
707.408	3753.68
707.813	3802.22
708.217	3810.63
708.621	3831.08
709.025	3957.96
709.43	3980.75
709.834	4066.95
710.237	4165.57
710.641	4170.46
711.045	4215.7
711.449	4227.37
711.853	4279.16
712.256	4345.14
712.66	4404.15
713.064	4510.86
713.467	4577.14
713.87	4724.45
714.274	4799.18
714.677	4944.48
715.08	5150.05
715.484	5365.55
715.887	5623.64
716.29	5879.35
716.693	6146.6
717.096	6454.11
717.499	6631.26
717.901	6680.7
718.304	6734.01
718.707	6781.66
719.109	6680.04
719.512	6663.55
719.915	6516.89
720.317	6467.32
720.719	6537.75
721.122	6517.03
721.524	6475.53
721.926	6440.24
722.328	6582.04
722.731	6585.94
723.133	6635.35
723.535	6888.73
723.937	6929.61
724.338	7007.77
724.74	7073.56
725.142	6995.23
725.544	7010.85
725.945	7051.09
726.347	7059.76
726.748	7063.64
727.15	7095.04
727.551	7057.94
727.952	7034.06
728.354	7008.99
728.755	7022.23
729.156	6977.9
729.557	6988.26
729.958	6842.26
730.359	6784.65
730.76	6773.06
731.161	6705.81
731.562	6682.77
731.962	6701.16
732.363	6630.19
732.763	6556.74
733.164	6612.75
733.564	6535.06
733.965	6416.59
734.365	6378.85
734.766	6423.6
735.166	6376.6
735.566	6308.08
735.966	6277.93
736.366	6272.41
736.766	6196.31
737.166	6242.82
737.566	6192.47
737.966	6161.77
738.365	6219.22
738.765	6213.35
739.165	6122.43
739.564	6093.54
739.964	6159.47
740.363	6102.71
740.763	6103.4
741.162	6089.74
741.561	6050.19
741.96	5994.44
742.36	6027.04
742.759	6034.82
743.158	6091.02
743.557	6109.3
743.955	6163.64
744.354	6106.97
744.753	6186.66
745.152	6136.64
745.55	6212.52
745.949	6206.04
746.348	6210.24
746.746	6233.77
747.144	6183.92
747.543	6155.57
747.941	6222.66
748.339	6134.38
748.737	6125.21
749.136	6116.61
749.534	6204.05
749.932	6168.44
750.33	6201.48
750.727	6274.38
751.125	6243.32
751.523	6225.38
751.921	6282.33
752.318	6240.31
752.716	6315.17
753.113	6334.61
753.511	6368.31
753.908	6370.36
754.305	6347.92
754.703	6429.53
755.1	6513.42
755.497	6596.43
755.894	6847.98
756.291	7084.64
756.688	7517.88
757.085	8096.59
757.482	8907.43
757.878	9792.8
758.275	10587.61
758.672	11693.14
759.068	12588.55
759.465	13867.53
759.861	15506.44
760.258	17415.94
760.654	18402.28
761.05	18244.41
761.447	17410.02
761.843	16207.53
762.239	14961.61
762.635	14406.37
763.031	13871.99
763.427	13099.27
763.822	12282.51
764.218	11479.5
764.614	10435.87
765.01	9737.02
765.405	9289.75
765.801	8948.07
766.196	8511.11
766.592	8271.68
766.987	7860
767.382	7577.23
767.778	7459.7
768.173	7289.39
768.568	7197.06
768.963	7027.59
769.358	7055.55
769.753	6993.83
770.148	6885.15
770.542	6884.69
770.937	6842.76
771.332	6959.28
771.726	6986.67
772.121	6903.76
772.515	6976.53
772.91	6956.19
773.304	7055.35
773.699	6965.52
774.093	7037.32
774.487	7112.22
774.881	7169.51
775.275	7164.07
775.669	7110.67
776.063	7172.54
776.457	7219.76
776.851	7122.01
777.245	7111.63
777.638	7154.45
778.032	7307.06
778.425	7257.62
778.819	7307.57
779.212	7252.05
779.606	7200.74
779.999	7226.65
780.392	7202.7
780.786	7313.61
781.179	7338
781.572	7394.06
781.965	7410.45
782.358	7334.15
782.751	7408.24
783.143	7347.59
783.536	7441.98
783.929	7499.39
784.322	7650.5
784.714	7691.46
785.107	7685.74
785.499	7784.56
785.891	7756.58
786.284	7730.73
786.676	7921.36
787.068	7899.28
787.46	7963.4
787.852	7994.55
788.245	8107.37
788.636	8146.12
789.028	8234.03
789.42	8285.61
789.812	8296.24
790.204	8425.98
790.595	8560.35
790.987	8300.4
791.378	8330.45
791.77	8509.73
792.161	8684.8
792.553	8758.64
792.944	8613.7
793.335	8527.18
793.726	8627.26
794.117	8746.21
794.508	8924.62
794.899	8885.14
795.29	9073.83
795.681	9153.06
796.072	8964.38
796.463	8719.55
796.853	8734.07
797.244	8941.79
797.634	8988.04
798.025	8982.89
798.415	9001.15
798.806	9123.36
799.196	9236.82
799.586	9302.02
799.976	9250.55
800.366	9556.33
800.756	9878.21
801.146	9820.06
801.536	9860.21
801.926	9953.25
802.316	9988.22
802.706	10079.28
803.095	9911.84
803.485	10043.28
803.874	10096.9
804.264	10437.74
804.653	10404.66
805.043	10597.57
805.432	10745.28
805.821	10745.76
806.21	10778.27
806.599	10937.06
806.988	10998.79
807.377	11148.82
807.766	11326.88
808.155	11699.2
808.544	11351.29
808.933	11366.05
809.321	11339.22
809.71	11732.06
810.098	11941.74
810.487	12546.84
810.875	13181.46
811.264	13212.9
811.652	13584.62
812.04	13769.19
812.428	13987.47
812.816	15000.55
813.204	15554
813.592	16280.81
813.98	16727.17
814.368	16605.43
814.756	17246.64
815.144	17140.63
815.531	17753.53
815.919	17660.6
816.306	18070.96
816.694	17660.84
817.081	17729.48
817.469	18185.71
817.856	18182.25
818.243	18538.24
818.63	19063.81
819.017	18502.67
819.404	18586.21
819.791	19097.25
820.178	19919.63
820.565	20242.98
820.952	21470.83
821.339	20817.67
821.725	21072.97
822.112	20095.32
822.498	20036.52
822.885	20201.46
823.271	20074.28
823.657	20634.37
824.044	20639.63
824.43	20730.48
824.816	20685.26
825.202	20114.13
825.588	21455.12
825.974	21472.02
826.36	22153.98
826.746	22194.53
827.132	22664.73
827.517	22634.4
827.903	21589.99
828.289	21640.67
828.674	20613.94
829.06	20484
829.445	21009.22
829.83	21477.1
830.216	22096.27
830.601	22571.7
830.986	22044.14
831.371	21867.95
831.756	22597.27
832.141	22028.75
832.526	22013.82
832.911	22379.9
833.295	22223.59
833.68	22833.63
834.065	22017
834.449	20825.57
834.834	20727.38
835.218	20713.41
835.603	21150.67
835.987	20880.37
836.371	21966.3
836.755	21821
837.139	22345.03
837.524	22663.52
837.908	22427.22
838.291	22499
838.675	22566.91
839.059	22835.62
839.443	22817.75
839.827	22529.04
840.21	23144.68
840.594	22951.49
840.977	23229.87
841.361	23198.52
841.744	23683.65
842.127	23475.9
842.511	23802.4
842.894	24586.6
843.277	25080.84
843.66	25793.74
844.043	25886.4
844.426	24830.18
844.809	24427.79
845.191	24462.82
845.574	23866.49
845.957	23388.18
846.339	23252.01
846.722	22554.89
847.104	22646.97
847.487	22422.53
847.869	22429.95
848.252	22792.96
848.634	23218.07
849.016	23559.5
849.398	23718.14
849.78	24825.97
850.162	24832.43
850.544	25368.57
850.926	26199.29
851.307	26075.91
851.689	26445.48
852.071	27042.82
852.452	27469.71
852.834	27455.65
853.215	27970.49
853.597	28175.42
853.978	28563.09
854.359	29154.07
854.741	27850
855.122	27717.79
855.503	27345.56
855.884	27505.76
856.265	27420.17
856.646	27574.83
857.026	27049.17
857.407	26956.24
857.788	27173.13
858.169	27545.55
858.549	26446.15
858.93	27267.33
859.31	27326.56
859.69	27594.15
860.071	27075.35
860.451	26797.48
860.831	25839.01
861.211	27363.85
861.591	28089.13
861.971	28048.6
862.351	28301.91
862.731	28806.61
863.111	29146.4
863.491	29586.51
863.87	30746.47
864.25	31217.86
864.629	30689.42
865.009	31341.08
865.388	32467.1
865.768	34804.46
866.147	34668.58
866.526	32751.38
866.905	33146.38
867.284	35009.44
867.663	33240.38
868.042	31852.44
868.421	31742.69
868.8	32281.47
869.179	32605.47
869.558	30706.21
869.936	28301.44
870.315	28806.34
870.693	29505.83
871.072	31816.17
871.45	30322.84
871.828	30713.86
872.207	32304.11
872.585	31820.89
872.963	32676.06
873.341	31549.14
873.719	31158.19
874.097	30783.56
874.475	31378.87
874.853	32111.07
875.23	30765.32
875.608	32040.08
875.986	34663.36
876.363	33146.49
876.741	34145.84
877.118	33289.12
877.495	34921.03
877.873	35516.53
878.25	37383.74
878.627	35852.25
879.004	36337.05
879.381	36167.71
879.758	35205.91
880.135	32767.09
880.512	34648.09
880.889	33730.86
881.265	33392.44
881.642	33114.61
882.019	33680.13
882.395	32982.94
882.772	34281.61
883.148	32783.46
883.524	32650.13
883.901	32466.22
884.277	32953.12
884.653	32729.09
885.029	33658.16
885.405	37254.81
885.781	36961.78
886.157	35431.64
886.532	35849.58
886.908	35827.94
887.284	39847.22
887.659	41147.42
888.035	42414.3
888.411	43490.42
888.786	44062.93
889.161	45582.15
889.537	44745.51
889.912	46179.77
890.287	46116.83
890.662	47315.54
891.037	46468.61
891.412	43318.41
891.787	42893.99
892.162	41399.43
892.536	42363.85
892.911	40769.73
893.286	39913.41
893.66	38286.6
894.035	39250.43
894.409	42753.12
894.784	41006.1
895.158	41664.74
895.532	44130.13
895.906	45302.25
896.281	46353.14
896.655	45604.02
897.029	52093.05
897.402	54246.82
897.776	60409.35
898.15	60208.74
898.524	59542.15
898.898	60368.66
899.271	67602
899.645	58557.11
900.018	56239.01
900.392	58345.91
900.765	58822.3
901.138	54462.18
901.511	53626.48
901.884	49207.69
902.258	45385.79
902.631	46910.11
903.003	53971.67
903.376	48712.95
903.749	54644.74
904.122	58530.9
904.495	64427.25
904.867	65267.87
905.24	56649.02
905.612	52748.78
905.985	53979.02
906.357	56463.97
906.729	53884.09
907.102	46039.44
907.474	44265.9
907.846	44539.5
908.218	43957.85
908.59	38840.66
908.962	37571.66
909.334	40476.91
909.705	42529.71
910.077	41311.02
910.449	43002.27
910.82	44199.7
911.192	48636.69
911.563	50524.85
911.935	54073.53
912.306	54137.53
912.677	55932.54
913.048	55329.22
913.419	60034.27
913.79	60399.32
914.161	64744.86
914.532	61874.94
914.903	56883.05
915.274	54036.63
915.645	53276.23
916.015	46907.51
916.386	44732.08
916.756	47629.61
917.127	49172.87
917.497	43922.09
917.868	47809.45
918.238	45414.31
918.608	46725.14
918.978	47673.83
919.348	50476.14
919.718	52140.16
920.088	50228.76
920.458	52188.38
920.828	54907.54
921.198	52067.49
921.567	55621
921.937	43044.1
922.306	43459.82
922.676	46859.14
923.045	39093.76
923.415	37142.57
923.784	33819.7
924.153	34761.09
924.522	34713.72
924.891	32613.71
925.26	34914.51
925.629	34112.86
925.998	39235.91
926.367	38300.4
926.736	36467.03
927.104	43436.71
927.473	46699.25
927.842	56405.98
928.21	55856.38
928.578	58696.59
928.947	55521.81
929.315	55862.43
929.683	65451.29
930.051	65942.46
930.42	76603.57
930.788	65479.09
931.156	64994.81
931.523	60898.83
931.891	56253.12
932.259	54006.42
932.627	62587.73
932.994	88565.34
933.362	73169.72
933.729	63542.72
934.097	60813.37
934.464	51437.71
934.831	59337.88
935.199	58460.66
935.566	56739.98
935.933	57559.13
936.3	69744.09
936.667	54297.3
937.034	48965.1
937.401	48427.01
937.767	41814.62
938.134	37236.21
938.501	52513.62
938.867	55960.61
939.234	94681.44
939.6	80728.85
939.967	88843.75
940.333	59433.56
940.699	50687.54
941.065	40728.23
941.431	53443.67
941.798	51549.91
942.163	67710.18
942.529	42354.56
942.895	39000.66
943.261	25244.18
943.627	33169.01
943.992	29070.17
944.358	29151.57
944.723	29238.22
945.089	28462.19
945.454	26294.99
945.82	28060.21
946.185	26974.5
946.55	31239.77
946.915	28044.57
947.28	32883.02
947.645	28951.4
948.01	26720.01
948.375	27860.49
948.74	33427.63
949.104	39037.36
949.469	56437.76
949.834	99787.06
950.198	94542.26
950.562	56612.96
950.927	47155.39
951.291	56746.4
951.655	48306.02
952.02	45342.85
952.384	34283.9
952.748	29794.53
953.112	29016.91
953.476	25216.57
953.839	23308.88
954.203	23068.04
954.567	28870.32
954.931	45510.81
955.294	38967.84
955.658	39205.06
956.021	66686.95
956.385	113107.2
956.748	167003.48
957.111	259179.52
957.474	291009.47
957.837	327607.13
958.2	248025.09
958.563	89208.07
958.926	60241.11
959.289	91363.64
959.652	102005.41
960.015	76537.92
960.377	109728.58
960.74	125339.21
961.102	216401.75
961.465	232242.26
961.827	124281.71
962.189	238222.39
962.552	165188.7
962.914	132449.74
963.276	85931.25
963.638	71012.05
964	70324.03
964.362	47541.26
964.724	45872.68
965.085	32724.1
965.447	26836.51
965.809	30605.21
966.17	30646.26
966.532	33137.96
966.893	30408.45
967.255	27660.46
967.616	32651.53
967.977	26123.03
968.338	28559.21
968.699	23472.02
969.061	23455.85
969.421	23583.41
969.782	26457.3
970.143	22331.34
970.504	23146.62
970.865	26304.48
971.225	26880.02
971.586	26271.63
971.946	37481.93
972.307	32472.59
972.667	42469.85
973.027	43716.21
973.388	53068.92
973.748	36149.84
974.108	39402.5
974.468	53269.16
974.828	41031.83
975.188	31574.72
975.548	29008.56
975.907	24339.53
976.267	27321.14
976.627	22944.81
976.986	23798.14
977.346	22688.06
977.705	21795.34
978.064	19861.69
978.424	16529.31
978.783	17104.76
979.142	19514.93
979.501	18683.65
979.86	19752.99
980.219	19053.19
980.578	24570.07
980.937	27501.97
981.296	24490.11
981.654	25182.78
982.013	39192.17
982.371	50863.51
982.73	47525.61
983.088	53876.33
983.447	57518.68
983.805	82240.01
984.163	171734.04
984.521	190710.88
984.879	279848.41
985.237	-455195.95
985.595	439136.71
985.953	108977.63
986.311	62990.66
986.669	36522.56
987.026	31509.08
987.384	42387.77
987.741	43798.39
988.099	31282.23
988.456	24930.66
988.814	23301.13
989.171	20248.18
989.528	19984.15
989.885	21154.41
990.242	16722.09
990.599	20874.95
990.956	17065.22
991.313	11930.8
991.67	9788.03
992.027	10360.42
992.383	9206.03
992.74	8079.51
993.096	8478.83
993.453	8793.83
993.809	9101.98
994.165	12136.83
994.522	11080.41
994.878	12229
995.234	15347.21
995.59	15150.65
995.946	14364.47
996.302	16391.58
996.658	18943.91
997.013	20860.38
997.369	24732.88
997.725	31686.6
998.08	20514.72
998.436	31733.66
998.791	43783.77
999.147	43676.86
999.502	47677.09
999.857	34674.28
1000.212	56539.37
1000.567	80608.15
1000.922	46500
1001.277	29555.72
1001.632	21901.8
1001.987	28197.81
1002.342	20240.9
1002.696	16176.75
1003.051	12919.29
1003.406	15622.92
1003.76	15561.07
1004.114	15320.2
1004.469	12866.77
1004.823	10670.53
1005.177	11516.45
1005.531	9121.07
1005.885	8092.73
1006.239	9126.6
1006.593	11428.41
1006.947	15285.12
1007.301	11481.37
1007.655	12493.81
1008.008	9166.28
1008.362	10304.12
1008.715	14679.89
1009.069	13326.58
1009.422	20014.16
1009.776	40269.36
1010.129	26759.03
1010.482	22355.18
1010.835	18947.36
1011.188	39358.99
1011.541	37075.84
1011.894	-226686.11
1012.247	666968.13
1012.6	45455.89
1012.952	28628.25
1013.305	14829.37
1013.657	10668.2
1014.01	10083.32
1014.362	8344.33
1014.715	7400.32
1015.067	6456.27
1015.419	6317.4
1015.771	5599.78
1016.123	4978.17
1016.475	5109.25
1016.827	5441.2
1017.179	5828.23
1017.531	5883.42
1017.883	6009.58
1018.234	5771.73
1018.586	7288.7
1018.938	7690.78
1019.289	10602.59
1019.64	12179.36
1019.992	11327.83
1020.343	10434.35
1020.694	8237.7
1021.045	7288.05
1021.396	8319.56
1021.747	8935.66
1022.098	10771.05
1022.449	7793.99
1022.8	7231.04
1023.151	5030.15
1023.501	4444.34
1023.852	4833.79
1024.202	4980.95
1024.553	5481.25
1024.903	5347.16
1025.253	4549.44
1025.604	4099.47
1025.954	5074.24
1026.304	6199.97
1026.654	7271.4
1027.004	10731.3
1027.354	17389.5
1027.703	16378.31
1028.053	21495.53
1028.403	31372.45
1028.753	45597.96
1029.102	62287.05
1029.452	319018.29
1029.801	13795.01
1030.15	8914.53
1030.499	7545.15
897.758	2660
901.051	2615.96
904.343	2652.38
907.636	2653.15
910.928	2717.12
914.22	2625.79
917.511	2636.46
920.803	2694.36
924.094	2713.57
927.384	2696.77
930.675	2659.76
933.965	2613.2
937.255	2623.28
940.544	2590.04
943.834	2532.26
947.123	2477.76
950.411	2575.96
953.7	2546.59
956.988	2519.71
960.276	2460.7
963.563	2538.51
966.851	2533.84
970.138	2592.06
973.424	2587.79
976.711	2535.67
979.997	2668.38
983.283	2703.4
986.568	2609.17
989.853	2624.72
993.138	2650.24
996.423	2734.41
999.708	2674.95
1002.992	2740.26
1006.275	2575.85
1009.559	2617.86
1012.842	2733.77
1016.125	2666.35
1019.408	2645.27
1022.69	2733.37
1025.972	2753.58
1029.254	2728.61
1032.536	2661.56
1035.817	2688.74
1039.098	2634.22
1042.379	2778.85
1045.659	2778.56
1048.939	2715.33
1052.219	2735.38
1055.498	2744.92
1058.778	2731.13
1062.057	2715.2
1065.335	2736.64
1068.614	2759.55
1071.892	2741.49
1075.17	2815.99
1078.447	2807.95
1081.724	2800.95
1085.001	2835.52
1088.278	2808.08
1091.554	2820.9
1094.83	2817.58
1098.106	2848.22
1101.382	2893.66
1104.657	2889.6
1107.932	2886.7
1111.206	2853.89
1114.481	2808.48
1117.755	2809.41
1121.029	2791.21
1124.302	2846.17
1127.575	2800.45
1130.848	2786.54
1134.121	2748.1
1137.393	2697.82
1140.665	2765.95
1143.937	2741.37
1147.208	2698.92
1150.48	2741.88
1153.75	2728.12
1157.021	2759.27
1160.291	2730.13
1163.561	2775.49
1166.831	2764.39
1170.101	2797.86
1173.37	2768.31
1176.639	2711.94
1179.907	2771.62
1183.176	2779.59
1186.444	2788.5
1189.711	2817.71
1192.979	2828.91
1196.246	2783.8
1199.513	2803.33
1202.78	2800.21
1206.046	2807.14
1209.312	2838.86
1212.578	2865.74
1215.843	2817.71
1219.108	2789.32
1222.373	2810.23
1225.638	2775.84
1228.902	2759.61
1232.166	2721.06
1235.43	2699.83
1238.693	2725
1241.956	2721.46
1245.219	2761.48
1248.482	2753.42
1251.744	2747.96
1255.006	2898.83
1258.268	2850.82
1261.529	2793.47
1264.79	2799.31
1268.051	2907.83
1271.312	2930.71
1274.572	2892
1277.832	2880.88
1281.092	2869.41
1284.351	2841.6
1287.61	2819.7
1290.869	2738.07
1294.128	2717.02
1297.386	2805.44
1300.644	2795.43
1303.902	2806.72
1307.159	2657.7
1310.416	2716.45
1313.673	2745.23
1316.93	2728.86
1320.186	2774.23
1323.442	2817.17
1326.697	2801.46
1329.953	2790.7
1333.208	2815.66
1336.463	2793.93
1339.717	2732.21
1342.972	2869.05
1346.226	2843.19
1349.479	2772.36
1352.733	2743.7
1355.986	2765.68
1359.238	2741.45
1362.491	2748.62
1365.743	2750.48
1368.995	2741.55
1372.247	2756.55
1375.498	2781.52
1378.749	2797.21
1382	2747.42
1385.251	2803.52
1388.501	2760.21
1391.751	2744.63
1395	2714.57
1398.25	2742.72
1401.499	2751.4
1404.748	2679.17
1407.996	2665.85
1411.244	2652.09
1414.492	2631.87
1417.74	2609.74
1420.987	2616.62
1424.234	2677.77
1427.481	2656.77
1430.728	2715.77
1433.974	2688.71
1437.22	2702.76
1440.465	2703.81
1443.711	2668.55
1446.956	2703.03
1450.201	2693.2
1453.445	2738.69
1456.689	2719.43
1459.933	2730.16
1463.177	2762.16
1466.42	2734.99
1469.663	2717.13
1472.906	2712.2
1476.148	2788.69
1479.391	2750.74
1482.633	2719.62
1485.874	2730.58
1489.115	2718.55
1492.356	2723.62
1495.597	2697.82
1498.838	2702.06
1502.078	2672.18
1505.318	2623.24
1508.557	2666.71
1511.797	2642.42
1515.036	2714.04
1518.274	2701.64
1521.513	2673.79
1524.751	2696.36
1527.989	2707.86
1531.227	2724.29
1534.464	2721.16
1537.701	2739.77
1540.938	2759.74
1544.174	2710.75
1547.41	2711.86
1550.646	2749.78
1553.882	2789.65
1557.117	2843.88
1560.352	2859.96
1563.587	2819.78
1566.821	2778.62
1570.055	2811.98
1573.289	2784.49
1576.523	2861.16
1579.756	2872.18
1582.989	2889
1586.222	2852.52
1589.454	2894.62
1592.686	2864.05
1595.918	2892.36
1599.15	2881.6
1602.381	2958.94
1605.612	2915.38
1608.843	3015.73
1612.073	2927.28
1615.303	2910.08
1618.533	2904.68
1621.762	2907.55
1624.992	2889.24
1628.221	2879.9
1631.449	2865.53
1634.678	2920.58
1637.906	2870.7
1641.134	2912.29
1644.361	2866.73
1647.588	2853.9
1650.815	2871.74
1654.042	2848.32
1657.269	2877.31
1660.495	2832.62
1663.72	2852.82
1666.946	2814.84
1670.171	2759.38
1673.396	2737.14
1676.621	2722.14
1679.845	2740.26
1683.069	2761.54
1686.293	2804.24
1689.517	2773.98
1692.74	2702.94
1695.963	2731.06
1699.185	2750.53
1702.408	2723.16
1705.63	2764.19
1708.852	2775.99
1712.073	2747.17
1715.294	2733.76
1718.515	2792.21
1721.736	2739.4
1724.956	2732.21
1728.176	2760.12
1731.396	2784.49
1734.616	2769.03
1737.835	2798.06
1741.054	2777.89
1744.272	2767.08
1747.491	2800.22
1750.709	2854.78
1753.927	2760.53
1757.144	2804.4
1760.361	2850.57
1763.578	2839.65
1766.795	2778.14
1770.011	2783.62
1773.227	2825.14
1776.443	2861
1779.658	2908.26
1782.874	2847.02
1786.089	2825.95
1789.303	2829.25
1792.518	2831.24
1795.732	2817.15
1798.945	2830.75
1802.159	2880.09
1805.372	2783.68
1808.585	2768.57
1811.797	2767.55
1815.01	2815.51
1818.222	2819.62
1821.434	2790.02
1824.645	2849.28
1827.856	2837.25
1831.067	2873.51
1834.278	2822.04
1837.488	2809.4
1840.698	2957.55
1843.908	2880.07
1847.117	2842.49
1850.326	2727.48
1853.535	2830.96
1856.744	2855.15
1859.952	2765.94
1863.16	2769.22
1866.368	2791.29
1869.575	2896.59
1872.782	2774.6
1875.989	2714.4
1879.196	2795.5
1882.402	2787.32
1885.608	2826.52
1888.814	2727.21
1892.019	2618.84
1895.224	2672.4
1898.429	2649.77
1901.634	2626.58
1904.838	2603.13
1908.042	2655.42
1911.246	2659.99
1914.449	2592.73
1917.652	2590
1920.855	2572.19
1924.058	2620.73
1927.26	2658.92
1930.462	2685.9
1933.664	2713.11
1936.865	2647.96
1940.066	2658.76
1943.267	2604.1
1946.467	2619.79
1949.668	2647.82
1952.868	2716.26
1956.067	2693.7
1959.267	2625.26
1962.466	2653.03
1965.665	2635.94
1968.863	2632.14
1972.061	2649.12
1975.259	2645.06
1978.457	2726.36
1981.654	2684.5
1984.852	2683.65
1988.048	2616.17
1991.245	2618.16
1994.441	2705.13
1997.637	2688.47
2000.833	2672.23
2004.028	2711.24
2007.223	2764.09
2010.418	2743.68
2013.613	2703.1
2016.807	2674.37
2020.001	2679.44
2023.194	2723.25
2026.388	2701.87
2029.581	2647.76
2032.774	2697.57
2035.966	2702.57
2039.158	2634.06
2042.35	2664.05
2045.542	2589.29
2048.733	2687.58
2051.924	2710.41
2055.115	2741.61
2058.306	2683.72
2061.496	2742.43
2064.686	2805.56
2067.875	2720.85
2071.065	2734.24
2074.254	2761.21
2077.442	2710.76
2080.631	2802.88
2083.819	2696.93
2087.007	2677.99
2090.195	2647.78
2093.382	2684.59
2096.569	2663.23
2099.756	2615.47
2102.942	2641.54
2106.128	2649.32
2109.314	2643.12
2112.5	2608.07
2115.685	2580.57
2118.87	2590.45
2122.055	2657.28
2125.239	2623.3
2128.424	2595.15
2131.608	2698.75
2134.791	2680.94
2137.974	2739.24
2141.157	2723.57
2144.34	2672.18
2147.523	2686.65
2150.705	2703.7
2153.887	2682.09
2157.068	2631.91
2160.25	2633.39
2163.431	2671.7
2166.611	2617.83
2169.792	2635.99
2172.972	2527.92
2176.152	2606.67
2179.331	2641
2182.511	2625.52
2185.69	2653.73
2188.868	2647.71
2192.047	2704.19
2195.225	2694.45
2198.403	2645.8
2201.58	2635.71
2204.758	2628.03
2207.935	2711.9
2211.111	2600.26
2214.288	2585.71
2217.464	2624.68
2220.64	2594.93
2223.815	2652.28
2226.991	2568.99
2230.166	2590.68
2233.34	2617
2236.515	2645.45
2239.689	2720.32
2242.863	2662.33
2246.036	2717.94
2249.209	2718.55
2252.382	2753.06
2255.555	2739.37
2258.727	2675.47
2261.9	2718.25
2265.071	2710.43
2268.243	2712.27
2271.414	2641.27
2274.585	2604.96
2277.756	2675.11
2280.926	2629.44
2284.096	2668.62
2287.266	2572.99
2290.436	2632.85
2293.605	2661.9
2296.774	2690.69
2299.942	2712.11
2303.111	2731.32
2306.279	2782.92
2309.447	2765.46
2312.614	2738.97
2315.781	2760.08
2318.948	2728.98
2322.115	2767.86
2325.281	2667.59
2328.447	2685.55
2331.613	2660.18
2334.779	2632.44
2337.944	2633.28
2341.109	2631.78
2344.274	2615.72
2347.438	2579.05
2350.602	2603.22
2353.766	2622.95
2356.929	2610
2360.092	2649.61
2363.255	2602.2
2366.418	2537.71
2369.58	2649.5
2372.742	2438.06
2375.904	2452.2
2379.066	2428.6
2382.227	2467.51
2385.388	2427.91
2388.548	2351.43
2391.709	2407.9
2394.869	2388.58
2398.029	2487.78
2401.188	2498.67
2404.347	2432.32
2407.506	2574.44
2410.665	2603.55
2413.823	2609.23
2416.981	2565.13
2420.139	2601
2423.296	2649.57
2426.453	2621.72
2429.61	2642.49
2432.767	2578.09
2435.923	2619.6
2439.079	2580.69
2442.235	2629.05
2445.391	2554.24
2448.546	2586.92
2451.701	2634
2454.855	2604.74
2458.009	2660.79
2461.163	2659.78
2464.317	2623.05
2467.471	2653.15
2470.624	2690.32
2473.777	2664.48
2476.929	2677.15
2480.082	2704.1
2483.234	2665.58
2486.385	2621.03
2489.537	2613.49
2492.688	2570.93
2495.839	2591
2498.989	2602.34
2502.14	2588.92
2505.29	2571.59
2508.439	2599.08
2511.589	2521.89
2514.738	2531.66
2517.887	2563.75
2521.035	2627.16
2524.183	2608.24
2527.331	2590.82
2530.479	2564.89
2533.627	2574.78
