Data from C_3_DEC_OH_4N_Splice17_13-26-12-103.txt Node
Date: Sat Mar 14 13:26:12 EDT 2020
User: sa697716
Spectrometer: FLMS03696
Trigger mode: 0
Integration Time (sec): 3.180400E-1
Scans to average: 20
Electric dark correction enabled: true
Nonlinearity correction enabled: true
Boxcar width: 5
XAxis mode: Wavelengths
Number of Pixels in Spectrum: 2048
>>>>>Begin Spectral Data<<<<<
187.83	-400432.81
188.298	2796.61
188.766	1560.52
189.233	1394.53
189.701	1994.91
190.169	2720.53
190.636	1111.27
191.104	939.82
191.571	211.54
192.039	14.51
192.506	28.06
192.974	500.25
193.441	-762.11
193.908	-25.32
194.375	-8.23
194.842	86.79
195.31	197.66
195.777	230.93
196.244	435.5
196.711	417.14
197.177	484.64
197.644	620.18
198.111	1029.83
198.578	1421.11
199.045	1124.04
199.511	1795.6
199.978	2066.79
200.445	1785.24
200.911	1957.78
201.378	2135.19
201.844	1973.86
202.31	3345.86
202.777	3518.12
203.243	1982.01
203.709	1887.29
204.176	2250.67
204.642	1892.84
205.108	1766.86
205.574	1437.07
206.04	1292.76
206.506	1226.74
206.972	1123.92
207.438	1098.06
207.903	1253.59
208.369	1097.09
208.835	1085.77
209.301	1148.25
209.766	1151.36
210.232	1143.68
210.697	1391.21
211.163	1686.03
211.628	2482.29
212.094	2096.61
212.559	2600.35
213.024	1620.47
213.49	1975.36
213.955	1937.06
214.42	1855.3
214.885	1717.77
215.35	1642.51
215.815	1624.9
216.28	1741.6
216.745	1403.14
217.21	1521.39
217.675	1349.43
218.14	1499.41
218.604	1607.48
219.069	1793.58
219.534	1873.5
219.998	2119.65
220.463	2512.09
220.927	2982.74
221.392	2761.8
221.856	2782.9
222.32	3400.88
222.785	4178.4
223.249	5157.11
223.713	5754.56
224.177	5721.96
224.642	7251.14
225.106	8925
225.57	9681.22
226.034	7209.69
226.497	10937.2
226.961	9873.4
227.425	11562.3
227.889	12755.82
228.353	12775.31
228.816	26261.86
229.28	25100.95
229.744	21074.43
230.207	12837.27
230.671	12645.71
231.134	20744.53
231.597	24004.94
232.061	23906.85
232.524	23230.9
232.987	15993.49
233.45	14373.19
233.914	12862.94
234.377	13095.6
234.84	11971.76
235.303	14051.92
235.766	15659.06
236.229	16145.23
236.691	10125.84
237.154	11368.92
237.617	8585.23
238.08	8782.65
238.542	10271.42
239.005	7367.13
239.468	7348.88
239.93	6952.41
240.393	6345.48
240.855	5586.87
241.317	5739.57
241.78	6985.82
242.242	7247.86
242.704	7848.62
243.166	6840.16
243.629	6259.32
244.091	7232.96
244.553	7927.65
245.015	8541.26
245.477	11036.08
245.939	16158.97
246.4	17178.69
246.862	16694.04
247.324	15748.63
247.786	17597.91
248.247	23110.53
248.709	23761.68
249.17	17760.07
249.632	16823.01
250.093	19573.4
250.555	16919.68
251.016	10346.01
251.477	9809.31
251.939	10617.34
252.4	11095.25
252.861	13165.33
253.322	12281.47
253.783	14595.73
254.244	18897.67
254.705	14851.27
255.166	13144.6
255.627	12933.69
256.088	18287.64
256.549	19459.95
257.009	16733.9
257.47	20394.5
257.931	16618.39
258.391	12455.44
258.852	12842.76
259.312	13474.61
259.773	16636.76
260.233	14123.63
260.694	11950.31
261.154	13535.42
261.614	10911.66
262.074	9739.86
262.534	10128.62
262.994	9560.04
263.455	12706.99
263.915	10715.62
264.374	10083.12
264.834	11005.33
265.294	12159.5
265.754	12569.92
266.214	11890.95
266.673	11095.04
267.133	14009.04
267.593	13850.24
268.052	16966.86
268.512	14726.91
268.971	17838.86
269.431	19587.5
269.89	17540.84
270.349	26347.04
270.809	29422.84
271.268	26471.36
271.727	59387.2
272.186	38485.83
272.645	28905.65
273.104	20791.87
273.563	30123.76
274.022	23588.6
274.481	20107.91
274.94	15503.35
275.399	11496.4
275.857	13370.35
276.316	18064.44
276.775	16069.99
277.233	15848.87
277.692	14887.1
278.15	16904.61
278.609	17437.61
279.067	16155.1
279.525	15028.78
279.984	19446.24
280.442	23373.04
280.9	23159.86
281.358	15267.02
281.816	14289.82
282.274	13991.82
282.732	14411.91
283.19	14471.11
283.648	12515.48
284.106	13342.18
284.564	13548.77
285.021	12581.85
285.479	9397.05
285.937	8515.56
286.394	7487.42
286.852	7694.48
287.309	8109.18
287.767	7896.95
288.224	7532.36
288.682	8266.77
289.139	9117.95
289.596	8373.32
290.053	8705.82
290.511	10997.12
290.968	13373.36
291.425	18182.17
291.882	15239.76
292.339	13275.41
292.796	13148.45
293.252	12392.52
293.709	9900.99
294.166	8868.52
294.623	9816.95
295.079	9428.28
295.536	9509.64
295.992	8653.31
296.449	8580.49
296.905	8875.68
297.362	8540.4
297.818	8976.9
298.274	9339.86
298.731	9497.7
299.187	9408.67
299.643	10107.33
300.099	12239.91
300.555	13406.05
301.011	11204
301.467	10836.99
301.923	12694.34
302.379	12418.96
302.835	12226.94
303.291	12247.94
303.746	13961.03
304.202	17661.2
304.658	17704.63
305.113	11914.39
305.569	11701.74
306.024	12473.86
306.479	11836.59
306.935	10035
307.39	10926.68
307.845	10109.54
308.301	10192.98
308.756	9916.39
309.211	9585.02
309.666	9839.49
310.121	12278.17
310.576	12442.29
311.031	12358.89
311.486	14135.42
311.94	14097.06
312.395	18933.15
312.85	35628.45
313.305	174441.55
313.759	908887.71
314.214	65845.6
314.668	52340.63
315.123	44070.44
315.577	15881.04
316.032	14192.36
316.486	17799.33
316.94	14102.14
317.394	9845.13
317.849	7647.86
318.303	7257.58
318.757	6861.33
319.211	7590.62
319.665	6635.91
320.119	6722.04
320.572	9633.1
321.026	8998.58
321.48	7510.2
321.934	8158.73
322.387	8159.79
322.841	8833.84
323.295	7990.57
323.748	9179.86
324.202	9324.87
324.655	11246.92
325.108	15786.05
325.562	11169.76
326.015	13263.46
326.468	10036.21
326.921	11239.62
327.374	10501.18
327.827	10968.03
328.28	12421.25
328.733	8344.67
329.186	7338.61
329.639	7001.14
330.092	5891.94
330.545	5617.01
330.997	5689.51
331.45	6241.62
331.903	7345.54
332.355	12625.91
332.808	12244.32
333.26	10095.7
333.713	10958.17
334.165	11046.15
334.617	14728.29
335.069	11814.82
335.522	21410.97
335.974	23735.7
336.426	21653.57
336.878	14969.69
337.33	7614.09
337.782	7455.58
338.234	9358.17
338.686	11200.62
339.137	13268.26
339.589	12522.15
340.041	9874.33
340.493	8481.96
340.944	8672.98
341.396	9356.01
341.847	7924.34
342.299	9402.25
342.75	11520.54
343.201	10056.55
343.653	11569.16
344.104	14212.51
344.555	11186.57
345.006	17371.83
345.457	13365.18
345.908	10615.9
346.359	10037.1
346.81	8157.3
347.261	8549.32
347.712	8397.54
348.163	8979.95
348.613	9156.06
349.064	8590.52
349.515	7521.28
349.965	7743.67
350.416	9329.34
350.866	10258.58
351.317	11557.29
351.767	19162.4
352.217	24331.04
352.668	20251.07
353.118	18624.05
353.568	17855.7
354.018	14162.53
354.468	15019.13
354.918	10765.64
355.368	9421.89
355.818	13299.81
356.268	38221.54
356.718	160565.23
357.168	40017.58
357.617	20010.64
358.067	22319.35
358.517	21001.72
358.966	24605.61
359.416	27650.07
359.865	29948.29
360.315	35721.27
360.764	16719.55
361.213	9425.02
361.663	8900.18
362.112	10987.83
362.561	17891.93
363.01	13497.28
363.459	11364.59
363.908	12298.76
364.357	10488.54
364.806	17742.38
365.255	12226.65
365.703	11258.17
366.152	11259.94
366.601	9150.84
367.05	7450.63
367.498	6765.55
367.947	7055.83
368.395	7328.28
368.844	6498.47
369.292	7774.07
369.74	5386.36
370.189	8233.31
370.637	9645.96
371.085	8335.92
371.533	10160.12
371.981	9760.54
372.429	9332.19
372.877	9763.39
373.325	8205.07
373.773	8351.62
374.221	7444.75
374.669	9223.52
375.116	7974.59
375.564	8027.92
376.012	8966.59
376.459	7388.08
376.907	8838.81
377.354	10664.91
377.801	9962.75
378.249	11485.94
378.696	14717.27
379.143	17853.31
379.591	19050.81
380.038	32328.04
380.485	23439.6
380.932	25359.29
381.379	23399.94
381.826	17337.76
382.273	12331.81
382.72	10762.61
383.166	10489.37
383.613	6829.99
384.06	6164.33
384.506	7139.85
384.953	5236.34
385.4	5264.68
385.846	4612.45
386.292	4462.14
386.739	4350.05
387.185	4291.35
387.631	4294.07
388.078	4181.33
388.524	4454.11
388.97	4115.06
389.416	3436.33
389.862	3664.21
390.308	3474.12
390.754	3539.07
391.2	3850.32
391.645	3927.34
392.091	3792.85
392.537	3678.15
392.983	3665.17
393.428	3630.31
393.874	3895.71
394.319	3924.99
394.765	3724.39
395.21	3827.57
395.655	3584.81
396.101	3361.24
396.546	3051.65
396.991	3058.71
397.436	2840.98
397.881	2753.24
398.326	2596.57
398.771	2466.4
399.216	2157.66
399.661	1943.97
400.106	1951.24
400.551	2011.52
400.995	1806.14
401.44	1788.51
401.885	1683.6
402.329	1702.03
402.774	1634.31
403.218	1599.37
403.663	1541.91
404.107	1587.24
404.551	1608.22
404.995	1467.31
405.44	1408.31
405.884	1430.79
406.328	1381.79
406.772	1381.26
407.216	1260.58
407.66	1218.68
408.104	1148.01
408.547	1077.3
408.991	1047.53
409.435	1006.22
409.879	998.74
410.322	992.63
410.766	962.92
411.209	923.54
411.653	888.42
412.096	876.45
412.54	879
412.983	879.08
413.426	883.26
413.869	879.16
414.312	867.02
414.756	836
415.199	795.77
415.642	774.53
416.085	775.16
416.527	769.69
416.97	781.51
417.413	744.21
417.856	735.35
418.298	727.19
418.741	722.13
419.184	717.48
419.626	746.76
420.069	748.65
420.511	754.69
420.953	739.06
421.396	736.2
421.838	713.29
422.28	730.27
422.722	736.51
423.164	746.97
423.606	736.24
424.048	735.42
424.49	699.21
424.932	695.28
425.374	682.47
425.816	694.79
426.258	706.61
426.699	719.06
427.141	708.86
427.582	716.8
428.024	712.7
428.465	707.37
428.907	690.3
429.348	683.66
429.789	684.7
430.231	673.28
430.672	681.5
431.113	665.69
431.554	654.6
431.995	636.23
432.436	616.23
432.877	602.8
433.318	594.57
433.759	589.12
434.2	585.46
434.64	576.93
435.081	578.22
435.522	547.53
435.962	523.47
436.403	514.09
436.843	518.8
437.284	505.33
437.724	490.96
438.164	487.77
438.604	476.58
439.045	462.23
439.485	444.27
439.925	433.62
440.365	422.55
440.805	420.17
441.245	414.02
441.685	400.46
442.125	396.58
442.564	397.93
443.004	391.27
443.444	391.71
443.883	390.1
444.323	384.46
444.762	380.93
445.202	385.36
445.641	391.69
446.081	385.87
446.52	387.8
446.959	383.88
447.398	375.25
447.837	368.56
448.276	360.28
448.716	363.42
449.154	365.36
449.593	358.69
450.032	356.64
450.471	348.59
450.91	347.86
451.349	347.56
451.787	345.72
452.226	350.02
452.664	350.47
453.103	351.71
453.541	350.48
453.98	353.36
454.418	355.48
454.856	351.84
455.295	350.84
455.733	355.21
456.171	356.53
456.609	355.1
457.047	355.99
457.485	361.66
457.923	362.68
458.361	356.98
458.798	355.4
459.236	353.46
459.674	353.26
460.111	355.09
460.549	350.82
460.987	348.31
461.424	347.33
461.862	343.61
462.299	338.07
462.736	337.69
463.173	338.72
463.611	337.85
464.048	339.1
464.485	341.57
464.922	336.78
465.359	334.81
465.796	338.4
466.233	337.06
466.67	335.99
467.106	336.02
467.543	331.33
467.98	326.86
468.416	316.07
468.853	311.26
469.29	301.97
469.726	298.75
470.162	290.43
470.599	279.42
471.035	276.15
471.471	269.37
471.907	265.25
472.344	263.98
472.78	264.84
473.216	267.84
473.652	264.49
474.088	263.44
474.523	263.64
474.959	266.29
475.395	264.93
475.831	264.22
476.266	265.49
476.702	265.62
477.138	262.96
477.573	261.89
478.008	261.88
478.444	264.65
478.879	268.24
479.314	269.85
479.75	270.12
480.185	270.74
480.62	273.04
481.055	274.43
481.49	277.23
481.925	281.04
482.36	287.93
482.795	294.72
483.229	301.49
483.664	308.1
484.099	308.85
484.534	313.6
484.968	317.5
485.403	317.87
485.837	316.99
486.271	315.33
486.706	316.04
487.14	310.87
487.574	306.83
488.009	304.48
488.443	301.43
488.877	305.12
489.311	305.6
489.745	309.19
490.179	312.56
490.613	320.54
491.046	322.92
491.48	325.26
491.914	326.25
492.348	328.71
492.781	331.23
493.215	332.14
493.648	332.97
494.082	337.23
494.515	338.85
494.948	344.03
495.382	344.93
495.815	348.82
496.248	352.28
496.681	359.37
497.114	365.98
497.547	373.02
497.98	382.19
498.413	387.56
498.846	393.62
499.279	398.69
499.711	401
500.144	404.04
500.577	412.07
501.009	419.93
501.442	427.62
501.874	430.69
502.306	432.25
502.739	440.56
503.171	449.96
503.603	453.74
504.036	460.21
504.468	465.93
504.9	474.85
505.332	480.28
505.764	484.95
506.196	491.24
506.627	501.86
507.059	513.05
507.491	517.17
507.923	518.84
508.354	530.41
508.786	539.85
509.217	553.24
509.649	564.68
510.08	579.05
510.512	592.43
510.943	603.96
511.374	613.72
511.805	627.87
512.237	643.36
512.668	665.86
513.099	684.26
513.53	703.15
513.961	718.5
514.391	740.21
514.822	763.15
515.253	787.57
515.684	805.97
516.114	826.54
516.545	844.23
516.975	861.91
517.406	874.68
517.836	879.17
518.267	886.41
518.697	901.83
519.127	907.19
519.558	913.45
519.988	918.41
520.418	927.91
520.848	941.73
521.278	948.5
521.708	987.29
522.138	999.31
522.567	1021.26
522.997	1039.13
523.427	1049.75
523.857	1063.93
524.286	1073.63
524.716	1086.14
525.145	1100.29
525.575	1109.6
526.004	1120.88
526.433	1093.82
526.863	1095.19
527.292	1091.18
527.721	1097.79
528.15	1104.07
528.579	1105.61
529.008	1114.32
529.437	1129.33
529.866	1139.13
530.295	1151.26
530.724	1160.68
531.152	1180.96
531.581	1191.18
532.01	1202.69
532.438	1208.77
532.867	1218.23
533.295	1231.73
533.723	1235.83
534.152	1235.67
534.58	1236.08
535.008	1225.85
535.436	1227.8
535.865	1232.61
536.293	1241.67
536.721	1253.1
537.149	1269.88
537.576	1273.23
538.004	1281.9
538.432	1286.6
538.86	1285.29
539.287	1289.67
539.715	1298.53
540.143	1299.14
540.57	1296.15
540.998	1293.54
541.425	1278.98
541.852	1264.45
542.28	1263.14
542.707	1250.6
543.134	1242.18
543.561	1239.32
543.988	1234.79
544.415	1235.25
544.842	1232.33
545.269	1227.99
545.696	1229.68
546.123	1239.44
546.549	1232.97
546.976	1222.72
547.403	1223.86
547.829	1224.38
548.256	1225.96
548.682	1224.45
549.108	1219.95
549.535	1219.16
549.961	1220.68
550.387	1213.13
550.813	1209.03
551.24	1213.1
551.666	1215.11
552.092	1207.99
552.518	1204.51
552.943	1202.19
553.369	1207.1
553.795	1210.51
554.221	1211.97
554.646	1210.5
555.072	1217.21
555.498	1219.57
555.923	1226.37
556.349	1236.44
556.774	1243.12
557.199	1243.81
557.625	1246.33
558.05	1242.37
558.475	1249.39
558.9	1249.15
559.325	1242.99
559.75	1239.46
560.175	1234.81
560.6	1230.06
561.025	1227.75
561.449	1227.81
561.874	1230.7
562.299	1233.61
562.723	1237.11
563.148	1229.23
563.572	1231.19
563.997	1237.66
564.421	1239.36
564.846	1238.29
565.27	1239.97
565.694	1237.81
566.118	1245.02
566.542	1249.72
566.966	1244.71
567.39	1240.76
567.814	1233.27
568.238	1231.46
568.662	1232.5
569.086	1232.98
569.509	1236.66
569.933	1225.52
570.357	1219.09
570.78	1202.91
571.204	1194.2
571.627	1184.47
572.05	1181.42
572.474	1178.77
572.897	1168.81
573.32	1162.83
573.743	1154.93
574.166	1142.52
574.589	1141.28
575.012	1135.48
575.435	1134.28
575.858	1125.54
576.281	1117.42
576.704	1106.3
577.126	1098.03
577.549	1090.07
577.972	1083.45
578.394	1076.57
578.817	1072.99
579.239	1059.89
579.661	1051.24
580.084	1041.48
580.506	1033.01
580.928	1030.67
581.35	1023.45
581.772	1020.36
582.194	1011.31
582.616	1001.96
583.038	992.24
583.46	983.71
583.882	982.29
584.303	983.66
584.725	979.43
585.147	983.09
585.568	989.46
585.99	998.19
586.411	1001.95
586.833	1011.87
587.254	1012.74
587.675	1019.88
588.096	1026.85
588.518	1021.73
588.939	1010.8
589.36	1008.28
589.781	997.47
590.202	980.04
590.623	972.76
591.043	970.25
591.464	961.04
591.885	958.93
592.305	955.5
592.726	945.81
593.147	946.98
593.567	943.4
593.987	937.85
594.408	934.49
594.828	930.44
595.248	926.5
595.669	915.83
596.089	911.32
596.509	905.93
596.929	896.81
597.349	898.17
597.769	890.59
598.189	885.94
598.608	886.95
599.028	886.95
599.448	887.38
599.867	878.73
600.287	874.12
600.706	871.67
601.126	865.65
601.545	864.67
601.965	862.36
602.384	858.26
602.803	859.06
603.222	856.23
603.641	852.9
604.061	850.02
604.48	846.76
604.898	852.21
605.317	854.32
605.736	855.2
606.155	853.63
606.574	847.28
606.992	850.56
607.411	847.74
607.829	841.26
608.248	837.54
608.666	835.34
609.085	834.8
609.503	827.81
609.921	823.11
610.339	823.64
610.758	821.57
611.176	818.84
611.594	812.72
612.012	809.93
612.43	812.31
612.847	815.9
613.265	817
613.683	818.75
614.101	819.8
614.518	815.94
614.936	809.32
615.353	801.22
615.771	798.52
616.188	797.72
616.606	794.33
617.023	788.56
617.44	779.56
617.857	773.39
618.274	767.62
618.691	763.32
619.108	757.89
619.525	752.82
619.942	755.2
620.359	756.13
620.776	752.43
621.192	750.4
621.609	748.42
622.026	751.98
622.442	755.2
622.859	756.54
623.275	751.15
623.691	754.15
624.108	762.2
624.524	771.23
624.94	770.15
625.356	776.15
625.772	782.89
626.188	788.82
626.604	788.79
627.02	786.38
627.436	785.25
627.852	789.7
628.268	797.03
628.683	789.74
629.099	783.63
629.514	780.79
629.93	782.97
630.345	785.93
630.761	783.25
631.176	784.2
631.591	781.08
632.007	776.52
632.422	774.63
632.837	766.24
633.252	764.31
633.667	757.54
634.082	750.76
634.497	741.5
634.911	728.54
635.326	724.96
635.741	714.45
636.155	706.24
636.57	706.65
636.984	704.59
637.399	705.04
637.813	702.51
638.228	699.25
638.642	700.01
639.056	692.27
639.47	690.44
639.884	683.8
640.298	677.73
640.712	674.67
641.126	664.43
641.54	655.44
641.954	647.93
642.368	639.46
642.781	634.22
643.195	621.48
643.609	619.52
644.022	613.19
644.436	608.15
644.849	599.14
645.262	589.82
645.676	587.84
646.089	584.98
646.502	576.49
646.915	571.5
647.328	560.57
647.741	559.32
648.154	551.6
648.567	550.79
648.98	543.16
649.393	542.47
649.805	540.41
650.218	536.76
650.631	528.12
651.043	524.41
651.456	521.46
651.868	520.23
652.28	527.53
652.693	533.38
653.105	535.83
653.517	541.15
653.929	540.64
654.341	543.83
654.753	537.47
655.165	540.02
655.577	538.67
655.989	535.29
656.401	530.36
656.813	512.45
657.224	501.07
657.636	483.85
658.047	475.1
658.459	464.91
658.87	458.45
659.282	450.18
659.693	439.88
660.104	431.58
660.515	422.73
660.926	419.46
661.338	415.52
661.749	410.9
662.159	406.11
662.57	400.98
662.981	397.85
663.392	393.05
663.803	394.2
664.213	390.73
664.624	386.72
665.035	388.18
665.445	381.37
665.855	378.99
666.266	375.64
666.676	374.64
667.086	369.78
667.497	368.43
667.907	365.32
668.317	359.89
668.727	361.3
669.137	360.32
669.547	358.74
669.956	360.65
670.366	360.79
670.776	361.5
671.186	363.07
671.595	364.94
672.005	366.79
672.414	367.93
672.824	369.04
673.233	368.77
673.642	371.67
674.052	375.39
674.461	377.95
674.87	380.81
675.279	381.78
675.688	382.7
676.097	385.44
676.506	385.81
676.915	393.72
677.323	396.82
677.732	397.19
678.141	397.68
678.549	391.78
678.958	391.15
679.366	391.78
679.775	393.7
680.183	402.31
680.592	405.49
681	409.48
681.408	406.97
681.816	412.23
682.224	417.84
682.632	426.35
683.04	445.01
683.448	461.56
683.856	480.98
684.264	503.48
684.671	521.31
685.079	545.79
685.487	572.5
685.894	609.86
686.302	638.96
686.709	665.38
687.116	696.02
687.524	720.97
687.931	743.25
688.338	764.4
688.745	781.92
689.152	804.06
689.559	833.43
689.966	863.03
690.373	878.54
690.78	907.1
691.187	948.03
691.593	980.17
692	1008.29
692.407	1048.91
692.813	1100.18
693.22	1141.37
693.626	1181.94
694.032	1216.86
694.439	1266.54
694.845	1307.85
695.251	1359.08
695.657	1404.23
696.063	1471.08
696.469	1523.18
696.875	1571.59
697.281	1598.66
697.687	1633.87
698.093	1665.27
698.498	1716.25
698.904	1757.57
699.31	1820.61
699.715	1867.7
700.12	1932.05
700.526	1947.87
700.931	1999.16
701.337	2039.16
701.742	2067.08
702.147	2126.29
702.552	2149.49
702.957	2195.76
703.362	2214.39
703.767	2235.15
704.172	2264.73
704.577	2237.8
704.981	2272.59
705.386	2286.9
705.791	2282.7
706.195	2334.45
706.6	2343.28
707.004	2397.56
707.408	2378.03
707.813	2398.82
708.217	2392.86
708.621	2394.95
709.025	2462.56
709.43	2466.5
709.834	2509.2
710.237	2560.23
710.641	2551
711.045	2568.43
711.449	2569.17
711.853	2593.22
712.256	2622.47
712.66	2650.7
713.064	2703.36
713.467	2734.99
713.87	2811.56
714.274	2844.18
714.677	2920.08
715.08	3033.79
715.484	3149.73
715.887	3291.81
716.29	3426
716.693	3571.39
717.096	3735.66
717.499	3827.45
717.901	3844.56
718.304	3865.22
718.707	3879.97
719.109	3809.25
719.512	3786.21
719.915	3695.17
720.317	3653.67
720.719	3686.71
721.122	3664.68
721.524	3630.25
721.926	3604.31
722.328	3670.99
722.731	3663.41
723.133	3684.34
723.535	3819.27
723.937	3833.88
724.338	3868.18
724.74	3900.73
725.142	3885.83
725.544	3888.43
725.945	3915.69
726.347	3909.08
726.748	3905.85
727.15	3916.66
727.551	3893.49
727.952	3873.32
728.354	3853.51
728.755	3855.54
729.156	3824.12
729.557	3786.27
729.958	3699.25
730.359	3655.05
730.76	3645.47
731.161	3605.19
731.562	3585.12
731.962	3585.64
732.363	3541.73
732.763	3497.25
733.164	3521.49
733.564	3474.08
733.965	3410.08
734.365	3386.19
734.766	3405.83
735.166	3378.54
735.566	3340.05
735.966	3324.35
736.366	3319.02
736.766	3276.32
737.166	3298.58
737.566	3271.05
737.966	3254.74
738.365	3281.02
738.765	3279.77
739.165	3227.79
739.564	3209.53
739.964	3241
740.363	3210.36
740.763	3210.51
741.162	3204.51
741.561	3182.96
741.96	3152.34
742.36	3165.56
742.759	3167.63
743.158	3192.99
743.557	3203.55
743.955	3230.31
744.354	3201.05
744.753	3238.45
745.152	3210.78
745.55	3246.88
745.949	3243.18
746.348	3243.94
746.746	3255.46
747.144	3231.95
747.543	3214.35
747.941	3245.36
748.339	3196.34
748.737	3191.32
749.136	3188.02
749.534	3230.84
749.932	3210.17
750.33	3224.15
750.727	3261.42
751.125	3244.61
751.523	3230.64
751.921	3263.61
752.318	3241.24
752.716	3282.12
753.113	3288.41
753.511	3303.67
753.908	3302.29
754.305	3293.65
754.703	3336.29
755.1	3375.97
755.497	3418.18
755.894	3546.85
756.291	3666.91
756.688	3891.37
757.085	4190.36
757.482	4606.6
757.878	5064.81
758.275	5482.68
758.672	6049.73
759.068	6512.79
759.465	7175.89
759.861	8026.37
760.258	9019.6
760.654	9526.15
761.05	9450.9
761.447	9018.36
761.843	8402.86
762.239	7760.79
762.635	7466.6
763.031	7185.38
763.427	6783.83
763.822	6361.67
764.218	5944.8
764.614	5400.43
765.01	5036.76
765.405	4803.67
765.801	4628.65
766.196	4404.56
766.592	4278.12
766.987	4065.38
767.382	3922.63
767.778	3862.26
768.173	3773.51
768.568	3726.43
768.963	3644.42
769.358	3657.16
769.753	3626.12
770.148	3568.55
770.542	3568.51
770.937	3546.16
771.332	3605.08
771.726	3616.13
772.121	3577.32
772.515	3615.1
772.91	3602.09
773.304	3649.39
773.699	3607.26
774.093	3642.94
774.487	3677.44
774.881	3704.5
775.275	3701.8
775.669	3675.76
776.063	3707.54
776.457	3729.87
776.851	3677.25
777.245	3674.17
777.638	3695.14
778.032	3773.37
778.425	3747.16
778.819	3778.12
779.212	3749.62
779.606	3724.35
779.999	3736.45
780.392	3723.26
780.786	3776.9
781.179	3790.55
781.572	3819.56
781.965	3831.06
782.358	3790.82
782.751	3827.38
783.143	3792.94
783.536	3841.56
783.929	3868.71
784.322	3947.58
784.714	3968.57
785.107	3965.39
785.499	4015.79
785.891	4001.94
786.284	3988.39
786.676	4084.59
787.068	4076.2
787.46	4112.05
787.852	4125.26
788.245	4184.56
788.636	4204.02
789.028	4252.46
789.42	4281.52
789.812	4288.56
790.204	4350.86
790.595	4416.98
790.987	4286.03
791.378	4301.29
791.77	4389.5
792.161	4480.88
792.553	4517.75
792.944	4442.01
793.335	4395.28
793.726	4445.69
794.117	4511.32
794.508	4606.92
794.899	4586.61
795.29	4683.51
795.681	4720.25
796.072	4626.88
796.463	4516.22
796.853	4526.03
797.244	4637.28
797.634	4662.43
798.025	4659.23
798.415	4664.84
798.806	4726.75
799.196	4787.51
799.586	4822.9
799.976	4799.2
800.366	4953.39
800.756	5102.02
801.146	5073.78
801.536	5091.14
801.926	5140.66
802.316	5160.63
802.706	5208.7
803.095	5123.47
803.485	5194.07
803.874	5221.36
804.264	5398.56
804.653	5383.13
805.043	5488.03
805.432	5560.83
805.821	5567.05
806.21	5582.36
806.599	5666.69
806.988	5698.31
807.377	5769.3
807.766	5854.99
808.155	6048.07
808.544	5869.52
808.933	5880.53
809.321	5862.87
809.71	6070.86
810.098	6176.17
810.487	6490.03
810.875	6814.66
811.264	6832.62
811.652	7036.97
812.04	7141.35
812.428	7256.39
812.816	7781.71
813.204	8068.05
813.592	8444.28
813.98	8667.45
814.368	8607.2
814.756	8935.63
815.144	8878.15
815.531	9195.47
815.919	9143.12
816.306	9345.43
816.694	9127.32
817.081	9155.85
817.469	9391.13
817.856	9388.83
818.243	9569.02
818.63	9834.26
819.017	9554.19
819.404	9600.85
819.791	9857.92
820.178	10278.88
820.565	10455.21
820.952	11097.74
821.339	10762.2
821.725	10890.08
822.112	10388.13
822.498	10363.23
822.885	10446.13
823.271	10374.65
823.657	10657.05
824.044	10663.75
824.43	10710.41
824.816	10691.51
825.202	10391.56
825.588	11087.57
825.974	11102.71
826.36	11454.47
826.746	11475.59
827.132	11727.52
827.517	11713.65
827.903	11178.81
828.289	11212.1
828.674	10679.52
829.06	10603.26
829.445	10873.06
829.83	11117.49
830.216	11437.83
830.601	11680.35
830.986	11411.78
831.371	11314.68
831.756	11696.72
832.141	11404.51
832.526	11393.65
832.911	11586.28
833.295	11503.9
833.68	11824.88
834.065	11398.9
834.449	10777.25
834.834	10731
835.218	10722.93
835.603	10957.2
835.987	10801.82
836.371	11361.75
836.755	11284.99
837.139	11556.57
837.524	11718.88
837.908	11589.87
838.291	11632.28
838.675	11669.33
839.059	11807.65
839.443	11791.56
839.827	11626.52
840.21	11950.3
840.594	11852.78
840.977	11993.86
841.361	11973.21
841.744	12223.59
842.127	12109.41
842.511	12262.1
842.894	12667.74
843.277	12923.95
843.66	13284.92
844.043	13337.56
844.426	12798.66
844.809	12580.29
845.191	12604.81
845.574	12290.33
845.957	12042.33
846.339	11971.53
846.722	11619.64
847.104	11656.51
847.487	11534.24
847.869	11544.76
848.252	11731.62
848.634	11948.61
849.016	12134.8
849.398	12209.05
849.78	12783.37
850.162	12782.77
850.544	13055.37
850.926	13483.41
851.307	13428.52
851.689	13615.24
852.071	13917.48
852.452	14131.31
852.834	14116.79
853.215	14375.08
853.597	14478.44
853.978	14674.77
854.359	14987.83
854.741	14331.83
855.122	14260.76
855.503	14069.28
855.884	14161.9
856.265	14126.88
856.646	14208.47
857.026	13944.62
857.407	13906.49
857.788	14015.37
858.169	14215.05
858.549	13644.66
858.93	14061.45
859.31	14094.04
859.69	14231.1
860.071	13954.79
860.451	13806.57
860.831	13305.39
861.211	14087.6
861.591	14454.72
861.971	14442.09
862.351	14577.43
862.731	14836.73
863.111	15020.58
863.491	15252.78
863.87	15852.78
864.25	16090.04
864.629	15832.09
865.009	16186.76
865.388	16769.53
865.768	17973.8
866.147	17907.49
866.526	16910.97
866.905	17119.21
867.284	18067.46
867.663	17147.42
868.042	16428.48
868.421	16381.53
868.8	16644.77
869.179	16810.06
869.558	15830.74
869.936	14595.22
870.315	14848.61
870.693	15215.55
871.072	16408.27
871.45	15640.77
871.828	15850.06
872.207	16666.05
872.585	16419.24
872.963	16863.68
873.341	16290.84
873.719	16097.98
874.097	15908.44
874.475	16209.46
874.853	16577.92
875.23	15891.54
875.608	16563.33
875.986	17905.62
876.363	17129.17
876.741	17651.51
877.118	17226.12
877.495	18070.26
877.873	18374.59
878.25	19320.8
878.627	18532.09
879.004	18787.28
879.381	18693.88
879.758	18203.46
880.135	16953.35
880.512	17929.17
880.889	17444.94
881.265	17254.64
881.642	17106.41
882.019	17389.28
882.395	17048.52
882.772	17734.08
883.148	16959.13
883.524	16888.52
883.901	16795.22
884.277	17043.02
884.653	16925.27
885.029	17417.81
885.405	19291.95
885.781	19140.87
886.157	18344.95
886.532	18573.28
886.908	18542.97
887.284	20618.84
887.659	21294.84
888.035	21946.76
888.411	22512.24
888.786	22820.43
889.161	23608.81
889.537	23169.07
889.912	23906.95
890.287	23896.43
890.662	24489.56
891.037	24062.24
891.412	22443.73
891.787	22205.79
892.162	21420.63
892.536	21917.92
892.911	21082.59
893.286	20628.36
893.66	19782.44
894.035	20288.29
894.409	22068.53
894.784	21172.96
895.158	21500.76
895.532	22767.44
895.906	23386.99
896.281	23934.44
896.655	23552.52
897.029	26907.75
897.402	28020.33
897.776	31190.22
898.15	31069.22
898.524	30746.16
898.898	31163.61
899.271	34923.16
899.645	30247.42
900.018	29046.34
900.392	30129.58
900.765	30360.34
901.138	28112.17
901.511	27693.61
901.884	25449.23
902.258	23481.26
902.631	24268.66
903.003	27934.61
903.376	25209.27
903.749	28267.39
904.122	30277.15
904.495	33339.61
904.867	33774.54
905.24	29323.53
905.612	27297.8
905.985	27886.26
906.357	29163.33
906.729	27848.05
907.102	23794.15
907.474	22907.28
907.846	23077.21
908.218	22787.49
908.59	20164.9
908.962	19517.5
909.334	21024.21
909.705	22110.59
910.077	21496.33
910.449	22386.71
910.82	23027.31
911.192	25355.36
911.563	26335.99
911.935	28180.86
912.306	28215.23
912.677	29111.64
913.048	28824.79
913.419	31279.89
913.79	31466.96
914.161	33745.08
914.532	32274.54
914.903	29682.11
915.274	28194.9
915.645	27786.02
916.015	24449.74
916.386	23321.26
916.756	24844.26
917.127	25636.55
917.497	22907.28
917.868	24934.67
918.238	23701.56
918.608	24380.27
918.978	24869.45
919.348	26348.08
919.718	27238.25
920.088	26256.48
920.458	27292.71
920.828	28720.63
921.198	27238.31
921.567	29120.32
921.937	22560.95
922.306	22778.27
922.676	24573.24
923.045	20510.14
923.415	19490.18
923.784	17746.09
924.153	18241.77
924.522	18218.47
924.891	17115.82
925.26	18330.8
925.629	17885.68
925.998	20543.41
926.367	20054.84
926.736	19108.16
927.104	22770.79
927.473	24476.57
927.842	29551.48
928.21	29274.72
928.578	30767.08
928.947	29120.08
929.315	29296.13
929.683	34404.96
930.051	34681.71
930.42	40295.37
930.788	34460.14
931.156	34204.39
931.523	32069.45
931.891	29654.4
932.259	28507.64
932.627	33083.94
932.994	46807.8
933.362	38712.72
933.729	33596.25
934.097	32164.6
934.464	27208.86
934.831	31362.57
935.199	30907.84
935.566	30000.85
935.933	30376.68
936.3	36776.68
936.667	28619.08
937.034	25875.93
937.401	25584.11
937.767	22084.53
938.134	19671.08
938.501	27756.67
938.867	29574.37
939.234	49979.87
939.6	42555.85
939.967	46903.49
940.333	31418.07
940.699	26720.19
941.065	21385.28
941.431	28052.61
941.798	27072.98
942.163	35535.36
942.529	22195.87
942.895	20460.29
943.261	13246.92
943.627	17385.5
943.992	15244.87
944.358	15253.28
944.723	15324.94
945.089	14928.35
945.454	13806.24
945.82	14741.13
946.185	14175.59
946.55	16435.06
946.915	14742.35
947.28	17297.55
947.645	15233.36
948.01	14073.71
948.375	14688.59
948.74	17610.02
949.104	20555.63
949.469	29656.47
949.834	52417.35
950.198	49795.55
950.562	29841.73
950.927	24879.87
951.291	29937.61
951.655	25501.32
952.02	23917.47
952.384	18067.66
952.748	15763.23
953.112	15395.78
953.476	13398.61
953.839	12388.17
954.203	12271.55
954.567	15353.4
954.931	24106.91
955.294	20643.34
955.658	20756.15
956.021	35347.4
956.385	59984.55
956.748	88412.83
957.111	136969.84
957.474	153723.05
957.837	173054.74
958.2	130647.02
958.563	47027.72
958.926	31884.36
959.289	48445.16
959.652	54225.43
960.015	40643.44
960.377	58377.29
960.74	66599.26
961.102	115007.45
961.465	123573.97
961.827	66510.73
962.189	127740.31
962.552	88529.06
962.914	70976.58
963.276	45995.42
963.638	38020.56
964	37711.62
964.362	25501.08
964.724	24663.73
965.085	17599.53
965.447	14413.45
965.809	16365.47
966.17	16365.68
966.532	17714.1
966.893	16262.39
967.255	14801.06
967.616	17462.44
967.977	13962.91
968.338	15240.74
968.699	12526.44
969.061	12513.32
969.421	12612.18
969.782	14156.76
970.143	11985.36
970.504	12443.85
970.865	14160.16
971.225	14491.51
971.586	14177.9
971.946	20247.46
972.307	17565.64
972.667	22928.82
973.027	23635.91
973.388	28638.21
973.748	19481.14
974.108	21234.14
974.468	28639.29
974.828	22095.02
975.188	16989.03
975.548	15627.32
975.907	13129.55
976.267	14718.5
976.627	12404.06
976.986	12847.42
977.346	12257.01
977.705	11782.87
978.064	10726.72
978.424	8944.54
978.783	9224.34
979.142	10536.59
979.501	10081.33
979.86	10643.51
980.219	10267.69
980.578	13241.29
980.937	14846
981.296	13226.44
981.654	13605.18
982.013	21126.58
982.371	27421.59
982.73	25654.9
983.088	29047.87
983.447	31047
983.805	44366.64
984.163	92790.55
984.521	102693.76
984.879	150413.12
985.237	-244955.8
985.595	236687.42
985.953	58904.6
986.311	33923.97
986.669	19671.13
987.026	16966.58
987.384	22746.67
987.741	23525.38
988.099	16846.56
988.456	13466.29
988.814	12599.63
989.171	10950.86
989.528	10787.31
989.885	11376.54
990.242	9020.93
990.599	11241.36
990.956	9197.94
991.313	6450.72
991.67	5298.14
992.027	5634.62
992.383	5008.89
992.74	4401.83
993.096	4625.31
993.453	4800.24
993.809	4987.23
994.165	6650.86
994.522	6122.54
994.878	6743.96
995.234	8476.5
995.59	8372.82
995.946	7888.31
996.302	8986.93
996.658	10392.22
997.013	11457.42
997.369	13608.4
997.725	17433.38
998.08	11299.39
998.436	17300.22
998.791	23947.07
999.147	23908.95
999.502	26043.93
999.857	18967.02
1000.212	30919.1
1000.567	44142.34
1000.922	25417
1001.277	16127.95
1001.632	11938.47
1001.987	15372.35
1002.342	11032.44
1002.696	8816.06
1003.051	7028.77
1003.406	8540.24
1003.76	8489.21
1004.114	8379.24
1004.469	7044.97
1004.823	5827.5
1005.177	6300.6
1005.531	5010.89
1005.885	4459.24
1006.239	5053.25
1006.593	6346.22
1006.947	8493.83
1007.301	6367.89
1007.655	6927.77
1008.008	5093.74
1008.362	5727.08
1008.715	8192.35
1009.069	7408.51
1009.422	11153.96
1009.776	22368.41
1010.129	14831.44
1010.482	12353.86
1010.835	10423.96
1011.188	21615.51
1011.541	20372.99
1011.894	-124814.33
1012.247	366152.64
1012.6	24919.2
1012.952	15840.98
1013.305	8161.41
1013.657	5884.64
1014.01	5593.06
1014.362	4620.44
1014.715	4138.02
1015.067	3612.56
1015.419	3535.22
1015.771	3137.8
1016.123	2798.53
1016.475	2869.11
1016.827	3037.77
1017.179	3277.36
1017.531	3300.22
1017.883	3352.58
1018.234	3249.43
1018.586	4078.2
1018.938	4360.19
1019.289	6032.68
1019.64	6866.56
1019.992	6371.1
1020.343	5819.08
1020.694	4601.53
1021.045	4039.85
1021.396	4591.09
1021.747	4957.78
1022.098	5905.2
1022.449	4292.7
1022.8	3961.36
1023.151	2759.04
1023.501	2437.23
1023.852	2644.85
1024.202	2774.84
1024.553	3040.83
1024.903	2997.99
1025.253	2589.48
1025.604	2328.62
1025.954	2895.6
1026.304	3526.74
1026.654	4098.88
1027.004	5998.87
1027.354	9779.49
1027.703	9258.64
1028.053	12052.52
1028.403	17626.24
1028.753	25061.49
1029.102	33429.55
1029.452	169230.73
1029.801	7221.35
1030.15	4620.64
1030.499	3871.08
897.758	2948.21
901.051	2917.01
904.343	2954.35
907.636	2948.93
910.928	3015.67
914.22	2922.35
917.511	2931.98
920.803	3005.56
924.094	3038.25
927.384	3002.42
930.675	2967.53
933.965	2914.9
937.255	2917.18
940.544	2885.93
943.834	2788.28
947.123	2738.1
950.411	2835.63
953.7	2803.93
956.988	2761.77
960.276	2703.88
963.563	2805.23
966.851	2790.35
970.138	2858.1
973.424	2841.89
976.711	2788.19
979.997	2972.46
983.283	3000.67
986.568	2890.07
989.853	2921.13
993.138	2950.33
996.423	3032.82
999.708	2956.04
1002.992	3044.49
1006.275	2832.4
1009.559	2904.68
1012.842	3031
1016.125	2950.27
1019.408	2927.29
1022.69	3034.71
1025.972	3045.7
1029.254	3015.91
1032.536	2928.75
1035.817	2965.15
1039.098	2887.71
1042.379	3088.89
1045.659	3065.72
1048.939	2985.71
1052.219	3014.57
1055.498	3037.14
1058.778	3011.3
1062.057	3000.4
1065.335	3017.58
1068.614	3044.48
1071.892	3012.49
1075.17	3104.18
1078.447	3081.99
1081.724	3071.99
1085.001	3115.81
1088.278	3087.67
1091.554	3103.57
1094.83	3102.08
1098.106	3124.72
1101.382	3177.49
1104.657	3176.28
1107.932	3173.8
1111.206	3132.12
1114.481	3090.86
1117.755	3094.36
1121.029	3067.27
1124.302	3115.12
1127.575	3054.8
1130.848	3038.01
1134.121	2991.03
1137.393	2932.89
1140.665	3007.36
1143.937	2978.21
1147.208	2942.5
1150.48	2970.15
1153.75	2953.63
1157.021	3002.98
1160.291	2966.08
1163.561	3010.32
1166.831	3010.29
1170.101	3048.69
1173.37	3032.4
1176.639	2964.71
1179.907	3036.3
1183.176	3030.88
1186.444	3047.3
1189.711	3075.32
1192.979	3077.04
1196.246	3040.65
1199.513	3057.55
1202.78	3053.09
1206.046	3060.88
1209.312	3085.95
1212.578	3117.7
1215.843	3058.23
1219.108	3038.15
1222.373	3058.99
1225.638	3018.68
1228.902	2999.69
1232.166	2971.27
1235.43	2949.72
1238.693	2973.48
1241.956	2973.56
1245.219	3007.22
1248.482	3006.28
1251.744	3000.64
1255.006	3167.44
1258.268	3124.19
1261.529	3060.93
1264.79	3071.47
1268.051	3177.92
1271.312	3198.13
1274.572	3156.31
1277.832	3146.11
1281.092	3140.76
1284.351	3100.45
1287.61	3072.98
1290.869	2972.31
1294.128	2937.48
1297.386	3054.11
1300.644	3039.68
1303.902	3052.65
1307.159	2905.51
1310.416	2959.58
1313.673	2981.86
1316.93	2962.53
1320.186	3018.69
1323.442	3069.22
1326.697	3053.12
1329.953	3056.59
1333.208	3068.99
1336.463	3053.84
1339.717	2977.98
1342.972	3123.42
1346.226	3108.2
1349.479	3030.38
1352.733	2994.17
1355.986	3027.71
1359.238	3001.9
1362.491	3002.8
1365.743	3009.24
1368.995	3007.12
1372.247	3024.26
1375.498	3051.77
1378.749	3060.73
1382	3019.67
1385.251	3081.56
1388.501	3049.73
1391.751	3024.03
1395	3004.02
1398.25	3040.08
1401.499	3038.73
1404.748	2953.91
1407.996	2932.45
1411.244	2916
1414.492	2890.31
1417.74	2865.55
1420.987	2885.14
1424.234	2940.11
1427.481	2929.85
1430.728	2985.71
1433.974	2962.41
1437.22	2984.72
1440.465	2990.37
1443.711	2948.78
1446.956	2991.76
1450.201	2989.9
1453.445	3033.05
1456.689	3004.3
1459.933	3018.39
1463.177	3047.32
1466.42	3019.82
1469.663	2994.33
1472.906	2975.85
1476.148	3083.25
1479.391	3009.58
1482.633	2987.35
1485.874	2990.23
1489.115	2966.57
1492.356	2979.36
1495.597	2952.09
1498.838	2959.12
1502.078	2914.57
1505.318	2852.88
1508.557	2901.13
1511.797	2846.87
1515.036	2959.52
1518.274	2948.59
1521.513	2929.92
1524.751	2956.46
1527.989	2965.16
1531.227	2972.45
1534.464	2953.8
1537.701	2989.94
1540.938	3012.23
1544.174	2967.3
1547.41	2970.68
1550.646	3010.56
1553.882	3034.47
1557.117	3086.23
1560.352	3103.03
1563.587	3056.07
1566.821	3011.02
1570.055	3060.3
1573.289	3022.61
1576.523	3107.36
1579.756	3108.69
1582.989	3129.01
1586.222	3086.91
1589.454	3129.93
1592.686	3098.15
1595.918	3121.16
1599.15	3104.08
1602.381	3197.94
1605.612	3135.39
1608.843	3234.46
1612.073	3142.33
1615.303	3122.02
1618.533	3106.78
1621.762	3117.53
1624.992	3110.19
1628.221	3084.3
1631.449	3070.2
1634.678	3144.61
1637.906	3091.85
1641.134	3137.02
1644.361	3086.11
1647.588	3074.94
1650.815	3088.74
1654.042	3075.61
1657.269	3105.75
1660.495	3050.83
1663.72	3044.88
1666.946	3015.88
1670.171	2937.94
1673.396	2914.97
1676.621	2908.23
1679.845	2945.14
1683.069	2976.37
1686.293	3030.05
1689.517	2987.39
1692.74	2900.59
1695.963	2930.84
1699.185	2977.3
1702.408	2942.19
1705.63	2995.33
1708.852	2999.6
1712.073	2975.12
1715.294	2944.63
1718.515	3013.04
1721.736	2950.21
1724.956	2957.32
1728.176	2986.59
1731.396	3009.19
1734.616	3000.71
1737.835	3023.83
1741.054	3004.59
1744.272	3003.54
1747.491	3025.17
1750.709	3097.14
1753.927	2975.31
1757.144	3035.32
1760.361	3065.93
1763.578	3070.59
1766.795	3004.18
1770.011	3021.03
1773.227	3074.09
1776.443	3106.35
1779.658	3151.64
1782.874	3099.18
1786.089	3066.75
1789.303	3071.25
1792.518	3080.65
1795.732	3071.58
1798.945	3074.99
1802.159	3132.17
1805.372	3010.42
1808.585	2987.75
1811.797	2992.63
1815.01	3056.34
1818.222	3056.81
1821.434	2992.28
1824.645	3069.29
1827.856	3039.34
1831.067	3075.13
1834.278	3050.5
1837.488	3036.52
1840.698	3204.29
1843.908	3118.19
1847.117	3077.22
1850.326	2933.85
1853.535	3058.4
1856.744	3127.83
1859.952	3029.29
1863.16	3030.02
1866.368	3057.51
1869.575	3156.8
1872.782	3043.87
1875.989	2986.65
1879.196	3094.71
1882.402	3088.79
1885.608	3139.81
1888.814	3017.68
1892.019	2909.26
1895.224	2962.43
1898.429	2952.74
1901.634	2927.76
1904.838	2906.16
1908.042	2954.86
1911.246	2958.87
1914.449	2870.89
1917.652	2880.13
1920.855	2860.56
1924.058	2927.69
1927.26	2956.27
1930.462	2990.66
1933.664	3008.83
1936.865	2940.13
1940.066	2944.27
1943.267	2890.48
1946.467	2914.07
1949.668	2944.48
1952.868	3009.31
1956.067	2979.52
1959.267	2901.05
1962.466	2932.82
1965.665	2918.03
1968.863	2915.5
1972.061	2941.63
1975.259	2946.28
1978.457	3027.96
1981.654	2980.86
1984.852	2981.02
1988.048	2900.68
1991.245	2912.87
1994.441	3000.9
1997.637	3001.23
2000.833	2982.97
2004.028	3023.15
2007.223	3071.12
2010.418	3040.08
2013.613	3008.99
2016.807	2962.37
2020.001	2980.4
2023.194	3039.94
2026.388	3009.91
2029.581	2953.33
2032.774	2994.6
2035.966	2993.34
2039.158	2917.65
2042.35	2950.92
2045.542	2877.09
2048.733	2990.07
2051.924	3030.01
2055.115	3064.12
2058.306	2990.17
2061.496	3052.29
2064.686	3127.8
2067.875	3044.9
2071.065	3071.35
2074.254	3101.54
2077.442	3050.5
2080.631	3145.39
2083.819	3009.22
2087.007	2984.41
2090.195	2945.66
2093.382	2994.5
2096.569	2972.5
2099.756	2920.02
2102.942	2931.26
2106.128	2927.56
2109.314	2924.56
2112.5	2874.47
2115.685	2857.27
2118.87	2868.69
2122.055	2939.73
2125.239	2898.14
2128.424	2858.52
2131.608	2991.59
2134.791	2969.86
2137.974	3042.36
2141.157	3027.62
2144.34	2964.75
2147.523	2993.95
2150.705	2997.38
2153.887	2984.34
2157.068	2918.86
2160.25	2934.19
2163.431	2987.28
2166.611	2912.39
2169.792	2929.64
2172.972	2809.5
2176.152	2904
2179.331	2946.6
2182.511	2916.72
2185.69	2949.5
2188.868	2936.28
2192.047	3008.09
2195.225	2980.6
2198.403	2928.93
2201.58	2928.15
2204.758	2928.65
2207.935	3017.26
2211.111	2889.5
2214.288	2869.67
2217.464	2914.8
2220.64	2895.39
2223.815	2956.74
2226.991	2870.06
2230.166	2891.41
2233.34	2912.16
2236.515	2946.54
2239.689	3023.91
2242.863	2964.37
2246.036	3022.63
2249.209	3035.43
2252.382	3077.09
2255.555	3053.57
2258.727	2980.5
2261.9	3028.67
2265.071	3022.11
2268.243	3029.96
2271.414	2951.12
2274.585	2897.39
2277.756	2970.8
2280.926	2924.65
2284.096	2971.69
2287.266	2867.18
2290.436	2930.05
2293.605	2966.27
2296.774	2990.18
2299.942	3021.94
2303.111	3038.6
2306.279	3082.47
2309.447	3072.14
2312.614	3050.18
2315.781	3070.05
2318.948	3032.67
2322.115	3072.78
2325.281	2972.94
2328.447	3000.34
2331.613	2978.5
2334.779	2938.27
2337.944	2947.15
2341.109	2944.04
2344.274	2921.99
2347.438	2885.39
2350.602	2912.72
2353.766	2933.37
2356.929	2916.33
2360.092	2962.01
2363.255	2902.03
2366.418	2812.83
2369.58	2955.99
2372.742	2684.81
2375.904	2711.82
2379.066	2681.04
2382.227	2728.44
2385.388	2690.44
2388.548	2598.81
2391.709	2662.88
2394.869	2637.01
2398.029	2764.74
2401.188	2790.66
2404.347	2706.71
2407.506	2888.97
2410.665	2911.03
2413.823	2930.48
2416.981	2869.13
2420.139	2909.92
2423.296	2971.83
2426.453	2943.42
2429.61	2968.77
2432.767	2880.44
2435.923	2918.52
2439.079	2847.01
2442.235	2909.67
2445.391	2829.26
2448.546	2845.43
2451.701	2907.99
2454.855	2861.96
2458.009	2928.93
2461.163	2940.83
2464.317	2888.65
2467.471	2927.09
2470.624	2973.48
2473.777	2974
2476.929	2983.74
2480.082	3011.38
2483.234	2973.81
2486.385	2899.31
2489.537	2892.39
2492.688	2831.15
2495.839	2852.53
2498.989	2860.28
2502.14	2842.87
2505.29	2813.18
2508.439	2845.7
2511.589	2755.79
2514.738	2773.84
2517.887	2809.64
2521.035	2902.41
2524.183	2898.68
2527.331	2878.16
2530.479	2836.53
2533.627	2853.91
