Data from C_3_DEC_NC_4N_Splice17_13-06-09-943.txt Node
Date: Sat Mar 14 13:06:09 EDT 2020
User: sa697716
Spectrometer: FLMS03696
Trigger mode: 0
Integration Time (sec): 3.180400E-1
Scans to average: 20
Electric dark correction enabled: true
Nonlinearity correction enabled: true
Boxcar width: 5
XAxis mode: Wavelengths
Number of Pixels in Spectrum: 2048
>>>>>Begin Spectral Data<<<<<
187.83	-282323.91
188.298	2135.36
188.766	1206.71
189.233	1086.25
189.701	1475.59
190.169	2087.42
190.636	791.3
191.104	681.57
191.571	152.95
192.039	6.73
192.506	23.16
192.974	572.37
193.441	-806.97
193.908	-95.45
194.375	-1.56
194.842	43.33
195.31	114.27
195.777	156.63
196.244	388.12
196.711	452.76
197.177	552.48
197.644	784.81
198.111	1361.96
198.578	1901.81
199.045	1532.92
199.511	2496.6
199.978	2884.41
200.445	2482.25
200.911	2749.37
201.378	3061.83
201.844	2788.72
202.31	4818.15
202.777	4996.43
203.243	2767.18
203.709	2641.38
204.176	3130.26
204.642	2572.56
205.108	2424.49
205.574	1961.12
206.04	1800.49
206.506	1685.51
206.972	1592.99
207.438	1531.92
207.903	1732.86
208.369	1518.09
208.835	1521.88
209.301	1581.53
209.766	1628.31
210.232	1605.84
210.697	1989.51
211.163	2434.31
211.628	3638.29
212.094	3056.19
212.559	3761.67
213.024	2361.51
213.49	2874.18
213.955	2783.28
214.42	2747.45
214.885	2539.9
215.35	2446.36
215.815	2357.97
216.28	2475.25
216.745	2020.94
217.21	2175.33
217.675	1986.63
218.14	2224.05
218.604	2473.21
219.069	2805.81
219.534	2924.56
219.998	3369.88
220.463	4062.88
220.927	4957.14
221.392	4673.42
221.856	4737.09
222.32	5952.74
222.785	7350.69
223.249	9208.12
223.713	10266.75
224.177	10263.85
224.642	13147.03
225.106	16203.75
225.57	17662.65
226.034	13156.32
226.497	19993.96
226.961	18014.83
227.425	20956.09
227.889	23171.34
228.353	23206.54
228.816	47966.4
229.28	45884.19
229.744	38613.08
230.207	23482.12
230.671	23047.53
231.134	38074.12
231.597	43929.34
232.061	43897.01
232.524	42798.48
232.987	29479.96
233.45	26524.57
233.914	23722.88
234.377	24265.67
234.84	22233.18
235.303	26163.98
235.766	29197.09
236.229	30135.78
236.691	18947.18
237.154	21266.75
237.617	15998.03
238.08	16369.48
238.542	19132.17
239.005	13685.83
239.468	13588.99
239.93	12788.4
240.393	11624.96
240.855	10218.92
241.317	10468.64
241.78	12728.24
242.242	13165.66
242.704	14211.41
243.166	12371.45
243.629	11242.28
244.091	12964.25
244.553	14194.39
245.015	15272.53
245.477	19739.51
245.939	28907.09
246.4	30658.24
246.862	29847.62
247.324	28145.48
247.786	31506.29
248.247	41323.57
248.709	42605.75
249.17	31853.12
249.632	30064.31
250.093	34913.4
250.555	30171.62
251.016	18420.73
251.477	17485.89
251.939	18863.56
252.4	19781.72
252.861	23511.45
253.322	21872.37
253.783	26052.32
254.244	33803.9
254.705	26675.27
255.166	23682.59
255.627	23321.42
256.088	32918
256.549	34947.16
257.009	30102.67
257.47	36526.5
257.931	29780.41
258.391	22327.96
258.852	23022.7
259.312	24087.93
259.773	29712.61
260.233	25110.2
260.694	21178.5
261.154	24008.28
261.614	19296.55
262.074	17250.82
262.534	17934.23
262.994	16878.36
263.455	22474.51
263.915	18926.32
264.374	17853.43
264.834	19480.46
265.294	21589.24
265.754	22351.86
266.214	21149.94
266.673	19806.86
267.133	24984.74
267.593	24775.27
268.052	30306.49
268.512	26359.9
268.971	31802.63
269.431	34828.28
269.89	31185.62
270.349	46731.06
270.809	52117.21
271.268	46814.66
271.727	104967.29
272.186	67991.68
272.645	50981.1
273.104	36766.9
273.563	53234.54
274.022	41816.72
274.481	35633.86
274.94	27469.47
275.399	20397.4
275.857	23770.01
276.316	32137.6
276.775	28579.35
277.233	28139.22
277.692	26346.8
278.15	29804.09
278.609	30651.01
279.067	28369.17
279.525	26328.26
279.984	33946.87
280.442	40837.69
280.9	40230.52
281.358	26473.46
281.816	24664.52
282.274	24117.52
282.732	24881.71
283.19	25006.04
283.648	21578.17
284.106	22984.75
284.564	23336.97
285.021	21639.32
285.479	16106.41
285.937	14660.45
286.394	12884.61
286.852	13258.17
287.309	13944.67
287.767	13486.17
288.224	12847.99
288.682	14088.6
289.139	15460.85
289.596	14160.35
290.053	14731.46
290.511	18604.28
290.968	22534.23
291.425	30524.28
291.882	25450.77
292.339	22187.65
292.796	22010.72
293.252	20709.49
293.709	16470.19
294.166	14757.67
294.623	16300.11
295.079	15633.42
295.536	15706.15
295.992	14241.32
296.449	14071.77
296.905	14611.8
297.362	13988.97
297.818	14700.55
298.274	15258.1
298.731	15510.46
299.187	15351.82
299.643	16472.16
300.099	19899.78
300.555	21782.52
301.011	18212.89
301.467	17575.7
301.923	20540.02
302.379	20059.39
302.835	19709.36
303.291	19711.17
303.746	22442.93
304.202	28324.47
304.658	28428.91
305.113	19123.81
305.569	18760.87
306.024	20006.24
306.479	19057.12
306.935	16078.84
307.39	17566.57
307.845	16235.57
308.301	16368.96
308.756	15957.64
309.211	15384.15
309.666	15772.14
310.121	19601.64
310.576	19886.42
311.031	19735.94
311.486	22534.75
311.94	22526.39
312.395	30116.41
312.85	56566.3
313.305	277452.23
313.759	1436387.55
314.214	104056.99
314.668	82617.9
315.123	69480.16
315.577	24982.83
316.032	22188.97
316.486	27881.75
316.94	21964.55
317.394	15289.32
317.849	11876.43
318.303	11228.49
318.757	10604.83
319.211	11717.09
319.665	10240.44
320.119	10359.66
320.572	14819.35
321.026	13847.92
321.48	11514.43
321.934	12554.78
322.387	12578.86
322.841	13617.36
323.295	12274.6
323.748	14118.08
324.202	14334.71
324.655	17205.69
325.108	24055.92
325.562	16977.96
326.015	20197.23
326.468	15276.22
326.921	17095.35
327.374	15958.01
327.827	16580.57
328.28	18736.43
328.733	12573.14
329.186	11061.36
329.639	10540.11
330.092	8878.16
330.545	8476.11
330.997	8533.8
331.45	9332.5
331.903	10931.65
332.355	18793.7
332.808	18225.02
333.26	15031.21
333.713	16315.93
334.165	16431.52
334.617	21949.21
335.069	17722.05
335.522	31980.01
335.974	35501.31
336.426	32402.18
336.878	22485.4
337.33	11416.29
337.782	11189.31
338.234	14033.68
338.686	16752.68
339.137	19821.78
339.589	18703.55
340.041	14701.49
340.493	12642.98
340.944	12949.03
341.396	13955.81
341.847	11768.18
342.299	13882.55
342.75	16956.39
343.201	14814.69
343.653	17062.53
344.104	20966.25
344.555	16477.7
345.006	25599.64
345.457	19605.77
345.908	15550.29
346.359	14636.1
346.81	11876.13
347.261	12499.97
347.712	12316.02
348.163	13209.16
348.613	13412.54
349.064	12538.43
349.515	10971.48
349.965	11255.74
350.416	13567.38
350.866	14896.78
351.317	16847.51
351.767	27919.54
352.217	35336.92
352.668	29289.71
353.118	26880.82
353.568	25901.76
354.018	20508.32
354.468	21643.81
354.918	15561.46
355.368	13633.13
355.818	19296.97
356.268	55479.41
356.718	232810.18
357.168	57953.39
357.617	29034.17
358.067	32240.06
358.517	30214.47
358.966	35524.59
359.416	39915.06
359.865	43009.26
360.315	51126.83
360.764	23858.59
361.213	13368.74
361.663	12639.87
362.112	15601.64
362.561	25307.29
363.01	19084.16
363.459	16041.63
363.908	17285.9
364.357	14702.84
364.806	24912.46
365.255	17129.64
365.703	15720.35
366.152	15785.8
366.601	12803.43
367.05	10405.93
367.498	9457.9
367.947	9893.38
368.395	10277.66
368.844	9132.04
369.292	10983.38
369.74	7581.7
370.189	11625.62
370.637	13584.65
371.085	11682.81
371.533	14219.83
371.981	13691.33
372.429	13049.84
372.877	13584.66
373.325	11376.56
373.773	11554.76
374.221	10274.18
374.669	12721.22
375.116	10974.43
375.564	11068.18
376.012	12381.13
376.459	10197.16
376.907	12171.35
377.354	14683.63
377.801	13693.63
378.249	15761.91
378.696	20122.18
379.143	24392.31
379.591	26058.66
380.038	44066.21
380.485	31844.91
380.932	34372.94
381.379	31499
381.826	23216.95
382.273	16471.08
382.72	14361.58
383.166	13965.32
383.613	9061.09
384.06	8170.32
384.506	9425.68
384.953	6938.11
385.4	6963.13
385.846	6093.81
386.292	5922.98
386.739	5785.46
387.185	5711.39
387.631	5717.32
388.078	5557.5
388.524	5960.4
388.97	5492.15
389.416	4585.41
389.862	4859.53
390.308	4615.17
390.754	4684.55
391.2	5087.61
391.645	5196.05
392.091	4987.96
392.537	4832.72
392.983	4823.33
393.428	4737.81
393.874	5080.99
394.319	5101.28
394.765	4847.38
395.21	4971.84
395.655	4659.2
396.101	4358.56
396.546	3936.9
396.991	3954.3
397.436	3663.72
397.881	3544.83
398.326	3345.85
398.771	3161.31
399.216	2755.53
399.661	2476.77
400.106	2468.52
400.551	2529.64
400.995	2272.44
401.44	2248.99
401.885	2116.07
402.329	2130.29
402.774	2039.31
403.218	1982.48
403.663	1908.88
404.107	1965.16
404.551	1982.26
404.995	1817.3
405.44	1746.47
405.884	1768.5
406.328	1706.05
406.772	1698.83
407.216	1550.07
407.66	1498.78
408.104	1420.13
408.547	1330.6
408.991	1288.99
409.435	1237.83
409.879	1221.1
410.322	1206.12
410.766	1164.61
411.209	1110.37
411.653	1066.83
412.096	1047.68
412.54	1047.57
412.983	1039.23
413.426	1041.78
413.869	1038.29
414.312	1020.84
414.756	982.9
415.199	937.05
415.642	913.47
416.085	913.12
416.527	906.03
416.97	919.18
417.413	871.18
417.856	861.36
418.298	853.16
418.741	844.22
419.184	840.57
419.626	874
420.069	873.67
420.511	877.11
420.953	860.06
421.396	852.9
421.838	829.04
422.28	848.94
422.722	854.29
423.164	862.77
423.606	851.86
424.048	850.23
424.49	809.01
424.932	805.08
425.374	790.88
425.816	803.59
426.258	819.09
426.699	828.56
427.141	818.07
427.582	830.25
428.024	828.73
428.465	821.45
428.907	801.63
429.348	791.14
429.789	793.8
430.231	783.12
430.672	795.23
431.113	776.65
431.554	766.64
431.995	746.25
432.436	722.6
432.877	707.46
433.318	699.22
433.759	694.4
434.2	695.09
434.64	687.47
435.081	686.17
435.522	649.87
435.962	624.86
436.403	611
436.843	619.95
437.284	606.95
437.724	589.77
438.164	589.1
438.604	578.57
439.045	559.11
439.485	536.65
439.925	526.85
440.365	512.32
440.805	505.26
441.245	500.41
441.685	482.93
442.125	478.33
442.564	482.45
443.004	471.92
443.444	470.81
443.883	471.98
444.323	468.22
444.762	465.91
445.202	471.78
445.641	483.86
446.081	480.24
446.52	483.3
446.959	479.35
447.398	468.4
447.837	462.64
448.276	454.79
448.716	458.44
449.154	462.34
449.593	453.72
450.032	453.87
450.471	443.72
450.91	442.8
451.349	441.56
451.787	438.77
452.226	443.86
452.664	445.11
453.103	445.38
453.541	443.72
453.98	443.3
454.418	444.72
454.856	436.77
455.295	435.59
455.733	439.99
456.171	442.42
456.609	442.51
457.047	442.97
457.485	449.12
457.923	450.57
458.361	444.81
458.798	445.77
459.236	445.01
459.674	447.99
460.111	450.14
460.549	446.65
460.987	444.31
461.424	442.98
461.862	441.27
462.299	434.47
462.736	434.64
463.173	435.89
463.611	434.21
464.048	433.85
464.485	439.36
464.922	435.96
465.359	433.25
465.796	432.89
466.233	430.72
466.67	427.07
467.106	427.06
467.543	421.36
467.98	416.43
468.416	404.64
468.853	401.88
469.29	387.76
469.726	383.49
470.162	373
470.599	364.88
471.035	361.5
471.471	352.82
471.907	350.5
472.344	348.84
472.78	349.6
473.216	353.07
473.652	348.52
474.088	348.48
474.523	348.77
474.959	353.09
475.395	349.97
475.831	348.69
476.266	350.59
476.702	348.33
477.138	345.19
477.573	344.23
478.008	342.81
478.444	345.01
478.879	349.1
479.314	350.69
479.75	349.86
480.185	350.72
480.62	352.55
481.055	354.52
481.49	358.05
481.925	362.99
482.36	370.58
482.795	380.24
483.229	390.66
483.664	397.97
484.099	399.2
484.534	405.73
484.968	410.77
485.403	411.89
485.837	410.92
486.271	411.25
486.706	411.78
487.14	406.39
487.574	400.58
488.009	396.32
488.443	393.32
488.877	397.83
489.311	399.41
489.745	404.12
490.179	408.54
490.613	417.55
491.046	420.39
491.48	423.64
491.914	425.01
492.348	429.02
492.781	433.06
493.215	435.15
493.648	435.81
494.082	439.41
494.515	441.38
494.948	448.1
495.382	451.49
495.815	455.83
496.248	461.43
496.681	471.56
497.114	480.83
497.547	488.87
497.98	500.49
498.413	508.37
498.846	517.83
499.279	525.81
499.711	531
500.144	535.35
500.577	546.04
501.009	556.21
501.442	566.15
501.874	569.87
502.306	574.91
502.739	584.23
503.171	597.18
503.603	603.15
504.036	612.65
504.468	620.15
504.9	632.35
505.332	640.56
505.764	647.64
506.196	656.21
506.627	671.61
507.059	686.1
507.491	695
507.923	698.28
508.354	713.31
508.786	726.36
509.217	744.55
509.649	759.75
510.08	778.84
510.512	796.37
510.943	812.4
511.374	825.17
511.805	844.84
512.237	864.7
512.668	893.72
513.099	920.61
513.53	946.17
513.961	967.01
514.391	997.75
514.822	1029.62
515.253	1063.19
515.684	1088.89
516.114	1117.72
516.545	1140.57
516.975	1166.92
517.406	1186.55
517.836	1192.41
518.267	1203.38
518.697	1223.48
519.127	1230.91
519.558	1240.52
519.988	1247.83
520.418	1260.89
520.848	1280.37
521.278	1290.5
521.708	1320.9
522.138	1336.07
522.567	1366.92
522.997	1392.39
523.427	1408.1
523.857	1425.95
524.286	1438.32
524.716	1454.68
525.145	1473.96
525.575	1485.94
526.004	1501.9
526.433	1488.64
526.863	1490.45
527.292	1484.11
527.721	1491.48
528.15	1500.02
528.579	1503.16
529.008	1514.54
529.437	1536.25
529.866	1549.4
530.295	1566.11
530.724	1579.58
531.152	1604.18
531.581	1617.94
532.01	1634.6
532.438	1642.47
532.867	1656.01
533.295	1673.26
533.723	1679.57
534.152	1678.38
534.58	1679.57
535.008	1665.67
535.436	1666.59
535.865	1674.26
536.293	1687.8
536.721	1702.12
537.149	1725.51
537.576	1727.17
538.004	1738.44
538.432	1745.1
538.86	1744.86
539.287	1751.83
539.715	1765.27
540.143	1767.07
540.57	1763.13
540.998	1759.32
541.425	1738.51
541.852	1718.49
542.28	1717.46
542.707	1702.51
543.134	1689.73
543.561	1684.58
543.988	1676.45
544.415	1674.76
544.842	1669.82
545.269	1663.84
545.696	1665.69
546.123	1677.01
546.549	1668.36
546.976	1657.14
547.403	1656.77
547.829	1659.11
548.256	1661.28
548.682	1658.94
549.108	1653.07
549.535	1653.21
549.961	1655.11
550.387	1643.52
550.813	1638.8
551.24	1645.22
551.666	1646.21
552.092	1638.28
552.518	1632.64
552.943	1627.94
553.369	1634.47
553.795	1639.29
554.221	1640.97
554.646	1638.12
555.072	1648.38
555.498	1653.24
555.923	1660.62
556.349	1674.99
556.774	1682.92
557.199	1683.51
557.625	1687.54
558.05	1681.55
558.475	1690.4
558.9	1689.23
559.325	1680.98
559.75	1674.73
560.175	1667.56
560.6	1660.59
561.025	1656.16
561.449	1655.53
561.874	1659.49
562.299	1663
562.723	1668.86
563.148	1658.71
563.572	1660.67
563.997	1668.31
564.421	1670.51
564.846	1670.44
565.27	1672.47
565.694	1668.74
566.118	1677.5
566.542	1681.97
566.966	1674.01
567.39	1667.47
567.814	1655.52
568.238	1652.23
568.662	1653.88
569.086	1654.76
569.509	1657.93
569.933	1642.23
570.357	1633.33
570.78	1612.03
571.204	1599.5
571.627	1587.22
572.05	1583.84
572.474	1581.52
572.897	1568.5
573.32	1560.74
573.743	1550.17
574.166	1532.76
574.589	1531.2
575.012	1523.03
575.435	1520.43
575.858	1509.98
576.281	1498.78
576.704	1482.59
577.126	1472.39
577.549	1462.39
577.972	1452.02
578.394	1440.92
578.817	1433.8
579.239	1416.19
579.661	1403.72
580.084	1389.85
580.506	1377.43
580.928	1372.97
581.35	1363.15
581.772	1356.57
582.194	1342.61
582.616	1330.49
583.038	1317.49
583.46	1307.29
583.882	1303.25
584.303	1305.06
584.725	1299.35
585.147	1301.63
585.568	1309.59
585.99	1318.13
586.411	1322.41
586.833	1334.63
587.254	1334.65
587.675	1345.58
588.096	1354.61
588.518	1348.07
588.939	1333.99
589.36	1331.53
589.781	1319.47
590.202	1295.45
590.623	1287.16
591.043	1284.02
591.464	1271.34
591.885	1267.29
592.305	1260.77
592.726	1248.25
593.147	1248.21
593.567	1241.95
593.987	1235.31
594.408	1230.24
594.828	1227.01
595.248	1221.35
595.669	1204.71
596.089	1198.69
596.509	1192.93
596.929	1181.24
597.349	1181.23
597.769	1173.25
598.189	1168.14
598.608	1168.19
599.028	1169.36
599.448	1168.23
599.867	1156.54
600.287	1152.74
600.706	1149
601.126	1140.66
601.545	1140
601.965	1137.82
602.384	1132.86
602.803	1133.59
603.222	1128.57
603.641	1121.43
604.061	1118.33
604.48	1115.17
604.898	1120.06
605.317	1122.63
605.736	1122.4
606.155	1119.18
606.574	1110.4
606.992	1113.05
607.411	1108.42
607.829	1099.8
608.248	1096.92
608.666	1093.52
609.085	1091.6
609.503	1084.42
609.921	1079.05
610.339	1081.02
610.758	1079.33
611.176	1075.56
611.594	1067.91
612.012	1064.54
612.43	1067.65
612.847	1072.21
613.265	1073.32
613.683	1076.02
614.101	1075.83
614.518	1071.43
614.936	1061.46
615.353	1048.61
615.771	1044.93
616.188	1043.39
616.606	1039.05
617.023	1032.58
617.44	1019.66
617.857	1012.19
618.274	1004.41
618.691	999.01
619.108	990.52
619.525	985.86
619.942	990.17
620.359	991.68
620.776	987.76
621.192	985.35
621.609	982.58
622.026	987.07
622.442	990.62
622.859	992.52
623.275	986.63
623.691	990.66
624.108	998.13
624.524	1009.07
624.94	1008.05
625.356	1015.14
625.772	1024.32
626.188	1032.92
626.604	1033.53
627.02	1030.06
627.436	1027.45
627.852	1031.89
628.268	1041.71
628.683	1034.31
629.099	1026.91
629.514	1023.05
629.93	1025.1
630.345	1027.67
630.761	1023.62
631.176	1025.39
631.591	1021.08
632.007	1017.34
632.422	1014.59
632.837	1003.63
633.252	1000.92
633.667	991.36
634.082	982.02
634.497	969.55
634.911	952.64
635.326	947.34
635.741	932.52
636.155	921.3
636.57	918.57
636.984	915
637.399	913.57
637.813	908.89
638.228	904.24
638.642	904.36
639.056	893.74
639.47	890.56
639.884	880.44
640.298	871.57
640.712	867.64
641.126	853.76
641.54	843.53
641.954	834.74
642.368	822.98
642.781	814.76
643.195	798.08
643.609	795.28
644.022	785.79
644.436	779.17
644.849	767.34
645.262	754.72
645.676	753.1
646.089	747.2
646.502	735.17
646.915	727.98
647.328	712.95
647.741	709.48
648.154	697.88
648.567	696.29
648.98	686.47
649.393	685.37
649.805	682.42
650.218	676.72
650.631	665.65
651.043	661.16
651.456	657.14
651.868	656.83
652.28	666.99
652.693	675.82
653.105	678.29
653.517	683.62
653.929	683.49
654.341	686.18
654.753	676.82
655.165	679.75
655.577	676.89
655.989	672.31
656.401	665.64
656.813	642.29
657.224	627.26
657.636	606.87
658.047	595.26
658.459	581.2
658.87	574
659.282	564.85
659.693	551.13
660.104	540.26
660.515	531.21
660.926	528.17
661.338	524.48
661.749	519.79
662.159	513.44
662.57	508.32
662.981	505.06
663.392	498.09
663.803	499.9
664.213	497.37
664.624	493.87
665.035	494.2
665.445	485.63
665.855	481.73
666.266	477.48
666.676	475.72
667.086	470.74
667.497	469.79
667.907	467.84
668.317	461.04
668.727	460.67
669.137	461.19
669.547	459.7
669.956	461.18
670.366	461.69
670.776	462.01
671.186	464.77
671.595	466.97
672.005	468.96
672.414	469.11
672.824	470.45
673.233	471.45
673.642	473.71
674.052	477.55
674.461	481.49
674.87	485.66
675.279	486.13
675.688	487.75
676.097	490.63
676.506	489.79
676.915	500.01
677.323	503.44
677.732	504.51
678.141	506.32
678.549	500.82
678.958	501.14
679.366	503.24
679.775	508
680.183	519.26
680.592	525.88
681	532.05
681.408	529.65
681.816	536.59
682.224	544.54
682.632	553.98
683.04	577.49
683.448	598.01
683.856	621.23
684.264	650.28
684.671	674.75
685.079	705.91
685.487	742.35
685.894	791.27
686.302	833.62
686.709	871.37
687.116	914.06
687.524	951.42
687.931	984.53
688.338	1013.91
688.745	1039.43
689.152	1071.06
689.559	1111.35
689.966	1152.53
690.373	1177.34
690.78	1216.68
691.187	1273.38
691.593	1318.79
692	1359.57
692.407	1417.16
692.813	1490.17
693.22	1548.85
693.626	1610.11
694.032	1660.86
694.439	1733.03
694.845	1791.53
695.251	1863.95
695.657	1930.85
696.063	2026.87
696.469	2101.03
696.875	2171.1
697.281	2214.04
697.687	2264.61
698.093	2307.02
698.498	2381.97
698.904	2442.2
699.31	2530.01
699.715	2596.27
700.12	2686.46
700.526	2710.05
700.931	2782.07
701.337	2837.81
701.742	2873.72
702.147	2957.35
702.552	2991.81
702.957	3053.31
703.362	3079.32
703.767	3113.26
704.172	3154.75
704.577	3114.63
704.981	3163.94
705.386	3182.69
705.791	3180.41
706.195	3255.85
706.6	3270.02
707.004	3350.08
707.408	3325.2
707.813	3354.82
708.217	3345.58
708.621	3352.98
709.025	3450.83
709.43	3456.69
709.834	3517.61
710.237	3585.93
710.641	3576.2
711.045	3601.56
711.449	3600.54
711.853	3633.59
712.256	3675.71
712.66	3714.85
713.064	3788.8
713.467	3831.51
713.87	3939.96
714.274	3987.24
714.677	4096.09
715.08	4252.09
715.484	4417.64
715.887	4614.47
716.29	4808.73
716.693	5012.94
717.096	5246.72
717.499	5378.46
717.901	5408.64
718.304	5440.93
718.707	5468.76
719.109	5371.74
719.512	5345.89
719.915	5215.24
720.317	5163.22
720.719	5208.76
721.122	5183.41
721.524	5139.68
721.926	5097.62
722.328	5195.74
722.731	5187.24
723.133	5215.64
723.535	5406.44
723.937	5428.72
724.338	5479.27
724.74	5521.12
725.142	5459.84
725.544	5459.08
725.945	5487.92
726.347	5488.5
726.748	5480.63
727.15	5495.19
727.551	5458.42
727.952	5430.14
728.354	5401.24
728.755	5403.18
729.156	5362.11
729.557	5350.08
729.958	5230.71
730.359	5176.58
730.76	5159.57
731.161	5103.34
731.562	5079.4
731.962	5083.99
732.363	5022.83
732.763	4960.14
733.164	4995.45
733.564	4931.99
733.965	4841.11
734.365	4810.05
734.766	4837.51
735.166	4798.8
735.566	4745.26
735.966	4720.77
736.366	4715.06
736.766	4654.5
737.166	4687.16
737.566	4647.51
737.966	4619.72
738.365	4657.08
738.765	4650.44
739.165	4575.93
739.564	4551.4
739.964	4596.12
740.363	4550.49
740.763	4548.16
741.162	4538.29
741.561	4507.97
741.96	4464.1
742.36	4484.19
742.759	4489.24
743.158	4527.05
743.557	4543.23
743.955	4581.21
744.354	4535.94
744.753	4592.07
745.152	4555.21
745.55	4608.4
745.949	4601.01
746.348	4601.56
746.746	4616.73
747.144	4579.42
747.543	4555.06
747.941	4601.94
748.339	4534.16
748.737	4527.46
749.136	4518.29
749.534	4580.5
749.932	4553.17
750.33	4576.37
750.727	4631.04
751.125	4611.15
751.523	4593.87
751.921	4638.69
752.318	4605.44
752.716	4662.34
753.113	4676.62
753.511	4702.5
753.908	4701.38
754.305	4684.05
754.703	4745.99
755.1	4805.31
755.497	4861.98
755.894	5046.41
756.291	5218.71
756.688	5537.33
757.085	5960.65
757.482	6557.15
757.878	7207.52
758.275	7793.92
758.672	8603.92
759.068	9256.3
759.465	10198.86
759.861	11408.47
760.258	12817.58
760.654	13540.02
761.05	13424.6
761.447	12813.73
761.843	11928.93
762.239	11011.52
762.635	10595.76
763.031	10204.62
763.427	9637.69
763.822	9036.86
764.218	8446.31
764.614	7674.75
765.01	7161.38
765.405	6831.18
765.801	6577.12
766.196	6253.27
766.592	6075.11
766.987	5774.31
767.382	5564.93
767.778	5477.09
768.173	5350.28
768.568	5278.49
768.963	5157.81
769.358	5173.17
769.753	5129.51
770.148	5047.75
770.542	5047.29
770.937	5016.76
771.332	5105.14
771.726	5123.44
772.121	5063.38
772.515	5114.11
772.91	5100.37
773.304	5167.38
773.699	5102.95
774.093	5150.09
774.487	5203.37
774.881	5242.01
775.275	5236.4
775.669	5192.46
776.063	5237.06
776.457	5271.71
776.851	5200.5
777.245	5193.23
777.638	5225.42
778.032	5338.41
778.425	5302.96
778.819	5346.33
779.212	5307.34
779.606	5268.46
779.999	5287.93
780.392	5270.43
780.786	5349.26
781.179	5369.94
781.572	5412.72
781.965	5425.85
782.358	5369.78
782.751	5427.14
783.143	5379.49
783.536	5451.2
783.929	5492.91
784.322	5605.06
784.714	5634.62
785.107	5629.3
785.499	5698.91
785.891	5678.15
786.284	5656.77
786.676	5795.48
787.068	5775.21
787.46	5822.98
787.852	5839.19
788.245	5922.4
788.636	5949.91
789.028	6013.76
789.42	6050.32
789.812	6056.95
790.204	6148.27
790.595	6246.07
790.987	6055.86
791.378	6078.97
791.77	6209.2
792.161	6340.63
792.553	6395.18
792.944	6288.81
793.335	6229.61
793.726	6303.28
794.117	6392.6
794.508	6524.22
794.899	6496.2
795.29	6631.86
795.681	6688.88
796.072	6548.53
796.463	6373.19
796.853	6383.89
797.244	6534.91
797.634	6565.6
798.025	6569.54
798.415	6580.78
798.806	6666.88
799.196	6751.41
799.586	6801.93
799.976	6768.14
800.366	6993.11
800.756	7223.76
801.146	7185.4
801.536	7215.6
801.926	7287.9
802.316	7310.98
802.706	7382.03
803.095	7266.76
803.485	7363.19
803.874	7406.14
804.264	7655.94
804.653	7628.36
805.043	7771.56
805.432	7877.74
805.821	7885.16
806.21	7904.94
806.599	8015.82
806.988	8060.74
807.377	8164.27
807.766	8290.58
808.155	8560.1
808.544	8306.93
808.933	8325.37
809.321	8307.57
809.71	8597.34
810.098	8747.09
810.487	9195.91
810.875	9664.96
811.264	9683.98
811.652	9963.57
812.04	10107.87
812.428	10271.37
812.816	11010.22
813.204	11410.75
813.592	11940.45
813.98	12264.25
814.368	12180.01
814.756	12640.68
815.144	12557.14
815.531	13014.2
815.919	12944.82
816.306	13247.01
816.694	12945.72
817.081	12997.8
817.469	13336.4
817.856	13341.46
818.243	13605.75
818.63	13982.65
819.017	13579.96
819.404	13648.74
819.791	14014.56
820.178	14613.15
820.565	14850.22
820.952	15759.81
821.339	15295.57
821.725	15482.03
822.112	14758.23
822.498	14718.16
822.885	14849.23
823.271	14760.02
823.657	15169.7
824.044	15181.57
824.43	15250.91
824.816	15214.68
825.202	14793.44
825.588	15773.92
825.974	15786.32
826.36	16284.88
826.746	16317.81
827.132	16657.51
827.517	16632.67
827.903	15870.73
828.289	15905.28
828.674	15153.17
829.06	15053.52
829.445	15431.31
829.83	15771.2
830.216	16226.59
830.601	16570.58
830.986	16171.95
831.371	16036.93
831.756	16569.27
832.141	16149.68
832.526	16136.07
832.911	16403.33
833.295	16297.09
833.68	16747.83
834.065	16146.51
834.449	15265.15
834.834	15203.52
835.218	15196.81
835.603	15521.08
835.987	15310.19
836.371	16110.31
836.755	16009.98
837.139	16391.79
837.524	16617.53
837.908	16442.31
838.291	16502.23
838.675	16560.96
839.059	16756.65
839.443	16739.58
839.827	16519.91
840.21	16985.86
840.594	16835.93
840.977	17030.51
841.361	17007.22
841.744	17362.77
842.127	17212.49
842.511	17443.11
842.894	18018.8
843.277	18388.78
843.66	18912.06
844.043	18983.35
844.426	18209.12
844.809	17916.66
845.191	17952.36
845.574	17514.2
845.957	17170.53
846.339	17067.78
846.722	16554.31
847.104	16621.09
847.487	16443.11
847.869	16452.33
848.252	16713.27
848.634	17030.35
849.016	17274.18
849.398	17393.49
849.78	18207.26
850.162	18202.06
850.544	18590.76
850.926	19195.89
851.307	19105.93
851.689	19377.95
852.071	19815.76
852.452	20137.61
852.834	20122.31
853.215	20511.59
853.597	20657.57
853.978	20938.68
854.359	21375.86
854.741	20422.84
855.122	20330.61
855.503	20052.63
855.884	20183.56
856.265	20112.44
856.646	20216.22
857.026	19827.2
857.407	19760.96
857.788	19904.57
858.169	20173.59
858.549	19358.57
858.93	19958.91
859.31	20008.81
859.69	20207.93
860.071	19816.73
860.451	19622.92
860.831	18921.95
861.211	20037.03
861.591	20570.26
861.971	20552.17
862.351	20733.07
862.731	21113.89
863.111	21360.27
863.491	21672.55
863.87	22509.69
864.25	22843.09
864.629	22449.73
865.009	22938.8
865.388	23752.37
865.768	25437.58
866.147	25324.89
866.526	23929.8
866.905	24211.71
867.284	25577.91
867.663	24290.67
868.042	23277.89
868.421	23201.47
868.8	23591.21
869.179	23825.14
869.558	22441.63
869.936	20685.01
870.315	21062.18
870.693	21577.64
871.072	23271.84
871.45	22158.1
871.828	22440.89
872.207	23605.24
872.585	23259.02
872.963	23901.22
873.341	23070.36
873.719	22800.65
874.097	22534.96
874.475	22957.72
874.853	23482.39
875.23	22499.69
875.608	23457.1
875.986	25362.81
876.363	24255.7
876.741	24982.87
877.118	24341.62
877.495	25546.05
877.873	25955.95
878.25	27331.91
878.627	26231.29
879.004	26600.97
879.381	26464.88
879.758	25769.24
880.135	23991.78
880.512	25369.39
880.889	24700.58
881.265	24447.02
881.642	24234.16
882.019	24658.69
882.395	24141.86
882.772	25085.86
883.148	23997.81
883.524	23913.57
883.901	23773.2
884.277	24131.84
884.653	23969.06
885.029	24657.23
885.405	27298.64
885.781	27069.81
886.157	25946.3
886.532	26255.64
886.908	26241.34
887.284	29160.73
887.659	30111.74
888.035	31036.84
888.411	31836.36
888.786	32254.49
889.161	33362.85
889.537	32752.47
889.912	33823.25
890.287	33771.37
890.662	34646.18
891.037	34012.36
891.412	31718.85
891.787	31390.94
892.162	30290.45
892.536	30980.27
892.911	29821.67
893.286	29183.48
893.66	27989.62
894.035	28692.96
894.409	31255.38
894.784	29976.57
895.158	30465.38
895.532	32262.1
895.906	33128.53
896.281	33899.36
896.655	33369.19
897.029	38094.32
897.402	39675.85
897.776	44182.9
898.15	44025.67
898.524	43522.36
898.898	44120.85
899.271	49411.98
899.645	42809.7
900.018	41124.61
900.392	42647.48
900.765	42985.69
901.138	39805.58
901.511	39189.54
901.884	35969.44
902.258	33182.28
902.631	34315.91
903.003	39488.07
903.376	35624.52
903.749	39961.85
904.122	42774.7
904.495	47088.97
904.867	47690.62
905.24	41392.34
905.612	38545.29
905.985	39425.08
906.357	41209.94
906.729	39319.42
907.102	33573.45
907.474	32281.15
907.846	32476.84
908.218	32053.47
908.59	28329.2
908.962	27405.31
909.334	29514.87
909.705	31009.54
910.077	30093.33
910.449	31329.59
910.82	32210.1
911.192	35456.23
911.563	36840.48
911.935	39429.36
912.306	39466.56
912.677	40786.17
913.048	40378.14
913.419	43815.25
913.79	44051.64
914.161	47266.67
914.532	45176.28
914.903	41519.36
915.274	39432.97
915.645	38874.36
916.015	34200.53
916.386	32622.03
916.756	34717.02
917.127	35812.68
917.497	32007.13
917.868	34855.81
918.238	33119.99
918.608	34070.25
918.978	34796.64
919.348	36858.62
919.718	38090.14
920.088	36721.84
920.458	38160.6
920.828	40142.51
921.198	38051.43
921.567	40646.22
921.937	31480.93
922.306	31788.33
922.676	34300.29
923.045	28596.05
923.415	27155.62
923.784	24738.14
924.153	25421.02
924.522	25393.96
924.891	23878.43
925.26	25576.38
925.629	24977.08
925.998	28705.22
926.367	28036.64
926.736	26704.93
927.104	31826.7
927.473	34244.82
927.842	41361.62
928.21	40968.51
928.578	43099.17
928.947	40764.97
929.315	41004.45
929.683	48091.05
930.051	48480.16
930.42	56275.89
930.788	48111.32
931.156	47722.97
931.523	44700.77
931.891	41272.54
932.259	39655.87
932.627	45939.84
932.994	65001.29
933.362	53745.17
933.729	46630.67
934.097	44613.08
934.464	37756.17
934.831	43528.91
935.199	42911.58
935.566	41611.91
935.933	42142.47
936.3	50976.82
936.667	39665.14
937.034	35779.03
937.401	35371.93
937.767	30565.49
938.134	27226.67
938.501	38392.29
938.867	40934.85
939.234	69187.7
939.6	59044.24
939.967	65148.03
940.333	43680.27
940.699	37211.88
941.065	29846.49
941.431	39149.59
941.798	37739.11
942.163	49637.63
942.529	30999.86
942.895	28551.9
943.261	18490.14
943.627	24280.06
943.992	21257.72
944.358	21285.45
944.723	21375.48
945.089	20856.57
945.454	19268.21
945.82	20571.51
946.185	19754.95
946.55	22891.62
946.915	20539.59
947.28	24070.44
947.645	21191.4
948.01	19564.29
948.375	20420.82
948.74	24456.93
949.104	28537.81
949.469	41246.9
949.834	72880.49
950.198	68994.42
950.562	41318.77
950.927	34392.07
951.291	41379.22
951.655	35245.74
952.02	33100.29
952.384	25001.73
952.748	21771.72
953.112	21216.34
953.476	18442.98
953.839	17064.35
954.203	16893.12
954.567	21167.27
954.931	33350.01
955.294	28539.22
955.658	28670.96
956.021	48746.19
956.385	82717.91
956.748	122040.95
957.111	189217.69
957.474	212455.08
957.837	239322.68
958.2	181446.8
958.563	65176.57
958.926	44065.76
959.289	66926.78
959.652	74817.87
960.015	56189.05
960.377	80682.03
960.74	92144.25
961.102	159174.34
961.465	170805.58
961.827	91468.18
962.189	175266.52
962.552	121552.66
962.914	97368.38
963.276	63134.7
963.638	52184.55
964	51638.41
964.362	34890.36
964.724	33695.3
965.085	24021.22
965.447	19701.75
965.809	22424.05
966.17	22451.61
966.532	24295.34
966.893	22325.82
967.255	20300.65
967.616	23952.09
967.977	19183.75
968.338	20933.41
968.699	17200.3
969.061	17189.71
969.421	17313.84
969.782	19447.17
970.143	16416.3
970.504	17004.4
970.865	19308.19
971.225	19751.2
971.586	19339.89
971.946	27554.48
972.307	23914.98
972.667	31276.4
973.027	32258.35
973.388	39091.94
973.748	26577.68
974.108	28976.44
974.468	39156.73
974.828	30183.71
975.188	23227.37
975.548	21337.3
975.907	17921.79
976.267	20092.82
976.627	16886.55
976.986	17484.7
977.346	16659.69
977.705	16021.75
978.064	14571.95
978.424	12140.58
978.783	12555.42
979.142	14314.03
979.501	13694.33
979.86	14462.28
980.219	13934.63
980.578	17944.35
980.937	20123.33
981.296	17946.51
981.654	18439.67
982.013	28708.8
982.371	37273.86
982.73	34811.36
983.088	39468.04
983.447	42070.29
983.805	60172.98
984.163	125781.66
984.521	139805.27
984.879	204521.13
985.237	-332580.69
985.595	321318.95
985.953	79856.76
986.311	46116.95
986.669	26812.76
987.026	23130.44
987.384	31148.59
987.741	32240.6
988.099	23063.84
988.456	18354.59
988.814	17207.79
989.171	14966.78
989.528	14783.02
989.885	15605.7
990.242	12354.22
990.599	15379.09
990.956	12594.04
991.313	8809.7
991.67	7220.28
992.027	7646.08
992.383	6795.91
992.74	5949.95
993.096	6242.78
993.453	6460.95
993.809	6702.49
994.165	8925.07
994.522	8168.7
994.878	8998.69
995.234	11278.49
995.59	11123.36
995.946	10532.35
996.302	12011.46
996.658	13898.82
997.013	15314.14
997.369	18161.18
997.725	23193.33
998.08	15029.72
998.436	23211.16
998.791	32023.14
999.147	31991.9
999.502	34942.66
999.857	25401.84
1000.212	41452.9
1000.567	59010.11
1000.922	34051.98
1001.277	21642.99
1001.632	16098.44
1001.987	20739.11
1002.342	14867.49
1002.696	11904.38
1003.051	9511.82
1003.406	11505.89
1003.76	11448.45
1004.114	11278.37
1004.469	9487.41
1004.823	7847.62
1005.177	8488.05
1005.531	6729.12
1005.885	5966.3
1006.239	6721.13
1006.593	8421.09
1006.947	11277.95
1007.301	8474.05
1007.655	9239.05
1008.008	6806.83
1008.362	7647.06
1008.715	10892.61
1009.069	9872.87
1009.422	14836.12
1009.776	29701.06
1010.129	19787.13
1010.482	16546.61
1010.835	13991.43
1011.188	29094.17
1011.541	27363.75
1011.894	-166784.85
1012.247	489974.69
1012.6	33338.26
1012.952	21046.88
1013.305	10850.12
1013.657	7851.36
1014.01	7422.63
1014.362	6110.81
1014.715	5411.62
1015.067	4717.82
1015.419	4625.92
1015.771	4106.25
1016.123	3674.14
1016.475	3787.59
1016.827	4033.69
1017.179	4343.36
1017.531	4371.32
1017.883	4470.26
1018.234	4324.07
1018.586	5454.06
1018.938	5779.43
1019.289	7973.66
1019.64	9148.18
1019.992	8466.29
1020.343	7726.34
1020.694	6104.1
1021.045	5392.68
1021.396	6155.82
1021.747	6604.77
1022.098	7934.65
1022.449	5768.31
1022.8	5347.36
1023.151	3727.58
1023.501	3295.95
1023.852	3589.52
1024.202	3737.86
1024.553	4111.22
1024.903	4020.68
1025.253	3441.03
1025.604	3089.91
1025.954	3826.34
1026.304	4685.22
1026.654	5478.24
1027.004	8040.21
1027.354	12990.91
1027.703	12289.2
1028.053	16096.77
1028.403	23346.78
1028.753	33740.72
1029.102	45994.55
1029.452	237212.32
1029.801	10259.98
1030.15	6611.17
1030.499	5583.77
897.758	2688.43
901.051	2643.12
904.343	2679.43
907.636	2681.36
910.928	2744.81
914.22	2654.66
917.511	2663.19
920.803	2725.68
924.094	2745.68
927.384	2725.7
930.675	2689.57
933.965	2640.95
937.255	2649.8
940.544	2616.97
943.834	2554.26
947.123	2498.95
950.411	2595.03
953.7	2568.44
956.988	2536.97
960.276	2475.17
963.563	2557.48
966.851	2553.72
970.138	2610.15
973.424	2605.45
976.711	2552.83
979.997	2688.22
983.283	2724.14
986.568	2628.6
989.853	2644.24
993.138	2672.98
996.423	2757.77
999.708	2692.13
1002.992	2755.99
1006.275	2590.75
1009.559	2638.2
1012.842	2755.13
1016.125	2686.56
1019.408	2664.42
1022.69	2753.4
1025.972	2772.16
1029.254	2746.03
1032.536	2677.01
1035.817	2706.11
1039.098	2648.13
1042.379	2797.6
1045.659	2791.66
1048.939	2725.75
1052.219	2747.38
1055.498	2759.2
1058.778	2744.08
1062.057	2729.28
1065.335	2748.77
1068.614	2771.66
1071.892	2752.95
1075.17	2830.14
1078.447	2819.73
1081.724	2812.22
1085.001	2847.19
1088.278	2819.99
1091.554	2834.31
1094.83	2829.91
1098.106	2856.37
1101.382	2904.73
1104.657	2901.76
1107.932	2897.03
1111.206	2864.29
1114.481	2817.12
1117.755	2817.98
1121.029	2799.73
1124.302	2852.8
1127.575	2802.19
1130.848	2788.81
1134.121	2751.89
1137.393	2699.01
1140.665	2769.06
1143.937	2743.53
1147.208	2700.39
1150.48	2742.67
1153.75	2730.67
1157.021	2761.56
1160.291	2732.43
1163.561	2778.46
1166.831	2769.55
1170.101	2800.38
1173.37	2776.49
1176.639	2717.82
1179.907	2777.83
1183.176	2785.02
1186.444	2790.7
1189.711	2819.79
1192.979	2831.4
1196.246	2787.83
1199.513	2805.61
1202.78	2801.18
1206.046	2812.73
1209.312	2838.11
1212.578	2864.35
1215.843	2817.54
1219.108	2790.56
1222.373	2815.29
1225.638	2778.23
1228.902	2763.02
1232.166	2724.58
1235.43	2709.27
1238.693	2732.73
1241.956	2728.38
1245.219	2765.65
1248.482	2757.83
1251.744	2752
1255.006	2902.31
1258.268	2858.15
1261.529	2801.18
1264.79	2808.6
1268.051	2911.08
1271.312	2928.55
1274.572	2890.83
1277.832	2879.98
1281.092	2871.45
1284.351	2844.42
1287.61	2822.26
1290.869	2738.08
1294.128	2712.12
1297.386	2802.21
1300.644	2790.51
1303.902	2807.82
1307.159	2660.8
1310.416	2716.34
1313.673	2744.78
1316.93	2729.33
1320.186	2773.66
1323.442	2817.21
1326.697	2805.93
1329.953	2797.59
1333.208	2822.79
1336.463	2802.01
1339.717	2739.85
1342.972	2876.82
1346.226	2855.61
1349.479	2784.4
1352.733	2755.56
1355.986	2778.27
1359.238	2755.28
1362.491	2758.65
1365.743	2760.16
1368.995	2753.76
1372.247	2765.49
1375.498	2790.23
1378.749	2806.61
1382	2760.21
1385.251	2813.15
1388.501	2774.6
1391.751	2759.78
1395	2731.43
1398.25	2762.41
1401.499	2772.51
1404.748	2697.6
1407.996	2690.7
1411.244	2674.66
1414.492	2655.13
1417.74	2631.94
1420.987	2642.3
1424.234	2699.02
1427.481	2681.84
1430.728	2740.12
1433.974	2716.28
1437.22	2728.43
1440.465	2729.91
1443.711	2691.21
1446.956	2730.31
1450.201	2714.76
1453.445	2762.2
1456.689	2739.39
1459.933	2754.11
1463.177	2783.77
1466.42	2755.4
1469.663	2734.69
1472.906	2729.55
1476.148	2806.79
1479.391	2766.49
1482.633	2734.05
1485.874	2747.99
1489.115	2732.47
1492.356	2739.61
1495.597	2711.57
1498.838	2716.47
1502.078	2684.91
1505.318	2633.33
1508.557	2676.3
1511.797	2654.19
1515.036	2723.77
1518.274	2712.46
1521.513	2686.11
1524.751	2707.55
1527.989	2721.41
1531.227	2736.85
1534.464	2727.06
1537.701	2749.63
1540.938	2768.76
1544.174	2722.85
1547.41	2718.38
1550.646	2761.8
1553.882	2797.25
1557.117	2849.62
1560.352	2868.44
1563.587	2824.2
1566.821	2781.12
1570.055	2820.99
1573.289	2787.52
1576.523	2865.09
1579.756	2869.57
1582.989	2890.35
1586.222	2849.5
1589.454	2889.5
1592.686	2860.9
1595.918	2884.82
1599.15	2874.11
1602.381	2950.31
1605.612	2901.71
1608.843	3004.09
1612.073	2915.13
1615.303	2897.43
1618.533	2890.67
1621.762	2891.03
1624.992	2878.69
1628.221	2864.61
1631.449	2849.15
1634.678	2906.18
1637.906	2862.97
1641.134	2900.79
1644.361	2855.04
1647.588	2843.55
1650.815	2863.18
1654.042	2838.37
1657.269	2872.26
1660.495	2822
1663.72	2844.6
1666.946	2807.91
1670.171	2749.57
1673.396	2722.88
1676.621	2712.44
1679.845	2733.77
1683.069	2754.86
1686.293	2798.07
1689.517	2766.89
1692.74	2694.16
1695.963	2729.2
1699.185	2743.74
1702.408	2719.25
1705.63	2763.45
1708.852	2774.35
1712.073	2745.45
1715.294	2728.64
1718.515	2789.7
1721.736	2736.96
1724.956	2734.26
1728.176	2760.75
1731.396	2780.39
1734.616	2769.8
1737.835	2796.6
1741.054	2776.58
1744.272	2770.35
1747.491	2802.86
1750.709	2856.78
1753.927	2760.1
1757.144	2805.48
1760.361	2848.56
1763.578	2840.8
1766.795	2778.97
1770.011	2786.08
1773.227	2827.31
1776.443	2862.52
1779.658	2907.9
1782.874	2851.49
1786.089	2827.78
1789.303	2831.04
1792.518	2835.13
1795.732	2821.28
1798.945	2831.98
1802.159	2884.57
1805.372	2783.13
1808.585	2770.57
1811.797	2769.63
1815.01	2820.93
1818.222	2821.02
1821.434	2795.53
1824.645	2857.19
1827.856	2840.11
1831.067	2878.97
1834.278	2831.76
1837.488	2816.28
1840.698	2969.11
1843.908	2890.52
1847.117	2852.83
1850.326	2732.71
1853.535	2841.08
1856.744	2865.68
1859.952	2777.14
1863.16	2780.23
1866.368	2802.37
1869.575	2909.28
1872.782	2791.72
1875.989	2729.39
1879.196	2814.69
1882.402	2807.3
1885.608	2850.15
1888.814	2747.84
1892.019	2641.61
1895.224	2693.85
1898.429	2676.85
1901.634	2650.3
1904.838	2628.07
1908.042	2679.38
1911.246	2685.48
1914.449	2615.39
1917.652	2612.46
1920.855	2594.42
1924.058	2645.69
1927.26	2683.79
1930.462	2710.17
1933.664	2735.99
1936.865	2672.19
1940.066	2680.16
1943.267	2624.61
1946.467	2643.45
1949.668	2672.21
1952.868	2739.42
1956.067	2715.46
1959.267	2646.52
1962.466	2674.85
1965.665	2659.91
1968.863	2655.31
1972.061	2672.22
1975.259	2673.37
1978.457	2753.13
1981.654	2712.62
1984.852	2710.57
1988.048	2643.5
1991.245	2645.73
1994.441	2729.59
1997.637	2715.22
2000.833	2699.48
2004.028	2738.83
2007.223	2792.02
2010.418	2766.61
2013.613	2731.08
2016.807	2696.93
2020.001	2707.41
2023.194	2750.77
2026.388	2727.21
2029.581	2677.08
2032.774	2727.12
2035.966	2731.23
2039.158	2661.77
2042.35	2693.28
2045.542	2618.41
2048.733	2717.85
2051.924	2738.93
2055.115	2767.27
2058.306	2710.71
2061.496	2772.3
2064.686	2835.39
2067.875	2747.21
2071.065	2761.08
2074.254	2789.9
2077.442	2739.98
2080.631	2830.67
2083.819	2721.53
2087.007	2707.7
2090.195	2676.18
2093.382	2712.85
2096.569	2691.81
2099.756	2644.25
2102.942	2670.52
2106.128	2678.36
2109.314	2669.54
2112.5	2632.57
2115.685	2606.99
2118.87	2617.24
2122.055	2683.35
2125.239	2650.04
2128.424	2621.72
2131.608	2727.2
2134.791	2706.95
2137.974	2764.09
2141.157	2750.9
2144.34	2700.37
2147.523	2714.44
2150.705	2730.95
2153.887	2708.96
2157.068	2655.2
2160.25	2658.85
2163.431	2699.07
2166.611	2642.36
2169.792	2658.68
2172.972	2551.3
2176.152	2629.51
2179.331	2664.15
2182.511	2648.05
2185.69	2678.31
2188.868	2673.12
2192.047	2729.95
2195.225	2718.4
2198.403	2666.82
2201.58	2658
2204.758	2654.61
2207.935	2736.27
2211.111	2626.35
2214.288	2609.91
2217.464	2649.14
2220.64	2619.5
2223.815	2676.61
2226.991	2595.98
2230.166	2615.28
2233.34	2645.75
2236.515	2672.3
2239.689	2748.39
2242.863	2692.41
2246.036	2744.3
2249.209	2747.59
2252.382	2784.78
2255.555	2769.13
2258.727	2704.28
2261.9	2746.77
2265.071	2739.72
2268.243	2741.39
2271.414	2673.16
2274.585	2632.48
2277.756	2705.2
2280.926	2660.14
2284.096	2700.76
2287.266	2603.27
2290.436	2661.95
2293.605	2689.58
2296.774	2722.34
2299.942	2746.17
2303.111	2761.1
2306.279	2811.09
2309.447	2795.79
2312.614	2766.94
2315.781	2789.24
2318.948	2757.12
2322.115	2796.93
2325.281	2699.19
2328.447	2720.19
2331.613	2692.92
2334.779	2661.5
2337.944	2665.62
2341.109	2663.44
2344.274	2647.34
2347.438	2613.67
2350.602	2637.59
2353.766	2655.4
2356.929	2640.97
2360.092	2679.79
2363.255	2631.48
2366.418	2562.51
2369.58	2680.73
2372.742	2463.8
2375.904	2478.13
2379.066	2452.47
2382.227	2489.3
2385.388	2451.85
2388.548	2378.59
2391.709	2435.63
2394.869	2417.49
2398.029	2518.25
2401.188	2532.24
2404.347	2462.12
2407.506	2608.02
2410.665	2636.94
2413.823	2643.03
2416.981	2599.44
2420.139	2633.3
2423.296	2680.44
2426.453	2652.84
2429.61	2677.47
2432.767	2609.81
2435.923	2649.04
2439.079	2612.05
2442.235	2663.1
2445.391	2587.78
2448.546	2619.74
2451.701	2669.14
2454.855	2638.31
2458.009	2696.05
2461.163	2697.56
2464.317	2654.98
2467.471	2688.09
2470.624	2727.15
2473.777	2696.82
2476.929	2709.32
2480.082	2735.49
2483.234	2697.02
2486.385	2654.01
2489.537	2645.84
2492.688	2603.91
2495.839	2622.51
2498.989	2632.5
2502.14	2618.99
2505.29	2598.83
2508.439	2627.51
2511.589	2548.49
2514.738	2564.25
2517.887	2595.4
2521.035	2658.99
2524.183	2639.88
2527.331	2620.36
2530.479	2593.45
2533.627	2605.77
