Data from C_3_DIV_IL_4N_Splice17_13-19-10-635.txt Node
Date: Sat Mar 14 13:19:10 EDT 2020
User: sa697716
Spectrometer: FLMS03696
Trigger mode: 0
Integration Time (sec): 3.180400E-1
Scans to average: 20
Electric dark correction enabled: true
Nonlinearity correction enabled: true
Boxcar width: 5
XAxis mode: Wavelengths
Number of Pixels in Spectrum: 2048
>>>>>Begin Spectral Data<<<<<
187.83	-283772.85
188.298	2019.52
188.766	1177.41
189.233	1077.79
189.701	1496.69
190.169	2011.25
190.636	812.07
191.104	694.85
191.571	89.24
192.039	-104.69
192.506	-198.3
192.974	476.15
193.441	-778.39
193.908	-148.3
194.375	-61.23
194.842	-19.61
195.31	103.44
195.777	245.96
196.244	461.75
196.711	455.46
197.177	535.7
197.644	700.55
198.111	1230.26
198.578	1658.81
199.045	1345.23
199.511	2203.85
199.978	2505.34
200.445	2071.31
200.911	2229.04
201.378	2446.06
201.844	2182.99
202.31	3657.19
202.777	3753.13
203.243	2050.34
203.709	1958.26
204.176	2285.6
204.642	1859.1
205.108	1732.87
205.574	1402.1
206.04	1241.41
206.506	1161.63
206.972	1084.49
207.438	1050.27
207.903	1205.47
208.369	1059.5
208.835	1033.28
209.301	1083.92
209.766	1093.96
210.232	1085.11
210.697	1310.3
211.163	1598.81
211.628	2348.48
212.094	1978.13
212.559	2419.67
213.024	1474.67
213.49	1785.39
213.955	1737.34
214.42	1632.54
214.885	1499.84
215.35	1404.95
215.815	1402.19
216.28	1477.45
216.745	1169.6
217.21	1221.73
217.675	1030.3
218.14	1097.51
218.604	1125.87
219.069	1194.91
219.534	1200.09
219.998	1276.38
220.463	1421.5
220.927	1505.96
221.392	1288.91
221.856	1242.79
222.32	1403.89
222.785	1652.8
223.249	1927.54
223.713	2042.11
224.177	1946.79
224.642	2304.43
225.106	2701.11
225.57	2800.62
226.034	2110.19
226.497	3149.43
226.961	2770.5
227.425	3208.78
227.889	3446.04
228.353	3355.38
228.816	6637.35
229.28	6214.62
229.744	5130.87
230.207	3152.82
230.671	3098.42
231.134	4807.94
231.597	5561.13
232.061	5384.63
232.524	5070.32
232.987	3439.83
233.45	3126.68
233.914	2798.69
234.377	2774.03
234.84	2534.65
235.303	2870.27
235.766	3169.46
236.229	3274.68
236.691	1994.43
237.154	2224.03
237.617	1707.11
238.08	1726.36
238.542	1977.29
239.005	1415.77
239.468	1416.62
239.93	1324.44
240.393	1216.02
240.855	1064.18
241.317	1077.2
241.78	1282.9
242.242	1335.25
242.704	1476.29
243.166	1316.56
243.629	1244.31
244.091	1439.1
244.553	1573.81
245.015	1702.02
245.477	2173.38
245.939	3161.56
246.4	3321.36
246.862	3237.99
247.324	3048.54
247.786	3325.41
248.247	4236.58
248.709	4141.08
249.17	3094.19
249.632	3039.97
250.093	3585.77
250.555	3087.32
251.016	1910.81
251.477	1835.95
251.939	2011.32
252.4	2082.58
252.861	2445.8
253.322	2337.89
253.783	2795.82
254.244	3602.83
254.705	2757.37
255.166	2410.02
255.627	2405.22
256.088	3417.4
256.549	3648.63
257.009	3091.32
257.47	3746.47
257.931	3014.35
258.391	2239.45
258.852	2320.54
259.312	2426.53
259.773	2989
260.233	2594.22
260.694	2201.49
261.154	2450.05
261.614	2014.64
262.074	1795.82
262.534	1880.11
262.994	1790.88
263.455	2339.28
263.915	1966.51
264.374	1832.11
264.834	1971.04
265.294	2105.15
265.754	2173.45
266.214	2032.52
266.673	1868.39
267.133	2314.64
267.593	2248.22
268.052	2747.99
268.512	2376.95
268.971	2927.96
269.431	3208.14
269.89	2882.79
270.349	4346.92
270.809	4853.17
271.268	4375.85
271.727	9629.5
272.186	6339.02
272.645	4806.47
273.104	3402.74
273.563	4927.79
274.022	3733.24
274.481	3235.67
274.94	2517.08
275.399	1847.48
275.857	2115.2
276.316	2864.92
276.775	2593.53
277.233	2560.04
277.692	2447.62
278.15	2828.5
278.609	3008.94
279.067	2826.22
279.525	2662.26
279.984	3404.47
280.442	4155.87
280.9	4227.68
281.358	2813.08
281.816	2650.78
282.274	2604.84
282.732	2637.85
283.19	2640.68
283.648	2258.35
284.106	2402.58
284.564	2414.7
285.021	2280.95
285.479	1693.95
285.937	1502.73
286.394	1357.58
286.852	1384.02
287.309	1473.88
287.767	1485.02
288.224	1448.19
288.682	1600.7
289.139	1803.95
289.596	1680.67
290.053	1743.23
290.511	2194.09
290.968	2692.81
291.425	3562.58
291.882	3037.03
292.339	2631.63
292.796	2538.49
293.252	2332.94
293.709	1885.49
294.166	1669.21
294.623	1817.86
295.079	1722.07
295.536	1759.98
295.992	1608.91
296.449	1599.02
296.905	1652.83
297.362	1607.32
297.818	1686.92
298.274	1793.4
298.731	1785.83
299.187	1756.04
299.643	1872.48
300.099	2288.05
300.555	2499.82
301.011	2074.15
301.467	2069.74
301.923	2381.76
302.379	2340.13
302.835	2309.27
303.291	2330.61
303.746	2667.08
304.202	3412.34
304.658	3431.87
305.113	2315.75
305.569	2287
306.024	2439.02
306.479	2242.66
306.935	1939.89
307.39	2075.93
307.845	1927.24
308.301	1925.03
308.756	1862.78
309.211	1809.22
309.666	1869.28
310.121	2365.48
310.576	2381.05
311.031	2361.98
311.486	2690.86
311.94	2603.77
312.395	3494.06
312.85	6561.49
313.305	31881.39
313.759	173602.21
314.214	12602.37
314.668	10158.85
315.123	8641.27
315.577	3170.32
316.032	2852.34
316.486	3589.31
316.94	2931.75
317.394	2071.81
317.849	1628.91
318.303	1543.42
318.757	1452.45
319.211	1598.41
319.665	1392.7
320.119	1405.07
320.572	1969.2
321.026	1848.68
321.48	1550.73
321.934	1654.17
322.387	1642.41
322.841	1778.63
323.295	1673.09
323.748	1871.26
324.202	1911.05
324.655	2335.37
325.108	3374.28
325.562	2427.32
326.015	2860.35
326.468	2180.8
326.921	2462.34
327.374	2340.98
327.827	2466.06
328.28	2754.42
328.733	1877.07
329.186	1658.11
329.639	1575.39
330.092	1300.67
330.545	1240.64
330.997	1286.43
331.45	1445.41
331.903	1722.43
332.355	2935.2
332.808	2865.34
333.26	2356.67
333.713	2592.09
334.165	2579.95
334.617	3391.59
335.069	2685.2
335.522	4799.07
335.974	5275.17
336.426	4710.41
336.878	3188.72
337.33	1633.3
337.782	1572.01
338.234	2021.51
338.686	2398.87
339.137	2905.86
339.589	2747.65
340.041	2186.87
340.493	1902.47
340.944	1944.17
341.396	2109.46
341.847	1831.43
342.299	2251.71
342.75	2850.33
343.201	2418.76
343.653	2741.18
344.104	3319.43
344.555	2640.04
345.006	3987.45
345.457	3152.01
345.908	2475.75
346.359	2354.38
346.81	1899.04
347.261	1926.54
347.712	1831.84
348.163	1940.28
348.613	2043.87
349.064	1916.38
349.515	1660.65
349.965	1753.84
350.416	2062.93
350.866	2270.18
351.317	2547.35
351.767	4231.58
352.217	5371.56
352.668	4515.29
353.118	4208.07
353.568	3911.95
354.018	3147.06
354.468	3367.56
354.918	2436.91
355.368	2142.94
355.818	3018.84
356.268	8526.61
356.718	36701.54
357.168	9301.25
357.617	4681.3
358.067	5185.23
358.517	4897.33
358.966	5834.16
359.416	6704.46
359.865	7158.07
360.315	8486.06
360.764	3990.09
361.213	2235.52
361.663	2044.68
362.112	2476.28
362.561	3960.28
363.01	3012.82
363.459	2535.77
363.908	2707.24
364.357	2328.53
364.806	3949.35
365.255	2709.16
365.703	2545.85
366.152	2611.12
366.601	2173.86
367.05	1796.3
367.498	1668.1
367.947	1729
368.395	1800.99
368.844	1604.55
369.292	1875.15
369.74	1317.12
370.189	2015.73
370.637	2354.53
371.085	2013.49
371.533	2425.46
371.981	2322.95
372.429	2231.4
372.877	2333.45
373.325	1980.11
373.773	2010.46
374.221	1789.69
374.669	2205.12
375.116	1898.49
375.564	1914.39
376.012	2164.44
376.459	1806.83
376.907	2123.71
377.354	2535.2
377.801	2416.92
378.249	2813.88
378.696	3588.36
379.143	4410.39
379.591	4682.17
380.038	8091.87
380.485	5953.01
380.932	6491.24
381.379	6095.89
381.826	4702.28
382.273	3402.31
382.72	2966.46
383.166	2956.1
383.613	1996.71
384.06	1833.6
384.506	2188.64
384.953	1640.19
385.4	1684
385.846	1517.44
386.292	1505.76
386.739	1528.87
387.185	1580.14
387.631	1687.43
388.078	1753.39
388.524	1957.32
388.97	1909.99
389.416	1677.3
389.862	1846.7
390.308	1808.29
390.754	1911.36
391.2	2175.54
391.645	2356.42
392.091	2448.39
392.537	2507.73
392.983	2617.36
393.428	2711.18
393.874	3033.94
394.319	3252.23
394.765	3396.41
395.21	3862.82
395.655	4018.64
396.101	4169.13
396.546	4134.58
396.991	4551.96
397.436	4648.25
397.881	4951.58
398.326	5192.4
398.771	5420.85
399.216	5209.24
399.661	5108.65
400.106	5495.72
400.551	6045.93
400.995	5780.81
401.44	6074.17
401.885	6022.15
402.329	6398.23
402.774	6423.72
403.218	6478.96
403.663	6531.28
404.107	7016.1
404.551	7403.52
404.995	7135.52
405.44	7238.15
405.884	7724.47
406.328	7829.58
406.772	8139.26
407.216	7727.85
407.66	7822.67
408.104	7837.94
408.547	7698.31
408.991	7771.21
409.435	7774.44
409.879	7908.5
410.322	8040.51
410.766	8004.2
411.209	7851.69
411.653	7806.06
412.096	7897.4
412.54	8152.09
412.983	8312.95
413.426	8519.73
413.869	8731.26
414.312	8745.35
414.756	8637.64
415.199	8433.96
415.642	8353.54
416.085	8520.81
416.527	8614.84
416.97	8901.47
417.413	8553.78
417.856	8581.94
418.298	8594.56
418.741	8598.08
419.184	8642.08
419.626	9069.01
420.069	9113.95
420.511	9223.05
420.953	9097.63
421.396	9091.08
421.838	8956.27
422.28	9246.21
422.722	9373.74
423.164	9653.61
423.606	9632.89
424.048	9791
424.49	9414.06
424.932	9509.68
425.374	9504.24
425.816	9741.56
426.258	9904.73
426.699	9898.31
427.141	9555.48
427.582	9548.55
428.024	9401.98
428.465	9379.42
428.907	9253.87
429.348	9323.35
429.789	9461.01
430.231	9363.53
430.672	9613.3
431.113	9574.12
431.554	9737.27
431.995	9922.1
432.436	9942.93
432.877	10063.53
433.318	10119.73
433.759	10272.83
434.2	10408.94
434.64	10434.67
435.081	10606.89
435.522	10210.05
435.962	10035.58
436.403	9965.7
436.843	10272.74
437.284	10214.91
437.724	10067.91
438.164	10241.91
438.604	10106.97
439.045	9804.23
439.485	9483.45
439.925	9429.69
440.365	9336.16
440.805	9318.59
441.245	9281.25
441.685	8990.31
442.125	8977.32
442.564	9066.76
443.004	8862.37
443.444	8870.31
443.883	8918.69
444.323	8951.82
444.762	9064.94
445.202	9245.82
445.641	9428.46
446.081	9460.87
446.52	9584.15
446.959	9545.5
447.398	9377.03
447.837	9358.79
448.276	9280.55
448.716	9420.55
449.154	9527.15
449.593	9256.45
450.032	9193.2
450.471	9039.92
450.91	9028.41
451.349	8959.66
451.787	8898.87
452.226	8991.48
452.664	8943.73
453.103	8905.95
453.541	8876.55
453.98	8788.78
454.418	8836.46
454.856	8648.07
455.295	8597.54
455.733	8602.35
456.171	8616.39
456.609	8560.02
457.047	8512.01
457.485	8566.94
457.923	8534.51
458.361	8391.5
458.798	8420.73
459.236	8397.31
459.674	8491.03
460.111	8543.01
460.549	8482.53
460.987	8495.15
461.424	8511.4
461.862	8498.75
462.299	8406.14
462.736	8414.58
463.173	8471.53
463.611	8358.57
464.048	8348.23
464.485	8438.14
464.922	8409.3
465.359	8433.52
465.796	8251.82
466.233	8241.48
466.67	8197.08
467.106	8218.9
467.543	8215.8
467.98	8182.38
468.416	8089.57
468.853	8128.01
469.29	7971.06
469.726	7951.43
470.162	7794.01
470.599	7855.2
471.035	7853.89
471.471	7736.47
471.907	7776.62
472.344	7776.52
472.78	7806.5
473.216	7920.89
473.652	7815.96
474.088	7799.82
474.523	7756.91
474.959	7828.63
475.395	7746.18
475.831	7667.78
476.266	7686.67
476.702	7639.76
477.138	7523.08
477.573	7473.34
478.008	7409.54
478.444	7394.82
478.879	7396.92
479.314	7380.69
479.75	7319.38
480.185	7304.41
480.62	7312.74
481.055	7286.77
481.49	7256.96
481.925	7269.97
482.36	7251.54
482.795	7320.56
483.229	7376.61
483.664	7389.33
484.099	7294.68
484.534	7289.59
484.968	7256.04
485.403	7193.95
485.837	7117.25
486.271	7040.76
486.706	7004.74
487.14	6931.16
487.574	6819.75
488.009	6767.37
488.443	6706.97
488.877	6737.2
489.311	6728.33
489.745	6763.35
490.179	6777.98
490.613	6835.88
491.046	6854.26
491.48	6863.21
491.914	6826.2
492.348	6834.98
492.781	6834.52
493.215	6823.78
493.648	6829.38
494.082	6860.57
494.515	6831.23
494.948	6861.83
495.382	6880.31
495.815	6873.38
496.248	6868.49
496.681	6936.24
497.114	6987.8
497.547	7010.34
497.98	7043.32
498.413	7001.52
498.846	7001.71
499.279	7012.34
499.711	6994.49
500.144	6952.34
500.577	6962.75
501.009	6986.83
501.442	6989.25
501.874	6928.91
502.306	6900.86
502.739	6899.07
503.171	6989.34
503.603	6967.5
504.036	6984.17
504.468	6958.07
504.9	6976.26
505.332	6968.98
505.764	6935.03
506.196	6927.45
506.627	6963.07
507.059	6979.88
507.491	6983.69
507.923	6875.32
508.354	6897.81
508.786	6894.15
509.217	6939.75
509.649	6958.16
510.08	6999.48
510.512	7009.94
510.943	7008.22
511.374	6982.6
511.805	7013.65
512.237	7038.02
512.668	7143.93
513.099	7197.38
513.53	7223.03
513.961	7193.89
514.391	7234.85
514.822	7269.37
515.253	7334.98
515.684	7347.59
516.114	7388.8
516.545	7384.92
516.975	7414.91
517.406	7406.01
517.836	7337.19
518.267	7306.77
518.697	7346.29
519.127	7318.16
519.558	7308.49
519.988	7273.61
520.418	7272.56
520.848	7307.53
521.278	7295.99
521.708	7155.49
522.138	7157.5
522.567	7240.51
522.997	7280.98
523.427	7266.07
523.857	7251.32
524.286	7218.5
524.716	7215.18
525.145	7232.77
525.575	7219.5
526.004	7229.25
526.433	7288.4
526.863	7237.76
527.292	7147.86
527.721	7146.47
528.15	7163.7
528.579	7161.02
529.008	7191.35
529.437	7263.6
529.866	7284.2
530.295	7312.53
530.724	7312.2
531.152	7378.17
531.581	7393.43
532.01	7431.08
532.438	7432.25
532.867	7458.64
533.295	7498.74
533.723	7494.4
534.152	7460.69
534.58	7440.97
535.008	7361.03
535.436	7351.86
535.865	7367.99
536.293	7405.33
536.721	7437.17
537.149	7496.48
537.576	7465.98
538.004	7487.49
538.432	7502.01
538.86	7482.75
539.287	7500.62
539.715	7543.06
540.143	7552.17
540.57	7537.24
540.998	7530.85
541.425	7450.9
541.852	7394.56
542.28	7418.85
542.707	7383.34
543.134	7347.97
543.561	7351.13
543.988	7339.42
544.415	7357.44
544.842	7350.3
545.269	7334.55
545.696	7355.47
546.123	7427.53
546.549	7402.39
546.976	7361.8
547.403	7370.99
547.829	7393.96
548.256	7421.23
548.682	7424.06
549.108	7407.8
549.535	7423.23
549.961	7446.42
550.387	7404.7
550.813	7388.44
551.24	7427.48
551.666	7447.16
552.092	7423.38
552.518	7410.37
552.943	7389.89
553.369	7424.96
553.795	7450.86
554.221	7455.41
554.646	7443.87
555.072	7479.95
555.498	7498.15
555.923	7521.76
556.349	7566.23
556.774	7584.01
557.199	7577.74
557.625	7601.52
558.05	7577.1
558.475	7621.82
558.9	7616.83
559.325	7583.21
559.75	7564.04
560.175	7548.06
560.6	7534.68
561.025	7538.88
561.449	7554.63
561.874	7582.19
562.299	7592.48
562.723	7614.15
563.148	7562.96
563.572	7577.9
563.997	7617.86
564.421	7641.34
564.846	7636.33
565.27	7639.74
565.694	7618.17
566.118	7654.51
566.542	7672.98
566.966	7639.61
567.39	7613.65
567.814	7560.86
568.238	7554.04
568.662	7575.65
569.086	7588.71
569.509	7638.19
569.933	7592.69
570.357	7593.78
570.78	7537.68
571.204	7512.68
571.627	7506.71
572.05	7539.69
572.474	7579.62
572.897	7572.49
573.32	7580.23
573.743	7585.53
574.166	7539.36
574.589	7581.93
575.012	7583.02
575.435	7617.27
575.858	7618.8
576.281	7611.74
576.704	7590.02
577.126	7592.61
577.549	7593.93
577.972	7602.84
578.394	7601.65
578.817	7611.02
579.239	7578.29
579.661	7566.74
580.084	7536.51
580.506	7525.62
580.928	7560.56
581.35	7555.14
581.772	7573.52
582.194	7540.24
582.616	7506.22
583.038	7465.7
583.46	7447.29
583.882	7449.16
584.303	7491.69
584.725	7490
585.147	7476
585.568	7504.62
585.99	7523.35
586.411	7509.38
586.833	7541.58
587.254	7519.7
587.675	7568.18
588.096	7610.72
588.518	7570.79
588.939	7473.18
589.36	7451.88
589.781	7431.95
590.202	7300.42
590.623	7292.83
591.043	7321.91
591.464	7288.65
591.885	7284.39
592.305	7265.76
592.726	7204.83
593.147	7212.8
593.567	7190.18
593.987	7152.9
594.408	7124.13
594.828	7123.99
595.248	7080.82
595.669	6974.03
596.089	6931.66
596.509	6898.53
596.929	6821.02
597.349	6807.26
597.769	6740.23
598.189	6685.42
598.608	6668.05
599.028	6650.31
599.448	6628.45
599.867	6554.15
600.287	6526.13
600.706	6491.92
601.126	6432.29
601.545	6414.81
601.965	6404.12
602.384	6374.11
602.803	6386.16
603.222	6360.88
603.641	6334.06
604.061	6314.23
604.48	6297.24
604.898	6333.77
605.317	6358.16
605.736	6366.99
606.155	6350.8
606.574	6307.69
606.992	6333.48
607.411	6312.23
607.829	6282.09
608.248	6273.52
608.666	6273.33
609.085	6275.82
609.503	6242.63
609.921	6219.64
610.339	6236.87
610.758	6244.8
611.176	6231.93
611.594	6199.39
612.012	6195.31
612.43	6215.76
612.847	6252.04
613.265	6254.77
613.683	6279.62
614.101	6292.74
614.518	6290.82
614.936	6259.35
615.353	6206.82
615.771	6209.93
616.188	6227.57
616.606	6228.9
617.023	6218.86
617.44	6173.65
617.857	6172.58
618.274	6158.47
618.691	6146.02
619.108	6115.66
619.525	6095.49
619.942	6129.5
620.359	6142.51
620.776	6119.24
621.192	6092.28
621.609	6070.5
622.026	6086.59
622.442	6097.86
622.859	6102.64
623.275	6061.02
623.691	6078.39
624.108	6121.34
624.524	6180.52
624.94	6166.15
625.356	6198.7
625.772	6253.83
626.188	6302.55
626.604	6301.67
627.02	6274.84
627.436	6253.39
627.852	6269.86
628.268	6311.05
628.683	6261.95
629.099	6217.37
629.514	6200.36
629.93	6223.17
630.345	6246.94
630.761	6234.46
631.176	6260.11
631.591	6235.26
632.007	6217.93
632.422	6231.41
632.837	6197.15
633.252	6198.46
633.667	6170.92
634.082	6148.01
634.497	6107.37
634.911	6030.76
635.326	6042.99
635.741	5989.76
636.155	5977.86
636.57	6008.29
636.984	6032.59
637.399	6065.72
637.813	6103.15
638.228	6132.18
638.642	6189.36
639.056	6175.47
639.47	6220.11
639.884	6213.2
640.298	6222.54
640.712	6256.55
641.126	6240.75
641.54	6248.7
641.954	6283.27
642.368	6264.09
642.781	6254.59
643.195	6202.21
643.609	6244.68
644.022	6251.93
644.436	6266.4
644.849	6232.26
645.262	6199.24
645.676	6241.26
646.089	6232.97
646.502	6157.02
646.915	6153.61
647.328	6098.56
647.741	6115.79
648.154	6072.58
648.567	6071.25
648.98	6018.2
649.393	6050.41
649.805	6060.59
650.218	6046.7
650.631	5983.59
651.043	5982.85
651.456	5969.21
651.868	5989.22
652.28	6099.8
652.693	6163.72
653.105	6173.38
653.517	6186.85
653.929	6145.38
654.341	6149.3
654.753	6058.73
655.165	6099.8
655.577	6094.46
655.989	6089.92
656.401	6080.33
656.813	5901.65
657.224	5854.94
657.636	5781.74
658.047	5768.71
658.459	5749.3
658.87	5789.1
659.282	5799.71
659.693	5722.36
660.104	5682.13
660.515	5644.13
660.926	5675.51
661.338	5710.34
661.749	5715.74
662.159	5688.79
662.57	5712.21
662.981	5715.31
663.392	5693.07
663.803	5750.09
664.213	5771.44
664.624	5774.62
665.035	5829.79
665.445	5763.81
665.855	5729.7
666.266	5684.83
666.676	5690.53
667.086	5639.08
667.497	5642.23
667.907	5605.25
668.317	5542.08
668.727	5491.75
669.137	5501.29
669.547	5476.05
669.956	5491.97
670.366	5500.38
670.776	5500.57
671.186	5518.82
671.595	5524.97
672.005	5540.76
672.414	5514.41
672.824	5482.05
673.233	5523.18
673.642	5516.49
674.052	5512.58
674.461	5498.02
674.87	5510.9
675.279	5465.76
675.688	5461.47
676.097	5437.75
676.506	5388.91
676.915	5468.39
677.323	5461.6
677.732	5420.43
678.141	5392.22
678.549	5297.8
678.958	5268.85
679.366	5236.21
679.775	5247.34
680.183	5259.44
680.592	5265.44
681	5259.2
681.408	5165.96
681.816	5168.7
682.224	5174.21
682.632	5164.44
683.04	5275.35
683.448	5321.46
683.856	5362.37
684.264	5392.9
684.671	5405.97
685.079	5446.65
685.487	5499.56
685.894	5628.38
686.302	5683.05
686.709	5672.7
687.116	5695.1
687.524	5669.54
687.931	5638.84
688.338	5618.07
688.745	5602.6
689.152	5599.03
689.559	5616.98
689.966	5611.42
690.373	5516.46
690.78	5481.55
691.187	5518.66
691.593	5488.97
692	5436.54
692.407	5444.13
692.813	5481.49
693.22	5480.8
693.626	5493.71
694.032	5475.59
694.439	5534.6
694.845	5553.76
695.251	5614.35
695.657	5648.05
696.063	5762.86
696.469	5807.21
696.875	5831.83
697.281	5785.97
697.687	5751.84
698.093	5693.36
698.498	5712.72
698.904	5695.07
699.31	5736.87
699.715	5730.15
700.12	5797.87
700.526	5728.6
700.931	5769.59
701.337	5783.85
701.742	5772.99
702.147	5857.68
702.552	5845.13
702.957	5891.39
703.362	5868.69
703.767	5866.95
704.172	5889.48
704.577	5758.77
704.981	5788.23
705.386	5761.21
705.791	5696.67
706.195	5770.49
706.6	5736.21
707.004	5822.93
707.408	5727.09
707.813	5727.06
708.217	5664.12
708.621	5622.64
709.025	5731.42
709.43	5690.55
709.834	5740.38
710.237	5807.42
710.641	5742.31
711.045	5735.74
711.449	5683.64
711.853	5678.58
712.256	5692.34
712.66	5694.97
713.064	5742.73
713.467	5720.25
713.87	5772.5
714.274	5709.29
714.677	5708.28
715.08	5753.09
715.484	5787.41
715.887	5840.15
716.29	5880.74
716.693	5913.36
717.096	5976.68
717.499	5940.73
717.901	5841.73
718.304	5814.56
718.707	5841.45
719.109	5777.6
719.512	5808.04
719.915	5728.03
720.317	5729.7
720.719	5819.88
721.122	5830.51
721.524	5809.34
721.926	5778.64
722.328	5877.07
722.731	5822.8
723.133	5790.02
723.535	5922.51
723.937	5868.11
724.338	5851.93
724.74	5841.81
725.142	5751.91
725.544	5733.46
725.945	5750.97
726.347	5737.34
726.748	5724.62
727.15	5738.92
727.551	5694.56
727.952	5658.62
728.354	5623.68
728.755	5635.34
729.156	5617.97
729.557	5640.6
729.958	5559.17
730.359	5554.97
730.76	5597.76
731.161	5603.7
731.562	5641.66
731.962	5711.23
732.363	5703.09
732.763	5688.7
733.164	5774.2
733.564	5732.57
733.965	5643.74
734.365	5622.08
734.766	5665.33
735.166	5624.77
735.566	5555.98
735.966	5520.11
736.366	5510.07
736.766	5437.83
737.166	5483.32
737.566	5444.58
737.966	5417.75
738.365	5469.47
738.765	5463.12
739.165	5378.51
739.564	5352.48
739.964	5414.83
740.363	5375.52
740.763	5385.3
741.162	5384.22
741.561	5350.27
741.96	5303.35
742.36	5339.11
742.759	5354.16
743.158	5410.01
743.557	5435.85
743.955	5488.22
744.354	5437.88
744.753	5506.72
745.152	5460.41
745.55	5526.59
745.949	5519.49
746.348	5518.74
746.746	5530.57
747.144	5479.07
747.543	5447.28
747.941	5495.97
748.339	5408.78
748.737	5392.02
749.136	5373.94
749.534	5441.7
749.932	5402.4
750.33	5426.38
750.727	5489.2
751.125	5466.34
751.523	5451.21
751.921	5504.55
752.318	5468.09
752.716	5537.1
753.113	5554.13
753.511	5583.36
753.908	5583.98
754.305	5564.38
754.703	5635.34
755.1	5702.75
755.497	5760.94
755.894	5945.11
756.291	6055.37
756.688	6239.15
757.085	6421
757.482	6661.25
757.878	6844.34
758.275	6909.98
758.672	7129.03
759.068	7182.02
759.465	7375.33
759.861	7643.13
760.258	7944.7
760.654	7891.06
761.05	7586.98
761.447	7271.31
761.843	6999.14
762.239	6772.79
762.635	6832.61
763.031	6868.58
763.427	6761.21
763.822	6639.15
764.218	6540.93
764.614	6290.63
765.01	6205.53
765.405	6234.21
765.801	6294.79
766.196	6249.45
766.592	6306.59
766.987	6198.3
767.382	6154.7
767.778	6211.44
768.173	6192.34
768.568	6210.79
768.963	6143.94
769.358	6223.2
769.753	6217.58
770.148	6163.4
770.542	6195.28
770.937	6186.01
771.332	6312.65
771.726	6351.7
772.121	6289.66
772.515	6363.98
772.91	6356.73
773.304	6454.99
773.699	6384.68
774.093	6454.82
774.487	6521.78
774.881	6576.28
775.275	6567.12
775.669	6516
776.063	6568.77
776.457	6605.37
776.851	6514.83
777.245	6496.6
777.638	6522.72
778.032	6650.26
778.425	6597.06
778.819	6641.03
779.212	6580.7
779.606	6526.36
779.999	6542.77
780.392	6509.43
780.786	6593.97
781.179	6600.96
781.572	6635.84
781.965	6637.91
782.358	6551.67
782.751	6599.2
783.143	6519.09
783.536	6576.55
783.929	6597.58
784.322	6700.05
784.714	6703.34
785.107	6667.34
785.499	6715.03
785.891	6651.32
786.284	6584.06
786.676	6696.86
787.068	6625.93
787.46	6638.24
787.852	6613.94
788.245	6661.71
788.636	6645.17
789.028	6673.49
789.42	6668.8
789.812	6633.05
790.204	6695.27
790.595	6764.67
790.987	6531
791.378	6532.18
791.77	6638.33
792.161	6750.52
792.553	6783.41
792.944	6639.23
793.335	6536.81
793.726	6579.64
794.117	6640.47
794.508	6749.16
794.899	6693.28
795.29	6805.53
795.681	6833.57
796.072	6661.38
796.463	6450.64
796.853	6424.22
797.244	6544.31
797.634	6546.81
798.025	6512.56
798.415	6488.97
798.806	6534.91
799.196	6569.66
799.586	6567.58
799.976	6476.88
800.366	6639.96
800.756	6804.33
801.146	6720.73
801.536	6703.28
801.926	6721.14
802.316	6707.84
802.706	6738.51
803.095	6595.49
803.485	6654.59
803.874	6661.85
804.264	6858.04
804.653	6805.81
805.043	6893.35
805.432	6947.72
805.821	6907.32
806.21	6882.33
806.599	6922.45
806.988	6893.5
807.377	6908.12
807.766	6939.96
808.155	7082.3
808.544	6787.7
808.933	6701.51
809.321	6594.73
809.71	6710.64
810.098	6709.51
810.487	6913.92
810.875	7110.88
811.264	6963.46
811.652	7001.94
812.04	6911.14
812.428	6829.33
812.816	7109.98
813.204	7158.79
813.592	7265.47
813.98	7261.77
814.368	7029.06
814.756	7129.09
815.144	6932.62
815.531	7052.56
815.919	6891.72
816.306	6962.48
816.694	6738.65
817.081	6732.75
817.469	6905.49
817.856	6934.1
818.243	7094.19
818.63	7305.25
819.017	7094.12
819.404	7094.68
819.791	7205.92
820.178	7409.35
820.565	7445.46
820.952	7837.4
821.339	7549.41
821.725	7581.12
822.112	7166.45
822.498	7075.59
822.885	7073.25
823.271	6991.42
823.657	7191.41
824.044	7237.81
824.43	7318.97
824.816	7317
825.202	7085.87
825.588	7496.53
825.974	7429.31
826.36	7576.56
826.746	7509.05
827.132	7587.7
827.517	7495.63
827.903	7067.9
828.289	7013.91
828.674	6616.57
829.06	6519.13
829.445	6644.4
829.83	6752.44
830.216	6905.48
830.601	7010.99
830.986	6820.88
831.371	6734.44
831.756	6939.01
832.141	6757.75
832.526	6733.7
832.911	6840.89
833.295	6787.77
833.68	6966.73
834.065	6717.79
834.449	6347.65
834.834	6322.75
835.218	6317.7
835.603	6452.02
835.987	6350.63
836.371	6662.98
836.755	6608.82
837.139	6745.2
837.524	6821.95
837.908	6730.71
838.291	6736.09
838.675	6739.94
839.059	6802.29
839.443	6764.8
839.827	6647.9
840.21	6803.55
840.594	6717.27
840.977	6762.41
841.361	6723.78
841.744	6831.19
842.127	6742.54
842.511	6801.85
842.894	6996.95
843.277	7100.7
843.66	7267.51
844.043	7266.12
844.426	6947.25
844.809	6800.86
845.191	6782.85
845.574	6590.66
845.957	6424.86
846.339	6342.84
846.722	6103.62
847.104	6069.32
847.487	5953.43
847.869	5911.83
848.252	5960.59
848.634	6024.28
849.016	6065.73
849.398	6057.73
849.78	6289.23
850.162	6243.97
850.544	6326.76
850.926	6458.96
851.307	6368.61
851.689	6386.56
852.071	6457.62
852.452	6498.26
852.834	6433.43
853.215	6508.69
853.597	6519.43
853.978	6574.52
854.359	6678
854.741	6365.88
855.122	6347.17
855.503	6270
855.884	6330.91
856.265	6325.69
856.646	6360.34
857.026	6244.67
857.407	6218.5
857.788	6242.66
858.169	6299.06
858.549	6035.22
858.93	6199.3
859.31	6193.01
859.69	6237.02
860.071	6090.02
860.451	6000.9
860.831	5754.71
861.211	6049.82
861.591	6168.14
861.971	6126.44
862.351	6144.77
862.731	6187.47
863.111	6189.08
863.491	6206.76
863.87	6364.75
864.25	6383.66
864.629	6219.34
865.009	6289.4
865.388	6458.39
865.768	6856.83
866.147	6784.41
866.526	6368.94
866.905	6429
867.284	6782.09
867.663	6442.39
868.042	6180.66
868.421	6166.16
868.8	6251.39
869.179	6321.27
869.558	5947.53
869.936	5480.89
870.315	5557.83
870.693	5691.91
871.072	6122.63
871.45	5819.44
871.828	5875.71
872.207	6160.07
872.585	6040.6
872.963	6185.29
873.341	5948.04
873.719	5865.62
874.097	5775.85
874.475	5864.89
874.853	5970.31
875.23	5708.28
875.608	5929.72
875.986	6392.68
876.363	6093.28
876.741	6280.19
877.118	6111.07
877.495	6395.47
877.873	6463.65
878.25	6768.56
878.627	6474.97
879.004	6540.99
879.381	6480.22
879.758	6294.45
880.135	5839.22
880.512	6154.35
880.889	5951.46
881.265	5858.34
881.642	5776.86
882.019	5853.75
882.395	5729.57
882.772	5941.45
883.148	5663.16
883.524	5621.61
883.901	5560.58
884.277	5619.08
884.653	5556.99
885.029	5705.64
885.405	6307.32
885.781	6235.1
886.157	5959.02
886.532	6005.49
886.908	5965.59
887.284	6607.22
887.659	6797.76
888.035	6984.73
888.411	7140.13
888.786	7207.18
889.161	7422.06
889.537	7240.34
889.912	7430.39
890.287	7379.08
890.662	7500.87
891.037	7308.06
891.412	6743.8
891.787	6595.29
892.162	6295.23
892.536	6358.46
892.911	6031.54
893.286	5799.36
893.66	5468.11
894.035	5506.65
894.409	5869.3
894.784	5533.33
895.158	5528.68
895.532	5755.32
895.906	5799.88
896.281	5808.97
896.655	5605.28
897.029	6288.3
897.402	6446.84
897.776	7053.18
898.15	6935.34
898.524	6788.01
898.898	6793.39
899.271	7521.93
899.645	6458.38
900.018	6174.82
900.392	6413.16
900.765	6477.68
901.138	6025.97
901.511	5982.52
901.884	5571.05
902.258	5200.29
902.631	5447.27
903.003	6345.44
903.376	5782.88
903.749	6546.97
904.122	7042.19
904.495	7755.98
904.867	7825.22
905.24	6762.38
905.612	6233.72
905.985	6288.43
906.357	6484.36
906.729	6087.87
907.102	5128.62
907.474	4864
907.846	4823.57
908.218	4714.31
908.59	4145.62
908.962	3991.21
909.334	4275.31
909.705	4479.94
910.077	4329.03
910.449	4479.37
910.82	4593.61
911.192	5018.86
911.563	5206.02
911.935	5548.15
912.306	5525.25
912.677	5661.28
913.048	5594.18
913.419	6020.31
913.79	6007.74
914.161	6424.74
914.532	6152.27
914.903	5626.71
915.274	5340.79
915.645	5250.42
916.015	4619.52
916.386	4405.44
916.756	4694.73
917.127	4839.17
917.497	4373.59
917.868	4809.92
918.238	4616.48
918.608	4772.38
918.978	4923.36
919.348	5247.43
919.718	5470.96
920.088	5321.77
920.458	5594.8
920.828	5911.66
921.198	5646.65
921.567	6019.68
921.937	4661.07
922.306	4678.28
922.676	5034.24
923.045	4213.79
923.415	4013.17
923.784	3641.73
924.153	3741.51
924.522	3726.98
924.891	3480.18
925.26	3695.86
925.629	3576.64
925.998	4056.42
926.367	3932.99
926.736	3732.22
927.104	4341.19
927.473	4570.1
927.842	5396.21
928.21	5175.4
928.578	5260.15
928.947	4850.52
929.315	4745.32
929.683	5417.05
930.051	5305.06
930.42	5939.36
930.788	4873.66
931.156	4683.89
931.523	4282
931.891	3833
932.259	3586.78
932.627	4073.08
932.994	5593.79
933.362	4541.79
933.729	3864.5
934.097	3633.45
934.464	3044.13
934.831	3436.88
935.199	3341.62
935.566	3201.75
935.933	3199.62
936.3	3884.94
936.667	3017.79
937.034	2883.21
937.401	2875.81
937.767	2532.2
938.134	2305.97
938.501	3320.1
938.867	3666.35
939.234	6406.55
939.6	5586.62
939.967	6433.63
940.333	4445.26
940.699	3848.46
941.065	3019.37
941.431	4036.65
941.798	3993.35
942.163	5307.15
942.529	3293.15
942.895	3010.97
943.261	1954.77
943.627	2562.83
943.992	2234.07
944.358	2207.65
944.723	2253.56
945.089	2181.1
945.454	2004.78
945.82	2086.32
946.185	1985.7
946.55	2314.5
946.915	2080.12
947.28	2444.79
947.645	2181.01
948.01	2039.59
948.375	2167
948.74	2541.17
949.104	2987.04
949.469	4229.09
949.834	7546.13
950.198	7323.35
950.562	4409.1
950.927	3664.23
951.291	4349.92
951.655	3653.5
952.02	3343.28
952.384	2505.98
952.748	2212.79
953.112	2206.02
953.476	1934.97
953.839	1758.66
954.203	1749.88
954.567	2172.33
954.931	3371.75
955.294	2928.13
955.658	2956.02
956.021	5108.56
956.385	8574.57
956.748	12647.49
957.111	18981.59
957.474	21260.09
957.837	23969.72
958.2	17651.97
958.563	6365.11
958.926	4376.99
959.289	6587.12
959.652	7375.98
960.015	5542.02
960.377	7955.26
960.74	9086.04
961.102	15655.13
961.465	17239.33
961.827	9861.34
962.189	19169.13
962.552	13549.91
962.914	10859
963.276	7047.1
963.638	5883.63
964	5816.79
964.362	4031.15
964.724	3907.88
965.085	2832.58
965.447	2314.78
965.809	2534.16
966.17	2531.34
966.532	2732.59
966.893	2543.44
967.255	2345.89
967.616	2775.21
967.977	2262.77
968.338	2479.2
968.699	2088.89
969.061	2108.3
969.421	2160.33
969.782	2442.58
970.143	2133.33
970.504	2269.38
970.865	2623.23
971.225	2747.32
971.586	2701.45
971.946	3827.98
972.307	3304.43
972.667	4272.94
973.027	4443.93
973.388	5336.09
973.748	3645.76
974.108	3946.7
974.468	5179.58
974.828	4044.58
975.188	3062.94
975.548	2813.21
975.907	2369.98
976.267	2640.23
976.627	2256.06
976.986	2315.83
977.346	2208.59
977.705	2127.2
978.064	1914.73
978.424	1607
978.783	1615.37
979.142	1854.11
979.501	1788.41
979.86	1921.62
980.219	1871.93
980.578	2387.58
980.937	2676.13
981.296	2403.75
981.654	2486.5
982.013	3862.86
982.371	5085.52
982.73	4834.12
983.088	5498.73
983.447	5924.89
983.805	8493.8
984.163	17856.57
984.521	19763.86
984.879	29171.31
985.237	-47811.57
985.595	46813.8
985.953	11654.81
986.311	6672.3
986.669	3884.08
987.026	3359.22
987.384	4491.83
987.741	4628.38
988.099	3423.1
988.456	2762.26
988.814	2622.54
989.171	2292.5
989.528	2246.53
989.885	2389.42
990.242	1939.36
990.599	2380
990.956	1942.8
991.313	1367.62
991.67	1128.96
992.027	1235.49
992.383	1108.84
992.74	987.32
993.096	1051.75
993.453	1086.49
993.809	1123.9
994.165	1497.34
994.522	1458.34
994.878	1617.11
995.234	2041.66
995.59	2011.37
995.946	1824.99
996.302	2103.83
996.658	2388.44
997.013	2605.39
997.369	3168.49
997.725	4100.24
998.08	2647.26
998.436	3878.6
998.791	5389.98
999.147	5423.54
999.502	5975.09
999.857	4324.89
1000.212	6968.34
1000.567	10025.79
1000.922	5761.83
1001.277	3650.21
1001.632	2738.83
1001.987	3540.1
1002.342	2527.46
1002.696	2040.62
1003.051	1658.97
1003.406	2030.76
1003.76	2013.4
1004.114	2018.56
1004.469	1721.05
1004.823	1434.84
1005.177	1527.35
1005.531	1212.16
1005.885	1104.54
1006.239	1272.86
1006.593	1611.91
1006.947	2152.94
1007.301	1595.8
1007.655	1739.27
1008.008	1278.96
1008.362	1426.25
1008.715	2046.49
1009.069	1857.6
1009.422	2928.36
1009.776	5757.63
1010.129	3835.98
1010.482	3167.61
1010.835	2611.13
1011.188	5448.54
1011.541	5173.79
1011.894	-31500.08
1012.247	92779.64
1012.6	6298.3
1012.952	4075.98
1013.305	1992.24
1013.657	1483.32
1014.01	1413.64
1014.362	1172.44
1014.715	1113.45
1015.067	1001.01
1015.419	990.53
1015.771	889.08
1016.123	831.45
1016.475	875.1
1016.827	928.36
1017.179	1022.2
1017.531	1008.07
1017.883	1017.4
1018.234	1044.93
1018.586	1295.43
1018.938	1421.6
1019.289	1984.7
1019.64	2241.31
1019.992	2051.99
1020.343	1853.37
1020.694	1529.88
1021.045	1362.07
1021.396	1573.01
1021.747	1738.37
1022.098	2010.86
1022.449	1476.96
1022.8	1343.46
1023.151	952.8
1023.501	880.49
1023.852	933.5
1024.202	998.07
1024.553	1064.46
1024.903	1093.92
1025.253	977.27
1025.604	887.72
1025.954	1067.78
1026.304	1271.09
1026.654	1490.44
1027.004	2115.29
1027.354	3354.48
1027.703	3304.47
1028.053	4263.24
1028.403	6554.22
1028.753	8925.06
1029.102	11580.89
1029.452	57935
1029.801	2588.64
1030.15	1699.32
1030.499	1399
897.758	2825.46
901.051	2787.66
904.343	2823.81
907.636	2820.43
910.928	2888.28
914.22	2795.12
917.511	2803.22
920.803	2871.98
924.094	2896.41
927.384	2868.43
930.675	2836.09
933.965	2784.36
937.255	2788.73
940.544	2757.03
943.834	2677.19
947.123	2623.38
950.411	2723.84
953.7	2693.92
956.988	2655.53
960.276	2599.31
963.563	2688.17
966.851	2679.15
970.138	2742.66
973.424	2731.89
976.711	2680.64
979.997	2839.57
983.283	2869.15
986.568	2763.86
989.853	2788.71
993.138	2816.11
996.423	2899.18
999.708	2830.26
1002.992	2907.7
1006.275	2717.05
1009.559	2779.56
1012.842	2896.98
1016.125	2824.05
1019.408	2806.18
1022.69	2899.78
1025.972	2915.23
1029.254	2887.35
1032.536	2808.41
1035.817	2842.41
1039.098	2772.33
1042.379	2950.24
1045.659	2935.49
1048.939	2864.73
1052.219	2889.64
1055.498	2904.76
1058.778	2889.26
1062.057	2876.84
1065.335	2897.33
1068.614	2919.05
1071.892	2895.84
1075.17	2981.4
1078.447	2962.53
1081.724	2952.38
1085.001	2995.57
1088.278	2967.82
1091.554	2981.61
1094.83	2979.09
1098.106	3004.47
1101.382	3054.03
1104.657	3052.37
1107.932	3048.43
1111.206	3010.11
1114.481	2968.53
1117.755	2972.22
1121.029	2944.25
1124.302	2998.21
1127.575	2945.02
1130.848	2928.51
1134.121	2886.16
1137.393	2829.14
1140.665	2904.98
1143.937	2877.07
1147.208	2838.09
1150.48	2872.5
1153.75	2855.72
1157.021	2899.33
1160.291	2864.87
1163.561	2908.93
1166.831	2906.18
1170.101	2939.29
1173.37	2920.51
1176.639	2856.04
1179.907	2923.34
1183.176	2923.32
1186.444	2935.12
1189.711	2965.5
1192.979	2971.4
1196.246	2930.5
1199.513	2948.86
1202.78	2942.05
1206.046	2951.7
1209.312	2975.58
1212.578	3006.66
1215.843	2950.4
1219.108	2926.36
1222.373	2949.44
1225.638	2909.31
1228.902	2891.83
1232.166	2858.7
1235.43	2838.96
1238.693	2862.14
1241.956	2863.03
1245.219	2899.93
1248.482	2894.82
1251.744	2889.63
1255.006	3048.51
1258.268	3006.86
1261.529	2947.13
1264.79	2957.57
1268.051	3062.21
1271.312	3080.06
1274.572	3041.23
1277.832	3027.82
1281.092	3021.84
1284.351	2986.28
1287.61	2962.37
1290.869	2873.22
1294.128	2838.06
1297.386	2942.91
1300.644	2929.56
1303.902	2943.49
1307.159	2797.85
1310.416	2853.93
1313.673	2880.33
1316.93	2860.21
1320.186	2911.75
1323.442	2957.33
1326.697	2939
1329.953	2940.21
1333.208	2955.76
1336.463	2937.52
1339.717	2869.39
1342.972	3013.04
1346.226	2992.38
1349.479	2916.15
1352.733	2884.21
1355.986	2916.22
1359.238	2892.88
1362.491	2896.92
1365.743	2897.95
1368.995	2896.96
1372.247	2906.93
1375.498	2932.39
1378.749	2944.03
1382	2899.23
1385.251	2958.95
1388.501	2926.05
1391.751	2900.35
1395	2874.42
1398.25	2907.71
1401.499	2912.1
1404.748	2832.13
1407.996	2829.7
1411.244	2813.52
1414.492	2789.1
1417.74	2766.63
1420.987	2779.94
1424.234	2832.78
1427.481	2820.37
1430.728	2878.23
1433.974	2853.93
1437.22	2872.27
1440.465	2873.54
1443.711	2824.75
1446.956	2865.58
1450.201	2856.95
1453.445	2902.2
1456.689	2876.22
1459.933	2891.4
1463.177	2920.7
1466.42	2891.79
1469.663	2870.3
1472.906	2857.08
1476.148	2951.28
1479.391	2893.23
1482.633	2866.8
1485.874	2875.31
1489.115	2855.47
1492.356	2863.45
1495.597	2838.69
1498.838	2843.04
1502.078	2806.86
1505.318	2749.1
1508.557	2794.64
1511.797	2754.66
1515.036	2848.35
1518.274	2838.47
1521.513	2815.75
1524.751	2839.96
1527.989	2852.61
1531.227	2862.67
1534.464	2850.73
1537.701	2879.51
1540.938	2900.94
1544.174	2856.49
1547.41	2858.37
1550.646	2898.48
1553.882	2926.8
1557.117	2980.88
1560.352	2998.6
1563.587	2955.38
1566.821	2911.88
1570.055	2954.1
1573.289	2920.1
1576.523	3001.92
1579.756	3004.47
1582.989	3023.92
1586.222	2984.38
1589.454	3026.12
1592.686	2996.75
1595.918	3020.77
1599.15	3005.14
1602.381	3091.85
1605.612	3037.19
1608.843	3137.93
1612.073	3045.76
1615.303	3029.12
1618.533	3015.91
1621.762	3021.14
1624.992	3013.16
1628.221	2993.68
1631.449	2977.17
1634.678	3041.95
1637.906	2993.13
1641.134	3036.62
1644.361	2986.61
1647.588	2977.67
1650.815	2991.61
1654.042	2976.62
1657.269	3006.77
1660.495	2951.19
1663.72	2954.73
1666.946	2919.83
1670.171	2852.89
1673.396	2827.94
1676.621	2818.88
1679.845	2850.52
1683.069	2871.59
1686.293	2922.73
1689.517	2885.46
1692.74	2804.98
1695.963	2841
1699.185	2872.57
1702.408	2848.74
1705.63	2896.13
1708.852	2905.97
1712.073	2877.3
1715.294	2853.52
1718.515	2922.85
1721.736	2862.89
1724.956	2863.91
1728.176	2892.42
1731.396	2913.61
1734.616	2904.98
1737.835	2928.72
1741.054	2910.77
1744.272	2901.82
1747.491	2930.99
1750.709	2995.15
1753.927	2883.32
1757.144	2937.92
1760.361	2973.09
1763.578	2972.36
1766.795	2907.92
1770.011	2921.87
1773.227	2966.5
1776.443	3001.62
1779.658	3048.48
1782.874	2992.62
1786.089	2963.7
1789.303	2967.75
1792.518	2973.88
1795.732	2963.44
1798.945	2969.04
1802.159	3024.1
1805.372	2910.6
1808.585	2894.95
1811.797	2891.57
1815.01	2950.6
1818.222	2948.27
1821.434	2900.2
1824.645	2967.23
1827.856	2943.72
1831.067	2977.55
1834.278	2945.58
1837.488	2927.9
1840.698	3086.42
1843.908	3003.91
1847.117	2966.9
1850.326	2833.72
1853.535	2951.31
1856.744	3002.37
1859.952	2910.43
1863.16	2910.82
1866.368	2938
1869.575	3037.45
1872.782	2923.19
1875.989	2864.66
1879.196	2960.01
1882.402	2952.82
1885.608	2999.69
1888.814	2889
1892.019	2777.53
1895.224	2831.43
1898.429	2816.85
1901.634	2793.15
1904.838	2773.97
1908.042	2820.12
1911.246	2825.17
1914.449	2746.65
1917.652	2750.38
1920.855	2731.53
1924.058	2790.98
1927.26	2826.21
1930.462	2854.69
1933.664	2878.4
1936.865	2809.5
1940.066	2812.25
1943.267	2763.69
1946.467	2780.71
1949.668	2811.96
1952.868	2878
1956.067	2850.37
1959.267	2778.19
1962.466	2807.01
1965.665	2793.74
1968.863	2788.96
1972.061	2810.75
1975.259	2809.5
1978.457	2890.96
1981.654	2848.96
1984.852	2846.83
1988.048	2773.92
1991.245	2779.89
1994.441	2864.09
1997.637	2858.64
2000.833	2842.01
2004.028	2884.3
2007.223	2935.39
2010.418	2911.43
2013.613	2873.2
2016.807	2835.2
2020.001	2848
2023.194	2897.86
2026.388	2874.66
2029.581	2819.86
2032.774	2863.08
2035.966	2863.26
2039.158	2787.97
2042.35	2821.11
2045.542	2746.52
2048.733	2856.03
2051.924	2888.41
2055.115	2920.61
2058.306	2856.31
2061.496	2917.33
2064.686	2987.68
2067.875	2902.69
2071.065	2924.6
2074.254	2956.75
2077.442	2904.52
2080.631	3000.33
2083.819	2874.82
2087.007	2854.23
2090.195	2818.86
2093.382	2862.46
2096.569	2839.95
2099.756	2789.11
2102.942	2808.96
2106.128	2810.02
2109.314	2801.91
2112.5	2756.79
2115.685	2736.22
2118.87	2747.23
2122.055	2812.35
2125.239	2774.97
2128.424	2742.63
2131.608	2861.56
2134.791	2841.4
2137.974	2908.56
2141.157	2892.48
2144.34	2836.06
2147.523	2860.04
2150.705	2868.45
2153.887	2850.88
2157.068	2794.25
2160.25	2805.7
2163.431	2847.79
2166.611	2784.43
2169.792	2800.98
2172.972	2686.32
2176.152	2774.06
2179.331	2812.38
2182.511	2790.1
2185.69	2822.12
2188.868	2812.84
2192.047	2875.01
2195.225	2854.51
2198.403	2808.39
2201.58	2800.06
2204.758	2801
2207.935	2887.39
2211.111	2766.48
2214.288	2748.48
2217.464	2791.16
2220.64	2765.24
2223.815	2827.32
2226.991	2742.21
2230.166	2763.85
2233.34	2786.19
2236.515	2819.48
2239.689	2893.49
2242.863	2835.66
2246.036	2890.56
2249.209	2899.84
2252.382	2938
2255.555	2919.09
2258.727	2849.62
2261.9	2897.18
2265.071	2887.84
2268.243	2891.95
2271.414	2816.69
2274.585	2769.01
2277.756	2839.56
2280.926	2796.63
2284.096	2840.48
2287.266	2738.16
2290.436	2796.76
2293.605	2829.79
2296.774	2855.97
2299.942	2886.37
2303.111	2902.39
2306.279	2951.55
2309.447	2936.2
2312.614	2914.63
2315.781	2934.73
2318.948	2897.49
2322.115	2939.02
2325.281	2840.07
2328.447	2862.14
2331.613	2839.87
2334.779	2802.34
2337.944	2810.55
2341.109	2806.12
2344.274	2790.05
2347.438	2751.18
2350.602	2779.67
2353.766	2798.98
2356.929	2781.67
2360.092	2830.33
2363.255	2776.82
2366.418	2696.92
2369.58	2825.76
2372.742	2579.71
2375.904	2600.35
2379.066	2572.85
2382.227	2611.97
2385.388	2574.62
2388.548	2493.73
2391.709	2554.7
2394.869	2527.73
2398.029	2640.7
2401.188	2663.66
2404.347	2588.09
2407.506	2751.33
2410.665	2777.43
2413.823	2791.62
2416.981	2741.23
2420.139	2777.57
2423.296	2827.73
2426.453	2802.38
2429.61	2827.2
2432.767	2749.91
2435.923	2784.75
2439.079	2734.65
2442.235	2791.6
2445.391	2714.59
2448.546	2734.86
2451.701	2791.73
2454.855	2753.36
2458.009	2819.14
2461.163	2825.96
2464.317	2774.64
2467.471	2813.07
2470.624	2858.24
2473.777	2838.99
2476.929	2852.39
2480.082	2874.72
2483.234	2837.26
2486.385	2787.91
2489.537	2779.53
2492.688	2728.83
2495.839	2743.96
2498.989	2760.04
2502.14	2741.25
2505.29	2716.19
2508.439	2749.87
2511.589	2664.29
2514.738	2681.52
2517.887	2716.58
2521.035	2784.61
2524.183	2776.32
2527.331	2755.32
2530.479	2724.08
2533.627	2735.89
