Data from C_3_DIV_IL_4N_Splice17_13-19-40-316.txt Node
Date: Sat Mar 14 13:19:40 EDT 2020
User: sa697716
Spectrometer: FLMS03696
Trigger mode: 0
Integration Time (sec): 3.180400E-1
Scans to average: 20
Electric dark correction enabled: true
Nonlinearity correction enabled: true
Boxcar width: 5
XAxis mode: Wavelengths
Number of Pixels in Spectrum: 2048
>>>>>Begin Spectral Data<<<<<
187.83	-376597.66
188.298	2771.21
188.766	1527.1
189.233	1341.43
189.701	1918.92
190.169	2638.29
190.636	1033.79
191.104	875.13
191.571	176.76
192.039	-52.4
192.506	-64.34
192.974	431.75
193.441	-739.83
193.908	11.94
194.375	-23.72
194.842	68.1
195.31	98.51
195.777	154.37
196.244	378.66
196.711	427.77
197.177	505.17
197.644	712.15
198.111	1244.87
198.578	1773.1
199.045	1420.92
199.511	2338.73
199.978	2737.06
200.445	2362.77
200.911	2630.53
201.378	2920.2
201.844	2668.07
202.31	4620.62
202.777	4809.41
203.243	2669.5
203.709	2546.23
204.176	3025.39
204.642	2503.36
205.108	2330.14
205.574	1887.38
206.04	1725.07
206.506	1621.74
206.972	1510.63
207.438	1451.55
207.903	1660.72
208.369	1449.94
208.835	1452.55
209.301	1516.2
209.766	1527.19
210.232	1499.75
210.697	1822.51
211.163	2195.04
211.628	3288.99
212.094	2768.3
212.559	3419.18
213.024	2102.14
213.49	2559.64
213.955	2464.26
214.42	2377
214.885	2218.96
215.35	2146.7
215.815	2106.39
216.28	2229.97
216.745	1791.74
217.21	1908.26
217.675	1688.57
218.14	1864.67
218.604	2009.43
219.069	2211.44
219.534	2269.79
219.998	2539.46
220.463	2959.95
220.927	3468.59
221.392	3161.01
221.856	3134.81
222.32	3841.72
222.785	4672.14
223.249	5761.82
223.713	6331.43
224.177	6257.36
224.642	7842.41
225.106	9502.1
225.57	10268.91
226.034	7678.9
226.497	11635.3
226.961	10439.4
227.425	12119.11
227.889	13283.69
228.353	13152.08
228.816	26990.5
229.28	25754.22
229.744	21656.78
230.207	13169.9
230.671	12880.44
231.134	20994.73
231.597	24175.29
232.061	24041.78
232.524	23251.49
232.987	16034.09
233.45	14442.85
233.914	12886.78
234.377	13094.51
234.84	11964.54
235.303	14047.62
235.766	15631.53
236.229	16114.61
236.691	10086.38
237.154	11272.57
237.617	8474.35
238.08	8639.21
238.542	10061.78
239.005	7208.29
239.468	7157.5
239.93	6750.06
240.393	6141.41
240.855	5397.04
241.317	5510.54
241.78	6690.07
242.242	6932.68
242.704	7514.77
243.166	6544.14
243.629	5973.09
244.091	6858.28
244.553	7509.79
245.015	8030.58
245.477	10331.78
245.939	15081.38
246.4	16008.17
246.862	15542.62
247.324	14627.07
247.786	16270.26
248.247	21228.37
248.709	21690.93
249.17	16211
249.632	15315.6
250.093	17792.01
250.555	15346.09
251.016	9376.25
251.477	8868.2
251.939	9554.96
252.4	9969.85
252.861	11783.29
253.322	10980.02
253.783	13027.8
254.244	16819.83
254.705	13179.43
255.166	11680.62
255.627	11492.35
256.088	16200.86
256.549	17184.64
257.009	14755.55
257.47	17873.09
257.931	14569.53
258.391	10884.82
258.852	11234.25
259.312	11764.09
259.773	14461.28
260.233	12248.86
260.694	10336.21
261.154	11660.87
261.614	9397
262.074	8373.2
262.534	8713.93
262.994	8199.79
263.455	10878.44
263.915	9140.76
264.374	8585.34
264.834	9365.72
265.294	10314.71
265.754	10663.53
266.214	10059.28
266.673	9381.03
267.133	11816.82
267.593	11667.41
268.052	14258.44
268.512	12349.17
268.971	14900.28
269.431	16309.74
269.89	14580.66
270.349	21861.04
270.809	24335.03
271.268	21882.09
271.727	48921.95
272.186	31649.84
272.645	23667.64
273.104	17013.54
273.563	24608.2
274.022	19267.76
274.481	16426.38
274.94	12659.4
275.399	9371.28
275.857	10868.38
276.316	14659.07
276.775	13028.15
277.233	12838.44
277.692	12063.31
278.15	13670.27
278.609	14167.02
279.067	13120.46
279.525	12190.48
279.984	15711.69
280.442	18937.25
280.9	18800.41
281.358	12392.56
281.816	11571.03
282.274	11325.12
282.732	11675.95
283.19	11705.13
283.648	10079.87
284.106	10749.5
284.564	10902.64
285.021	10160.03
285.479	7549.29
285.937	6815.53
286.394	6022.1
286.852	6194.6
287.309	6520.71
287.767	6332.61
288.224	6056.69
288.682	6630.56
289.139	7280.71
289.596	6691.97
290.053	6935.3
290.511	8719.06
290.968	10591.29
291.425	14259.75
291.882	11921.09
292.339	10389.77
292.796	10238.36
293.252	9579.84
293.709	7640.89
294.166	6851.08
294.623	7563.01
295.079	7235.24
295.536	7287.94
295.992	6617.07
296.449	6539.01
296.905	6782.44
297.362	6516.11
297.818	6846.43
298.274	7117.77
298.731	7211.28
299.187	7121.77
299.643	7619.83
300.099	9236.06
300.555	10159.45
301.011	8494.44
301.467	8249.93
301.923	9609.72
302.379	9359.25
302.835	9218.36
303.291	9250.59
303.746	10542.62
304.202	13331.49
304.658	13417.11
305.113	9015.82
305.569	8831.23
306.024	9400.55
306.479	8882.35
306.935	7526.9
307.39	8225.41
307.845	7614.58
308.301	7667.17
308.756	7465.67
309.211	7191.81
309.666	7358.82
310.121	9192.15
310.576	9313.74
311.031	9228.68
311.486	10562.9
311.94	10509.19
312.395	14036.98
312.85	26290.82
313.305	129132.94
313.759	676903.96
314.214	49147.56
314.668	39076.98
315.123	32965.07
315.577	11889.62
316.032	10621.48
316.486	13361.22
316.94	10611.98
317.394	7433.14
317.849	5788.04
318.303	5458.71
318.757	5127.56
319.211	5648.41
319.665	4936.94
320.119	4965.32
320.572	7074.09
321.026	6605.45
321.48	5483.07
321.934	5948.24
322.387	5918.94
322.841	6417.81
323.295	5825.53
323.748	6667.43
324.202	6775.28
324.655	8164.7
325.108	11499.26
325.562	8174.87
326.015	9703.62
326.468	7331.97
326.921	8216.41
327.374	7698.68
327.827	8013.78
328.28	9072.24
328.733	6113.45
329.186	5407.74
329.639	5137.95
330.092	4322.67
330.545	4113.67
330.997	4168.13
331.45	4595.28
331.903	5413.44
332.355	9293.9
332.808	9034.49
333.26	7427.3
333.713	8072.69
334.165	8112.77
334.617	10847.07
335.069	8708.31
335.522	15716.32
335.974	17431.92
336.426	15854.14
336.878	10950.87
337.33	5585.48
337.782	5458.02
338.234	6924.7
338.686	8288.86
339.137	9846.16
339.589	9277.9
340.041	7316.19
340.493	6282.48
340.944	6425.75
341.396	6961.27
341.847	5860.77
342.299	6951.41
342.75	8521
343.201	7333.82
343.653	8389.66
344.104	10246.76
344.555	8037.49
345.006	12407.97
345.457	9603.03
345.908	7593.55
346.359	7154.64
346.81	5813.26
347.261	6063.04
347.712	5941.14
348.163	6384.2
348.613	6529.06
349.064	6098.5
349.515	5338.13
349.965	5505.24
350.416	6579.73
350.866	7220.08
351.317	8083.01
351.767	13346.69
352.217	16900.06
352.668	14063.27
353.118	12866.01
353.568	12274.91
354.018	9765.32
354.468	10411.88
354.918	7475.2
355.368	6557.62
355.818	9257.35
356.268	26746.54
356.718	113011.22
357.168	28187.26
357.617	14099.11
358.067	15661.89
358.517	14715.72
358.966	17366.81
359.416	19470.92
359.865	21007.3
360.315	24964.96
360.764	11709.83
361.213	6567.92
361.663	6185.17
362.112	7617.22
362.561	12382.76
363.01	9378.27
363.459	7859.98
363.908	8427.44
364.357	7182.75
364.806	12078.34
365.255	8297.9
365.703	7652.19
366.152	7668.75
366.601	6250.02
367.05	5099.5
367.498	4655.22
367.947	4850.82
368.395	5070.17
368.844	4511.78
369.292	5381.38
369.74	3749.36
370.189	5723.36
370.637	6700.5
371.085	5758.07
371.533	6988.19
371.981	6680.95
372.429	6357.28
372.877	6626.28
373.325	5527.7
373.773	5616.03
374.221	5005.69
374.669	6191.4
375.116	5374.05
375.564	5383.52
376.012	6027.81
376.459	4966.4
376.907	5934.9
377.354	7122.59
377.801	6661.35
378.249	7706.72
378.696	9827.73
379.143	11873.19
379.591	12624.53
380.038	21465.79
380.485	15583.93
380.932	16888.6
381.379	15552.38
381.826	11557.35
382.273	8193.06
382.72	7143.21
383.166	6928.91
383.613	4498.52
384.06	4066.82
384.506	4715.31
384.953	3415.12
385.4	3420.49
385.846	2991.94
386.292	2892.49
386.739	2809.73
387.185	2769.86
387.631	2776.4
388.078	2726.57
388.524	2914.42
388.97	2689.05
389.416	2247.63
389.862	2408.8
390.308	2285.18
390.754	2319.98
391.2	2518.83
391.645	2576.52
392.091	2515.16
392.537	2441.26
392.983	2428.14
393.428	2429.61
393.874	2605.48
394.319	2638.57
394.765	2526.37
395.21	2604.8
395.655	2445.48
396.101	2301.64
396.546	2094.01
396.991	2093.92
397.436	1951.29
397.881	1884.43
398.326	1766.39
398.771	1688.97
399.216	1471.87
399.661	1324.75
400.106	1332.55
400.551	1383.56
400.995	1249.88
401.44	1239.36
401.885	1168.26
402.329	1184.56
402.774	1148.38
403.218	1131.67
403.663	1091.3
404.107	1132.16
404.551	1151.72
404.995	1055.19
405.44	1015.08
405.884	1031.65
406.328	995.22
406.772	996.12
407.216	911.38
407.66	879.95
408.104	826.9
408.547	774.91
408.991	751.28
409.435	720.03
409.879	716.03
410.322	710.69
410.766	692.27
411.209	666.14
411.653	641.49
412.096	635.1
412.54	639.08
412.983	641.63
413.426	650.14
413.869	650.77
414.312	645.24
414.756	623.83
415.199	596.58
415.642	583.52
416.085	589.9
416.527	591.25
416.97	599.38
417.413	570.26
417.856	563.25
418.298	557.91
418.741	553.81
419.184	550.21
419.626	568.76
420.069	570.41
420.511	572.87
420.953	561.31
421.396	556.84
421.838	543.7
422.28	557.66
422.722	565.56
423.164	576.27
423.606	568.78
424.048	567.72
424.49	543.63
424.932	542.33
425.374	534.81
425.816	541
426.258	550.41
426.699	555.84
427.141	550.94
427.582	554.96
428.024	547.05
428.465	541.05
428.907	530.72
429.348	525.19
429.789	525.08
430.231	517.61
430.672	527.64
431.113	516.6
431.554	510.98
431.995	498.66
432.436	486.93
432.877	480.81
433.318	478.37
433.759	477.02
434.2	478.6
434.64	473.19
435.081	475.41
435.522	451.5
435.962	436.34
436.403	428.61
436.843	433.77
437.284	423.8
437.724	412.45
438.164	410.55
438.604	401.92
439.045	389.96
439.485	378.55
439.925	368.89
440.365	359.93
440.805	355.89
441.245	352.92
441.685	341.72
442.125	339.48
442.564	342.58
443.004	337.53
443.444	337.72
443.883	340.25
444.323	335.28
444.762	336.2
445.202	342.38
445.641	349.51
446.081	346.6
446.52	351.11
446.959	351.82
447.398	346.61
447.837	344.67
448.276	341.36
448.716	345.96
449.154	351.13
449.593	346.43
450.032	348.01
450.471	343.43
450.91	346.73
451.349	348.91
451.787	347.9
452.226	353.14
452.664	355.29
453.103	357.69
453.541	357.02
453.98	360.75
454.418	362.99
454.856	359.51
455.295	360.15
455.733	363.95
456.171	365.89
456.609	365.71
457.047	367.1
457.485	373.28
457.923	375.43
458.361	370.34
458.798	371.29
459.236	371.76
459.674	372.06
460.111	374.17
460.549	370.79
460.987	369.22
461.424	368.73
461.862	365.83
462.299	359.54
462.736	359.24
463.173	360.86
463.611	359.46
464.048	359.01
464.485	363.96
464.922	359.39
465.359	356.52
465.796	359.5
466.233	358.59
466.67	357.73
467.106	358.72
467.543	354.86
467.98	350.12
468.416	337.33
468.853	333.9
469.29	322.78
469.726	321.05
470.162	314.07
470.599	304.45
471.035	300.63
471.471	293.63
471.907	290.8
472.344	288.53
472.78	290.59
473.216	296.22
473.652	293.4
474.088	292.84
474.523	292.4
474.959	295.29
475.395	292.61
475.831	291.63
476.266	292.92
476.702	292.55
477.138	290.73
477.573	289.14
478.008	288.18
478.444	290.8
478.879	295.48
479.314	297.02
479.75	297.12
480.185	298.69
480.62	301.16
481.055	302.99
481.49	306.3
481.925	310.71
482.36	319.27
482.795	328.39
483.229	336.53
483.664	343.38
484.099	345.06
484.534	351.07
484.968	355.94
485.403	358.41
485.837	358
486.271	357.37
486.706	358.76
487.14	353.47
487.574	348.64
488.009	346.62
488.443	344.25
488.877	349.89
489.311	352.02
489.745	357.16
490.179	362
490.613	372.6
491.046	377.19
491.48	382.1
491.914	385.22
492.348	390.41
492.781	395.77
493.215	399.24
493.648	402.6
494.082	409.25
494.515	413.4
494.948	422.12
495.382	427.26
495.815	433.69
496.248	441.23
496.681	453.35
497.114	464.81
497.547	475.2
497.98	489.55
498.413	498.11
498.846	509.42
499.279	518.91
499.711	525.74
500.144	532.47
500.577	546.89
501.009	559.57
501.442	572.54
501.874	579.93
502.306	587.8
502.739	600.19
503.171	617.53
503.603	626.14
504.036	640.74
504.468	652.08
504.9	667.11
505.332	678.22
505.764	688.97
506.196	700.36
506.627	717.97
507.059	735.4
507.491	747.97
507.923	752.63
508.354	771.19
508.786	786.08
509.217	807.49
509.649	826.8
510.08	848.67
510.512	869.48
510.943	889.02
511.374	905.27
511.805	929.13
512.237	951.8
512.668	986.26
513.099	1016.87
513.53	1047.03
513.961	1071.09
514.391	1105.75
514.822	1141.86
515.253	1178.65
515.684	1207.6
516.114	1240.1
516.545	1265.67
516.975	1295.68
517.406	1317.64
517.836	1325.07
518.267	1336.56
518.697	1358.75
519.127	1366.57
519.558	1377.02
519.988	1385.27
520.418	1399.82
520.848	1420.7
521.278	1432.53
521.708	1462.17
522.138	1478.3
522.567	1512.3
522.997	1539.23
523.427	1556.62
523.857	1577.11
524.286	1591.02
524.716	1609.42
525.145	1630.5
525.575	1642.96
526.004	1659.03
526.433	1646.49
526.863	1648.03
527.292	1638.9
527.721	1646.59
528.15	1653.33
528.579	1656.1
529.008	1668.2
529.437	1690.95
529.866	1705.24
530.295	1723.94
530.724	1737.22
531.152	1764.22
531.581	1779.7
532.01	1798.82
532.438	1808.16
532.867	1824.8
533.295	1843.54
533.723	1849.89
534.152	1848.2
534.58	1849
535.008	1834.03
535.436	1836.92
535.865	1846.06
536.293	1860.13
536.721	1875.35
537.149	1900.94
537.576	1903.48
538.004	1914.44
538.432	1923.39
538.86	1923.14
539.287	1929.22
539.715	1942.9
540.143	1945.6
540.57	1940.87
540.998	1936.83
541.425	1915.29
541.852	1893.78
542.28	1892.48
542.707	1877.07
543.134	1862.29
543.561	1856.61
543.988	1849.78
544.415	1849.89
544.842	1845.5
545.269	1839.26
545.696	1843.43
546.123	1855.25
546.549	1845.81
546.976	1833.46
547.403	1834.21
547.829	1836.9
548.256	1840.99
548.682	1838.14
549.108	1831.15
549.535	1829.74
549.961	1832.27
550.387	1818.8
550.813	1815.28
551.24	1823.31
551.666	1825.44
552.092	1816.76
552.518	1810.69
552.943	1805.39
553.369	1814.19
553.795	1819.98
554.221	1822.37
554.646	1820.1
555.072	1832.46
555.498	1837.21
555.923	1846.27
556.349	1861.06
556.774	1869.52
557.199	1870.4
557.625	1875.65
558.05	1868.79
558.475	1880.77
558.9	1879.06
559.325	1871.53
559.75	1863.83
560.175	1858
560.6	1851.8
561.025	1850.9
561.449	1852.87
561.874	1859.5
562.299	1865.22
562.723	1873.7
563.148	1862.82
563.572	1868.88
563.997	1878.7
564.421	1884.92
564.846	1885.43
565.27	1889.25
565.694	1885.26
566.118	1896.13
566.542	1903.99
566.966	1896.97
567.39	1890.88
567.814	1877.79
568.238	1875.1
568.662	1879.5
569.086	1881.49
569.509	1888.19
569.933	1871.39
570.357	1864.66
570.78	1842.76
571.204	1828.68
571.627	1816.27
572.05	1813.57
572.474	1814.49
572.897	1801.76
573.32	1793.37
573.743	1782.76
574.166	1763.36
574.589	1762.87
575.012	1754.35
575.435	1752.89
575.858	1742.66
576.281	1731.75
576.704	1716.06
577.126	1703.1
577.549	1691.81
577.972	1680.97
578.394	1669.74
578.817	1663.58
579.239	1644.35
579.661	1630.41
580.084	1613.95
580.506	1600.71
580.928	1596.8
581.35	1585.68
581.772	1580.92
582.194	1566.96
582.616	1554.66
583.038	1540.4
583.46	1528.49
583.882	1524.48
584.303	1529.17
584.725	1524.62
585.147	1527.7
585.568	1538.03
585.99	1549.79
586.411	1556.27
586.833	1571.24
587.254	1571.63
587.675	1584.42
588.096	1596.41
588.518	1591.68
588.939	1573.6
589.36	1570.99
589.781	1558.75
590.202	1528.98
590.623	1520.15
591.043	1517.56
591.464	1504.71
591.885	1501.6
592.305	1497.5
592.726	1484.02
593.147	1485.69
593.567	1480.28
593.987	1472.33
594.408	1466.66
594.828	1464.67
595.248	1457.56
595.669	1438.15
596.089	1429.85
596.509	1422.72
596.929	1407.59
597.349	1408.65
597.769	1397.28
598.189	1390.15
598.608	1391.7
599.028	1394.09
599.448	1393.63
599.867	1381.29
600.287	1375.83
600.706	1371.3
601.126	1362.14
601.545	1361.31
601.965	1358.85
602.384	1352.41
602.803	1355.16
603.222	1350.17
603.641	1342.17
604.061	1337.97
604.48	1333.52
604.898	1341.91
605.317	1346.15
605.736	1346.1
606.155	1341.76
606.574	1331.85
606.992	1336.77
607.411	1330.31
607.829	1320.01
608.248	1316.28
608.666	1313.01
609.085	1310.86
609.503	1301.54
609.921	1295.51
610.339	1296.55
610.758	1294.68
611.176	1289.72
611.594	1279.86
612.012	1275
612.43	1277.72
612.847	1282.32
613.265	1282.32
613.683	1285.34
614.101	1284.3
614.518	1277.43
614.936	1266.85
615.353	1251.8
615.771	1246.72
616.188	1244.9
616.606	1240.74
617.023	1232.7
617.44	1217.81
617.857	1208.99
618.274	1199.04
618.691	1192.85
619.108	1184.05
619.525	1176.47
619.942	1181.58
620.359	1183.08
620.776	1177.05
621.192	1172.5
621.609	1169.36
622.026	1174.84
622.442	1180.29
622.859	1182.73
623.275	1175.2
623.691	1178.25
624.108	1189.04
624.524	1201.33
624.94	1199.66
625.356	1209.91
625.772	1220.65
626.188	1232.02
626.604	1233.57
627.02	1228.87
627.436	1226.52
627.852	1232.33
628.268	1243.75
628.683	1233.7
629.099	1224.32
629.514	1219.69
629.93	1221.21
630.345	1225.36
630.761	1220.07
631.176	1222.09
631.591	1216.89
632.007	1211.27
632.422	1208.25
632.837	1196.83
633.252	1194.24
633.667	1184.83
634.082	1174.49
634.497	1161.92
634.911	1142.87
635.326	1136.46
635.741	1118.37
636.155	1106.32
636.57	1105.24
636.984	1102.13
637.399	1101.25
637.813	1098.05
638.228	1094.32
638.642	1095.47
639.056	1082.89
639.47	1079.83
639.884	1070.2
640.298	1061.82
640.712	1057.23
641.126	1041.45
641.54	1030.44
641.954	1021.63
642.368	1006.98
642.781	996.17
643.195	976.88
643.609	972.34
644.022	962.93
644.436	954.84
644.849	938.83
645.262	924.01
645.676	921.15
646.089	912.97
646.502	897.34
646.915	888.55
647.328	870.9
647.741	866.7
648.154	854.14
648.567	848.89
648.98	835.05
649.393	833.64
649.805	828.53
650.218	820.32
650.631	805.58
651.043	798.01
651.456	791.61
651.868	789.43
652.28	799.99
652.693	807.27
653.105	808.49
653.517	813.38
653.929	809.92
654.341	810.44
654.753	798.52
655.165	799.35
655.577	793.38
655.989	785.6
656.401	775.41
656.813	744.49
657.224	725.57
657.636	699.79
658.047	682.53
658.459	663.75
658.87	652.11
659.282	638.33
659.693	618.6
660.104	602.94
660.515	588.35
660.926	580.25
661.338	572.16
661.749	561.39
662.159	550.2
662.57	540.3
662.981	531.56
663.392	520.45
663.803	517.35
664.213	509.94
664.624	501.76
665.035	498.23
665.445	485.6
665.855	476.86
666.266	469.29
666.676	463.35
667.086	454.17
667.497	450.36
667.907	442.67
668.317	432.61
668.727	429.64
669.137	426.09
669.547	420.86
669.956	418.06
670.366	415.14
670.776	411.94
671.186	411.87
671.595	411.74
672.005	410.44
672.414	409.99
672.824	408.92
673.233	407.13
673.642	407.42
674.052	410
674.461	412.54
674.87	414.76
675.279	414.62
675.688	414.02
676.097	416.04
676.506	414.13
676.915	422.44
677.323	423.76
677.732	423.88
678.141	425.12
678.549	419.82
678.958	420.49
679.366	421.87
679.775	425.5
680.183	436.15
680.592	441.74
681	449.09
681.408	449.14
681.816	458.92
682.224	469.51
682.632	482.95
683.04	506.95
683.448	528.8
683.856	557.1
684.264	589.36
684.671	618.43
685.079	655.37
685.487	698.34
685.894	755.24
686.302	804.17
686.709	849.85
687.116	900.84
687.524	949.41
687.931	994.69
688.338	1035.67
688.745	1071.86
689.152	1113.52
689.559	1164.3
689.966	1214.12
690.373	1245.34
690.78	1294.14
691.187	1359.7
691.593	1413.8
692	1461.77
692.407	1527.42
692.813	1604.56
693.22	1669.44
693.626	1734.06
694.032	1788.97
694.439	1865.98
694.845	1927.97
695.251	2003.99
695.657	2071.45
696.063	2170.16
696.469	2243.58
696.875	2312.37
697.281	2353.18
697.687	2401.1
698.093	2442.53
698.498	2515.69
698.904	2572.67
699.31	2660.02
699.715	2723.1
700.12	2814.36
700.526	2832.84
700.931	2901.66
701.337	2953.18
701.742	2987.13
702.147	3069.97
702.552	3100.61
702.957	3159.72
703.362	3181.56
703.767	3208.99
704.172	3247.81
704.577	3200.02
704.981	3245.57
705.386	3260.28
705.791	3250.91
706.195	3322.8
706.6	3330.61
707.004	3406.32
707.408	3374.72
707.813	3399.34
708.217	3385.87
708.621	3385.36
709.025	3479.34
709.43	3479.52
709.834	3537.07
710.237	3604.83
710.641	3586.34
711.045	3609.15
711.449	3604.25
711.853	3633.05
712.256	3673.31
712.66	3709.77
713.064	3781.83
713.467	3822.53
713.87	3928.27
714.274	3970.92
714.677	4073.3
715.08	4229.92
715.484	4388.56
715.887	4579.52
716.29	4767.24
716.693	4962.55
717.096	5187.62
717.499	5311.92
717.901	5331.43
718.304	5356.88
718.707	5376.83
719.109	5278.66
719.512	5246.75
719.915	5115.33
720.317	5062.12
720.719	5100.42
721.122	5070.68
721.524	5021.92
721.926	4979.46
722.328	5071.92
722.731	5059.62
723.133	5086.3
723.535	5267.81
723.937	5283.82
724.338	5330.64
724.74	5367.67
725.142	5318.68
725.544	5317.54
725.945	5345.25
726.347	5337.69
726.748	5332.53
727.15	5345.25
727.551	5309.45
727.952	5281.31
728.354	5254.15
728.755	5252.82
729.156	5211.84
729.557	5189.45
729.958	5073.71
730.359	5016.67
730.76	5000.1
731.161	4942.41
731.562	4919.48
731.962	4921.26
732.363	4860.45
732.763	4800.99
733.164	4834.65
733.564	4769.83
733.965	4677.59
734.365	4644.44
734.766	4671.6
735.166	4635.53
735.566	4584.44
735.966	4558.24
736.366	4552.92
736.766	4494.78
737.166	4521.86
737.566	4482.29
737.966	4458.79
738.365	4496.72
738.765	4489.83
739.165	4418.38
739.564	4392.71
739.964	4434.66
740.363	4391.78
740.763	4388.3
741.162	4377.42
741.561	4347.34
741.96	4303.29
742.36	4321.01
742.759	4324.64
743.158	4361.71
743.557	4375.82
743.955	4413.79
744.354	4370.08
744.753	4422.33
745.152	4384.04
745.55	4432.52
745.949	4426.57
746.348	4427.2
746.746	4438.88
747.144	4401.64
747.543	4380.12
747.941	4425.86
748.339	4358.42
748.737	4351.19
749.136	4342.33
749.534	4400.89
749.932	4376.48
750.33	4396.47
750.727	4449.38
751.125	4431.07
751.523	4415.9
751.921	4456.83
752.318	4424.72
752.716	4479.64
753.113	4491.39
753.511	4515.22
753.908	4515.55
754.305	4501.28
754.703	4560.25
755.1	4617.79
755.497	4673.36
755.894	4851.53
756.291	5014.61
756.688	5322.67
757.085	5731.21
757.482	6307.58
757.878	6938.32
758.275	7510.31
758.672	8292.11
759.068	8931.27
759.465	9838.99
759.861	11009.47
760.258	12370.26
760.654	13077.69
761.05	12967.52
761.447	12374.76
761.843	11524.02
762.239	10638.97
762.635	10240.59
763.031	9855.02
763.427	9299.02
763.822	8720.41
764.218	8148.86
764.614	7402.98
765.01	6905.34
765.405	6583.57
765.801	6341.39
766.196	6027.76
766.592	5855.61
766.987	5560.19
767.382	5361.54
767.778	5279.62
768.173	5157.73
768.568	5090.35
768.963	4975.67
769.358	4993.69
769.753	4948.88
770.148	4870.33
770.542	4869.01
770.937	4837.49
771.332	4922.52
771.726	4942.65
772.121	4885.05
772.515	4935.69
772.91	4922.06
773.304	4986.4
773.699	4925.81
774.093	4977.04
774.487	5029.21
774.881	5069.09
775.275	5064.24
775.669	5025.48
776.063	5063.33
776.457	5097.52
776.851	5028.45
777.245	5020.81
777.638	5052.13
778.032	5155.68
778.425	5121.66
778.819	5160.23
779.212	5120.7
779.606	5084.17
779.999	5100.34
780.392	5084.78
780.786	5161.88
781.179	5180.83
781.572	5218.58
781.965	5230.24
782.358	5175.16
782.751	5225.27
783.143	5181.36
783.536	5251.3
783.929	5291.62
784.322	5400.26
784.714	5431.82
785.107	5423.35
785.499	5492.7
785.891	5475.14
786.284	5459.17
786.676	5595.88
787.068	5584.58
787.46	5633.54
787.852	5651.57
788.245	5732.69
788.636	5761.72
789.028	5824.86
789.42	5865.57
789.812	5871.58
790.204	5962.39
790.595	6058.1
790.987	5875.22
791.378	5894.73
791.77	6017.91
792.161	6142.46
792.553	6198.94
792.944	6096.36
793.335	6037.67
793.726	6107.75
794.117	6196.05
794.508	6324.09
794.899	6295.29
795.29	6427.62
795.681	6484.95
796.072	6350.97
796.463	6187.33
796.853	6193.99
797.244	6341.92
797.634	6369.48
798.025	6368.24
798.415	6377.71
798.806	6464.92
799.196	6547.15
799.586	6599
799.976	6562.61
800.366	6779.18
800.756	6996.37
801.146	6961.19
801.536	6992.04
801.926	7061.39
802.316	7089.64
802.706	7158.5
803.095	7037.5
803.485	7129.07
803.874	7166.9
804.264	7411.47
804.653	7387.08
805.043	7525.88
805.432	7628.17
805.821	7626.91
806.21	7650.12
806.599	7759.7
806.988	7802.67
807.377	7909.85
807.766	8034.31
808.155	8300.98
808.544	8055.53
808.933	8072.71
809.321	8054.1
809.71	8332.83
810.098	8483.89
810.487	8916.22
810.875	9372.02
811.264	9391.2
811.652	9663.38
812.04	9803.14
812.428	9951.66
812.816	10669
813.204	11058.57
813.592	11572.56
813.98	11888.89
814.368	11804.6
814.756	12255.4
815.144	12174.36
815.531	12618.48
815.919	12546.86
816.306	12830.95
816.694	12542.74
817.081	12590.51
817.469	12923.49
817.856	12929.62
818.243	13178.64
818.63	13539.98
819.017	13144.21
819.404	13208.66
819.791	13558.25
820.178	14134.72
820.565	14371.11
820.952	15248.48
821.339	14791.83
821.725	14961.5
822.112	14270.65
822.498	14238.45
822.885	14366.48
823.271	14284.91
823.657	14671.33
824.044	14690.23
824.43	14762.75
824.816	14735.06
825.202	14335.33
825.588	15293.74
825.974	15307.62
826.36	15790.82
826.746	15821.51
827.132	16153.82
827.517	16126.11
827.903	15392.02
828.289	15423.8
828.674	14685.88
829.06	14590.2
829.445	14956.03
829.83	15287.72
830.216	15732.83
830.601	16068.19
830.986	15687.67
831.371	15561.05
831.756	16078.19
832.141	15678.07
832.526	15672.09
832.911	15938.71
833.295	15822.38
833.68	16264.02
834.065	15679.81
834.449	14821.49
834.834	14756.48
835.218	14754.33
835.603	15068.96
835.987	14872.52
836.371	15652.15
836.755	15550.9
837.139	15928.3
837.524	16151.06
837.908	15969.71
838.291	16030.51
838.675	16098.84
839.059	16282.77
839.443	16260.38
839.827	16040.66
840.21	16482.81
840.594	16331.15
840.977	16517.7
841.361	16489.19
841.744	16837.16
842.127	16689.18
842.511	16908.63
842.894	17456.17
843.277	17809.03
843.66	18311.41
844.043	18388.51
844.426	17635.83
844.809	17344.35
845.191	17365.58
845.574	16939.68
845.957	16595.75
846.339	16494.76
846.722	16002.63
847.104	16063.01
847.487	15897.87
847.869	15909.17
848.252	16169.93
848.634	16473.18
849.016	16717.43
849.398	16835.23
849.78	17622.54
850.162	17626.5
850.544	18015.72
850.926	18603.17
851.307	18520.34
851.689	18789.48
852.071	19203.08
852.452	19500.69
852.834	19489.81
853.215	19856.36
853.597	20004.7
853.978	20278.4
854.359	20705.94
854.741	19782.24
855.122	19677.08
855.503	19408.8
855.884	19528.4
856.265	19475.54
856.646	19576.39
857.026	19207.14
857.407	19151.29
857.788	19294.46
858.169	19562.32
858.549	18779.48
858.93	19362.81
859.31	19415.45
859.69	19611.28
860.071	19237.11
860.451	19040.41
860.831	18351.72
861.211	19426.6
861.591	19932.4
861.971	19911.18
862.351	20092.16
862.731	20447.91
863.111	20696.32
863.491	21006.98
863.87	21818.29
864.25	22141.62
864.629	21778.77
865.009	22262.7
865.388	23063.59
865.768	24737.1
866.147	24656.56
866.526	23288.58
866.905	23568.76
867.284	24890.55
867.663	23635.26
868.042	22663.86
868.421	22597.35
868.8	22965.33
869.179	23194.77
869.558	21851.61
869.936	20128.99
870.315	20483.48
870.693	20994.96
871.072	22647.43
871.45	21563.45
871.828	21846.82
872.207	22968.43
872.585	22619.82
872.963	23236.46
873.341	22445.34
873.719	22175.94
874.097	21921.55
874.475	22326.99
874.853	22823.16
875.23	21872.72
875.608	22798.23
875.986	24655.25
876.363	23572.46
876.741	24293.58
877.118	23677.52
877.495	24822.71
877.873	25220.54
878.25	26521.53
878.627	25454.67
879.004	25809.33
879.381	25673.01
879.758	24989.56
880.135	23255.15
880.512	24587.63
880.889	23929.44
881.265	23686.71
881.642	23491.33
882.019	23893.3
882.395	23418.25
882.772	24336.16
883.148	23277.9
883.524	23179.82
883.901	23048.52
884.277	23392.17
884.653	23235.01
885.029	23898.99
885.405	26459.7
885.781	26243.83
886.157	25162.73
886.532	25464.14
886.908	25443.2
887.284	28297.76
887.659	29223.67
888.035	30130.02
888.411	30910.93
888.786	31318.87
889.161	32399.49
889.537	31799.33
889.912	32814.54
890.287	32774.66
890.662	33606.01
891.037	32985.02
891.412	30747.17
891.787	30425.18
892.162	29343.65
892.536	30012.21
892.911	28879.79
893.286	28260.87
893.66	27112.18
894.035	27803.76
894.409	30263.96
894.784	29050.53
895.158	29531.92
895.532	31276.85
895.906	32140.33
896.281	32896.24
896.655	32380.5
897.029	36988.82
897.402	38511.26
897.776	42868.52
898.15	42729.57
898.524	42273.85
898.898	42821.35
899.271	47939.76
899.645	41532.24
900.018	39885.12
900.392	41376.71
900.765	41717.89
901.138	38613.77
901.511	38064.98
901.884	34957.45
902.258	32237.2
902.631	33327.28
903.003	38346.39
903.376	34603.9
903.749	38793.69
904.122	41530.44
904.495	45696.55
904.867	46259.64
905.24	40191.78
905.612	37411.84
905.985	38261.3
906.357	40007.36
906.729	38201.68
907.102	32646.91
907.474	31402.33
907.846	31608.57
908.218	31212.72
908.59	27612.26
908.962	26717.37
909.334	28769.06
909.705	30219.08
910.077	29346.67
910.449	30553.45
910.82	31395.68
911.192	34560.14
911.563	35916.87
911.935	38448.56
912.306	38492.61
912.677	39737.68
913.048	39339.48
913.419	42676.35
913.79	42908.87
914.161	45993.8
914.532	43971.82
914.903	40409.52
915.274	38358.58
915.645	37813.84
916.015	33273.12
916.386	31726.71
916.756	33779.94
917.127	34857.71
917.497	31151.83
917.868	33918.15
918.238	32237.35
918.608	33178.7
918.978	33871.03
919.348	35894.24
919.718	37104.8
920.088	35737.89
920.458	37123.69
920.828	39063.07
921.198	37028.55
921.567	39552.73
921.937	30661.78
922.306	30956.69
922.676	33385.03
923.045	27851.92
923.415	26454.54
923.784	24082.99
924.153	24768.91
924.522	24749.09
924.891	23265.67
925.26	24908.76
925.629	24325.41
925.998	27931.09
926.367	27243.81
926.736	25936.84
927.104	30890.32
927.473	33203.66
927.842	40093.69
928.21	39706.33
928.578	41711.68
928.947	39462.81
929.315	39729.82
929.683	46576.15
930.051	46936.46
930.42	54545.84
930.788	46643.45
931.156	46335.19
931.523	43414.54
931.891	40104.74
932.259	38501.04
932.627	44638.27
932.994	63139.25
933.362	52137.19
933.729	45281
934.097	43326.49
934.464	36634.28
934.831	42222.88
935.199	41539.19
935.566	40262.52
935.933	40740.83
936.3	49336.75
936.667	38374.17
937.034	34597.66
937.401	34191.92
937.767	29494.19
938.134	26251.16
938.501	37065.6
938.867	39503.13
939.234	66827.59
939.6	57034.35
939.967	62902.06
940.333	42108.95
940.699	35875.03
941.065	28787.18
941.431	37766.27
941.798	36398.96
942.163	47782.19
942.529	29859.82
942.895	27488.8
943.261	17783.26
943.627	23347.37
943.992	20446.2
944.358	20476.35
944.723	20554.65
945.089	20017.44
945.454	18501.3
945.82	19764.65
946.185	18989.58
946.55	21989.59
946.915	19725.16
947.28	23142.84
947.645	20365.98
948.01	18817.16
948.375	19641.69
948.74	23528.59
949.104	27486.86
949.469	39690.78
949.834	70188.57
950.198	66655.54
950.562	39955.75
950.927	33276.25
951.291	40037.01
951.655	34129.6
952.02	32022.18
952.384	24188.1
952.748	21057.85
953.112	20526
953.476	17850.89
953.839	16507.79
954.203	16325.2
954.567	20417.86
954.931	32156.15
955.294	27574.86
955.658	27728.9
956.021	47195.02
956.385	80074.43
956.748	118260.38
957.111	183389.52
957.474	205998.88
957.837	232040.78
958.2	175780.55
958.563	63217.34
958.926	42805.22
959.289	64830.92
959.652	72459.78
960.015	54402.02
960.377	78075.42
960.74	88988.17
961.102	153765.21
961.465	165199.86
961.827	88514.78
962.189	169847.87
962.552	117801.57
962.914	94403.8
963.276	61256.54
963.638	50614.73
964	50129.18
964.362	33906.85
964.724	32790.82
965.085	23375.06
965.447	19170.23
965.809	21813.7
966.17	21853.12
966.532	23648.79
966.893	21687.94
967.255	19734.4
967.616	23289.82
967.977	18629.38
968.338	20342.06
968.699	16728.53
969.061	16717.39
969.421	16835.19
969.782	18899.37
970.143	15963.24
970.504	16544.02
970.865	18827.16
971.225	19262.71
971.586	18837.26
971.946	26866.68
972.307	23330.73
972.667	30498.77
973.027	31432.34
973.388	38052.17
973.748	25901.67
974.108	28198.31
974.468	38126.88
974.828	29378.82
975.188	22591.55
975.548	20788.03
975.907	17466.98
976.267	19574.79
976.627	16474.42
976.986	17070.41
977.346	16275.28
977.705	15660.03
978.064	14244.07
978.424	11867.65
978.783	12263.4
979.142	14005
979.501	13377.97
979.86	14117.62
980.219	13610.77
980.578	17532.37
980.937	19637.19
981.296	17525.71
981.654	18027.61
982.013	28100.43
982.371	36385.13
982.73	33961.95
983.088	38414.62
983.447	41105.52
983.805	58912.69
984.163	122953.72
984.521	136403.7
984.879	199979.12
985.237	-325343.11
985.595	313406.68
985.953	77710.08
986.311	44911.01
986.669	26126.89
987.026	22576.89
987.384	30355.15
987.741	31303.17
988.099	22424.35
988.456	17890.99
988.814	16744.46
989.171	14565.78
989.528	14385.18
989.885	15206.83
990.242	12035.05
990.599	14980.89
990.956	12266.23
991.313	8562.74
991.67	7028.98
992.027	7460.9
992.383	6628.46
992.74	5820.38
993.096	6095.41
993.453	6317.94
993.809	6547.47
994.165	8729.57
994.522	8000.63
994.878	8815.24
995.234	11060.25
995.59	10916.48
995.946	10300.42
996.302	11736.06
996.658	13552.2
997.013	14922.36
997.369	17708.36
997.725	22721.63
998.08	14713.1
998.436	22702.04
998.791	31319.5
999.147	31309.34
999.502	34191.98
999.857	24900.68
1000.212	40579.12
1000.567	57757.54
1000.922	33348.26
1001.277	21186.02
1001.632	15727.11
1001.987	20317.07
1002.342	14562.79
1002.696	11643.84
1003.051	9305.49
1003.406	11302.88
1003.76	11241.71
1004.114	11090.48
1004.469	9334.66
1004.823	7732.24
1005.177	8344.81
1005.531	6589.84
1005.885	5819.7
1006.239	6575.45
1006.593	8240.35
1006.947	11027.33
1007.301	8259.96
1007.655	8994.88
1008.008	6620.29
1008.362	7447.58
1008.715	10628.72
1009.069	9673.91
1009.422	14592.48
1009.776	29309.98
1010.129	19447.6
1010.482	16280.58
1010.835	13746.41
1011.188	28592.95
1011.541	26925.17
1011.894	-164398.52
1012.247	484038.64
1012.6	32881.07
1012.952	20699.41
1013.305	10637.71
1013.657	7680.7
1014.01	7251.52
1014.362	5964.86
1014.715	5327.23
1015.067	4643.97
1015.419	4558.78
1015.771	4037.78
1016.123	3591.34
1016.475	3709.83
1016.827	3957.96
1017.179	4273.07
1017.531	4308.4
1017.883	4401.67
1018.234	4261.55
1018.586	5353.8
1018.938	5671.92
1019.289	7838.54
1019.64	8954.86
1019.992	8318.26
1020.343	7573.49
1020.694	5993.06
1021.045	5290.65
1021.396	6031.26
1021.747	6494.91
1022.098	7766.24
1022.449	5642.64
1022.8	5237.02
1023.151	3636.09
1023.501	3233.24
1023.852	3532.66
1024.202	3686.33
1024.553	4031.75
1024.903	3939.84
1025.253	3387.25
1025.604	3039.98
1025.954	3770.4
1026.304	4593.14
1026.654	5339.21
1027.004	7799.48
1027.354	12601.58
1027.703	11810.31
1028.053	15417.17
1028.403	22782.64
1028.753	33100
1029.102	44771.8
1029.452	230286.49
1029.801	9966.55
1030.15	6432.29
1030.499	5455.42
897.758	2841.79
901.051	2808.27
904.343	2842.2
907.636	2841.81
910.928	2907.25
914.22	2815.07
917.511	2824.83
920.803	2894.62
924.094	2920.83
927.384	2891.83
930.675	2857.72
933.965	2806.25
937.255	2808.94
940.544	2778.92
943.834	2693.75
947.123	2642.83
950.411	2741.44
953.7	2710.73
956.988	2673.17
960.276	2614.7
963.563	2706.09
966.851	2694.89
970.138	2760.48
973.424	2748.76
976.711	2697.86
979.997	2862.08
983.283	2888.99
986.568	2783.16
989.853	2811.96
993.138	2837.57
996.423	2922.18
999.708	2850.91
1002.992	2933.43
1006.275	2737.73
1009.559	2802.71
1012.842	2922.41
1016.125	2847.58
1019.408	2829.25
1022.69	2926.63
1025.972	2941.23
1029.254	2915.24
1032.536	2834.28
1035.817	2868.05
1039.098	2796.63
1042.379	2978.82
1045.659	2962.31
1048.939	2888.41
1052.219	2915.83
1055.498	2933.66
1058.778	2913.92
1062.057	2901.58
1065.335	2921.87
1068.614	2944.3
1071.892	2922.19
1075.17	3007.59
1078.447	2989.04
1081.724	2978.56
1085.001	3021.68
1088.278	2992.63
1091.554	3008.57
1094.83	3006.61
1098.106	3029.76
1101.382	3081.28
1104.657	3081.55
1107.932	3075.35
1111.206	3036.45
1114.481	2993.12
1117.755	2997.98
1121.029	2971.83
1124.302	3022.96
1127.575	2968.12
1130.848	2952.55
1134.121	2906.81
1137.393	2850.09
1140.665	2925.27
1143.937	2896.36
1147.208	2860.57
1150.48	2895.28
1153.75	2880.88
1157.021	2921.57
1160.291	2887.62
1163.561	2931.37
1166.831	2930.38
1170.101	2966.98
1173.37	2946.98
1176.639	2881.11
1179.907	2950.19
1183.176	2947.58
1186.444	2960.16
1189.711	2985.91
1192.979	2996.35
1196.246	2953.98
1199.513	2971.96
1202.78	2964.86
1206.046	2973.24
1209.312	2997.06
1212.578	3028.58
1215.843	2972.12
1219.108	2950.95
1222.373	2970.87
1225.638	2932.29
1228.902	2913.08
1232.166	2884
1235.43	2863.14
1238.693	2885.04
1241.956	2887.42
1245.219	2924.2
1248.482	2919.14
1251.744	2913.2
1255.006	3072.35
1258.268	3033.82
1261.529	2972.91
1264.79	2981.89
1268.051	3088.68
1271.312	3107.59
1274.572	3066.31
1277.832	3054.8
1281.092	3049.58
1284.351	3013.41
1287.61	2990.34
1290.869	2898.34
1294.128	2864.16
1297.386	2969.37
1300.644	2956.63
1303.902	2967.97
1307.159	2822.54
1310.416	2881.26
1313.673	2904.75
1316.93	2883.55
1320.186	2937.04
1323.442	2981.46
1326.697	2963.73
1329.953	2962.85
1333.208	2981.46
1336.463	2961.93
1339.717	2892.79
1342.972	3037.83
1346.226	3017.76
1349.479	2942.91
1352.733	2909.31
1355.986	2939.3
1359.238	2916.94
1362.491	2917.98
1365.743	2922.69
1368.995	2919.74
1372.247	2930.69
1375.498	2955.1
1378.749	2962.82
1382	2918.62
1385.251	2977.38
1388.501	2942.43
1391.751	2919.2
1395	2893.49
1398.25	2928.05
1401.499	2928.26
1404.748	2846.92
1407.996	2843.6
1411.244	2827.46
1414.492	2804.14
1417.74	2781.51
1420.987	2795.59
1424.234	2851.5
1427.481	2837.31
1430.728	2893.97
1433.974	2871.61
1437.22	2891.31
1440.465	2894.08
1443.711	2845.53
1446.956	2885.93
1450.201	2879.78
1453.445	2921.73
1456.689	2896.47
1459.933	2909.9
1463.177	2937.15
1466.42	2910.89
1469.663	2889.46
1472.906	2874.74
1476.148	2970.76
1479.391	2910.78
1482.633	2886.31
1485.874	2890.68
1489.115	2872.3
1492.356	2881.74
1495.597	2858.01
1498.838	2865.65
1502.078	2827.1
1505.318	2766.65
1508.557	2815.15
1511.797	2770.89
1515.036	2869.6
1518.274	2859.04
1521.513	2838.34
1524.751	2864.16
1527.989	2875.09
1531.227	2884.91
1534.464	2871.75
1537.701	2902.06
1540.938	2924.06
1544.174	2878.6
1547.41	2881.7
1550.646	2921.27
1553.882	2950.55
1557.117	3007.01
1560.352	3022.54
1563.587	2979.55
1566.821	2935.97
1570.055	2977.01
1573.289	2944.18
1576.523	3025.03
1579.756	3028.56
1582.989	3047.75
1586.222	3006.54
1589.454	3050.24
1592.686	3017.6
1595.918	3042.48
1599.15	3026.25
1602.381	3114.79
1605.612	3060.51
1608.843	3160.07
1612.073	3069.03
1615.303	3050.89
1618.533	3038.06
1621.762	3044.84
1624.992	3035.88
1628.221	3015.55
1631.449	3000.2
1634.678	3067.19
1637.906	3016.49
1641.134	3060.56
1644.361	3009.64
1647.588	3001.7
1650.815	3015.59
1654.042	2998.81
1657.269	3029.58
1660.495	2973.91
1663.72	2975.57
1666.946	2943.2
1670.171	2873.36
1673.396	2850.25
1676.621	2841.72
1679.845	2872.63
1683.069	2895.36
1686.293	2946.47
1689.517	2909.15
1692.74	2827.45
1695.963	2860.76
1699.185	2896.17
1702.408	2868.3
1705.63	2914.98
1708.852	2924.85
1712.073	2895.34
1715.294	2872.08
1718.515	2941.27
1721.736	2882.04
1724.956	2882.88
1728.176	2911.79
1731.396	2932.28
1734.616	2924.42
1737.835	2948.68
1741.054	2930.38
1744.272	2921.87
1747.491	2950.47
1750.709	3017.03
1753.927	2902.63
1757.144	2955.99
1760.361	2990.2
1763.578	2990.9
1766.795	2927.35
1770.011	2939.32
1773.227	2985.67
1776.443	3022.01
1779.658	3066.74
1782.874	3010.12
1786.089	2981.5
1789.303	2985.42
1792.518	2992.68
1795.732	2984.48
1798.945	2989.83
1802.159	3043.27
1805.372	2929.34
1808.585	2909.94
1811.797	2909.77
1815.01	2968.34
1818.222	2968.62
1821.434	2914.73
1824.645	2985.65
1827.856	2959.8
1831.067	2994.51
1834.278	2960.2
1837.488	2944.92
1840.698	3106.12
1843.908	3022.84
1847.117	2983.7
1850.326	2850.2
1853.535	2970.31
1856.744	3022.98
1859.952	2929.46
1863.16	2928.49
1866.368	2956.03
1869.575	3056.69
1872.782	2941.17
1875.989	2881.2
1879.196	2981.32
1882.402	2972.45
1885.608	3018.56
1888.814	2904.48
1892.019	2794.14
1895.224	2844.63
1898.429	2833.31
1901.634	2807.67
1904.838	2788.62
1908.042	2835.2
1911.246	2841.96
1914.449	2759.69
1917.652	2767.66
1920.855	2749.25
1924.058	2809.22
1927.26	2844.23
1930.462	2873.53
1933.664	2897.69
1936.865	2829.32
1940.066	2832.77
1943.267	2781.69
1946.467	2798.18
1949.668	2829.17
1952.868	2894.86
1956.067	2866.56
1959.267	2793.31
1962.466	2822.52
1965.665	2810.21
1968.863	2804.89
1972.061	2828.44
1975.259	2827.76
1978.457	2911.06
1981.654	2867.9
1984.852	2866.91
1988.048	2789.56
1991.245	2799
1994.441	2885.05
1997.637	2880.66
2000.833	2863.21
2004.028	2904.42
2007.223	2951.21
2010.418	2927.29
2013.613	2892.5
2016.807	2852.07
2020.001	2865.26
2023.194	2915.89
2026.388	2892.57
2029.581	2837.73
2032.774	2881.4
2035.966	2883.53
2039.158	2806.93
2042.35	2840.35
2045.542	2767.74
2048.733	2874.19
2051.924	2910.06
2055.115	2942.58
2058.306	2878.99
2061.496	2938.3
2064.686	3008.02
2067.875	2922.65
2071.065	2944.27
2074.254	2977.79
2077.442	2928.5
2080.631	3020.6
2083.819	2895.4
2087.007	2873.1
2090.195	2838.33
2093.382	2883.68
2096.569	2860.79
2099.756	2811.14
2102.942	2829.37
2106.128	2828.12
2109.314	2819.86
2112.5	2773.72
2115.685	2755.5
2118.87	2766.34
2122.055	2835.17
2125.239	2794.26
2128.424	2758.91
2131.608	2881.16
2134.791	2860.44
2137.974	2927.6
2141.157	2913.34
2144.34	2856.61
2147.523	2880.92
2150.705	2887.15
2153.887	2872.31
2157.068	2811.28
2160.25	2825.38
2163.431	2866.98
2166.611	2802.81
2169.792	2817.85
2172.972	2703.42
2176.152	2792.87
2179.331	2832.26
2182.511	2808.21
2185.69	2840.19
2188.868	2827.11
2192.047	2892.78
2195.225	2870.36
2198.403	2825.57
2201.58	2817.11
2204.758	2819.54
2207.935	2904.94
2211.111	2782.2
2214.288	2762.93
2217.464	2805.57
2220.64	2781.06
2223.815	2843.19
2226.991	2757.22
2230.166	2778.91
2233.34	2801.53
2236.515	2833.85
2239.689	2909.54
2242.863	2852.71
2246.036	2908.23
2249.209	2918.63
2252.382	2957.41
2255.555	2937.31
2258.727	2867.43
2261.9	2915.1
2265.071	2906.08
2268.243	2912.35
2271.414	2836.3
2274.585	2786.15
2277.756	2855.99
2280.926	2815.04
2284.096	2858.74
2287.266	2755.34
2290.436	2815.83
2293.605	2848.68
2296.774	2872.76
2299.942	2904.87
2303.111	2919.24
2306.279	2968.57
2309.447	2954.17
2312.614	2932.35
2315.781	2950.22
2318.948	2913.32
2322.115	2956.16
2325.281	2857.71
2328.447	2884.22
2331.613	2862.82
2334.779	2823.72
2337.944	2831.94
2341.109	2826.54
2344.274	2809.98
2347.438	2770.95
2350.602	2799.99
2353.766	2820.51
2356.929	2802.29
2360.092	2850.28
2363.255	2792.31
2366.418	2710.97
2369.58	2845.23
2372.742	2596.16
2375.904	2619.27
2379.066	2591.21
2382.227	2634.88
2385.388	2595.77
2388.548	2512.5
2391.709	2574.44
2394.869	2547.67
2398.029	2665.95
2401.188	2687.54
2404.347	2606.95
2407.506	2774.25
2410.665	2800.88
2413.823	2813.89
2416.981	2761.29
2420.139	2798.22
2423.296	2852.62
2426.453	2825.97
2429.61	2850.83
2432.767	2769.09
2435.923	2804.6
2439.079	2752.73
2442.235	2809.47
2445.391	2730.56
2448.546	2751.83
2451.701	2809.48
2454.855	2769.12
2458.009	2834.17
2461.163	2842.82
2464.317	2793.14
2467.471	2831.65
2470.624	2877.81
2473.777	2862.97
2476.929	2875.64
2480.082	2897.6
2483.234	2860.56
2486.385	2806.53
2489.537	2797.73
2492.688	2744.35
2495.839	2761.32
2498.989	2774
2502.14	2754.04
2505.29	2729.06
2508.439	2761.04
2511.589	2674.29
2514.738	2693.91
2517.887	2728.61
2521.035	2799.85
2524.183	2793.82
2527.331	2773.38
2530.479	2739.3
2533.627	2751.96
