Data from C_3_DIV_WI_4N_Splice17_12-56-13-472.txt Node
Date: Sat Mar 14 12:56:13 EDT 2020
User: sa697716
Spectrometer: FLMS03696
Trigger mode: 0
Integration Time (sec): 3.180400E-1
Scans to average: 20
Electric dark correction enabled: true
Nonlinearity correction enabled: true
Boxcar width: 5
XAxis mode: Wavelengths
Number of Pixels in Spectrum: 2048
>>>>>Begin Spectral Data<<<<<
187.83	-365093.73
188.298	2737.35
188.766	1490.24
189.233	1343.55
189.701	1922.06
190.169	2741.62
190.636	1082.05
191.104	865.33
191.571	155.17
192.039	-44.61
192.506	-60.85
192.974	456.45
193.441	-598.5
193.908	-28.86
194.375	26.81
194.842	92.76
195.31	274.22
195.777	249.17
196.244	402.47
196.711	438.83
197.177	532.31
197.644	750.54
198.111	1296.29
198.578	1855.86
199.045	1500.08
199.511	2417.97
199.978	2857.51
200.445	2424.12
200.911	2665.83
201.378	3010.9
201.844	2740.39
202.31	4716.91
202.777	4869.08
203.243	2712.75
203.709	2557.13
204.176	3043.47
204.642	2539.9
205.108	2367.11
205.574	1937.81
206.04	1768.1
206.506	1661.24
206.972	1560.29
207.438	1507.44
207.903	1735.93
208.369	1532.83
208.835	1527.26
209.301	1612.81
209.766	1643.86
210.232	1624.46
210.697	2003.24
211.163	2473.49
211.628	3705.76
212.094	3100.76
212.559	3822.02
213.024	2373.49
213.49	2887.06
213.955	2837.14
214.42	2729.12
214.885	2548.16
215.35	2441.33
215.815	2370.52
216.28	2500.1
216.745	2053.69
217.21	2231.01
217.675	2027.17
218.14	2276.71
218.604	2518.59
219.069	2862.53
219.534	3004.87
219.998	3464.65
220.463	4181.52
220.927	5091.26
221.392	4771.43
221.856	4810.09
222.32	6019.43
222.785	7414.96
223.249	9263.6
223.713	10333.2
224.177	10290.96
224.642	13146.24
225.106	16115.69
225.57	17537.66
226.034	13052.23
226.497	19855.9
226.961	17902.52
227.425	20820.96
227.889	23036.2
228.353	23026.15
228.816	47474.76
229.28	45274.33
229.744	38138.6
230.207	23194.17
230.671	22861.29
231.134	37790.69
231.597	43564.3
232.061	43473.22
232.524	42447.5
232.987	29269.07
233.45	26327.05
233.914	23588.6
234.377	24189.57
234.84	22127.42
235.303	26063.57
235.766	29034.09
236.229	29883.22
236.691	18799.35
237.154	21105.61
237.617	15835.05
238.08	16191.56
238.542	18929.19
239.005	13506.55
239.468	13392.65
239.93	12638.03
240.393	11485.56
240.855	10076.72
241.317	10332.53
241.78	12561.22
242.242	12993.43
242.704	14064.59
243.166	12250.8
243.629	11147.38
244.091	12853.28
244.553	14069.17
245.015	15114.35
245.477	19534.64
245.939	28632.73
246.4	30389.76
246.862	29517.41
247.324	27803.07
247.786	31015.65
248.247	40635.94
248.709	41867.81
249.17	31289.37
249.632	29543.87
250.093	34233.29
250.555	29543.04
251.016	18020.8
251.477	17070.82
251.939	18416.5
252.4	19309.76
252.861	22952.74
253.322	21378.63
253.783	25453.8
254.244	32990
254.705	26015.76
255.166	23081.58
255.627	22739.76
256.088	32099.56
256.549	34114.75
257.009	29429.98
257.47	35752.35
257.931	29126.87
258.391	21804.35
258.852	22480.63
259.312	23581.13
259.773	29095.83
260.233	24635.8
260.694	20793.22
261.154	23534.34
261.614	18914.15
262.074	16894.01
262.534	17547.41
262.994	16540.68
263.455	22033.65
263.915	18557.39
264.374	17467.11
264.834	19072.86
265.294	21118.18
265.754	21841.2
266.214	20706.08
266.673	19370.46
267.133	24439.12
267.593	24195.21
268.052	29596.1
268.512	25708.16
268.971	30981.2
269.431	33981.26
269.89	30407.9
270.349	45614.72
270.809	50880.17
271.268	45723.06
271.727	102459.43
272.186	66331.81
272.645	49745.2
273.104	35860.95
273.563	51925.94
274.022	40815.12
274.481	34744.68
274.94	26755.81
275.399	19880.11
275.857	23142.22
276.316	31233.21
276.775	27795.55
277.233	27393.12
277.692	25651.84
278.15	29034.2
278.609	29881.74
279.067	27653.71
279.525	25684.72
279.984	33156.53
280.442	39792.42
280.9	39251.24
281.358	25842.79
281.816	24094.39
282.274	23572.45
282.732	24365.32
283.19	24471.06
283.648	21071.58
284.106	22447.96
284.564	22812.03
285.021	21163.14
285.479	15765.07
285.937	14305.12
286.394	12562.13
286.852	12919.29
287.309	13563.58
287.767	13119.01
288.224	12480.99
288.682	13702.84
289.139	15042.53
289.596	13766.88
290.053	14297.27
290.511	18029.71
290.968	21876.7
291.425	29638.69
291.882	24694.46
292.339	21482.69
292.796	21299.44
293.252	20068.57
293.709	15955.13
294.166	14290.5
294.623	15773.95
295.079	15122.18
295.536	15205.56
295.992	13801.09
296.449	13644.67
296.905	14164
297.362	13610.57
297.818	14307.51
298.274	14850.5
298.731	15137.8
299.187	14970.84
299.643	16049.03
300.099	19408.66
300.555	21257.27
301.011	17766.23
301.467	17138.51
301.923	20024.61
302.379	19523.01
302.835	19166.23
303.291	19176.22
303.746	21791.76
304.202	27492.17
304.658	27623.59
305.113	18571.51
305.569	18198.37
306.024	19379.32
306.479	18421.55
306.935	15555.91
307.39	16970.38
307.845	15649.15
308.301	15747.71
308.756	15334.57
309.211	14786.72
309.666	15164.28
310.121	18844.67
310.576	19110.66
311.031	18976.39
311.486	21736.29
311.94	21673.02
312.395	28979.8
312.85	54498.9
313.305	267284.05
313.759	1384186.01
314.214	100326.31
314.668	79498.09
315.123	66912.34
315.577	24019.78
316.032	21383.51
316.486	26744.32
316.94	21116
317.394	14704.51
317.849	11424.36
318.303	10824.19
318.757	10223.44
319.211	11300.13
319.665	9870.41
320.119	9979.65
320.572	14315.86
321.026	13354.03
321.48	11130.6
321.934	12113.86
322.387	12135.85
322.841	13098.64
323.295	11779.29
323.748	13538.42
324.202	13724.25
324.655	16510.02
325.108	23050.37
325.562	16281.88
326.015	19354
326.468	14640.7
326.921	16418.3
327.374	15314.63
327.827	15964.7
328.28	18042.34
328.733	12096.91
329.186	10642.18
329.639	10134.03
330.092	8563.85
330.545	8159.91
330.997	8212.21
331.45	8971.77
331.903	10515.21
332.355	18065.08
332.808	17528.22
333.26	14473.97
333.713	15723.47
334.165	15813.17
334.617	21103.92
335.069	16977.05
335.522	30592.77
335.974	33932.41
336.426	30980.44
336.878	21433.23
337.33	10898.33
337.782	10631.41
338.234	13325.39
338.686	15938.76
339.137	18925.98
339.589	17803.15
340.041	13973.56
340.493	12048.49
340.944	12352.22
341.396	13312.69
341.847	11218.32
342.299	13229.83
342.75	16204.62
343.201	14099.53
343.653	16198.38
344.104	19855.13
344.555	15624.66
345.006	24268.5
345.457	18574.85
345.908	14744.42
346.359	13851.19
346.81	11262.55
347.261	11854.21
347.712	11658.22
348.163	12514.44
348.613	12707.67
349.064	11856.72
349.515	10375.2
349.965	10655.55
350.416	12817.47
350.866	14031
351.317	15846.71
351.767	26245.83
352.217	33105.78
352.668	27444.44
353.118	25162.7
353.568	24174.65
354.018	19164.12
354.468	20242.39
354.918	14536.62
355.368	12719.12
355.818	17966.69
356.268	51637.39
356.718	216178.4
357.168	53885.94
357.617	26992.37
358.067	29938.51
358.517	28048.17
358.966	32886.8
359.416	36882.04
359.865	39802.53
360.315	47340.64
360.764	22131.24
361.213	12426.9
361.663	11739.39
362.112	14482.2
362.561	23429.88
363.01	17700.38
363.459	14866.5
363.908	16093.43
364.357	13666.87
364.806	23076.13
365.255	15864.99
365.703	14553.11
366.152	14575.01
366.601	11845.47
367.05	9632.21
367.498	8759.71
367.947	9148.15
368.395	9533.97
368.844	8438.83
369.292	10158.49
369.74	7035.64
370.189	10773.9
370.637	12619.2
371.085	10879.55
371.533	13250.61
371.981	12765.54
372.429	12179.93
372.877	12699.9
373.325	10618.02
373.773	10805.47
374.221	9627.17
374.669	11913.09
375.116	10284.82
375.564	10337.15
376.012	11578.63
376.459	9545.58
376.907	11394.99
377.354	13754.88
377.801	12849.64
378.249	14812.58
378.696	18942.92
379.143	22916.37
379.591	24492.57
380.038	41580.91
380.485	30126.49
380.932	32457.91
381.379	29729.48
381.826	21925.21
382.273	15595.22
382.72	13628.58
383.166	13293.03
383.613	8639.25
384.06	7805.39
384.506	9023.2
384.953	6610.82
385.4	6656.34
385.846	5842.68
386.292	5681.83
386.739	5543.72
387.185	5481.16
387.631	5478.9
388.078	5325.29
388.524	5685.84
388.97	5246.96
389.416	4375.43
389.862	4660.78
390.308	4421.94
390.754	4481.97
391.2	4870.68
391.645	4989.35
392.091	4785.41
392.537	4628.35
392.983	4620.27
393.428	4560.84
393.874	4891.59
394.319	4915.84
394.765	4668.83
395.21	4784.16
395.655	4486.62
396.101	4191.23
396.546	3784.37
396.991	3805.75
397.436	3533.02
397.881	3397.28
398.326	3210.37
398.771	3031.75
399.216	2641.76
399.661	2367.93
400.106	2365.87
400.551	2429.03
400.995	2180.78
401.44	2154.85
401.885	2024.43
402.329	2040.2
402.774	1965.29
403.218	1904.58
403.663	1834.36
404.107	1889.08
404.551	1904.22
404.995	1743.1
405.44	1669.49
405.884	1690.15
406.328	1628.41
406.772	1623.39
407.216	1479.81
407.66	1424.75
408.104	1342.17
408.547	1255.53
408.991	1212.03
409.435	1165.03
409.879	1149.58
410.322	1133.51
410.766	1094.47
411.209	1041.35
411.653	995.85
412.096	975.74
412.54	974.87
412.983	971.12
413.426	974.08
413.869	969.34
414.312	951.75
414.756	912.46
415.199	869.85
415.642	845.34
416.085	847.98
416.527	841.79
416.97	853.23
417.413	810.96
417.856	799.31
418.298	789.84
418.741	781.53
419.184	775.71
419.626	805.95
420.069	804.73
420.511	808.21
420.953	790.11
421.396	782.79
421.838	760.24
422.28	775.98
422.722	783.76
423.164	794.24
423.606	785.19
424.048	783.84
424.49	747.07
424.932	744.34
425.374	732.52
425.816	744.61
426.258	757.13
426.699	766.24
427.141	758.33
427.582	767.84
428.024	761.8
428.465	756.15
428.907	741.07
429.348	731.64
429.789	733.84
430.231	721.22
430.672	730.07
431.113	716.43
431.554	707.45
431.995	686.6
432.436	663.25
432.877	650.32
433.318	640.49
433.759	635.59
434.2	635.36
434.64	627.04
435.081	626.03
435.522	593.81
435.962	568.64
436.403	556.1
436.843	564.28
437.284	550.9
437.724	534.6
438.164	535.28
438.604	523.8
439.045	506.06
439.485	486.38
439.925	476.47
440.365	465.09
440.805	460.18
441.245	455.18
441.685	438.67
442.125	435.46
442.564	438.72
443.004	426.16
443.444	424.42
443.883	425.35
444.323	420.83
444.762	420.6
445.202	426.12
445.641	434.23
446.081	430.8
446.52	433.5
446.959	430.55
447.398	421
447.837	417.81
448.276	410.5
448.716	412.57
449.154	415.17
449.593	406.65
450.032	406.09
450.471	398.54
450.91	397.8
451.349	397.23
451.787	392.46
452.226	396.91
452.664	396.38
453.103	396.43
453.541	394.74
453.98	394.57
454.418	396.84
454.856	390.34
455.295	387.73
455.733	389.66
456.171	390.5
456.609	390.5
457.047	389.85
457.485	396.27
457.923	398.12
458.361	392.86
458.798	394.09
459.236	391.65
459.674	392.72
460.111	395.81
460.549	393.07
460.987	392.11
461.424	392.99
461.862	391
462.299	383.83
462.736	382.14
463.173	383.35
463.611	382.89
464.048	382.7
464.485	386.17
464.922	381.15
465.359	377.95
465.796	378.86
466.233	376.8
466.67	375.45
467.106	376.2
467.543	373.16
467.98	368.05
468.416	355.03
468.853	350.79
469.29	339.73
469.726	336.12
470.162	327.48
470.599	318.07
471.035	313.31
471.471	304.64
471.907	300.39
472.344	297.98
472.78	299.26
473.216	301.86
473.652	298.81
474.088	297.85
474.523	297.76
474.959	300.07
475.395	297.64
475.831	295.8
476.266	297.01
476.702	296.47
477.138	292.38
477.573	290.6
478.008	290.22
478.444	292.18
478.879	295.94
479.314	296.77
479.75	296.28
480.185	296.68
480.62	298.92
481.055	299.43
481.49	301.34
481.925	305.99
482.36	312.39
482.795	320.77
483.229	328.13
483.664	333.41
484.099	334.16
484.534	339.38
484.968	343.22
485.403	343.73
485.837	343.65
486.271	342.78
486.706	342.32
487.14	336.66
487.574	330.49
488.009	326.89
488.443	323.78
488.877	327.16
489.311	327.45
489.745	330.74
490.179	333.41
490.613	340.29
491.046	342.53
491.48	344.75
491.914	346.02
492.348	348.69
492.781	351.63
493.215	352.64
493.648	352.81
494.082	355.39
494.515	356.32
494.948	361.29
495.382	362.85
495.815	366.19
496.248	370.21
496.681	376.99
497.114	383.52
497.547	389.13
497.98	397.93
498.413	402.98
498.846	410.08
499.279	415.01
499.711	418.06
500.144	420.71
500.577	428.37
501.009	436.09
501.442	443.44
501.874	445.87
502.306	449.29
502.739	456.14
503.171	466.3
503.603	470
504.036	476.64
504.468	482.13
504.9	489.96
505.332	495.52
505.764	500.04
506.196	506.77
506.627	517.74
507.059	528.5
507.491	534.91
507.923	536.9
508.354	548.94
508.786	559.06
509.217	573.72
509.649	587.05
510.08	601.65
510.512	616.19
510.943	629.68
511.374	640.21
511.805	656.29
512.237	672.1
512.668	695.35
513.099	716.26
513.53	737.63
513.961	755.71
514.391	780.23
514.822	808.13
515.253	836.33
515.684	857.36
516.114	882.62
516.545	901.79
516.975	924.24
517.406	941.68
517.836	948.92
518.267	959.65
518.697	976.36
519.127	985.29
519.558	994.19
519.988	1001.38
520.418	1012.82
520.848	1030.26
521.278	1041.27
521.708	1074.88
522.138	1090.06
522.567	1116.73
522.997	1139.6
523.427	1155.64
523.857	1172.14
524.286	1184.4
524.716	1200.65
525.145	1219.96
525.575	1232.3
526.004	1247.09
526.433	1232.22
526.863	1235.65
527.292	1233.57
527.721	1241.49
528.15	1250.07
528.579	1254.9
529.008	1267.62
529.437	1286.98
529.866	1300.22
530.295	1316.13
530.724	1329.49
531.152	1352.5
531.581	1367.14
532.01	1382.81
532.438	1391.38
532.867	1403.68
533.295	1419.03
533.723	1424.63
534.152	1425.32
534.58	1426.76
535.008	1415.88
535.436	1418.46
535.865	1425.43
536.293	1435.88
536.721	1448.98
537.149	1469.38
537.576	1473.38
538.004	1484.35
538.432	1490.8
538.86	1489.89
539.287	1495.39
539.715	1506.46
540.143	1507.85
540.57	1506.01
540.998	1503.6
541.425	1486.23
541.852	1470.15
542.28	1467.76
542.707	1455.22
543.134	1444.67
543.561	1441.33
543.988	1435.53
544.415	1435.43
544.842	1432.45
545.269	1427.02
545.696	1429.65
546.123	1439.92
546.549	1431.66
546.976	1422.99
547.403	1423.6
547.829	1426.25
548.256	1428.17
548.682	1426.43
549.108	1421.2
549.535	1420.82
549.961	1422.61
550.387	1412.62
550.813	1408.91
551.24	1414.88
551.666	1414.52
552.092	1407.2
552.518	1401.93
552.943	1397.62
553.369	1403.51
553.795	1407.77
554.221	1409.22
554.646	1406.62
555.072	1414.55
555.498	1417.45
555.923	1423.84
556.349	1436.16
556.774	1441.25
557.199	1440.77
557.625	1444.21
558.05	1437.78
558.475	1443.89
558.9	1440.32
559.325	1431.5
559.75	1424.86
560.175	1417.44
560.6	1410.35
561.025	1405.46
561.449	1404.07
561.874	1405.87
562.299	1407.39
562.723	1410.69
563.148	1400.51
563.572	1401.09
563.997	1407.21
564.421	1408.1
564.846	1406.08
565.27	1406.58
565.694	1402.47
566.118	1407.76
566.542	1410.01
566.966	1401.36
567.39	1394.23
567.814	1382.45
568.238	1378.62
568.662	1378.74
569.086	1376.82
569.509	1377.55
569.933	1362.05
570.357	1351.78
570.78	1332.56
571.204	1319.93
571.627	1308.15
572.05	1302.91
572.474	1300.2
572.897	1286.78
573.32	1277.64
573.743	1266.16
574.166	1250.32
574.589	1246.41
575.012	1238.68
575.435	1234.8
575.858	1224.17
576.281	1213.48
576.704	1198.63
577.126	1185.97
577.549	1175.39
577.972	1164.52
578.394	1155.08
578.817	1149.6
579.239	1134.49
579.661	1122.49
580.084	1110.49
580.506	1099.6
580.928	1094.54
581.35	1086.19
581.772	1081.13
582.194	1070.89
582.616	1060.86
583.038	1048.73
583.46	1037.91
583.882	1034.16
584.303	1035.25
584.725	1029.55
585.147	1031.65
585.568	1037.27
585.99	1044.6
586.411	1048.16
586.833	1056.92
587.254	1056.51
587.675	1065
588.096	1071.48
588.518	1065.79
588.939	1053.45
589.36	1050.75
589.781	1039.93
590.202	1021.35
590.623	1012.31
591.043	1009.26
591.464	999.24
591.885	995.74
592.305	991.29
592.726	981.36
593.147	981.65
593.567	977.63
593.987	971.87
594.408	967.61
594.828	964.02
595.248	961.58
595.669	948.82
596.089	943.12
596.509	938.63
596.929	928.97
597.349	929.43
597.769	922.95
598.189	918.16
598.608	918.35
599.028	918.41
599.448	917.2
599.867	907.19
600.287	903.57
600.706	900.89
601.126	893.7
601.545	892.12
601.965	889.72
602.384	884.28
602.803	884.12
603.222	879.85
603.641	874.56
604.061	871.12
604.48	866.97
604.898	870.68
605.317	872.23
605.736	871.54
606.155	869.47
606.574	862.06
606.992	864.73
607.411	861.08
607.829	854.8
608.248	851.16
608.666	847.78
609.085	845.61
609.503	838.45
609.921	833.75
610.339	833.72
610.758	831.26
611.176	826.88
611.594	819.25
612.012	815.5
612.43	815.8
612.847	818.63
613.265	818.69
613.683	820.01
614.101	818.84
614.518	813.28
614.936	805.51
615.353	794.31
615.771	790.78
616.188	789.81
616.606	785.73
617.023	779.68
617.44	769.18
617.857	762.92
618.274	756.49
618.691	752.28
619.108	745.57
619.525	740.9
619.942	744.18
620.359	744.98
620.776	740.53
621.192	738.22
621.609	736.28
622.026	739.53
622.442	742.35
622.859	743.5
623.275	738.24
623.691	741.49
624.108	747.86
624.524	755.61
624.94	755.58
625.356	760.91
625.772	767.46
626.188	773.27
626.604	773.89
627.02	771.1
627.436	769.51
627.852	773.5
628.268	779.81
628.683	773.37
629.099	767.74
629.514	763.37
629.93	765.23
630.345	767.41
630.761	764.74
631.176	765.62
631.591	762.43
632.007	758.49
632.422	756.45
632.837	748.99
633.252	747.69
633.667	740.23
634.082	733.93
634.497	724.73
634.911	713.45
635.326	710.53
635.741	699.46
636.155	690.89
636.57	690.77
636.984	688.29
637.399	688.27
637.813	684.2
638.228	681.4
638.642	681.53
639.056	673.47
639.47	670.29
639.884	662.33
640.298	656.68
640.712	654.83
641.126	644.92
641.54	638.31
641.954	632.07
642.368	624.54
642.781	619.65
643.195	608.64
643.609	606.96
644.022	601.49
644.436	596.95
644.849	588.99
645.262	579.95
645.676	577.71
646.089	573.76
646.502	565
646.915	560.71
647.328	549.87
647.741	547.63
648.154	539.92
648.567	538.6
648.98	532.11
649.393	531.52
649.805	529.15
650.218	525.71
650.631	517.3
651.043	513.37
651.456	510.05
651.868	510.21
652.28	517.93
652.693	523.8
653.105	524.64
653.517	528.56
653.929	529.21
654.341	533.28
654.753	527.11
655.165	528.87
655.577	527.31
655.989	524.06
656.401	517.79
656.813	500.55
657.224	490.64
657.636	475.99
658.047	467.33
658.459	455.58
658.87	448.83
659.282	442.23
659.693	433.86
660.104	426.71
660.515	419.13
660.926	419.93
661.338	416.86
661.749	413.04
662.159	408.65
662.57	405.52
662.981	403.56
663.392	401.61
663.803	403.02
664.213	399.98
664.624	397.17
665.035	399.51
665.445	390.59
665.855	388.28
666.266	386.29
666.676	386.39
667.086	382.2
667.497	383.22
667.907	379.57
668.317	375.98
668.727	378.19
669.137	379.27
669.547	378.46
669.956	380.65
670.366	383.26
670.776	385.1
671.186	387.55
671.595	391.62
672.005	393.08
672.414	394.36
672.824	395.61
673.233	395.33
673.642	398.53
674.052	402.57
674.461	406.61
674.87	409.04
675.279	409.14
675.688	410.4
676.097	411.69
676.506	411.88
676.915	419.13
677.323	421.35
677.732	422.93
678.141	423.03
678.549	417.96
678.958	417.33
679.366	417.52
679.775	420
680.183	429.13
680.592	433.59
681	437.67
681.408	434.98
681.816	439.8
682.224	443.78
682.632	450.7
683.04	467.09
683.448	481.79
683.856	499.28
684.264	518.54
684.671	534.09
685.079	554.95
685.487	578.13
685.894	612
686.302	638.56
686.709	661.63
687.116	687.92
687.524	711.02
687.931	731.78
688.338	749.76
688.745	765.1
689.152	784.22
689.559	810.92
689.966	839.45
690.373	855.7
690.78	885.02
691.187	928.17
691.593	963.12
692	995.61
692.407	1038.72
692.813	1094.72
693.22	1143.39
693.626	1191.59
694.032	1233.96
694.439	1294.03
694.845	1344.92
695.251	1405.93
695.657	1463.07
696.063	1541.41
696.469	1604.75
696.875	1667.1
697.281	1709.18
697.687	1757.92
698.093	1804.85
698.498	1877.16
698.904	1934.02
699.31	2014.89
699.715	2078.78
700.12	2163.77
700.526	2199.04
700.931	2270.21
701.337	2328.83
701.742	2373.46
702.147	2455.29
702.552	2496.28
702.957	2560.83
703.362	2595.49
703.767	2636.57
704.172	2686.39
704.577	2667.6
704.981	2721.1
705.386	2752.16
705.791	2763.27
706.195	2839.47
706.6	2862.48
707.004	2943.89
707.408	2932.88
707.813	2973.24
708.217	2978.95
708.621	2995.48
709.025	3091.22
709.43	3106.83
709.834	3173.04
710.237	3245.93
710.641	3246.73
711.045	3281.36
711.449	3290.59
711.853	3330.09
712.256	3378.53
712.66	3424.66
713.064	3504.77
713.467	3555.27
713.87	3669.26
714.274	3722
714.677	3837.58
715.08	3997.65
715.484	4164.33
715.887	4363.1
716.29	4557.52
716.693	4763.91
717.096	4998.67
717.499	5136.48
717.901	5174.17
718.304	5213.52
718.707	5249.7
719.109	5164.01
719.512	5149.51
719.915	5035.86
720.317	4996.27
720.719	5050.63
721.122	5035.47
721.524	4998.19
721.926	4969.16
722.328	5077.14
722.731	5079.38
723.133	5118.09
723.535	5315.25
723.937	5345.96
724.338	5408.44
724.74	5457.63
725.142	5410.18
725.544	5418.89
725.945	5457.48
726.347	5464.29
726.748	5466.67
727.15	5487.56
727.551	5457.66
727.952	5435.91
728.354	5414.49
728.755	5421.4
729.156	5387.75
729.557	5377.07
729.958	5261.64
730.359	5211
730.76	5196.76
731.161	5143.9
731.562	5126.57
731.962	5136.2
732.363	5079.46
732.763	5021.06
733.164	5058.45
733.564	4997.66
733.965	4911.12
734.365	4880.08
734.766	4914.05
735.166	4878.31
735.566	4824.57
735.966	4800.61
736.366	4801.5
736.766	4742.92
737.166	4779.58
737.566	4744.37
737.966	4719.12
738.365	4760.31
738.765	4758.67
739.165	4686.37
739.564	4665.17
739.964	4712.65
740.363	4669.23
740.763	4665.64
741.162	4657.07
741.561	4624.85
741.96	4579.21
742.36	4601.07
742.759	4608.32
743.158	4650.66
743.557	4666.38
743.955	4707.44
744.354	4665.65
744.753	4724.84
745.152	4686.75
745.55	4741.56
745.949	4733.12
746.348	4736.47
746.746	4754.22
747.144	4712.8
747.543	4690.27
747.941	4739.09
748.339	4668.81
748.737	4661.17
749.136	4652.01
749.534	4717.51
749.932	4691.57
750.33	4718.02
750.727	4774.31
751.125	4752.92
751.523	4738.66
751.921	4782.22
752.318	4750.36
752.716	4809.94
753.113	4826.9
753.511	4851.14
753.908	4850.79
754.305	4835.11
754.703	4898
755.1	4958.6
755.497	5017.76
755.894	5209.39
756.291	5388.87
756.688	5719.23
757.085	6157.77
757.482	6773.43
757.878	7452.3
758.275	8064.11
758.672	8900.59
759.068	9586.89
759.465	10559.7
759.861	11813.41
760.258	13270.49
760.654	14019.49
761.05	13901.4
761.447	13263.45
761.843	12351.68
762.239	11402.61
762.635	10974.66
763.031	10570.23
763.427	9973.47
763.822	9355.22
764.218	8744.34
764.614	7947.96
765.01	7414.13
765.405	7072.8
765.801	6813.19
766.196	6473.55
766.592	6287.44
766.987	5974.19
767.382	5760.01
767.778	5672.06
768.173	5543.54
768.568	5470.78
768.963	5346.75
769.358	5367.49
769.753	5320.45
770.148	5239.9
770.542	5241.99
770.937	5211.95
771.332	5299.92
771.726	5318.02
772.121	5254.65
772.515	5307.87
772.91	5294.49
773.304	5366.5
773.699	5299.51
774.093	5352.63
774.487	5403.53
774.881	5445.69
775.275	5438.74
775.669	5396.42
776.063	5441.24
776.457	5480.27
776.851	5405.54
777.245	5399.08
777.638	5430.68
778.032	5542.75
778.425	5506.3
778.819	5551.77
779.212	5509.05
779.606	5469.75
779.999	5491.5
780.392	5473.73
780.786	5553.28
781.179	5572.26
781.572	5612.35
781.965	5624.97
782.358	5569.63
782.751	5626.08
783.143	5575.16
783.536	5648.45
783.929	5692.8
784.322	5807.08
784.714	5839.57
785.107	5832.9
785.499	5906.03
785.891	5885.13
786.284	5863.71
786.676	6006.76
787.068	5989.66
787.46	6043.84
787.852	6065.07
788.245	6147.47
788.636	6175.8
789.028	6243.05
789.42	6287.14
789.812	6296.41
790.204	6390.07
790.595	6493.64
790.987	6297.15
791.378	6320.13
791.77	6449.09
792.161	6583.67
792.553	6642.15
792.944	6533.77
793.335	6466.29
793.726	6540.32
794.117	6630.61
794.508	6770.86
794.899	6741.66
795.29	6882.09
795.681	6940.67
796.072	6796.49
796.463	6612.88
796.853	6622.08
797.244	6779.37
797.634	6813.22
798.025	6808.23
798.415	6819.57
798.806	6906.64
799.196	6990.57
799.586	7044.74
799.976	7003.98
800.366	7238.43
800.756	7477.05
801.146	7440.87
801.536	7468.83
801.926	7541
802.316	7569.08
802.706	7644.58
803.095	7521.72
803.485	7625.66
803.874	7667.14
804.264	7928.86
804.653	7900.95
805.043	8046.22
805.432	8154.63
805.821	8159.63
806.21	8185.37
806.599	8305.68
806.988	8351.72
807.377	8463.68
807.766	8594.11
808.155	8878.78
808.544	8611.35
808.933	8626.25
809.321	8605.97
809.71	8905.56
810.098	9063.64
810.487	9526.78
810.875	10012.55
811.264	10036.66
811.652	10325.88
812.04	10471.25
812.428	10633.56
812.816	11403.13
813.204	11826.01
813.592	12381
813.98	12714.01
814.368	12620.01
814.756	13101.46
815.144	13019.88
815.531	13482.22
815.919	13408.49
816.306	13714.39
816.694	13408
817.081	13460.34
817.469	13804.33
817.856	13802.63
818.243	14074.88
818.63	14469.63
819.017	14048.14
819.404	14107.23
819.791	14494.83
820.178	15111.7
820.565	15364
820.952	16300.28
821.339	15810
821.725	15999.32
822.112	15254.73
822.498	15220.27
822.885	15356.34
823.271	15257.49
823.657	15681.13
824.044	15687.89
824.43	15765.73
824.816	15736.19
825.202	15292.87
825.588	16312.2
825.974	16330.59
826.36	16843.51
826.746	16875.5
827.132	17223.13
827.517	17197.17
827.903	16407.22
828.289	16442.22
828.674	15661.8
829.06	15556.16
829.445	15954.73
829.83	16314.32
830.216	16786.61
830.601	17158.18
830.986	16751.7
831.371	16616.24
831.756	17177.31
832.141	16751.97
832.526	16744.96
832.911	17023.92
833.295	16901.42
833.68	17368.57
834.065	16743.36
834.449	15824.07
834.834	15744.91
835.218	15728.28
835.603	16077.06
835.987	15861.86
836.371	16687.31
836.755	16584.83
837.139	16985.04
837.524	17227.86
837.908	17046.14
838.291	17104.41
838.675	17175.99
839.059	17382.45
839.443	17379.24
839.827	17135.98
840.21	17614.79
840.594	17470.16
840.977	17670.09
841.361	17644.03
841.744	18019.12
842.127	17866.87
842.511	18112.52
842.894	18702
843.277	19083.73
843.66	19614.14
844.043	19705.14
844.426	18901.13
844.809	18587.36
845.191	18610.37
845.574	18150.14
845.957	17778.64
846.339	17660.76
846.722	17128.51
847.104	17190.45
847.487	17025.25
847.869	17035.54
848.252	17302.65
848.634	17626.61
849.016	17880.73
849.398	18008.23
849.78	18852.45
850.162	18855.06
850.544	19271.82
850.926	19904.71
851.307	19823.63
851.689	20093.4
852.071	20545.53
852.452	20867.5
852.834	20847.16
853.215	21243.04
853.597	21396.66
853.978	21687.37
854.359	22139.87
854.741	21156.55
855.122	21050.97
855.503	20760.82
855.884	20892.98
856.265	20834.66
856.646	20945.84
857.026	20550.2
857.407	20491.62
857.788	20643.17
858.169	20935.69
858.549	20099.66
858.93	20710.91
859.31	20758.37
859.69	20968.99
860.071	20562.92
860.451	20341.87
860.831	19616.87
861.211	20778.27
861.591	21319.16
861.971	21299.49
862.351	21482.18
862.731	21863.37
863.111	22138.28
863.491	22467.82
863.87	23336.62
864.25	23684.63
864.629	23289.78
865.009	23784.09
865.388	24626.68
865.768	26390.15
866.147	26294.03
866.526	24854.56
866.905	25162.27
867.284	26561.71
867.663	25219.12
868.042	24179.72
868.421	24098.93
868.8	24504.91
869.179	24756.1
869.558	23314.88
869.936	21488.57
870.315	21866.45
870.693	22394.24
871.072	24136.7
871.45	22996.17
871.828	23305.03
872.207	24490.36
872.585	24124.2
872.963	24775.11
873.341	23917.92
873.719	23637.55
874.097	23351.54
874.475	23808.9
874.853	24357.71
875.23	23341.99
875.608	24317.3
875.986	26283.31
876.363	25147.85
876.741	25916.23
877.118	25265.04
877.495	26500.74
877.873	26932.68
878.25	28358.58
878.627	27195.92
879.004	27571.34
879.381	27451.19
879.758	26720.98
880.135	24888.42
880.512	26302.7
880.889	25603.8
881.265	25331.62
881.642	25129.71
882.019	25552.93
882.395	25027.13
882.772	26004.28
883.148	24867.8
883.524	24766.98
883.901	24629.33
884.277	24989.8
884.653	24836.48
885.029	25542.15
885.405	28283.31
885.781	28057.58
886.157	26891.28
886.532	27214.42
886.908	27191.67
887.284	30230.38
887.659	31204.01
888.035	32174.93
888.411	32992.8
888.786	33407.18
889.161	34565.34
889.537	33941.82
889.912	35025.04
890.287	35002.95
890.662	35902.86
891.037	35255.56
891.412	32872.06
891.787	32528.74
892.162	31384.75
892.536	32123.52
892.911	30927.2
893.286	30269.63
893.66	29027.66
894.035	29766.42
894.409	32410.35
894.784	31088.9
895.158	31594
895.532	33449.32
895.906	34363.69
896.281	35149.85
896.655	34588.87
897.029	39519.18
897.402	41164.64
897.776	45832.32
898.15	45653.14
898.524	45150.73
898.898	45749.8
899.271	51234
899.645	44394.74
900.018	42641.31
900.392	44239.01
900.765	44593.95
901.138	41258.69
901.511	40620.5
901.884	37292.97
902.258	34410.64
902.631	35555.18
903.003	40921.41
903.376	36935.45
903.749	41418.37
904.122	44353.36
904.495	48836.66
904.867	49438.39
905.24	42916.89
905.612	39961.05
905.985	40875.07
906.357	42742.13
906.729	40806.02
907.102	34856.65
907.474	33513.89
907.846	33723.49
908.218	33274.79
908.59	29397.42
908.962	28420.76
909.334	30602.53
909.705	32146.82
910.077	31218.14
910.449	32500.38
910.82	33395.56
911.192	36757.79
911.563	38198.94
911.935	40887.24
912.306	40939.28
912.677	42312.64
913.048	41910.81
913.419	45490.94
913.79	45726
914.161	49029.01
914.532	46843.16
914.903	43059.84
915.274	40884.05
915.645	40258.17
916.015	35417.95
916.386	33780.44
916.756	35950.94
917.127	37109.49
917.497	33169.58
917.868	36124.09
918.238	34305.34
918.608	35306.39
918.978	36041.02
919.348	38187.88
919.718	39467.23
920.088	38037.79
920.458	39526.76
920.828	41567.22
921.198	39391.37
921.567	42080.06
921.937	32586.88
922.306	32916.38
922.676	35490.99
923.045	29620.2
923.415	28130.61
923.784	25636.26
924.153	26363.95
924.522	26339.15
924.891	24776.5
925.26	26546.08
925.629	25901.79
925.998	29769.61
926.367	29063.72
926.736	27676.65
927.104	32948.06
927.473	35425.21
927.842	42743.46
928.21	42321.71
928.578	44506.48
928.947	42077.12
929.315	42337.88
929.683	49683.54
930.051	50111.52
930.42	58203
930.788	49739.38
931.156	49360.97
931.523	46252.79
931.891	42765.98
932.259	41060.42
932.627	47538.48
932.994	67252.13
933.362	55552.48
933.729	48198.53
934.097	46092.69
934.464	38983.6
934.831	45006.52
935.199	44361.46
935.566	43038.89
935.933	43662.44
936.3	52885.79
936.667	41159.67
937.034	37150.74
937.401	36750.69
937.767	31737.47
938.134	28299.13
938.501	39905.47
938.867	42517.57
939.234	71936.78
939.6	61366.67
939.967	67548.24
940.333	45211.25
940.699	38527.57
941.065	30928.2
941.431	40546.78
941.798	39120.57
942.163	51325.02
942.529	32087.7
942.895	29554.24
943.261	19124.01
943.627	25115.46
943.992	21973.2
944.358	22006.5
944.723	22079.69
945.089	21511.34
945.454	19893.77
945.82	21232.32
946.185	20399.41
946.55	23628.01
946.915	21186.98
947.28	24830.45
947.645	21865.01
948.01	20206.4
948.375	21091.15
948.74	25302.17
949.104	29524.92
949.469	42628.06
949.834	75327.55
950.198	71426.74
950.562	42836.75
950.927	35680.74
951.291	42956.88
951.655	36575.87
952.02	34317.51
952.384	25951.94
952.748	22574.99
953.112	21994.23
953.476	19120.33
953.839	17675.79
954.203	17471.59
954.567	21834.37
954.931	34411
955.294	29446.4
955.658	29610.22
956.021	50400.01
956.385	85401.8
956.748	125960.9
957.111	195357.75
957.474	219118.94
957.837	246905.76
958.2	187126.01
958.563	67349.25
958.926	45488.91
959.289	68984.32
959.652	77057.49
960.015	57781.91
960.377	82931.92
960.74	94706.05
961.102	163571.17
961.465	175805.21
961.827	94122.23
962.189	180575.29
962.552	125249.03
962.914	100499.83
963.276	65193.74
963.638	53883.96
964	53362.51
964.362	36061.32
964.724	34841.34
965.085	24830.27
965.447	20372.36
965.809	23221.72
966.17	23244.94
966.532	25115.28
966.893	23044.08
967.255	20971.41
967.616	24784.88
967.977	19858.05
968.338	21710.02
968.699	17821.96
969.061	17829.1
969.421	17919.02
969.782	20087.31
970.143	16961.5
970.504	17571.5
970.865	19960.93
971.225	20426.13
971.586	19964.83
971.946	28443.14
972.307	24674.47
972.667	32324.32
973.027	33307.29
973.388	40429.12
973.748	27527.71
974.108	29992.27
974.468	40642.04
974.828	31363.8
975.188	24111.29
975.548	22141.12
975.907	18581.39
976.267	20834.5
976.627	17498.65
976.986	18113.99
977.346	17247.17
977.705	16594.9
978.064	15114.71
978.424	12569.19
978.783	12985.38
979.142	14842.73
979.501	14212.1
979.86	15026.13
980.219	14485.72
980.578	18684.38
980.937	20929.43
981.296	18658.02
981.654	19215.16
982.013	29902.05
982.371	38769.68
982.73	36199.45
983.088	40930.58
983.447	43705.52
983.805	62383.48
984.163	130246.74
984.521	144390.39
984.879	211663.78
985.237	-344198.12
985.595	331333.1
985.953	82242.76
986.311	47532.1
986.669	27595.19
987.026	23819.22
987.384	32022.62
987.741	33089.93
988.099	23633.38
988.456	18833.99
988.814	17643.24
989.171	15370.81
989.528	15161.29
989.885	16025.08
990.242	12672.64
990.599	15779.07
990.956	12913.5
991.313	9033.47
991.67	7428.88
992.027	7891.58
992.383	7020.21
992.74	6148.54
993.096	6455.09
993.453	6697.19
993.809	6937.96
994.165	9251.47
994.522	8491.2
994.878	9358.07
995.234	11738.66
995.59	11571.41
995.946	10943.67
996.302	12492.56
996.658	14437.71
997.013	15845.38
997.369	18782.26
997.725	24043.46
998.08	15586.75
998.436	24028.65
998.791	33145.52
999.147	33007.2
999.502	36022.25
999.857	26152.12
1000.212	42620.13
1000.567	60839.24
1000.922	35114.7
1001.277	22331.45
1001.632	16573.38
1001.987	21318.18
1002.342	15264.8
1002.696	12214.52
1003.051	9782.33
1003.406	11850.99
1003.76	11813.54
1004.114	11632.75
1004.469	9777.78
1004.823	8099.32
1005.177	8729.51
1005.531	6916.37
1005.885	6138.28
1006.239	6942.88
1006.593	8698.66
1006.947	11643.99
1007.301	8719.88
1007.655	9494.28
1008.008	6957.47
1008.362	7791.63
1008.715	11134.37
1009.069	10097.73
1009.422	15213.76
1009.776	30505.56
1010.129	20256.07
1010.482	16948.67
1010.835	14295.77
1011.188	29759.44
1011.541	28072.45
1011.894	-171377
1012.247	506253.52
1012.6	34393.61
1012.952	21687.55
1013.305	11154.59
1013.657	8048.4
1014.01	7615.64
1014.362	6266.42
1014.715	5575.53
1015.067	4861.59
1015.419	4747.46
1015.771	4226.03
1016.123	3754.51
1016.475	3859.64
1016.827	4130.59
1017.179	4436.32
1017.531	4466.46
1017.883	4561.71
1018.234	4409.96
1018.586	5559.49
1018.938	5909.17
1019.289	8145.66
1019.64	9333.37
1019.992	8690.21
1020.343	7943.71
1020.694	6240.21
1021.045	5524.28
1021.396	6297.66
1021.747	6737.82
1022.098	8062.6
1022.449	5844.4
1022.8	5421.59
1023.151	3786.1
1023.501	3345.96
1023.852	3641.59
1024.202	3784.99
1024.553	4181.8
1024.903	4078.62
1025.253	3495.56
1025.604	3151.32
1025.954	3928.98
1026.304	4811.97
1026.654	5622.2
1027.004	8206.4
1027.354	13227.71
1027.703	12451.21
1028.053	16347.2
1028.403	23843.44
1028.753	34743.79
1029.102	47128.29
1029.452	241411.17
1029.801	10358.9
1030.15	6651.61
1030.499	5592.07
897.758	2677.15
901.051	2633.61
904.343	2668
907.636	2670.3
910.928	2734.34
914.22	2641.95
917.511	2652.26
920.803	2711.82
924.094	2731.25
927.384	2711.65
930.675	2675.62
933.965	2630.11
937.255	2639.82
940.544	2606.33
943.834	2544.98
947.123	2488.32
950.411	2587.41
953.7	2559.63
956.988	2527.1
960.276	2469.01
963.563	2546.59
966.851	2542.96
970.138	2602.71
973.424	2596.03
976.711	2547.76
979.997	2680.62
983.283	2716.62
986.568	2621.11
989.853	2635.84
993.138	2664.49
996.423	2746.97
999.708	2685.04
1002.992	2750.57
1006.275	2582.98
1009.559	2627.92
1012.842	2742.25
1016.125	2671.85
1019.408	2652.95
1022.69	2739.26
1025.972	2756.9
1029.254	2734.7
1032.536	2665.58
1035.817	2694.48
1039.098	2637.07
1042.379	2780
1045.659	2779.54
1048.939	2712.82
1052.219	2733.36
1055.498	2743.95
1058.778	2729.9
1062.057	2714.92
1065.335	2733.36
1068.614	2753.35
1071.892	2735.7
1075.17	2810.44
1078.447	2801.43
1081.724	2791.47
1085.001	2826.58
1088.278	2803.15
1091.554	2813.78
1094.83	2809.89
1098.106	2837.88
1101.382	2883.96
1104.657	2883.46
1107.932	2880.06
1111.206	2842.18
1114.481	2799.57
1117.755	2800.96
1121.029	2781.44
1124.302	2836.88
1127.575	2786.05
1130.848	2773.28
1134.121	2734.81
1137.393	2682.53
1140.665	2751.44
1143.937	2726.29
1147.208	2686.6
1150.48	2726.92
1153.75	2713.85
1157.021	2744.38
1160.291	2711.38
1163.561	2759.78
1166.831	2750.11
1170.101	2781.04
1173.37	2754.99
1176.639	2697.03
1179.907	2753.91
1183.176	2764.74
1186.444	2771.66
1189.711	2801.16
1192.979	2812.43
1196.246	2769.64
1199.513	2787.36
1202.78	2786.58
1206.046	2796.17
1209.312	2821.24
1212.578	2848.79
1215.843	2800.55
1219.108	2773.77
1222.373	2797.83
1225.638	2760.12
1228.902	2744.69
1232.166	2708.34
1235.43	2690.18
1238.693	2712.86
1241.956	2709.99
1245.219	2752.15
1248.482	2742.98
1251.744	2740.31
1255.006	2889.04
1258.268	2843.25
1261.529	2786.03
1264.79	2791.86
1268.051	2896.44
1271.312	2917.82
1274.572	2876.42
1277.832	2866.79
1281.092	2856.07
1284.351	2828.02
1287.61	2806.13
1290.869	2719.29
1294.128	2696.19
1297.386	2786.16
1300.644	2775.88
1303.902	2789.71
1307.159	2641.73
1310.416	2699.67
1313.673	2724.42
1316.93	2710.12
1320.186	2757.12
1323.442	2798.55
1326.697	2788.65
1329.953	2778.18
1333.208	2804.62
1336.463	2785.85
1339.717	2722.98
1342.972	2858.77
1346.226	2834.5
1349.479	2767.19
1352.733	2736
1355.986	2759.07
1359.238	2735.76
1362.491	2738.93
1365.743	2742.91
1368.995	2733.21
1372.247	2747.1
1375.498	2773.47
1378.749	2788.38
1382	2743.4
1385.251	2797.44
1388.501	2759.25
1391.751	2742.1
1395	2715.84
1398.25	2748.06
1401.499	2753.32
1404.748	2684.01
1407.996	2671.51
1411.244	2657.2
1414.492	2639.14
1417.74	2617.53
1420.987	2627.23
1424.234	2687.24
1427.481	2665.36
1430.728	2722.54
1433.974	2698.12
1437.22	2714.41
1440.465	2714.17
1443.711	2679.55
1446.956	2715.73
1450.201	2702.29
1453.445	2748.29
1456.689	2726.46
1459.933	2738.3
1463.177	2773.51
1466.42	2745.81
1469.663	2725.72
1472.906	2720.68
1476.148	2795.34
1479.391	2756.81
1482.633	2723.6
1485.874	2735.95
1489.115	2723.7
1492.356	2727.25
1495.597	2701.06
1498.838	2701.69
1502.078	2671.05
1505.318	2619.36
1508.557	2662.01
1511.797	2638.37
1515.036	2710.34
1518.274	2696.56
1521.513	2666.52
1524.751	2690.92
1527.989	2702.05
1531.227	2716.04
1534.464	2711.39
1537.701	2729.61
1540.938	2748.19
1544.174	2701.76
1547.41	2699.19
1550.646	2735.73
1553.882	2776.78
1557.117	2832.7
1560.352	2844.31
1563.587	2804.18
1566.821	2764.85
1570.055	2799.68
1573.289	2772
1576.523	2848.87
1579.756	2853.22
1582.989	2874.49
1586.222	2835.39
1589.454	2871.94
1592.686	2842.04
1595.918	2866.64
1599.15	2855.23
1602.381	2928.37
1605.612	2882.13
1608.843	2980.73
1612.073	2893.36
1615.303	2877.75
1618.533	2869.25
1621.762	2873.17
1624.992	2859.58
1628.221	2847.6
1631.449	2832.68
1634.678	2888.14
1637.906	2842.49
1641.134	2881.97
1644.361	2835.68
1647.588	2824.77
1650.815	2843.47
1654.042	2820.06
1657.269	2849.14
1660.495	2802.27
1663.72	2826.97
1666.946	2790.51
1670.171	2734.23
1673.396	2710.7
1676.621	2698.36
1679.845	2717.77
1683.069	2734.47
1686.293	2777.89
1689.517	2748.6
1692.74	2679.56
1695.963	2709.75
1699.185	2722.23
1702.408	2696.97
1705.63	2740.22
1708.852	2750.43
1712.073	2722.85
1715.294	2708.24
1718.515	2772.59
1721.736	2718.87
1724.956	2714.1
1728.176	2738.95
1731.396	2760.96
1734.616	2747.57
1737.835	2776.65
1741.054	2757.82
1744.272	2750.23
1747.491	2783.05
1750.709	2836.96
1753.927	2740.87
1757.144	2786.73
1760.361	2829.85
1763.578	2821.62
1766.795	2764.12
1770.011	2773.58
1773.227	2813.01
1776.443	2847.5
1779.658	2892.94
1782.874	2834.91
1786.089	2812.59
1789.303	2817.23
1792.518	2820.97
1795.732	2808.67
1798.945	2821
1802.159	2869.07
1805.372	2770.35
1808.585	2756.69
1811.797	2755.84
1815.01	2806.39
1818.222	2808.58
1821.434	2784.06
1824.645	2841.19
1827.856	2828.23
1831.067	2862.71
1834.278	2817.95
1837.488	2801.97
1840.698	2952.72
1843.908	2875.12
1847.117	2840.42
1850.326	2722.83
1853.535	2825.29
1856.744	2850.63
1859.952	2763.57
1863.16	2764.43
1866.368	2788.83
1869.575	2891.1
1872.782	2774.92
1875.989	2713.47
1879.196	2799.7
1882.402	2790.79
1885.608	2833.6
1888.814	2737.89
1892.019	2628.26
1895.224	2682.47
1898.429	2661.68
1901.634	2638.07
1904.838	2618.24
1908.042	2670.18
1911.246	2677.56
1914.449	2607.7
1917.652	2604.29
1920.855	2585.93
1924.058	2634.15
1927.26	2673.42
1930.462	2700.3
1933.664	2729.05
1936.865	2667.17
1940.066	2673.13
1943.267	2618.32
1946.467	2635.17
1949.668	2662.69
1952.868	2732.19
1956.067	2708.83
1959.267	2641.94
1962.466	2670.12
1965.665	2656.26
1968.863	2650.65
1972.061	2663.93
1975.259	2664.53
1978.457	2746.47
1981.654	2701.6
1984.852	2702.03
1988.048	2633.76
1991.245	2637.84
1994.441	2722.46
1997.637	2708.63
2000.833	2689.98
2004.028	2729.43
2007.223	2785.89
2010.418	2761.82
2013.613	2722.33
2016.807	2694.06
2020.001	2703.14
2023.194	2745.08
2026.388	2720.56
2029.581	2664.4
2032.774	2713.88
2035.966	2718.91
2039.158	2650.63
2042.35	2675.53
2045.542	2603.55
2048.733	2701.59
2051.924	2726.06
2055.115	2752.06
2058.306	2696.36
2061.496	2756.07
2064.686	2820.35
2067.875	2732.68
2071.065	2747.51
2074.254	2774.27
2077.442	2726.43
2080.631	2817.45
2083.819	2710.48
2087.007	2690.05
2090.195	2659.62
2093.382	2694.45
2096.569	2674.83
2099.756	2629.25
2102.942	2654.81
2106.128	2662.16
2109.314	2654.48
2112.5	2617.57
2115.685	2590.15
2118.87	2600.66
2122.055	2666.07
2125.239	2634.14
2128.424	2606.77
2131.608	2709.38
2134.791	2690.83
2137.974	2748.82
2141.157	2733.01
2144.34	2684.04
2147.523	2701.81
2150.705	2717.12
2153.887	2696.17
2157.068	2647.93
2160.25	2646.44
2163.431	2687.7
2166.611	2631.92
2169.792	2649.57
2172.972	2541.76
2176.152	2622.56
2179.331	2657.78
2182.511	2638.77
2185.69	2668.92
2188.868	2664.59
2192.047	2718.82
2195.225	2712.4
2198.403	2659.67
2201.58	2653.73
2204.758	2648.4
2207.935	2731.32
2211.111	2618.6
2214.288	2603.3
2217.464	2641.68
2220.64	2611.3
2223.815	2667.75
2226.991	2589.38
2230.166	2608.66
2233.34	2640.97
2236.515	2664.52
2239.689	2737.53
2242.863	2681.82
2246.036	2738.29
2249.209	2737.52
2252.382	2772.81
2255.555	2760.07
2258.727	2695.99
2261.9	2733.72
2265.071	2727.06
2268.243	2728.24
2271.414	2659.73
2274.585	2623.23
2277.756	2690.58
2280.926	2645.01
2284.096	2687.15
2287.266	2594.01
2290.436	2650.07
2293.605	2678.91
2296.774	2712.67
2299.942	2732.04
2303.111	2748.26
2306.279	2796.62
2309.447	2783.64
2312.614	2761.08
2315.781	2778.22
2318.948	2748.14
2322.115	2786.73
2325.281	2689.75
2328.447	2709.28
2331.613	2681.78
2334.779	2654.64
2337.944	2658.74
2341.109	2659.2
2344.274	2640.08
2347.438	2603.03
2350.602	2629.29
2353.766	2646.98
2356.929	2633.26
2360.092	2671.91
2363.255	2625.62
2366.418	2560.07
2369.58	2676.38
2372.742	2458.63
2375.904	2472.01
2379.066	2447.64
2382.227	2487.1
2385.388	2447.8
2388.548	2371.4
2391.709	2427.65
2394.869	2408.2
2398.029	2505.25
2401.188	2517.1
2404.347	2448.85
2407.506	2593.93
2410.665	2623.91
2413.823	2629.79
2416.981	2584.5
2420.139	2616.63
2423.296	2667.43
2426.453	2639.33
2429.61	2666.45
2432.767	2600.54
2435.923	2642.15
2439.079	2603.66
2442.235	2651.67
2445.391	2578.49
2448.546	2607.56
2451.701	2657.61
2454.855	2632.65
2458.009	2683.39
2461.163	2686.32
2464.317	2642.53
2467.471	2677.55
2470.624	2716.58
2473.777	2685.84
2476.929	2698.72
2480.082	2725.15
2483.234	2690.64
2486.385	2643.2
2489.537	2636.2
2492.688	2596.08
2495.839	2613.24
2498.989	2626.72
2502.14	2608.7
2505.29	2592.69
2508.439	2620.66
2511.589	2544.59
2514.738	2552.33
2517.887	2583.49
2521.035	2650.57
2524.183	2633.14
2527.331	2613.88
2530.479	2588.04
2533.627	2596.77
