Data from C_3_DEC_OH_4N_Splice17_13-33-43-683.txt Node
Date: Sat Mar 14 13:33:43 EDT 2020
User: sa697716
Spectrometer: FLMS03696
Trigger mode: 0
Integration Time (sec): 3.180400E-1
Scans to average: 20
Electric dark correction enabled: true
Nonlinearity correction enabled: true
Boxcar width: 5
XAxis mode: Wavelengths
Number of Pixels in Spectrum: 2048
>>>>>Begin Spectral Data<<<<<
187.83	-444518.13
188.298	3287.45
188.766	1674.06
189.233	1554.35
189.701	2212.68
190.169	3076.78
190.636	1181.61
191.104	927.1
191.571	131.07
192.039	-113.22
192.506	-102.24
192.974	574.22
193.441	-839.73
193.908	-233.24
194.375	-33.34
194.842	30.06
195.31	146
195.777	192.14
196.244	428.6
196.711	479.81
197.177	599.95
197.644	871.4
198.111	1548.09
198.578	2217.2
199.045	1784.66
199.511	2902.47
199.978	3386.28
200.445	2899.99
200.911	3212.49
201.378	3575.09
201.844	3283.09
202.31	5625.76
202.777	5907.6
203.243	3273.65
203.709	3111.24
204.176	3705.62
204.642	3073.47
205.108	2890.28
205.574	2353.16
206.04	2167.66
206.506	2057.65
206.972	1953.98
207.438	1904.65
207.903	2196.66
208.369	1959.35
208.835	1976.13
209.301	2111.67
209.766	2206.88
210.232	2235.45
210.697	2848.5
211.163	3598.05
211.628	5566.53
212.094	4753.82
212.559	5958.93
213.024	3771.19
213.49	4669.57
213.955	4650.78
214.42	4609.78
214.885	4358.77
215.35	4255.98
215.815	4127.09
216.28	4511.99
216.745	3838
217.21	4358.18
217.675	4288.32
218.14	5144.48
218.604	6171.68
219.069	7530.33
219.534	8324.92
219.998	10225.95
220.463	12977.89
220.927	16785.98
221.392	16294.52
221.856	16873.08
222.32	21853.92
222.785	27359.48
223.249	34922.75
223.713	39393.29
224.177	39714.22
224.642	51539.45
225.106	63881.26
225.57	70271.77
226.034	52353.37
226.497	79979.35
226.961	72392.36
227.425	84445.89
227.889	94169.69
228.353	94514.63
228.816	195971.31
229.28	187883.58
229.744	158745.56
230.207	96436.68
230.671	94923.59
231.134	157675.11
231.597	181885.44
232.061	182268.77
232.524	178078.68
232.987	122744.59
233.45	110498.19
233.914	99165.27
234.377	101870.96
234.84	93277.05
235.303	110173.12
235.766	123114.04
236.229	127181.05
236.691	80167.46
237.154	90112.89
237.617	67709.13
238.08	69320.2
238.542	81089.76
239.005	57879.2
239.468	57295.34
239.93	53919.92
240.393	48941.17
240.855	42908.59
241.317	43950.15
241.78	53513.36
242.242	55253.92
242.704	59557.15
243.166	51822.85
243.629	46999.93
244.091	54166.01
244.553	59379.73
245.015	63820.84
245.477	82691.5
245.939	121303.4
246.4	128818.86
246.862	125200.54
247.324	118086.63
247.786	132384.19
248.247	173921.57
248.709	180036.74
249.17	134715.88
249.632	126805.22
250.093	146965.74
250.555	126855.87
251.016	77281.85
251.477	73261.08
251.939	79078.82
252.4	83065.31
252.861	98869.74
253.322	91822.55
253.783	109384.21
254.244	141912.38
254.705	112077.61
255.166	99816.04
255.627	98343.49
256.088	138726.75
256.549	147522.15
257.009	127175.89
257.47	154455.82
257.931	126015.46
258.391	94583.73
258.852	97634.69
259.312	102601.99
259.773	127109.31
260.233	107527.74
260.694	90881.95
261.154	103404.17
261.614	83011.4
262.074	74429.61
262.534	77426.42
262.994	73025.71
263.455	97512.4
263.915	82246.06
264.374	77606.39
264.834	84849.17
265.294	94278.19
265.754	97727.59
266.214	92681.07
266.673	87032.73
267.133	110046.59
267.593	109410.92
268.052	134054.4
268.512	116739.99
268.971	140681.75
269.431	154350.53
269.89	138331.36
270.349	207509.15
270.809	231612.17
271.268	208352.28
271.727	467823.17
272.186	303002.95
272.645	227351.51
273.104	164274.77
273.563	238080.04
274.022	187729.93
274.481	159711.28
274.94	123067.69
275.399	91565.53
275.857	106706.97
276.316	144449.32
276.775	128648.97
277.233	126714.98
277.692	118551.78
278.15	134060.86
278.609	137827.83
279.067	127544.94
279.525	118476.61
279.984	153078.52
280.442	183795.56
280.9	180949.23
281.358	119017.25
281.816	110798.93
282.274	108512.46
282.732	112189.55
283.19	112742.93
283.648	97308.02
284.106	103659.35
284.564	105383.78
285.021	97604.6
285.479	72704.3
285.937	66175.14
286.394	57960.6
286.852	59686.3
287.309	62739.7
287.767	60543.51
288.224	57557.9
288.682	63224.87
289.139	69407.6
289.596	63558.65
290.053	66228.86
290.511	83818.49
290.968	101832.71
291.425	138603.72
291.882	115388.82
292.339	100543.56
292.796	100086.18
293.252	94522.62
293.709	75051.8
294.166	67308.58
294.623	74503.41
295.079	71595.2
295.536	71898.77
295.992	65263.06
296.449	64537.74
296.905	67079.71
297.362	64274.98
297.818	67647.61
298.274	70104.01
298.731	71532.16
299.187	70838.92
299.643	76105.61
300.099	91947.5
300.555	100859.03
301.011	84336.11
301.467	81108.58
301.923	95118.4
302.379	92874.78
302.835	91156.65
303.291	91286.51
303.746	103852.42
304.202	131156.92
304.658	131629.91
305.113	88515.32
305.569	86684.08
306.024	92373.87
306.479	88124.27
306.935	74166.56
307.39	81067.63
307.845	74814.87
308.301	75210.64
308.756	73315.48
309.211	70567.73
309.666	72275.19
310.121	89573.76
310.576	91002.43
311.031	90349.91
311.486	103620.87
311.94	103678.14
312.395	138638.39
312.85	260598.1
313.305	1282810.63
313.759	6621154.2
314.214	479781.64
314.668	379898.67
315.123	319242.17
315.577	114309.31
316.032	101635.87
316.486	127217.86
316.94	100204.87
317.394	69717.03
317.849	54214.46
318.303	51391.06
318.757	48591.74
319.211	53797.27
319.665	47190.12
320.119	47872.74
320.572	68829.53
321.026	64310.52
321.48	53552.88
321.934	58544.5
322.387	58725.79
322.841	63359.46
323.295	56722.09
323.748	65409.18
324.202	66306.6
324.655	79526.46
325.108	110834.51
325.562	78197.99
326.015	93023.31
326.468	70337.19
326.921	78598.45
327.374	73221.24
327.827	76249.24
328.28	86409.68
328.733	57830.94
329.186	50858.78
329.639	48443.8
330.092	40884.54
330.545	38897.37
330.997	39160.61
331.45	42682.27
331.903	49907.23
332.355	86026.42
332.808	83632.06
333.26	69040.58
333.713	74893.61
334.165	75461.31
334.617	100781.27
335.069	81554.87
335.522	147638.27
335.974	163585.54
336.426	149679.65
336.878	103899.96
337.33	52594.28
337.782	51333.85
338.234	64189.4
338.686	76932.51
339.137	91167.03
339.589	85962.41
340.041	67339.19
340.493	57949.42
340.944	59360.38
341.396	63909.78
341.847	53705.88
342.299	63356.41
342.75	77312.72
343.201	67785.18
343.653	78056.68
344.104	96098.85
344.555	75744.18
345.006	118287.54
345.457	90327.53
345.908	71933.45
346.359	67693.07
346.81	55236.16
347.261	58341.17
347.712	57575.99
348.163	61758.57
348.613	62344.82
349.064	58239.91
349.515	50988.36
349.965	52228.89
350.416	63051.12
350.866	69171.56
351.317	78386.35
351.767	129639.41
352.217	163687.96
352.668	135842.56
353.118	124470.68
353.568	120445.39
354.018	94992.72
354.468	100022.51
354.918	71692.32
355.368	62695.27
355.818	88519.1
356.268	254725.87
356.718	1065460.83
357.168	264916.27
357.617	132905.03
358.067	148045.95
358.517	138564.39
358.966	162481.53
359.416	182181.02
359.865	197051.94
360.315	234939.91
360.764	109683.18
361.213	61444.15
361.663	58380.37
362.112	72208.22
362.561	116711.92
363.01	87922.57
363.459	74036.79
363.908	80271.52
364.357	68094.43
364.806	115151.2
365.255	79102.73
365.703	72415.52
366.152	72459.86
366.601	58652.49
367.05	47507.58
367.498	43133.38
367.947	45115.26
368.395	46928.47
368.844	41495.14
369.292	50151.32
369.74	34593.65
370.189	53048.56
370.637	62213.79
371.085	53697.06
371.533	65445.74
371.981	63201.67
372.429	60178.49
372.877	62659.3
373.325	52430.83
373.773	53486.43
374.221	47653.65
374.669	59113.22
375.116	51128.05
375.564	51548.7
376.012	57627.3
376.459	47431.83
376.907	56588.61
377.354	68411.27
377.801	63573.16
378.249	72811.18
378.696	92938.82
379.143	112368.19
379.591	119772.87
380.038	202102.49
380.485	145594.32
380.932	157035.21
381.379	143147.74
381.826	105030.94
382.273	74496.82
382.72	65198.62
383.166	63465.11
383.613	41051.87
384.06	36920.72
384.506	42603.43
384.953	31239.67
385.4	31428.17
385.846	27447.99
386.292	26764.61
386.739	26185.58
387.185	25866.98
387.631	25789.5
388.078	24913.97
388.524	26614.07
388.97	24503.07
389.416	20355.43
389.862	21562.46
390.308	20351.03
390.754	20591.99
391.2	22272.8
391.645	22736.23
392.091	21582.43
392.537	20777.26
392.983	20801.67
393.428	20311.99
393.874	21719.73
394.319	21670.86
394.765	20434.14
395.21	20958.26
395.655	19613.37
396.101	18320.36
396.546	16480.37
396.991	16645.59
397.436	15426.21
397.881	14852.7
398.326	14072.33
398.771	13251.59
399.216	11575.19
399.661	10418.87
400.106	10335.65
400.551	10536.42
400.995	9421.47
401.44	9298.6
401.885	8711.58
402.329	8776.97
402.774	8401.02
403.218	8090.98
403.663	7789.29
404.107	7988.43
404.551	8016.32
404.995	7341.9
405.44	7071.76
405.884	7172.28
406.328	6941.27
406.772	6914.31
407.216	6288.19
407.66	6074.03
408.104	5782.81
408.547	5411.2
408.991	5234.72
409.435	5040.34
409.879	4962.43
410.322	4886.97
410.766	4705.11
411.209	4456.32
411.653	4273.24
412.096	4175.31
412.54	4171.6
412.983	4130.99
413.426	4123.98
413.869	4120
414.312	4032.31
414.756	3882.47
415.199	3698.59
415.642	3585.53
416.085	3587.41
416.527	3556.15
416.97	3613.4
417.413	3424.28
417.856	3390.45
418.298	3363.42
418.741	3344.24
419.184	3341.62
419.626	3487.93
420.069	3491.29
420.511	3508.9
420.953	3429.85
421.396	3398.41
421.838	3310.83
422.28	3384.53
422.722	3391.38
423.164	3435.38
423.606	3370.4
424.048	3362.38
424.49	3188.47
424.932	3170.4
425.374	3128.91
425.816	3187.27
426.258	3250.03
426.699	3290.94
427.141	3242.34
427.582	3303.56
428.024	3290.18
428.465	3271.7
428.907	3187.09
429.348	3144.82
429.789	3137.5
430.231	3064.37
430.672	3103.97
431.113	3026.68
431.554	2972.58
431.995	2893.39
432.436	2775.73
432.877	2702.98
433.318	2647.37
433.759	2633.77
434.2	2632.04
434.64	2602.82
435.081	2606.56
435.522	2460.27
435.962	2366.68
436.403	2307.1
436.843	2337.81
437.284	2288.72
437.724	2228.41
438.164	2237.43
438.604	2185.43
439.045	2094.79
439.485	2001.34
439.925	1957.3
440.365	1905.3
440.805	1876.3
441.245	1850.96
441.685	1779.17
442.125	1764.68
442.564	1772.79
443.004	1726.9
443.444	1719.55
443.883	1718.97
444.323	1706
444.762	1710.51
445.202	1733.02
445.641	1758.29
446.081	1747.15
446.52	1757.09
446.959	1735.01
447.398	1685.38
447.837	1660.27
448.276	1626.97
448.716	1639.63
449.154	1655.68
449.593	1611.61
450.032	1603
450.471	1574.16
450.91	1576.1
451.349	1568.88
451.787	1561.61
452.226	1587.46
452.664	1589.19
453.103	1592.76
453.541	1592.91
453.98	1583.26
454.418	1594.94
454.856	1568.93
455.295	1565.66
455.733	1575.52
456.171	1586.01
456.609	1585.34
457.047	1585.5
457.485	1604.07
457.923	1604.69
458.361	1581.32
458.798	1587.35
459.236	1580.19
459.674	1589.21
460.111	1595.1
460.549	1578.1
460.987	1571.41
461.424	1566.03
461.862	1553.78
462.299	1527.89
462.736	1523.13
463.173	1526.76
463.611	1503.47
464.048	1496.44
464.485	1507.16
464.922	1492.25
465.359	1482.57
465.796	1450.69
466.233	1437.02
466.67	1420.48
467.106	1414.21
467.543	1400.82
467.98	1383.54
468.416	1351.54
468.853	1342.21
469.29	1301.97
469.726	1287.38
470.162	1253.11
470.599	1246.02
471.035	1236.4
471.471	1209.03
471.907	1206.81
472.344	1199.44
472.78	1201.38
473.216	1218.69
473.652	1205.7
474.088	1204.37
474.523	1201.24
474.959	1214.81
475.395	1205.01
475.831	1199.87
476.266	1207.01
476.702	1204.32
477.138	1193.67
477.573	1190.92
478.008	1186.47
478.444	1192.09
478.879	1203.58
479.314	1209.45
479.75	1209.73
480.185	1217.19
480.62	1229.52
481.055	1237.07
481.49	1246.26
481.925	1264.12
482.36	1285.21
482.795	1322.94
483.229	1360.05
483.664	1389.22
484.099	1395.44
484.534	1416.33
484.968	1428.72
485.403	1432.78
485.837	1431.16
486.271	1428.51
486.706	1428.64
487.14	1412.51
487.574	1385.96
488.009	1371.54
488.443	1356.86
488.877	1366.38
489.311	1367.01
489.745	1379.52
490.179	1386.92
490.613	1405.9
491.046	1412.48
491.48	1417.75
491.914	1414.63
492.348	1420.22
492.781	1422.9
493.215	1421.3
493.648	1419.31
494.082	1424.72
494.515	1418.34
494.948	1426.59
495.382	1431.65
495.815	1433.81
496.248	1437.59
496.681	1456.05
497.114	1471.43
497.547	1481.65
497.98	1496.89
498.413	1498.83
498.846	1507.43
499.279	1515.08
499.711	1513.69
500.144	1507.53
500.577	1515.76
501.009	1526.5
501.442	1531.44
501.874	1521.2
502.306	1513.31
502.739	1513.44
503.171	1527.59
503.603	1520.74
504.036	1524.35
504.468	1522.01
504.9	1528.59
505.332	1527.26
505.764	1519.47
506.196	1518.45
506.627	1529.04
507.059	1537.7
507.491	1539.01
507.923	1521
508.354	1530.98
508.786	1534.21
509.217	1547.6
509.649	1555.26
510.08	1570
510.512	1581.06
510.943	1588.14
511.374	1590.08
511.805	1604.33
512.237	1617.6
512.668	1648.77
513.099	1671.55
513.53	1692.47
513.961	1703.8
514.391	1732.11
514.822	1760.61
515.253	1792.53
515.684	1810.21
516.114	1833.77
516.545	1846.47
516.975	1865.54
517.406	1874.25
517.836	1862.33
518.267	1857.57
518.697	1867.15
519.127	1859.2
519.558	1854.23
519.988	1845.68
520.418	1846.82
520.848	1857.05
521.278	1855.92
521.708	1870
522.138	1874.14
522.567	1902.07
522.997	1922.18
523.427	1929.92
523.857	1939.94
524.286	1942.93
524.716	1951.95
525.145	1965.89
525.575	1969.69
526.004	1977.89
526.433	1954.47
526.863	1946.99
527.292	1927.69
527.721	1926.57
528.15	1929
528.579	1924.5
529.008	1929.83
529.437	1949.2
529.866	1958.51
530.295	1972.59
530.724	1981.6
531.152	2007.5
531.581	2019.71
532.01	2035.42
532.438	2041.82
532.867	2053.32
533.295	2069.89
533.723	2074.73
534.152	2070
534.58	2066.52
535.008	2045.37
535.436	2044.47
535.865	2050.76
536.293	2064.7
536.721	2080.37
537.149	2105.01
537.576	2104.58
538.004	2116.09
538.432	2122.59
538.86	2118.17
539.287	2123.28
539.715	2136
540.143	2137.61
540.57	2130.89
540.998	2123.44
541.425	2097.05
541.852	2072.32
542.28	2069.53
542.707	2049.54
543.134	2031.98
543.561	2027.03
543.988	2018.23
544.415	2017.69
544.842	2011.57
545.269	2003.74
545.696	2005.88
546.123	2019.51
546.549	2008.84
546.976	1993.52
547.403	1994.8
547.829	1998.35
548.256	2000.21
548.682	1996.93
549.108	1989.2
549.535	1988.61
549.961	1990.95
550.387	1977.03
550.813	1970.32
551.24	1977.65
551.666	1981.08
552.092	1970.68
552.518	1964.08
552.943	1958.81
553.369	1968.11
553.795	1976.19
554.221	1978.6
554.646	1976.61
555.072	1990.71
555.498	1997.59
555.923	2009.79
556.349	2028.07
556.774	2039.64
557.199	2042.94
557.625	2052.04
558.05	2047.31
558.475	2060.56
558.9	2062.25
559.325	2056.61
559.75	2052.34
560.175	2048.75
560.6	2044.08
561.025	2045.77
561.449	2049.93
561.874	2060.97
562.299	2069.34
562.723	2082.28
563.148	2075.81
563.572	2085
563.997	2100.43
564.421	2112.2
564.846	2117.92
565.27	2127.49
565.694	2128.87
566.118	2147.91
566.542	2161.05
566.966	2158.56
567.39	2158.17
567.814	2149.04
568.238	2153.86
568.662	2165.26
569.086	2173.86
569.509	2188.14
569.933	2176.21
570.357	2174
570.78	2155.05
571.204	2145.59
571.627	2139.81
572.05	2143.69
572.474	2150.14
572.897	2140.78
573.32	2137.26
573.743	2131.12
574.166	2114.23
574.589	2118.93
575.012	2115.65
575.435	2120.55
575.858	2115.53
576.281	2106.89
576.704	2094.9
577.126	2087.56
577.549	2080.28
577.972	2073.75
578.394	2065.65
578.817	2063.92
579.239	2045.74
579.661	2033.38
580.084	2017.4
580.506	2005.07
580.928	2004.89
581.35	1994.55
581.772	1993.32
582.194	1980.29
582.616	1968.09
583.038	1953.91
583.46	1942.63
583.882	1943.89
584.303	1954.12
584.725	1953.97
585.147	1960.53
585.568	1978.2
585.99	1998.02
586.411	2008.69
586.833	2031.5
587.254	2037.37
587.675	2060.3
588.096	2081.37
588.518	2077.91
588.939	2058.02
589.36	2057.92
589.781	2046.91
590.202	2013.17
590.623	2003.92
591.043	2002.91
591.464	1988.19
591.885	1985.51
592.305	1979.83
592.726	1963.95
593.147	1967.99
593.567	1964.17
593.987	1956.27
594.408	1952.3
594.828	1951.14
595.248	1945.67
595.669	1923.9
596.089	1917.17
596.509	1910.69
596.929	1894.03
597.349	1897
597.769	1885.53
598.189	1878.19
598.608	1881.87
599.028	1886.33
599.448	1888.25
599.867	1872.45
600.287	1868.95
600.706	1864.97
601.126	1854.48
601.545	1855.9
601.965	1856.09
602.384	1851.31
602.803	1858.82
603.222	1854.88
603.641	1848.98
604.061	1847.01
604.48	1845.37
604.898	1859.61
605.317	1870.32
605.736	1876.96
606.155	1877.25
606.574	1868.17
606.992	1878.94
607.411	1874.75
607.829	1867.77
608.248	1866.69
608.666	1868.11
609.085	1872.04
609.503	1863.67
609.921	1859.36
610.339	1866.17
610.758	1868.73
611.176	1867.98
611.594	1859.62
612.012	1860.19
612.43	1869.83
612.847	1883.14
613.265	1888.59
613.683	1898.75
614.101	1907
614.518	1906.27
614.936	1897.18
615.353	1881.03
615.771	1881.34
616.188	1886.85
616.606	1886.87
617.023	1880.65
617.44	1866.9
617.857	1862.11
618.274	1855.25
618.691	1848.88
619.108	1840.02
619.525	1835.79
619.942	1849.41
620.359	1856.56
620.776	1852.78
621.192	1849.79
621.609	1849.11
622.026	1860.26
622.442	1870.78
622.859	1877.49
623.275	1869.33
623.691	1878.19
624.108	1895.7
624.524	1917.97
624.94	1918.93
625.356	1934.21
625.772	1954.46
626.188	1972.94
626.604	1975.58
627.02	1969.64
627.436	1966.87
627.852	1977.87
628.268	1996.07
628.683	1984.5
629.099	1972.8
629.514	1966.52
629.93	1974.13
630.345	1981.14
630.761	1977.37
631.176	1983.44
631.591	1976.18
632.007	1967.17
632.422	1966.87
632.837	1952.4
633.252	1949.63
633.667	1936.2
634.082	1923.7
634.497	1904.84
634.911	1879.03
635.326	1874.77
635.741	1854.38
636.155	1844.68
636.57	1853.16
636.984	1857.31
637.399	1866.84
637.813	1872.64
638.228	1878.79
638.642	1894.63
639.056	1887.25
639.47	1896.25
639.884	1893.89
640.298	1891.04
640.712	1898.2
641.126	1887.76
641.54	1885
641.954	1886.38
642.368	1878.25
642.781	1873.96
643.195	1854.77
643.609	1866.45
644.022	1867.39
644.436	1870.45
644.849	1861.47
645.262	1852.35
645.676	1866.06
646.089	1865.64
646.502	1850.04
646.915	1850.86
647.328	1832.1
647.741	1837.62
648.154	1823.61
648.567	1825.27
648.98	1809.47
649.393	1818.02
649.805	1818.16
650.218	1810.42
650.631	1789.15
651.043	1782.97
651.456	1776.93
651.868	1783.21
652.28	1819.77
652.693	1849.58
653.105	1868.6
653.517	1892.07
653.929	1899.12
654.341	1914.81
654.753	1897.74
655.165	1916.81
655.577	1917.84
655.989	1916.37
656.401	1910.88
656.813	1850.13
657.224	1821.02
657.636	1775.14
658.047	1749.97
658.459	1721.05
658.87	1714.43
659.282	1701.43
659.693	1670.14
660.104	1652.14
660.515	1636.79
660.926	1641.49
661.338	1646.88
661.749	1644.18
662.159	1634.94
662.57	1635.48
662.981	1635.46
663.392	1629.94
663.803	1647.07
664.213	1651.59
664.624	1652.9
665.035	1667.53
665.445	1649.44
665.855	1642.38
666.266	1632.98
666.676	1635.94
667.086	1625.11
667.497	1630.18
667.907	1623.08
668.317	1609.24
668.727	1604.44
669.137	1611.69
669.547	1608.13
669.956	1616.34
670.366	1621.65
670.776	1626.9
671.186	1637.22
671.595	1645.1
672.005	1654.03
672.414	1650.48
672.824	1646.17
673.233	1656.94
673.642	1658.36
674.052	1662.47
674.461	1664.88
674.87	1672.52
675.279	1664.35
675.688	1666.39
676.097	1664.07
676.506	1653
676.915	1681.1
677.323	1682.66
677.732	1674.59
678.141	1669.75
678.549	1645.63
678.958	1640.41
679.366	1634.69
679.775	1641.06
680.183	1654.6
680.592	1661.38
681	1666.37
681.408	1644.84
681.816	1653.64
682.224	1664.6
682.632	1672.98
683.04	1720.71
683.448	1756.25
683.856	1803.07
684.264	1856.52
684.671	1900.38
685.079	1958.27
685.487	2019.36
685.894	2110.69
686.302	2177.2
686.709	2221.35
687.116	2277.3
687.524	2312
687.931	2331.85
688.338	2340.15
688.745	2337.93
689.152	2344.04
689.559	2363.08
689.966	2379.23
690.373	2360.49
690.78	2371.4
691.187	2414.22
691.593	2431.18
692	2438.76
692.407	2475.71
692.813	2531.35
693.22	2564.78
693.626	2599.16
694.032	2615.91
694.439	2666.78
694.845	2695.63
695.251	2742.95
695.657	2781.65
696.063	2861.42
696.469	2907.72
696.875	2946.92
697.281	2951.84
697.687	2967.71
698.093	2975.97
698.498	3026.37
698.904	3059.18
699.31	3125.55
699.715	3165.8
700.12	3234.39
700.526	3222.73
700.931	3268.26
701.337	3295.99
701.742	3301.45
702.147	3363.17
702.552	3369.25
702.957	3408.08
703.362	3404.59
703.767	3409.49
704.172	3425.15
704.577	3354.36
704.981	3382.22
705.386	3379.58
705.791	3353.49
706.195	3408.77
706.6	3399.03
707.004	3457.2
707.408	3408.9
707.813	3417.8
708.217	3390.88
708.621	3378.14
709.025	3458.93
709.43	3444.59
709.834	3487.75
710.237	3540.65
710.641	3513.84
711.045	3523.01
711.449	3507.57
711.853	3525.06
712.256	3552.29
712.66	3577.39
713.064	3636.61
713.467	3664.02
713.87	3755.42
714.274	3785.17
714.677	3872.93
715.08	4009.87
715.484	4150.45
715.887	4323.96
716.29	4489.46
716.693	4667.35
717.096	4870.38
717.499	4972.29
717.901	4980.4
718.304	4994.78
718.707	5007.25
719.109	4904.86
719.512	4867.36
719.915	4738.85
720.317	4679.48
720.719	4708.46
721.122	4671.21
721.524	4618.71
721.926	4576.78
722.328	4656.66
722.731	4637.95
723.133	4654.11
723.535	4813.49
723.937	4821.79
724.338	4860.71
724.74	4886.44
725.142	4853.28
725.544	4848.49
725.945	4870.24
726.347	4859.52
726.748	4850.36
727.15	4859.66
727.551	4822.94
727.952	4792.03
728.354	4761.72
728.755	4755.35
729.156	4712.4
729.557	4668.22
729.958	4556.36
730.359	4499.08
730.76	4479.15
731.161	4421.26
731.562	4394.35
731.962	4391.22
732.363	4335.18
732.763	4278.03
733.164	4305.55
733.564	4246.99
733.965	4166.13
734.365	4134.41
734.766	4156.28
735.166	4120.95
735.566	4074.98
735.966	4051.35
736.366	4046.45
736.766	3993.32
737.166	4018
737.566	3981.24
737.966	3960.14
738.365	3988.83
738.765	3982.98
739.165	3917.3
739.564	3894.77
739.964	3928.77
740.363	3888.5
740.763	3884.33
741.162	3875.17
741.561	3848.74
741.96	3810.13
742.36	3825.04
742.759	3830.47
743.158	3862.29
743.557	3874.91
743.955	3908.21
744.354	3870.74
744.753	3918.69
745.152	3885.85
745.55	3929.39
745.949	3921.91
746.348	3922.88
746.746	3936.68
747.144	3905.26
747.543	3886.95
747.941	3927.79
748.339	3869.6
748.737	3863.83
749.136	3855.05
749.534	3906.1
749.932	3882.87
750.33	3903.11
750.727	3948.12
751.125	3926.84
751.523	3910.68
751.921	3948.3
752.318	3918.49
752.716	3966.88
753.113	3977.77
753.511	3999.84
753.908	4000.95
754.305	3989.93
754.703	4040.71
755.1	4090.73
755.497	4139.74
755.894	4295.83
756.291	4437.53
756.688	4709.62
757.085	5070.09
757.482	5577.43
757.878	6129.5
758.275	6626.46
758.672	7307.8
759.068	7867.62
759.465	8664.19
759.861	9695.32
760.258	10893.61
760.654	11518.39
761.05	11420
761.447	10890.25
761.843	10138.49
762.239	9363.68
762.635	9014.61
763.031	8678.68
763.427	8191.92
763.822	7681.86
764.218	7179.91
764.614	6522.31
765.01	6082.89
765.405	5799.93
765.801	5587.95
766.196	5312.55
766.592	5160.94
766.987	4903.98
767.382	4729.45
767.778	4658.12
768.173	4552.51
768.568	4491.55
768.963	4393.72
769.358	4410.04
769.753	4373.82
770.148	4305.52
770.542	4305.29
770.937	4279.96
771.332	4355.81
771.726	4374.15
772.121	4324.19
772.515	4373.72
772.91	4363.79
773.304	4420.49
773.699	4365.97
774.093	4411.64
774.487	4460.06
774.881	4498.13
775.275	4495.07
775.669	4459.04
776.063	4495.41
776.457	4525.21
776.851	4459.21
777.245	4454.78
777.638	4483.04
778.032	4579.52
778.425	4549.56
778.819	4584.53
779.212	4551.18
779.606	4520.38
779.999	4538.08
780.392	4525.07
780.786	4590.59
781.179	4610.41
781.572	4643.71
781.965	4656.76
782.358	4609.48
782.751	4656.06
783.143	4616.74
783.536	4676.48
783.929	4710.01
784.322	4806.43
784.714	4831.03
785.107	4831.96
785.499	4893.78
785.891	4877.91
786.284	4860.29
786.676	4978.76
787.068	4968.12
787.46	5010.96
787.852	5026.85
788.245	5099.96
788.636	5123.46
789.028	5181.7
789.42	5214.78
789.812	5222.37
790.204	5301.43
790.595	5386.55
790.987	5225.19
791.378	5239
791.77	5344.84
792.161	5456.65
792.553	5503.04
792.944	5412.12
793.335	5353.8
793.726	5413.86
794.117	5486.03
794.508	5599.64
794.899	5572.44
795.29	5689.77
795.681	5739.34
796.072	5623.01
796.463	5485.57
796.853	5497.5
797.244	5630.51
797.634	5662.95
798.025	5663.93
798.415	5677.29
798.806	5758.79
799.196	5836.21
799.586	5880.75
799.976	5852.81
800.366	6048.63
800.756	6234.75
801.146	6198.56
801.536	6224.42
801.926	6285.17
802.316	6308.83
802.706	6371.79
803.095	6268.1
803.485	6351.33
803.874	6384.02
804.264	6604.46
804.653	6588.86
805.043	6714.99
805.432	6811.63
805.821	6814.41
806.21	6837.33
806.599	6939.26
806.988	6978.07
807.377	7066.42
807.766	7175.98
808.155	7418.04
808.544	7196.54
808.933	7200.74
809.321	7183.6
809.71	7424.52
810.098	7556.73
810.487	7941.8
810.875	8337.28
811.264	8352.86
811.652	8598.4
812.04	8720.29
812.428	8861.25
812.816	9501.91
813.204	9860.27
813.592	10316.09
813.98	10603.84
814.368	10534.1
814.756	10942.87
815.144	10876.39
815.531	11276.38
815.919	11216.04
816.306	11478.22
816.694	11210.94
817.081	11255.29
817.469	11542.23
817.856	11538.05
818.243	11764.46
818.63	12089.46
819.017	11732.05
819.404	11793.63
819.791	12101.52
820.178	12610.22
820.565	12818.99
820.952	13606.22
821.339	13189.65
821.725	13344.97
822.112	12730.87
822.498	12696.72
822.885	12801.76
823.271	12717.63
823.657	13064.58
824.044	13067.37
824.43	13123.36
824.816	13102.02
825.202	12729.62
825.588	13583.28
825.974	13599.95
826.36	14032.74
826.746	14059.27
827.132	14356.42
827.517	14338.35
827.903	13674.11
828.289	13709.16
828.674	13068.57
829.06	12974.61
829.445	13302.24
829.83	13588.65
830.216	13971.95
830.601	14276.55
830.986	13938.56
831.371	13821.42
831.756	14281.02
832.141	13931.56
832.526	13931.07
832.911	14158.51
833.295	14053.9
833.68	14454.34
834.065	13940.93
834.449	13184.33
834.834	13114.23
835.218	13108.6
835.603	13389.87
835.987	13213.17
836.371	13897.63
836.755	13807.49
837.139	14139.16
837.524	14345.24
837.908	14184.19
838.291	14233.49
838.675	14286.25
839.059	14465.6
839.443	14448.78
839.827	14253.63
840.21	14647.71
840.594	14522.17
840.977	14697.19
841.361	14678.12
841.744	14983.37
842.127	14855.76
842.511	15056.05
842.894	15549.19
843.277	15856.41
843.66	16299.81
844.043	16376.47
844.426	15709.64
844.809	15448.89
845.191	15471.84
845.574	15083.96
845.957	14780.38
846.339	14689.38
846.722	14252.44
847.104	14303.9
847.487	14161.64
847.869	14176.06
848.252	14399.65
848.634	14672.44
849.016	14891.02
849.398	14982.95
849.78	15692.93
850.162	15694.19
850.544	16029.92
850.926	16544.22
851.307	16476.95
851.689	16700.13
852.071	17075.08
852.452	17340.71
852.834	17323.3
853.215	17648.86
853.597	17778.99
853.978	18016.11
854.359	18388.1
854.741	17577.46
855.122	17494.28
855.503	17243.84
855.884	17362.52
856.265	17308
856.646	17401.71
857.026	17078.84
857.407	17026.82
857.788	17160.59
858.169	17396.07
858.549	16686.54
858.93	17195.56
859.31	17232.45
859.69	17412.17
860.071	17082.94
860.451	16907.58
860.831	16298.1
861.211	17249.18
861.591	17696.15
861.971	17664.93
862.351	17815.54
862.731	18147.6
863.111	18371.95
863.491	18653.07
863.87	19371.94
864.25	19649.25
864.629	19318.98
865.009	19724.48
865.388	20427.85
865.768	21889.02
866.147	21809.95
866.526	20617.41
866.905	20872.13
867.284	22027.3
867.663	20914.75
868.042	20036.57
868.421	19970.68
868.8	20301.74
869.179	20524.18
869.558	19327.81
869.936	17811.44
870.315	18124.12
870.693	18568.97
871.072	20015.27
871.45	19077.12
871.828	19323.72
872.207	20324.44
872.585	20019.54
872.963	20561.25
873.341	19848.06
873.719	19619.36
874.097	19390.62
874.475	19751.19
874.853	20196.95
875.23	19349.15
875.608	20158.17
875.986	21790.77
876.363	20840.17
876.741	21472.7
877.118	20928.51
877.495	21954.51
877.873	22309.2
878.25	23471.82
878.627	22525.34
879.004	22840.34
879.381	22728.07
879.758	22128.61
880.135	20610.67
880.512	21800.62
880.889	21224.24
881.265	21007.39
881.642	20831.34
882.019	21184.05
882.395	20763.77
882.772	21589.45
883.148	20644.26
883.524	20568.49
883.901	20443.16
884.277	20746.26
884.653	20598.4
885.029	21194.75
885.405	23465.82
885.781	23276.05
886.157	22307.35
886.532	22567.33
886.908	22541.11
887.284	25054.98
887.659	25866.67
888.035	26676.64
888.411	27355.08
888.786	27716.59
889.161	28661.19
889.537	28134.26
889.912	29036.9
890.287	29001.19
890.662	29740.41
891.037	29201.73
891.412	27230.16
891.787	26943.29
892.162	25993.06
892.536	26600.9
892.911	25598.83
893.286	25057.36
893.66	24037.42
894.035	24646.31
894.409	26841.49
894.784	25765.86
895.158	26191.33
895.532	27736.46
895.906	28507.81
896.281	29164.51
896.655	28691.18
897.029	32784.47
897.402	34131.38
897.776	37995.7
898.15	37855.19
898.524	37428.62
898.898	37914.89
899.271	42447.97
899.645	36779.95
900.018	35300.05
900.392	36611.65
900.765	36890.24
901.138	34134.64
901.511	33619.74
901.884	30871.41
902.258	28474.55
902.631	29436.12
903.003	33864.46
903.376	30551.89
903.749	34239.99
904.122	36666.62
904.495	40355.39
904.867	40885.18
905.24	35506.64
905.612	33051.87
905.985	33790.55
906.357	35345.02
906.729	33731.48
907.102	28818.42
907.474	27703.43
907.846	27886.34
908.218	27526.7
908.59	24346.56
908.962	23552.13
909.334	25358
909.705	26645.38
910.077	25867.65
910.449	26915.76
910.82	27674.02
911.192	30452.52
911.563	31659.89
911.935	33880.13
912.306	33895.49
912.677	34978.61
913.048	34630.43
913.419	37585.7
913.79	37789.52
914.161	40530.7
914.532	38748.81
914.903	35589.99
915.274	33801.36
915.645	33320.34
916.015	29318.61
916.386	27973.47
916.756	29775.4
917.127	30711.85
917.497	27447.49
917.868	29891.28
918.238	28403.86
918.608	29228.41
918.978	29848.61
919.348	31609.64
919.718	32638.31
920.088	31468.18
920.458	32702.62
920.828	34430.44
921.198	32628.06
921.567	34820.06
921.937	26954.13
922.306	27217.52
922.676	29338.33
923.045	24481.89
923.415	23264.97
923.784	21191.32
924.153	21778.56
924.522	21749.44
924.891	20438.16
925.26	21888.49
925.629	21380.25
925.998	24580.88
926.367	23996.06
926.736	22866.99
927.104	27213.34
927.473	29239.38
927.842	35318.32
928.21	34964.62
928.578	36752.19
928.947	34738.04
929.315	34977.27
929.683	41005.34
930.051	41309.09
930.42	47922.39
930.788	40916.77
931.156	40608.17
931.523	38071.12
931.891	35149.86
932.259	33747.2
932.627	39109.71
932.994	55325.97
933.362	45669.44
933.729	39626.67
934.097	37918.61
934.464	32071.6
934.831	36984.45
935.199	36447.21
935.566	35319.59
935.933	35726.82
936.3	43264.63
936.667	33622.6
937.034	30367.61
937.401	30031.77
937.767	25932.53
938.134	23059.44
938.501	32532.19
938.867	34676.45
939.234	58577.02
939.6	49951.81
939.967	55097.52
940.333	36868.47
940.699	31415.37
941.065	25151.9
941.431	32924.14
941.798	31736.16
942.163	41646.86
942.529	26008.83
942.895	23946.36
943.261	15498.68
943.627	20345.83
943.992	17852.39
944.358	17882.93
944.723	17950.34
945.089	17496.64
945.454	16191.31
945.82	17263.19
946.185	16618.93
946.55	19219.26
946.915	17236.73
947.28	20227.97
947.645	17800.52
948.01	16420.56
948.375	17142.34
948.74	20531.59
949.104	23944.58
949.469	34539.77
949.834	61094.26
950.198	57990.36
950.562	34775.61
950.927	28946.96
951.291	34829.55
951.655	29695.36
952.02	27847.4
952.384	21048.55
952.748	18338.06
953.112	17896.13
953.476	15565.28
953.839	14390.21
954.203	14247.8
954.567	17829.58
954.931	28029.52
955.294	24004.27
955.658	24112.19
956.021	41071.91
956.385	69543.64
956.748	102719.9
957.111	159232.59
957.474	178639.97
957.837	200974.89
958.2	151775.9
958.563	54602.8
958.926	37015.77
959.289	56045.35
959.652	62639.2
960.015	46964.2
960.377	67412.53
960.74	76857.61
961.102	132692.27
961.465	142739.04
961.827	76725.77
962.189	147334.24
962.552	102167.02
962.914	81766.77
963.276	53022.74
963.638	43788.37
964	43319.88
964.362	29311.32
964.724	28315.78
965.085	20184.22
965.447	16551.7
965.809	18824.55
966.17	18833.09
966.532	20352.28
966.893	18699.15
967.255	17038.26
967.616	20128.58
967.977	16118.77
968.338	17588
968.699	14456.4
969.061	14450.94
969.421	14541.5
969.782	16300.14
970.143	13767.09
970.504	14291.48
970.865	16266.11
971.225	16649.95
971.586	16260.14
971.946	23187.46
972.307	20137.57
972.667	26310.19
973.027	27111.11
973.388	32849.24
973.748	22346.38
974.108	24351.17
974.468	32869.46
974.828	25334.75
975.188	19452.91
975.548	17890.05
975.907	15017.65
976.267	16819.47
976.627	14140.37
976.986	14650.6
977.346	13953.67
977.705	13416.28
978.064	12206.34
978.424	10173.92
978.783	10498.09
979.142	11985.52
979.501	11490.81
979.86	12154.41
980.219	11726.25
980.578	15099.05
980.937	16899.8
981.296	15057.77
981.654	15511.92
982.013	24143.31
982.371	31297.5
982.73	29271.39
983.088	33217.41
983.447	35407.21
983.805	50589.3
984.163	105475.55
984.521	117194.73
984.879	171758.49
985.237	-279579.68
985.595	269391.14
985.953	66852.87
986.311	38625.74
986.669	22379.95
987.026	19274.71
987.384	25912.02
987.741	26773.98
988.099	19178.62
988.456	15247.48
988.814	14301.96
989.171	12435.85
989.528	12259.78
989.885	12947.24
990.242	10236.37
990.599	12762.46
990.956	10443.1
991.313	7300.41
991.67	5994.34
992.027	6389.22
992.383	5700.33
992.74	4998.96
993.096	5255.76
993.453	5446.52
993.809	5639.61
994.165	7530.08
994.522	6919.68
994.878	7634.63
995.234	9591.92
995.59	9451.34
995.946	8897.41
996.302	10116.77
996.658	11656.36
997.013	12823.66
997.369	15256.97
997.725	19574.93
998.08	12672.89
998.436	19430.96
998.791	26797.77
999.147	26741.54
999.502	29179.4
999.857	21160.77
1000.212	34599.08
1000.567	49389.02
1000.922	28457.02
1001.277	18012.1
1001.632	13348.96
1001.987	17163.25
1002.342	12314.17
1002.696	9860.45
1003.051	7885.79
1003.406	9579.79
1003.76	9550.32
1004.114	9415.38
1004.469	7912.68
1004.823	6539.08
1005.177	7072.39
1005.531	5619.6
1005.885	5006.35
1006.239	5654.45
1006.593	7104.36
1006.947	9512.73
1007.301	7118
1007.655	7768.98
1008.008	5705.67
1008.362	6435.77
1008.715	9199.85
1009.069	8342.62
1009.422	12595.32
1009.776	25241.71
1010.129	16784.65
1010.482	13963.55
1010.835	11796.12
1011.188	24550.23
1011.541	23128.97
1011.894	-141641.78
1012.247	415238.36
1012.6	28227.46
1012.952	17910.17
1013.305	9169.72
1013.657	6615.83
1014.01	6272.05
1014.362	5174.66
1014.715	4620.51
1015.067	4055.2
1015.419	3963.6
1015.771	3508.35
1016.123	3123.28
1016.475	3219.44
1016.827	3423.74
1017.179	3690.12
1017.531	3699
1017.883	3774.14
1018.234	3671.24
1018.586	4632.14
1018.938	4924.37
1019.289	6784.66
1019.64	7732.94
1019.992	7193.1
1020.343	6602.94
1020.694	5213.53
1021.045	4633.45
1021.396	5299.59
1021.747	5717.53
1022.098	6806.69
1022.449	4915.37
1022.8	4516.48
1023.151	3148.99
1023.501	2804.89
1023.852	3068.63
1024.202	3183.08
1024.553	3497.98
1024.903	3432.37
1025.253	2965
1025.604	2667.16
1025.954	3313.91
1026.304	4041.83
1026.654	4739.68
1027.004	6963.35
1027.354	11260
1027.703	10608.66
1028.053	13891.47
1028.403	20466.59
1028.753	29366.27
1029.102	39676.32
1029.452	203327.88
1029.801	8805.45
1030.15	5687.77
1030.499	4794.04
897.758	3226.6
901.051	3216.07
904.343	3248.89
907.636	3241.52
910.928	3307.23
914.22	3212.12
917.511	3224.14
920.803	3309.75
924.094	3355.09
927.384	3305.31
930.675	3270.19
933.965	3212.17
937.255	3203.06
940.544	3172.36
943.834	3032.87
947.123	2994.04
950.411	3095.6
953.7	3058.93
956.988	3005.43
960.276	2951.06
963.563	3072.95
966.851	3054.02
970.138	3129.26
973.424	3104.08
976.711	3051.35
979.997	3296.59
983.283	3312.29
986.568	3184.71
989.853	3231.51
993.138	3260.6
996.423	3340.06
999.708	3252.3
1002.992	3365.9
1006.275	3105.09
1009.559	3208.46
1012.842	3345.75
1016.125	3247.99
1019.408	3225.42
1022.69	3349.76
1025.972	3352.98
1029.254	3318.64
1032.536	3213.87
1035.817	3259.3
1039.098	3162.64
1042.379	3420.23
1045.659	3372.88
1048.939	3284.68
1052.219	3328.36
1055.498	3356.69
1058.778	3325.96
1062.057	3318.16
1065.335	3337.25
1068.614	3367.56
1071.892	3328.68
1075.17	3431.23
1078.447	3407.31
1081.724	3389.15
1085.001	3442.13
1088.278	3408.99
1091.554	3429.27
1094.83	3430.02
1098.106	3450.12
1101.382	3512.13
1104.657	3515.04
1107.932	3508.19
1111.206	3457.05
1114.481	3414.96
1117.755	3429.45
1121.029	3387.55
1124.302	3429.51
1127.575	3363.24
1130.848	3337.52
1134.121	3287.61
1137.393	3219.01
1140.665	3299.42
1143.937	3275.98
1147.208	3190.76
1150.48	3210.59
1153.75	3187.5
1157.021	3261.05
1160.291	3216.91
1163.561	3255.57
1166.831	3277.42
1170.101	3312.17
1173.37	3310.72
1176.639	3231.6
1179.907	3309.13
1183.176	3347.77
1186.444	3360.81
1189.711	3394.07
1192.979	3390.24
1196.246	3351.67
1199.513	3375.76
1202.78	3367.17
1206.046	3373.33
1209.312	3397.78
1212.578	3434.25
1215.843	3361.57
1219.108	3348.66
1222.373	3369.01
1225.638	3318.54
1228.902	3293.23
1232.166	3272.92
1235.43	3246.73
1238.693	3261.96
1241.956	3270.58
1245.219	3297.94
1248.482	3303.59
1251.744	3294.37
1255.006	3476.65
1258.268	3444.17
1261.529	3372.88
1264.79	3389.65
1268.051	3504.22
1271.312	3525.27
1274.572	3481.94
1277.832	3469.59
1281.092	3476.74
1284.351	3423.18
1287.61	3394
1290.869	3281.49
1294.128	3227.06
1297.386	3369.16
1300.644	3352.67
1303.902	3363.5
1307.159	3209.12
1310.416	3266.55
1313.673	3285.41
1316.93	3254.26
1320.186	3320.57
1323.442	3377.78
1326.697	3351.03
1329.953	3367.25
1333.208	3374.4
1336.463	3362.96
1339.717	3284.4
1342.972	3385.63
1346.226	3387.39
1349.479	3300.88
1352.733	3249.39
1355.986	3298.75
1359.238	3268.86
1362.491	3268.24
1365.743	3274.88
1368.995	3276.03
1372.247	3288.67
1375.498	3307.83
1378.749	3359.72
1382	3309.94
1385.251	3382.83
1388.501	3361.81
1391.751	3325.21
1395	3306.49
1398.25	3347.37
1401.499	3339.09
1404.748	3249.27
1407.996	3176.66
1411.244	3171.37
1414.492	3143.68
1417.74	3116.14
1420.987	3140.43
1424.234	3188.72
1427.481	3191.22
1430.728	3248.56
1433.974	3223.7
1437.22	3258.57
1440.465	3262.37
1443.711	3257.1
1446.956	3291.88
1450.201	3303.16
1453.445	3348.12
1456.689	3309.94
1459.933	3328.61
1463.177	3353.94
1466.42	3322.8
1469.663	3302.24
1472.906	3265.65
1476.148	3408.98
1479.391	3297.17
1482.633	3284
1485.874	3278.02
1489.115	3240.16
1492.356	3267.92
1495.597	3237.64
1498.838	3252.51
1502.078	3199.21
1505.318	3117.29
1508.557	3172.15
1511.797	3084.55
1515.036	3252.76
1518.274	3236.38
1521.513	3224.73
1524.751	3257.83
1527.989	3260.33
1531.227	3264.63
1534.464	3228.59
1537.701	3281.72
1540.938	3310.48
1544.174	3268.02
1547.41	3283.35
1550.646	3317.39
1553.882	3337.55
1557.117	3385.94
1560.352	3411.34
1563.587	3360.02
1566.821	3308.82
1570.055	3373.78
1573.289	3329.91
1576.523	3428
1579.756	3426.28
1582.989	3437.71
1586.222	3394.23
1589.454	3445.42
1592.686	3410.75
1595.918	3429.63
1599.15	3405.07
1602.381	3519.47
1605.612	3436.84
1608.843	3537.84
1612.073	3438.35
1615.303	3414.97
1618.533	3392.96
1621.762	3411.46
1624.992	3410.36
1628.221	3370.63
1631.449	3358.24
1634.678	3453.78
1637.906	3391.17
1641.134	3449.33
1644.361	3392.83
1647.588	3377.16
1650.815	3388.34
1654.042	3387.77
1657.269	3419.73
1660.495	3365.47
1663.72	3321.33
1666.946	3306.95
1670.171	3208.44
1673.396	3187.24
1676.621	3183.76
1679.845	3238.33
1683.069	3277.87
1686.293	3336.76
1689.517	3284.99
1692.74	3179.5
1695.963	3201.77
1699.185	3288.91
1702.408	3235.35
1705.63	3294.54
1708.852	3298.73
1712.073	3271
1715.294	3227.11
1718.515	3267.89
1721.736	3208.24
1724.956	3185.54
1728.176	3219.58
1731.396	3236.83
1734.616	3236.74
1737.835	3245.66
1741.054	3241.29
1744.272	3238.98
1747.491	3250.21
1750.709	3344.16
1753.927	3231.03
1757.144	3296.27
1760.361	3353.51
1763.578	3370.39
1766.795	3299.57
1770.011	3324.48
1773.227	3386.36
1776.443	3411.84
1779.658	3456.29
1782.874	3407.39
1786.089	3366.13
1789.303	3371.7
1792.518	3385.43
1795.732	3374.48
1798.945	3373.43
1802.159	3435.7
1805.372	3289.28
1808.585	3261.31
1811.797	3266.26
1815.01	3348.83
1818.222	3350.52
1821.434	3233.89
1824.645	3342.18
1827.856	3296.81
1831.067	3343.52
1834.278	3279.72
1837.488	3269.04
1840.698	3452.33
1843.908	3353.86
1847.117	3312.81
1850.326	3136.44
1853.535	3282.01
1856.744	3402.75
1859.952	3279.35
1863.16	3278.58
1866.368	3308.7
1869.575	3454.3
1872.782	3338.29
1875.989	3286.07
1879.196	3418.34
1882.402	3413.29
1885.608	3468.65
1888.814	3325.33
1892.019	3202.4
1895.224	3258.27
1898.429	3260.51
1901.634	3227.92
1904.838	3212.55
1908.042	3255.48
1911.246	3255.95
1914.449	3145.91
1917.652	3166.47
1920.855	3150.66
1924.058	3227.41
1927.26	3254.85
1930.462	3292.62
1933.664	3301.58
1936.865	3235.71
1940.066	3230.79
1943.267	3179.43
1946.467	3205.17
1949.668	3243.26
1952.868	3304.97
1956.067	3265.39
1959.267	3186.65
1962.466	3220.37
1965.665	3209.12
1968.863	3207.22
1972.061	3238.74
1975.259	3243.89
1978.457	3331.74
1981.654	3280.72
1984.852	3278.76
1988.048	3184.65
1991.245	3206.34
1994.441	3289.3
1997.637	3306.66
2000.833	3285.29
2004.028	3332.69
2007.223	3373.36
2010.418	3335.7
2013.613	3305.59
2016.807	3245.68
2020.001	3268.94
2023.194	3344.23
2026.388	3308.55
2029.581	3254.04
2032.774	3287.47
2035.966	3283.07
2039.158	3191
2042.35	3229.1
2045.542	3156.62
2048.733	3282.31
2051.924	3346.73
2055.115	3390.4
2058.306	3301.3
2061.496	3365.87
2064.686	3454.45
2067.875	3371.15
2071.065	3403.7
2074.254	3442.21
2077.442	3392.85
2080.631	3494.06
2083.819	3331.97
2087.007	3296.51
2090.195	3251.05
2093.382	3310.94
2096.569	3286.72
2099.756	3224.57
2102.942	3224.45
2106.128	3213.35
2109.314	3211.44
2112.5	3143.61
2115.685	3130.46
2118.87	3144.67
2122.055	3217.39
2125.239	3161.45
2128.424	3117.12
2131.608	3279.46
2134.791	3257.91
2137.974	3343.41
2141.157	3326.35
2144.34	3252.68
2147.523	3280.52
2150.705	3274.07
2153.887	3272.1
2157.068	3191.82
2160.25	3224.99
2163.431	3287.08
2166.611	3196.07
2169.792	3209.69
2172.972	3079.59
2176.152	3196.28
2179.331	3241.24
2182.511	3214.27
2185.69	3251.12
2188.868	3232.9
2192.047	3318.34
2195.225	3274.95
2198.403	3215.5
2201.58	3221.02
2204.758	3222.72
2207.935	3316.76
2211.111	3169.51
2214.288	3148.73
2217.464	3196.46
2220.64	3187.62
2223.815	3251.97
2226.991	3158
2230.166	3183.67
2233.34	3200.47
2236.515	3238.43
2239.689	3328.53
2242.863	3265.19
2246.036	3325.4
2249.209	3344.91
2252.382	3399.72
2255.555	3365.49
2258.727	3282.84
2261.9	3336.23
2265.071	3324.23
2268.243	3338.71
2271.414	3249.09
2274.585	3177.93
2277.756	3256.3
2280.926	3213.67
2284.096	3270.61
2287.266	3146.56
2290.436	3214.99
2293.605	3255.1
2296.774	3275.33
2299.942	3317.63
2303.111	3332.78
2306.279	3375.04
2309.447	3367.18
2312.614	3346.63
2315.781	3358.44
2318.948	3318.96
2322.115	3362.91
2325.281	3260.23
2328.447	3297.04
2331.613	3276.37
2334.779	3226.78
2337.944	3241.86
2341.109	3233.95
2344.274	3208.68
2347.438	3171.48
2350.602	3205.66
2353.766	3225.93
2356.929	3206.05
2360.092	3257.3
2363.255	3184.05
2366.418	3074.04
2369.58	3248.8
2372.742	2922.26
2375.904	2961.3
2379.066	2922.94
2382.227	2971.6
2385.388	2929.76
2388.548	2828.36
2391.709	2903.54
2394.869	2870.06
2398.029	3027.99
2401.188	3063.41
2404.347	2960.32
2407.506	3178.14
2410.665	3200.29
2413.823	3230.79
2416.981	3157.97
2420.139	3211.54
2423.296	3273.1
2426.453	3247.69
2429.61	3272.42
2432.767	3159.21
2435.923	3212.69
2439.079	3093.61
2442.235	3185.85
2445.391	3088.61
2448.546	3094.66
2451.701	3167
2454.855	3102.17
2458.009	3187.55
2461.163	3208.95
2464.317	3153.84
2467.471	3194.51
2470.624	3235.08
2473.777	3282.2
2476.929	3270.98
2480.082	3300.97
2483.234	3269.77
2486.385	3145.98
2489.537	3147.26
2492.688	3070.35
2495.839	3086.78
2498.989	3087.75
2502.14	3070.95
2505.29	3035.44
2508.439	3068.21
2511.589	2966.79
2514.738	2999.32
2517.887	3028.44
2521.035	3179.38
2524.183	3180.05
2527.331	3148.26
2530.479	3096.14
2533.627	3118.53
