Data from C_3_DIV_PA_2N_Splice17_13-16-09-588.txt Node
Date: Sat Mar 14 13:16:09 EDT 2020
User: sa697716
Spectrometer: FLMS03696
Trigger mode: 0
Integration Time (sec): 3.180400E-1
Scans to average: 20
Electric dark correction enabled: true
Nonlinearity correction enabled: true
Boxcar width: 5
XAxis mode: Wavelengths
Number of Pixels in Spectrum: 2048
>>>>>Begin Spectral Data<<<<<
187.83	-334492.35
188.298	2480.36
188.766	1305.42
189.233	1125.55
189.701	1674.52
190.169	2324.46
190.636	910.29
191.104	678.68
191.571	127.94
192.039	-76.31
192.506	-88.65
192.974	369.27
193.441	-261.2
193.908	126.57
194.375	25.96
194.842	81.04
195.31	205.98
195.777	209.67
196.244	356.89
196.711	320.76
197.177	369.62
197.644	449.31
198.111	769.43
198.578	995.22
199.045	801.6
199.511	1261.82
199.978	1431.2
200.445	1228.26
200.911	1323.79
201.378	1416.55
201.844	1309.5
202.31	2174.72
202.777	2258.4
203.243	1233.86
203.709	1157.22
204.176	1361.77
204.642	1147.49
205.108	1097.74
205.574	871.47
206.04	776.78
206.506	709.86
206.972	655.59
207.438	623.68
207.903	693.9
208.369	627.98
208.835	642.92
209.301	674.21
209.766	667.59
210.232	663.18
210.697	813.9
211.163	973.91
211.628	1472.95
212.094	1246.69
212.559	1640.86
213.024	1048.96
213.49	1293.73
213.955	1247.01
214.42	1173.86
214.885	1119.12
215.35	1084.24
215.815	1127.66
216.28	1226.28
216.745	1006.24
217.21	1104.71
217.675	991.1
218.14	1130.16
218.604	1259.81
219.069	1462.15
219.534	1601.76
219.998	1858.18
220.463	2265.28
220.927	2732.45
221.392	2616.49
221.856	2689.33
222.32	3383.52
222.785	4235.46
223.249	5375.76
223.713	6048.38
224.177	6131.48
224.642	7855.12
225.106	9729.62
225.57	10708.97
226.034	8091.99
226.497	12390.79
226.961	11295.8
227.425	13300.34
227.889	14812.61
228.353	14899.76
228.816	30920.93
229.28	29805.13
229.744	25281.15
230.207	15565.02
230.671	15419.33
231.134	25581.46
231.597	29720
232.061	29904.2
232.524	29380.64
232.987	20412.01
233.45	18519.42
233.914	16719.25
234.377	17231.71
234.84	15887.3
235.303	18793.72
235.766	21116.63
236.229	21943.55
236.691	13902.81
237.154	15709.02
237.617	11866.99
238.08	12199.99
238.542	14349.25
239.005	10312.64
239.468	10273.3
239.93	9727.42
240.393	8869.77
240.855	7809.38
241.317	8014.41
241.78	9777.43
242.242	10134.3
242.704	11009.15
243.166	9637.58
243.629	8800.46
244.091	10189.64
244.553	11221.84
245.015	12106.67
245.477	15760.16
245.939	23183.44
246.4	24741.07
246.862	24123.56
247.324	22836
247.786	25604.41
248.247	33604.7
248.709	34717.18
249.17	26051.29
249.632	24673.16
250.093	28769.93
250.555	24909.7
251.016	15286.6
251.477	14563.81
251.939	15818.64
252.4	16664.28
252.861	19887.97
253.322	18600.17
253.783	22246.76
254.244	28969.58
254.705	22901.32
255.166	20419.46
255.627	20175.73
256.088	28589.52
256.549	30490.24
257.009	26290.27
257.47	31980.12
257.931	26135
258.391	19672.06
258.852	20357.04
259.312	21400.46
259.773	26487.51
260.233	22479.93
260.694	19044.51
261.154	21666.34
261.614	17470.71
262.074	15700.65
262.534	16413.79
262.994	15584.45
263.455	20862.65
263.915	17684.2
264.374	16769.65
264.834	18425.45
265.294	20533.06
265.754	21386.76
266.214	20362.9
266.673	19198.48
267.133	24366.99
267.593	24276.31
268.052	29825.84
268.512	26069.01
268.971	31630.46
269.431	34842.36
269.89	31380.21
270.349	47255.99
270.809	52975.07
271.268	47823.08
271.727	107651.27
272.186	69998.33
272.645	52797.67
273.104	38262
273.563	55591.34
274.022	43839.94
274.481	37442.16
274.94	28956.57
275.399	21617.25
275.857	25287.85
276.316	34332.08
276.775	30693.26
277.233	30416.74
277.692	28588.65
278.15	32494.46
278.609	33624.91
279.067	31266.08
279.525	29190.09
279.984	37846.45
280.442	45654.09
280.9	45173.35
281.358	29837.92
281.816	27905.47
282.274	27361.58
282.732	28339.02
283.19	28560.73
283.648	24702.4
284.106	26355.15
284.564	26867.12
285.021	24988.56
285.479	18692.02
285.937	17040.18
286.394	15007.59
286.852	15493.98
287.309	16342.83
287.767	15861.19
288.224	15146.17
288.682	16714.44
289.139	18496.08
289.596	17048.51
290.053	17839.57
290.511	22669.55
290.968	27686.71
291.425	37862.44
291.882	31743.98
292.339	27826.96
292.796	27807.23
293.252	26358.44
293.709	21031.75
294.166	18924.52
294.623	21016.75
295.079	20250.5
295.536	20424.59
295.992	18620.77
296.449	18454.49
296.905	19222.67
297.362	18494.38
297.818	19521.63
298.274	20328.1
298.731	20794.13
299.187	20643.42
299.643	22219.05
300.099	26955.85
300.555	29632.07
301.011	24823.21
301.467	24010.42
301.923	28203.17
302.379	27619.81
302.835	27184.08
303.291	27300.1
303.746	31153.17
304.202	39435.67
304.658	39672.06
305.113	26719.68
305.569	26239.51
306.024	28045.96
306.479	26767.46
306.935	22626.45
307.39	24780.4
307.845	22934.58
308.301	23098.56
308.756	22548.62
309.211	21769.54
309.666	22359.51
310.121	27834.01
310.576	28322.53
311.031	28136.61
311.486	32304.28
311.94	32372.23
312.395	43379.75
312.85	81652.93
313.305	401974.98
313.759	2082483.02
314.214	151204.92
314.668	120083.18
315.123	101322.7
315.577	36396.16
316.032	32453.44
316.486	40750.8
316.94	32215.44
317.394	22488.42
317.849	17548.96
318.303	16667.9
318.757	15788.56
319.211	17525.37
319.665	15402.91
320.119	15642.21
320.572	22546.04
321.026	21154.25
321.48	17672.71
321.934	19329.89
322.387	19432.82
322.841	21068.95
323.295	18985.83
323.748	21957.7
324.202	22330.75
324.655	26865.21
325.108	37583.21
325.562	26578.3
326.015	31656.62
326.468	23962.98
326.921	26825.51
327.374	25020.54
327.827	26086.21
328.28	29636.81
328.733	19896.66
329.186	17528.07
329.639	16733.49
330.092	14134.91
330.545	13487.4
330.997	13615.8
331.45	14901.61
331.903	17491.19
332.355	30185.5
332.808	29334.76
333.26	24188.35
333.713	26259.61
334.165	26458.2
334.617	35366.23
335.069	28612.81
335.522	51758.03
335.974	57365.32
336.426	52485.06
336.878	36416.27
337.33	18486.08
337.782	18076.5
338.234	22671.94
338.686	27147.02
339.137	32185.84
339.589	30371.19
340.041	23833.41
340.493	20547.22
340.944	21085.85
341.396	22754.57
341.847	19164.22
342.299	22648.29
342.75	27771.2
343.201	24388.67
343.653	28182.75
344.104	34800.03
344.555	27494.06
345.006	42999.53
345.457	32967.65
345.908	26305.02
346.359	24831.44
346.81	20319.75
347.261	21492.2
347.712	21188.87
348.163	22764.72
348.613	23050.14
349.064	21573.67
349.515	18914.86
349.965	19439.05
350.416	23474.09
350.866	25794.35
351.317	29217.53
351.767	48405.18
352.217	61229.01
352.668	50910.79
353.118	46690.14
353.568	45192.88
354.018	35779.64
354.468	37810.38
354.918	27117.81
355.368	23761.83
355.818	33635.97
356.268	96900.4
356.718	405681.71
357.168	101043.82
357.617	50821.81
358.067	56575.13
358.517	53077.57
358.966	62361.67
359.416	69879.69
359.865	75718.72
360.315	90313.71
360.764	42154.94
361.213	23651.08
361.663	22495.68
362.112	27856.63
362.561	44996.28
363.01	34052.89
363.459	28762.28
363.908	31155.38
364.357	26559.44
364.806	44943.84
365.255	30966.14
365.703	28415.3
366.152	28561.94
366.601	23199.39
367.05	18847.87
367.498	17175.63
367.947	17991.32
368.395	18713.47
368.844	16629.37
369.292	20087.45
369.74	13903.12
370.189	21347.74
370.637	25103.59
371.085	21679.76
371.533	26452.18
371.981	25596.79
372.429	24428.96
372.877	25456.84
373.325	21334.07
373.773	21795.15
374.221	19455.75
374.669	24208.84
375.116	20983.11
375.564	21216.71
376.012	23794.55
376.459	19669.31
376.907	23538.78
377.354	28533.44
377.801	26631.11
378.249	30626.25
378.696	39193.5
379.143	47491.63
379.591	50689.55
380.038	85887.03
380.485	62133.33
380.932	67094.72
381.379	61357.52
381.826	45216.73
382.273	32242.44
382.72	28270.39
383.166	27657.35
383.613	17981.19
384.06	16286.06
384.506	18895.42
384.953	13899.05
385.4	14025.68
385.846	12306.34
386.292	12017.7
386.739	11775.03
387.185	11650.99
387.631	11662.97
388.078	11316.65
388.524	12100.44
388.97	11161.33
389.416	9295.39
389.862	9864.56
390.308	9332.03
390.754	9467.38
391.2	10259.97
391.645	10487.94
392.091	9983.98
392.537	9620.6
392.983	9609.62
393.428	9409.64
393.874	10056.35
394.319	10060.43
394.765	9517.55
395.21	9773.24
395.655	9152.5
396.101	8560.39
396.546	7711.59
396.991	7775.49
397.436	7204.86
397.881	6950.68
398.326	6572.74
398.771	6199.35
399.216	5413.34
399.661	4867.38
400.106	4824.64
400.551	4914.89
400.995	4401.19
401.44	4346.6
401.885	4083.34
402.329	4122.85
402.774	3946.26
403.218	3811.96
403.663	3664.8
404.107	3754.03
404.551	3767.43
404.995	3454.53
405.44	3325.24
405.884	3370.23
406.328	3251.39
406.772	3229.66
407.216	2934.45
407.66	2831.42
408.104	2683.55
408.547	2507.85
408.991	2421.53
409.435	2331.36
409.879	2294.34
410.322	2259.08
410.766	2173.37
411.209	2060.01
411.653	1974.72
412.096	1927.25
412.54	1919.67
412.983	1901.42
413.426	1902.1
413.869	1898
414.312	1852.47
414.756	1778.73
415.199	1694.26
415.642	1642.13
416.085	1642.46
416.527	1627.93
416.97	1654.47
417.413	1571.49
417.856	1558.81
418.298	1544.86
418.741	1538.46
419.184	1539.68
419.626	1606.89
420.069	1609.98
420.511	1621.15
420.953	1587.78
421.396	1574.67
421.838	1534.89
422.28	1571.46
422.722	1577.36
423.164	1597.03
423.606	1568.19
424.048	1566.18
424.49	1490.35
424.932	1483.74
425.374	1462.21
425.816	1489.41
426.258	1523.75
426.699	1545.04
427.141	1525.62
427.582	1550.12
428.024	1544.55
428.465	1534.36
428.907	1495.42
429.348	1475.81
429.789	1472.57
430.231	1442.49
430.672	1461.99
431.113	1420
431.554	1395.35
431.995	1354.49
432.436	1303.15
432.877	1269.66
433.318	1245.25
433.759	1236.86
434.2	1231.53
434.64	1214.6
435.081	1212.16
435.522	1144.11
435.962	1100.71
436.403	1073.49
436.843	1085.91
437.284	1061.43
437.724	1033.77
438.164	1035.6
438.604	1011.13
439.045	971.74
439.485	931.53
439.925	911.02
440.365	885.61
440.805	874.79
441.245	865.35
441.685	834.71
442.125	827.67
442.564	829.71
443.004	808.19
443.444	805.79
443.883	805.63
444.323	798.16
444.762	797.69
445.202	808.22
445.641	819.64
446.081	809.78
446.52	814.49
446.959	803.82
447.398	784.64
447.837	775.54
448.276	759.55
448.716	766.32
449.154	772.9
449.593	755.19
450.032	751.55
450.471	736.21
450.91	736.83
451.349	732.78
451.787	729.01
452.226	737.76
452.664	737.53
453.103	739.39
453.541	737.96
453.98	735.68
454.418	741.42
454.856	729.85
455.295	729.18
455.733	736.14
456.171	741.37
456.609	742.09
457.047	743.13
457.485	753.48
457.923	753.93
458.361	743.49
458.798	745.51
459.236	742.71
459.674	748.19
460.111	750.89
460.549	741.74
460.987	739.32
461.424	737.11
461.862	734
462.299	721.13
462.736	721.05
463.173	723.86
463.611	716.47
464.048	714.97
464.485	719.92
464.922	713.45
465.359	709.12
465.796	700.13
466.233	695.88
466.67	687.73
467.106	686.82
467.543	679.76
467.98	671.02
468.416	653.6
468.853	648.2
469.29	629.81
469.726	623.18
470.162	607.98
470.599	600.43
471.035	595.54
471.471	583.31
471.907	581.33
472.344	579.84
472.78	582
473.216	590.05
473.652	584.93
474.088	583.56
474.523	583.74
474.959	590.81
475.395	586.66
475.831	584.72
476.266	588.55
476.702	587.33
477.138	580.79
477.573	580.23
478.008	579.64
478.444	583.46
478.879	590.75
479.314	593.99
479.75	595.06
480.185	598.48
480.62	602.94
481.055	607.1
481.49	613.52
481.925	622.78
482.36	633.95
482.795	651.2
483.229	667.62
483.664	681.19
484.099	683.15
484.534	693.89
484.968	700.11
485.403	703.08
485.837	701.82
486.271	699.96
486.706	701.16
487.14	693.01
487.574	682.19
488.009	676.69
488.443	670.07
488.877	677.24
489.311	677.56
489.745	684.71
490.179	689.39
490.613	701.06
491.046	704.23
491.48	706.95
491.914	705.4
492.348	708.09
492.781	709.64
493.215	708.91
493.648	706.46
494.082	708.27
494.515	704.72
494.948	709.4
495.382	709.42
495.815	710.37
496.248	711.93
496.681	719.77
497.114	725.82
497.547	729.62
497.98	736.63
498.413	736.87
498.846	741.17
499.279	742.6
499.711	738.89
500.144	734.59
500.577	736.91
501.009	739.43
501.442	741.16
501.874	735.1
502.306	729.84
502.739	729.71
503.171	733.7
503.603	727.11
504.036	726.7
504.468	722.67
504.9	722
505.332	717.57
505.764	711.85
506.196	708.02
506.627	709.53
507.059	708.64
507.491	702.51
507.923	690.74
508.354	692.11
508.786	689.72
509.217	693.01
509.649	693.93
510.08	696.82
510.512	697.12
510.943	695.1
511.374	691.42
511.805	693.64
512.237	694.98
512.668	704.35
513.099	709.12
513.53	713.74
513.961	713.91
514.391	720.09
514.822	728
515.253	736.22
515.684	739.05
516.114	742.88
516.545	743.48
516.975	746.91
517.406	745.2
517.836	734.72
518.267	728.27
518.697	727.91
519.127	720.59
519.558	713.49
519.988	705.5
520.418	702.04
520.848	701.98
521.278	697.02
521.708	712.03
522.138	710.5
522.567	717.65
522.997	721.91
523.427	721.4
523.857	721.81
524.286	720.14
524.716	721.87
525.145	724.65
525.575	725.06
526.004	726.39
526.433	702.72
526.863	698.06
527.292	691.11
527.721	690.15
528.15	689.01
528.579	687.01
529.008	688.95
529.437	694.19
529.866	697.52
530.295	700.66
530.724	704.95
531.152	713.83
531.581	718.89
532.01	723.7
532.438	725.74
532.867	730.04
533.295	736.72
533.723	738.64
534.152	738.23
534.58	737.89
535.008	732.39
535.436	732.99
535.865	736.13
536.293	740.97
536.721	747.57
537.149	757.98
537.576	761.19
538.004	766.92
538.432	770.42
538.86	771.14
539.287	774.53
539.715	781.26
540.143	782.98
540.57	782.27
540.998	782.18
541.425	775.14
541.852	767.1
542.28	767
542.707	761.5
543.134	757.43
543.561	757.05
543.988	755.14
544.415	756.93
544.842	756.21
545.269	755.19
545.696	758.45
546.123	765.29
546.549	764.03
546.976	760.8
547.403	762.69
547.829	765.41
548.256	768.06
548.682	768.62
549.108	767.73
549.535	769.25
549.961	772.02
550.387	768.05
550.813	768.81
551.24	772.79
551.666	774.79
552.092	772.93
552.518	771.56
552.943	771.49
553.369	777.22
553.795	780.86
554.221	783.89
554.646	785.38
555.072	793.08
555.498	795.93
555.923	802.09
556.349	811.62
556.774	817.04
557.199	820.73
557.625	825.38
558.05	825.56
558.475	833.01
558.9	835.74
559.325	835.63
559.75	836.42
560.175	836.98
560.6	837.72
561.025	838.97
561.449	844.03
561.874	850.3
562.299	857.52
562.723	864.55
563.148	863.82
563.572	869.51
563.997	877.64
564.421	883.53
564.846	888.18
565.27	895.09
565.694	899.54
566.118	910.15
566.542	920.15
566.966	921.4
567.39	924.1
567.814	925.39
568.238	930.94
568.662	938.26
569.086	945.88
569.509	955.65
569.933	954.27
570.357	956.51
570.78	951.9
571.204	950.72
571.627	949.27
572.05	954.85
572.474	960.28
572.897	959.33
573.32	961.61
573.743	960.82
574.166	957.59
574.589	962.19
575.012	963.25
575.435	966.84
575.858	966.98
576.281	967.37
576.704	963.39
577.126	960.57
577.549	959.65
577.972	958.51
578.394	957.84
578.817	959.14
579.239	952.23
579.661	949.26
580.084	945.87
580.506	943.19
580.928	945.75
581.35	944.03
581.772	947.2
582.194	942.42
582.616	938.74
583.038	934.67
583.46	930.55
583.882	932.8
584.303	937.62
584.725	938.21
585.147	943.81
585.568	953.51
585.99	963.43
586.411	969.09
586.833	980.83
587.254	984.07
587.675	993.63
588.096	1003.13
588.518	1001.77
588.939	993.92
589.36	993.72
589.781	985.74
590.202	970.46
590.623	967.48
591.043	966.15
591.464	959.94
591.885	960.92
592.305	958.59
592.726	951.87
593.147	954.67
593.567	952.21
593.987	949.03
594.408	947.46
594.828	945.28
595.248	942.31
595.669	933.55
596.089	930.25
596.509	925.93
596.929	918.19
597.349	919.09
597.769	912.49
598.189	909.8
598.608	911.21
599.028	912.65
599.448	913.37
599.867	905.62
600.287	903
600.706	900.98
601.126	896.33
601.545	897.69
601.965	899.15
602.384	897.09
602.803	900.28
603.222	898.46
603.641	897.05
604.061	896.94
604.48	895.02
604.898	901.96
605.317	907.08
605.736	909.82
606.155	909.95
606.574	904.75
606.992	911.11
607.411	910.47
607.829	907.15
608.248	906.18
608.666	906.26
609.085	909.7
609.503	907.42
609.921	907.16
610.339	912.22
610.758	914.71
611.176	915.14
611.594	912
612.012	912.86
612.43	919.68
612.847	928.18
613.265	933.89
613.683	940.55
614.101	945.15
614.518	945.51
614.936	940.98
615.353	934.78
615.771	936.57
616.188	940.58
616.606	941.17
617.023	939.68
617.44	933.57
617.857	930.54
618.274	927.19
618.691	925.62
619.108	920.44
619.525	918.93
619.942	926.02
620.359	929.88
620.776	928.28
621.192	927.89
621.609	928.17
622.026	934.33
622.442	940.97
622.859	944.83
623.275	940.74
623.691	947.69
624.108	958.53
624.524	970.57
624.94	971.63
625.356	980.75
625.772	991.86
626.188	1001.03
626.604	1002.87
627.02	1000.78
627.436	1000.17
627.852	1006.51
628.268	1016
628.683	1009.5
629.099	1004.2
629.514	1001.62
629.93	1004.92
630.345	1009.92
630.761	1008.3
631.176	1012.82
631.591	1011.13
632.007	1009.57
632.422	1009.87
632.837	1004.37
633.252	1005.57
633.667	1000.33
634.082	997.54
634.497	993
634.911	983.21
635.326	986.45
635.741	979.17
636.155	977.01
636.57	985.06
636.984	993.01
637.399	1003.15
637.813	1012.16
638.228	1020.91
638.642	1035.01
639.056	1036.03
639.47	1046.65
639.884	1050.59
640.298	1056.15
640.712	1066.34
641.126	1067.48
641.54	1070.71
641.954	1077.52
642.368	1078.96
642.781	1085.75
643.195	1080.24
643.609	1093.88
644.022	1099.96
644.436	1107.42
644.849	1107.95
645.262	1109.49
645.676	1123.15
646.089	1131.06
646.502	1126.1
646.915	1130.86
647.328	1122.67
647.741	1131.19
648.154	1125.39
648.567	1130.53
648.98	1125.28
649.393	1133.93
649.805	1137.72
650.218	1135.63
650.631	1123.48
651.043	1123.03
651.456	1121.77
651.868	1127.98
652.28	1152.73
652.693	1173.06
653.105	1185.74
653.517	1199.65
653.929	1205.04
654.341	1215.44
654.753	1205.81
655.165	1220.31
655.577	1223.71
655.989	1224.79
656.401	1221.2
656.813	1184.71
657.224	1168.96
657.636	1142.9
658.047	1130.01
658.459	1114.5
658.87	1112.22
659.282	1107
659.693	1088.6
660.104	1079.23
660.515	1070.66
660.926	1076.42
661.338	1082.58
661.749	1081.91
662.159	1078.46
662.57	1080.99
662.981	1082.29
663.392	1079.49
663.803	1091.98
664.213	1095.88
664.624	1097.13
665.035	1107.33
665.445	1094.45
665.855	1088.26
666.266	1082.56
666.676	1083.15
667.086	1074.57
667.497	1075.97
667.907	1070.9
668.317	1059.94
668.727	1057.17
669.137	1058.3
669.547	1056.43
669.956	1062.21
670.366	1065.94
670.776	1067.39
671.186	1073.07
671.595	1076.91
672.005	1080.74
672.414	1077.51
672.824	1075.06
673.233	1079.01
673.642	1080.17
674.052	1081.09
674.461	1081
674.87	1083.11
675.279	1077.39
675.688	1076.61
676.097	1074.62
676.506	1067.58
676.915	1084.09
677.323	1083.1
677.732	1077.77
678.141	1074.56
678.549	1057.19
678.958	1050.97
679.366	1046.05
679.775	1047.56
680.183	1055.5
680.592	1057.28
681	1058.54
681.408	1044.45
681.816	1046.98
682.224	1050.91
682.632	1054.79
683.04	1082.66
683.448	1102.52
683.856	1129.41
684.264	1160.23
684.671	1182.81
685.079	1213.78
685.487	1246.8
685.894	1294.33
686.302	1328.38
686.709	1348.85
687.116	1371.79
687.524	1383.26
687.931	1388.49
688.338	1383.06
688.745	1371.85
689.152	1364.52
689.559	1365.83
689.966	1364.22
690.373	1342.98
690.78	1337.29
691.187	1347.95
691.593	1347.72
692	1340.17
692.407	1347.22
692.813	1366.23
693.22	1371.08
693.626	1377.71
694.032	1376.53
694.439	1392.04
694.845	1397.37
695.251	1411.85
695.657	1421.78
696.063	1448.4
696.469	1461.06
696.875	1470.53
697.281	1461.66
697.687	1458.84
698.093	1453.4
698.498	1466.86
698.904	1470.43
699.31	1491.25
699.715	1502.1
700.12	1526.25
700.526	1514.19
700.931	1527.64
701.337	1533.73
701.742	1532.33
702.147	1556
702.552	1552.9
702.957	1564.05
703.362	1559.33
703.767	1556.39
704.172	1557.38
704.577	1519.77
704.981	1527.43
705.386	1522.76
705.791	1506.24
706.195	1523.81
706.6	1514.01
707.004	1534.87
707.408	1510.76
707.813	1511.22
708.217	1496.7
708.621	1487.12
709.025	1518.17
709.43	1509.22
709.834	1523.81
710.237	1543.01
710.641	1528.91
711.045	1530.18
711.449	1520.28
711.853	1527.21
712.256	1535.12
712.66	1540.3
713.064	1561.44
713.467	1569.4
713.87	1603.32
714.274	1611.36
714.677	1642.84
715.08	1692.68
715.484	1745.98
715.887	1813.21
716.29	1869.79
716.693	1934.52
717.096	2011.43
717.499	2048.93
717.901	2048.01
718.304	2050.47
718.707	2052.68
719.109	2012.2
719.512	1997.43
719.915	1946.6
720.317	1920.61
720.719	1934.02
721.122	1920.51
721.524	1899.19
721.926	1884.25
722.328	1914.55
722.731	1903.46
723.133	1907.78
723.535	1969.65
723.937	1971.04
724.338	1984.65
724.74	1995.27
725.142	2017.02
725.544	2014.9
725.945	2032.92
726.347	2023.33
726.748	2020.21
727.15	2025.11
727.551	2011.26
727.952	1996.21
728.354	1982.25
728.755	1977.13
729.156	1959.48
729.557	1907.93
729.958	1862.29
730.359	1834.12
730.76	1829.3
731.161	1807.92
731.562	1798.52
731.962	1800.17
732.363	1780.84
732.763	1760.32
733.164	1772.45
733.564	1749.68
733.965	1716.32
734.365	1705.74
734.766	1714.32
735.166	1699.84
735.566	1682.1
735.966	1673.87
736.366	1669.37
736.766	1647.28
737.166	1658.22
737.566	1644
737.966	1635.06
738.365	1649.11
738.765	1647.18
739.165	1620.26
739.564	1610.61
739.964	1624.1
740.363	1605.76
740.763	1605.41
741.162	1601.63
741.561	1589.02
741.96	1573.72
742.36	1579.84
742.759	1581.91
743.158	1592.99
743.557	1597.21
743.955	1610.66
744.354	1594.2
744.753	1614.64
745.152	1601.68
745.55	1619.35
745.949	1617.84
746.348	1618.9
746.746	1624.66
747.144	1613.98
747.543	1607.4
747.941	1623.27
748.339	1600.24
748.737	1600.57
749.136	1600.59
749.534	1620.76
749.932	1614.44
750.33	1622.8
750.727	1641.83
751.125	1635.44
751.523	1627.13
751.921	1647.46
752.318	1639.45
752.716	1662.84
753.113	1666.06
753.511	1672.88
753.908	1675.73
754.305	1674.04
754.703	1697.25
755.1	1720.39
755.497	1741.76
755.894	1806.68
756.291	1860.31
756.688	1964.97
757.085	2098.93
757.482	2294.45
757.878	2502.96
758.275	2684.07
758.672	2932.56
759.068	3133
759.465	3421.69
759.861	3798.87
760.258	4234.69
760.654	4453.86
761.05	4407.68
761.447	4207.07
761.843	3925.98
762.239	3643.17
762.635	3520.92
763.031	3404.33
763.427	3229.45
763.822	3048.19
764.218	2865.17
764.614	2625.26
765.01	2465.06
765.405	2366.9
765.801	2297.71
766.196	2197.9
766.592	2145.5
766.987	2050.66
767.382	1987.29
767.778	1965.83
768.173	1926.64
768.568	1908.19
768.963	1871.06
769.358	1882.62
769.753	1872.25
770.148	1846.32
770.542	1850.48
770.937	1842.88
771.332	1879.69
771.726	1888.93
772.121	1872.57
772.515	1894.58
772.91	1891.72
773.304	1918.08
773.699	1895.72
774.093	1914.32
774.487	1934.45
774.881	1949.75
775.275	1949.63
775.669	1932.55
776.063	1948.68
776.457	1960.35
776.851	1934.68
777.245	1932.58
777.638	1943.94
778.032	1984.1
778.425	1972.53
778.819	1992.04
779.212	1979.96
779.606	1966.55
779.999	1973.51
780.392	1968.52
780.786	1993.95
781.179	2001.29
781.572	2016.02
781.965	2021.84
782.358	2001.4
782.751	2021.09
783.143	1998.9
783.536	2022.81
783.929	2033.8
784.322	2074.24
784.714	2081.52
785.107	2080.02
785.499	2105.07
785.891	2097.46
786.284	2086.89
786.676	2135.38
787.068	2129.07
787.46	2146.46
787.852	2150.45
788.245	2182.34
788.636	2190.51
789.028	2215.48
789.42	2231.75
789.812	2233.59
790.204	2262.25
790.595	2298.48
790.987	2228.26
791.378	2234.13
791.77	2278.85
792.161	2326.76
792.553	2345.34
792.944	2305.09
793.335	2278.6
793.726	2301.23
794.117	2333.42
794.508	2380.2
794.899	2366.74
795.29	2414.67
795.681	2432.69
796.072	2382.29
796.463	2335.58
796.853	2339.43
797.244	2394.28
797.634	2405.55
798.025	2401.41
798.415	2401.14
798.806	2435.79
799.196	2465.99
799.586	2486.17
799.976	2473.14
800.366	2548.67
800.756	2606.84
801.146	2588.93
801.536	2597.69
801.926	2620.97
802.316	2631.68
802.706	2655.89
803.095	2611.82
803.485	2643.63
803.874	2655.51
804.264	2743.18
804.653	2737.77
805.043	2793.59
805.432	2832.79
805.821	2836.21
806.21	2843.58
806.599	2878.63
806.988	2894.41
807.377	2926.14
807.766	2966.58
808.155	3057.61
808.544	2963.13
808.933	2959.32
809.321	2947.63
809.71	3037.34
810.098	3079.24
810.487	3226.51
810.875	3382.6
811.264	3380.06
811.652	3476.86
812.04	3517.55
812.428	3562.54
812.816	3800.46
813.204	3934.79
813.592	4092.89
813.98	4191.49
814.368	4158.21
814.756	4308.36
815.144	4274.2
815.531	4421.1
815.919	4382.92
816.306	4477.05
816.694	4376.15
817.081	4394.38
817.469	4503.97
817.856	4509.89
818.243	4604.25
818.63	4733.72
819.017	4600.82
819.404	4623.43
819.791	4739.94
820.178	4932.94
820.565	5010.8
820.952	5314.49
821.339	5153.37
821.725	5211.06
822.112	4969.7
822.498	4949.97
822.885	4979.96
823.271	4943.81
823.657	5075.94
824.044	5080.85
824.43	5107.18
824.816	5105.3
825.202	4962.12
825.588	5285.9
825.974	5290.24
826.36	5454.53
826.746	5462.2
827.132	5571.41
827.517	5562.8
827.903	5306.2
828.289	5316.93
828.674	5064.33
829.06	5018.08
829.445	5135.68
829.83	5242.8
830.216	5386.61
830.601	5499.34
830.986	5377.36
831.371	5334.62
831.756	5508.03
832.141	5372.22
832.526	5367.92
832.911	5456.91
833.295	5423.97
833.68	5577.79
834.065	5383.87
834.449	5093.37
834.834	5069.95
835.218	5057.34
835.603	5163.72
835.987	5090.69
836.371	5348.02
836.755	5310.9
837.139	5430.39
837.524	5501.2
837.908	5440.35
838.291	5456.24
838.675	5469.82
839.059	5528.44
839.443	5519.8
839.827	5440.2
840.21	5587.09
840.594	5543.69
840.977	5609.8
841.361	5599.68
841.744	5711.91
842.127	5657.88
842.511	5727.61
842.894	5906.03
843.277	6020.81
843.66	6189.26
844.043	6217.68
844.426	5965.26
844.809	5856.93
845.191	5860.19
845.574	5715.63
845.957	5594.46
846.339	5556.97
846.722	5395.81
847.104	5416.71
847.487	5353.99
847.869	5359.01
848.252	5445.7
848.634	5547.78
849.016	5624.73
849.398	5655.36
849.78	5915.4
850.162	5922.32
850.544	6047.69
850.926	6232.7
851.307	6200.02
851.689	6284.44
852.071	6409.28
852.452	6495.94
852.834	6480.8
853.215	6604.63
853.597	6653.46
853.978	6745.03
854.359	6881.04
854.741	6573
855.122	6540.91
855.503	6451.65
855.884	6500.89
856.265	6491.33
856.646	6530.89
857.026	6415.56
857.407	6395.53
857.788	6447.33
858.169	6528.32
858.549	6271.4
858.93	6464.97
859.31	6481.29
859.69	6556.21
860.071	6427.44
860.451	6355.54
860.831	6128.72
861.211	6477.74
861.591	6640.6
861.971	6631.45
862.351	6690.37
862.731	6800.08
863.111	6877.22
863.491	6977.78
863.87	7237.22
864.25	7339.14
864.629	7216.78
865.009	7372.2
865.388	7635.26
865.768	8176.48
866.147	8141.28
866.526	7688.6
866.905	7780.35
867.284	8211.74
867.663	7794.05
868.042	7472.35
868.421	7445.94
868.8	7560.13
869.179	7629.03
869.558	7180.46
869.936	6624.27
870.315	6732.43
870.693	6903.42
871.072	7439.25
871.45	7084.39
871.828	7182.14
872.207	7547.74
872.585	7439.08
872.963	7641.76
873.341	7382.16
873.719	7302.95
874.097	7211.01
874.475	7348.35
874.853	7514.11
875.23	7207.39
875.608	7513.23
875.986	8121.76
876.363	7769.2
876.741	8011.25
877.118	7815.86
877.495	8201.55
877.873	8330.23
878.25	8770.55
878.627	8410.8
879.004	8522.95
879.381	8468.92
879.758	8248.06
880.135	7673.38
880.512	8107.05
880.889	7881.03
881.265	7801.21
881.642	7726.13
882.019	7855.25
882.395	7697.04
882.772	8004.73
883.148	7659.92
883.524	7632.61
883.901	7586.23
884.277	7698.82
884.653	7644.69
885.029	7869.83
885.405	8723.9
885.781	8659.81
886.157	8285.9
886.532	8375.06
886.908	8361.73
887.284	9285.19
887.659	9590.62
888.035	9889.87
888.411	10140.66
888.786	10272.29
889.161	10620.33
889.537	10402.94
889.912	10731.39
890.287	10734.95
890.662	11016.99
891.037	10811.38
891.412	10083.15
891.787	9968.09
892.162	9611.37
892.536	9833.19
892.911	9464.61
893.286	9257.82
893.66	8872.21
894.035	9092.44
894.409	9885.59
894.784	9476.43
895.158	9632.5
895.532	10197.39
895.906	10470.72
896.281	10705.44
896.655	10534.15
897.029	12027.87
897.402	12515.09
897.776	13943.31
898.15	13889.45
898.524	13746.11
898.898	13937.77
899.271	15620.1
899.645	13529.68
900.018	13003.07
900.392	13488.4
900.765	13588.3
901.138	12580.54
901.511	12381.94
901.884	11379.23
902.258	10503.58
902.631	10862.91
903.003	12501.87
903.376	11271.22
903.749	12649.31
904.122	13533.63
904.495	14891.46
904.867	15070.1
905.24	13096.54
905.612	12207.41
905.985	12453.79
906.357	13007.74
906.729	12408.14
907.102	10598.11
907.474	10184.66
907.846	10240.27
908.218	10108.44
908.59	8950.76
908.962	8665.77
909.334	9332.6
909.705	9807.45
910.077	9524.81
910.449	9912.21
910.82	10193.48
911.192	11212.22
911.563	11669.32
911.935	12477.89
912.306	12484.46
912.677	12872
913.048	12743.04
913.419	13789.45
913.79	13846.39
914.161	14850.88
914.532	14200.49
914.903	13036.09
915.274	12371.46
915.645	12178.84
916.015	10717.65
916.386	10231.22
916.756	10893.2
917.127	11225.87
917.497	10048.68
917.868	10942.58
918.238	10400.89
918.608	10692.32
918.978	10921.45
919.348	11558.75
919.718	11948.34
920.088	11528.56
920.458	11981.2
920.828	12603.11
921.198	11959.32
921.567	12771.16
921.937	9896.78
922.306	9989.35
922.676	10787.6
923.045	9022.98
923.415	8591.74
923.784	7819.78
924.153	8040.63
924.522	8036.23
924.891	7542.9
925.26	8072.68
925.629	7868.76
925.998	9034.4
926.367	8822.15
926.736	8417.26
927.104	9997.3
927.473	10724.59
927.842	12947.52
928.21	12783.57
928.578	13411.35
928.947	12689.9
929.315	12771.11
929.683	14987.62
930.051	15110.14
930.42	17526.17
930.788	14940.28
931.156	14797.37
931.523	13892.67
931.891	12819.2
932.259	12323.14
932.627	14282.31
932.994	20200.33
933.362	16713.8
933.729	14506.36
934.097	13854.37
934.464	11746.16
934.831	13523.86
935.199	13331.04
935.566	12891.52
935.933	13037.05
936.3	15758.25
936.667	12240.73
937.034	11120.1
937.401	10952.22
937.767	9470.36
938.134	8446.39
938.501	11869.29
938.867	12674.87
939.234	21417.21
939.6	18281.12
939.967	20257.18
940.333	13615.35
940.699	11614.07
941.065	9237.03
941.431	12172.53
941.798	11774.2
942.163	15489.03
942.529	9663.85
942.895	8902.44
943.261	5796.9
943.627	7616.88
943.992	6664.43
944.358	6669.68
944.723	6731.74
945.089	6565.53
945.454	6072.56
945.82	6450.56
946.185	6183.19
946.55	7182.18
946.915	6443.29
947.28	7549.31
947.645	6644.95
948.01	6149.79
948.375	6438.35
948.74	7670.21
949.104	8932.02
949.469	12800.54
949.834	22627.46
950.198	21629.82
950.562	13022.13
950.927	10821.15
951.291	12974.09
951.655	11064.77
952.02	10349.08
952.384	7801.07
952.748	6831.04
953.112	6718.27
953.476	5877.92
953.839	5425.85
954.203	5362.91
954.567	6673.89
954.931	10495.43
955.294	8996.12
955.658	9023.88
956.021	15375.71
956.385	25999.55
956.748	38260.3
957.111	58881.17
957.474	65950.78
957.837	74105.16
958.2	55707.37
958.563	20037.38
958.926	13581.62
959.289	20590.25
959.652	23021.37
960.015	17236.71
960.377	24718
960.74	28156.5
961.102	48582.69
961.465	52177.2
961.827	28437.83
962.189	54677.91
962.552	37962.8
962.914	30357.07
963.276	19650.42
963.638	16202.67
964	16038.32
964.362	10864.89
964.724	10470.33
965.085	7469.35
965.447	6136.95
965.809	6885.94
966.17	6869.33
966.532	7411.03
966.893	6806.39
967.255	6197.61
967.616	7321.56
967.977	5859.55
968.338	6388.91
968.699	5278.98
969.061	5284.02
969.421	5312.18
969.782	5968.63
970.143	5073.9
970.504	5310.71
970.865	6053.34
971.225	6217.08
971.586	6095.15
971.946	8672.75
972.307	7520.13
972.667	9798.48
973.027	10064.69
973.388	12151.82
973.748	8261.91
974.108	8977.46
974.468	11985.95
974.828	9287.55
975.188	7108.89
975.548	6503.12
975.907	5472.02
976.267	6135.61
976.627	5172.75
976.986	5359.83
977.346	5120.19
977.705	4947.01
978.064	4503.02
978.424	3762.77
978.783	3843.08
979.142	4393.58
979.501	4220.95
979.86	4468.26
980.219	4301.83
980.578	5523.3
980.937	6172.11
981.296	5497.62
981.654	5629.05
982.013	8740.29
982.371	11373.08
982.73	10682.83
983.088	12089.4
983.447	12907.67
983.805	18467.44
984.163	38635.71
984.521	42863.18
984.879	62834.7
985.237	-102347.23
985.595	99011.18
985.953	24633.62
986.311	14099.2
986.669	8183.63
987.026	7046.42
987.384	9440.32
987.741	9735.7
988.099	7007.82
988.456	5610.59
988.814	5275.94
989.171	4574.13
989.528	4480.95
989.885	4721.06
990.242	3765.24
990.599	4680.37
990.956	3831.58
991.313	2681.85
991.67	2206.89
992.027	2386.76
992.383	2104.75
992.74	1856.06
993.096	1972.99
993.453	2042.37
993.809	2104.79
994.165	2821.57
994.522	2630.21
994.878	2906.47
995.234	3648.19
995.59	3583.67
995.946	3313.06
996.302	3830.94
996.658	4390.4
997.013	4772.95
997.369	5729.95
997.725	7388.55
998.08	4757.91
998.436	7148.73
998.791	9878.47
999.147	9879.85
999.502	10798.37
999.857	7798.9
1000.212	12587.11
1000.567	17998.38
1000.922	10418.56
1001.277	6559.15
1001.632	4867.95
1001.987	6273.25
1002.342	4523.84
1002.696	3605.12
1003.051	2923.29
1003.406	3549.01
1003.76	3539.78
1004.114	3488.83
1004.469	2957.94
1004.823	2449.46
1005.177	2628.61
1005.531	2083
1005.885	1851.89
1006.239	2094.4
1006.593	2634.71
1006.947	3498.64
1007.301	2614.13
1007.655	2857.08
1008.008	2117.05
1008.362	2369.64
1008.715	3369.4
1009.069	3084.14
1009.422	4738.76
1009.776	9452.94
1010.129	6282.02
1010.482	5258.94
1010.835	4400.38
1011.188	9110.52
1011.541	8527.11
1011.894	-51742.6
1012.247	151403.69
1012.6	10268.88
1012.952	6499.52
1013.305	3239.21
1013.657	2359
1014.01	2232.16
1014.362	1810.95
1014.715	1657.5
1015.067	1468.35
1015.419	1440.73
1015.771	1284.7
1016.123	1158.51
1016.475	1204.93
1016.827	1278.22
1017.179	1414.22
1017.531	1415.65
1017.883	1450.94
1018.234	1471.26
1018.586	1840.58
1018.938	1997.32
1019.289	2770.78
1019.64	3127.07
1019.992	2886.12
1020.343	2636.02
1020.694	2132.76
1021.045	1873.01
1021.396	2129.65
1021.747	2295.14
1022.098	2648.45
1022.449	1919.8
1022.8	1741.77
1023.151	1234.13
1023.501	1114.11
1023.852	1202.09
1024.202	1254.26
1024.553	1356.54
1024.903	1355.77
1025.253	1191.81
1025.604	1087.52
1025.954	1339.77
1026.304	1612.39
1026.654	1884.07
1027.004	2715.22
1027.354	4342.11
1027.703	4137.26
1028.053	5274.77
1028.403	7690.68
1028.753	10696.12
1029.102	13851.08
1029.452	67470.76
1029.801	2884.35
1030.15	1832.74
1030.499	1489.91
897.758	2776.11
901.051	2731.7
904.343	2767.54
907.636	2767.74
910.928	2832.25
914.22	2739.05
917.511	2746.5
920.803	2812.5
924.094	2834.86
927.384	2809.14
930.675	2771.84
933.965	2721.65
937.255	2728.6
940.544	2696.07
943.834	2622.27
947.123	2568.76
950.411	2665.91
953.7	2634.73
956.988	2600.31
960.276	2540.59
963.563	2626.54
966.851	2616.17
970.138	2677.84
973.424	2667.55
976.711	2617.76
979.997	2762.64
983.283	2793.51
986.568	2693.25
989.853	2716.02
993.138	2741.27
996.423	2823.55
999.708	2754.3
1002.992	2828.58
1006.275	2649.34
1009.559	2702.62
1012.842	2817.16
1016.125	2747.4
1019.408	2726.69
1022.69	2818.17
1025.972	2832.11
1029.254	2804.01
1032.536	2729.87
1035.817	2760.35
1039.098	2695.27
1042.379	2855.13
1045.659	2845.86
1048.939	2777.93
1052.219	2797.01
1055.498	2811.08
1058.778	2791.97
1062.057	2777.86
1065.335	2797.9
1068.614	2820.04
1071.892	2797.77
1075.17	2877.93
1078.447	2859.47
1081.724	2851.7
1085.001	2887.54
1088.278	2862.21
1091.554	2873.1
1094.83	2870.87
1098.106	2896.17
1101.382	2944.17
1104.657	2939.57
1107.932	2935.24
1111.206	2896.42
1114.481	2855.63
1117.755	2858.62
1121.029	2833.19
1124.302	2885.03
1127.575	2833.96
1130.848	2819.98
1134.121	2776.48
1137.393	2721.82
1140.665	2792.31
1143.937	2764.86
1147.208	2727.58
1150.48	2762.64
1153.75	2746.35
1157.021	2783.9
1160.291	2751.05
1163.561	2793.05
1166.831	2785.55
1170.101	2819.34
1173.37	2798.84
1176.639	2738.78
1179.907	2802.28
1183.176	2802.98
1186.444	2812.97
1189.711	2840.08
1192.979	2850.24
1196.246	2808.52
1199.513	2827.21
1202.78	2822.69
1206.046	2831.75
1209.312	2855.13
1212.578	2882.61
1215.843	2831.44
1219.108	2806.91
1222.373	2831.91
1225.638	2793.73
1228.902	2776.63
1232.166	2746.79
1235.43	2729.57
1238.693	2753.07
1241.956	2752.33
1245.219	2791.93
1248.482	2784.07
1251.744	2778.66
1255.006	2933.72
1258.268	2888.74
1261.529	2831.36
1264.79	2838.28
1268.051	2939.22
1271.312	2955.29
1274.572	2916.5
1277.832	2904.31
1281.092	2893.5
1284.351	2863.46
1287.61	2839.43
1290.869	2754.1
1294.128	2723.23
1297.386	2823.42
1300.644	2811.47
1303.902	2824.51
1307.159	2683.05
1310.416	2738.22
1313.673	2762.03
1316.93	2749.44
1320.186	2794.22
1323.442	2839.69
1326.697	2825.41
1329.953	2821.52
1333.208	2840.36
1336.463	2822.91
1339.717	2757.95
1342.972	2901.79
1346.226	2882.48
1349.479	2813.77
1352.733	2779.98
1355.986	2813.12
1359.238	2790.76
1362.491	2793.7
1365.743	2798.3
1368.995	2794.12
1372.247	2813.59
1375.498	2839.4
1378.749	2848.36
1382	2807.23
1385.251	2863.21
1388.501	2829.96
1391.751	2812.46
1395	2787.34
1398.25	2821.06
1401.499	2828.57
1404.748	2753.87
1407.996	2745.92
1411.244	2732.2
1414.492	2711.31
1417.74	2690.68
1420.987	2702.84
1424.234	2760.79
1427.481	2741.98
1430.728	2802.23
1433.974	2774.45
1437.22	2794.43
1440.465	2796.91
1443.711	2752.64
1446.956	2790.22
1450.201	2779.5
1453.445	2824.31
1456.689	2801.28
1459.933	2809.55
1463.177	2842.88
1466.42	2811.78
1469.663	2792.87
1472.906	2782.01
1476.148	2862.97
1479.391	2815.77
1482.633	2785.63
1485.874	2794.97
1489.115	2775.15
1492.356	2781.77
1495.597	2759.46
1498.838	2759.17
1502.078	2724.28
1505.318	2669.41
1508.557	2711.19
1511.797	2677.58
1515.036	2755.17
1518.274	2744.4
1521.513	2719.56
1524.751	2741.94
1527.989	2747.29
1531.227	2758.62
1534.464	2745.42
1537.701	2772.06
1540.938	2791.25
1544.174	2742.71
1547.41	2741.77
1550.646	2778.98
1553.882	2809.12
1557.117	2860.53
1560.352	2873.17
1563.587	2834.83
1566.821	2788.96
1570.055	2828.18
1573.289	2795
1576.523	2871.07
1579.756	2875.66
1582.989	2893.53
1586.222	2851.86
1589.454	2892.42
1592.686	2860.83
1595.918	2884.95
1599.15	2868.78
1602.381	2952.8
1605.612	2901.48
1608.843	2993.51
1612.073	2905.23
1615.303	2889.82
1618.533	2878.23
1621.762	2884.51
1624.992	2875.36
1628.221	2857.3
1631.449	2841.54
1634.678	2902.26
1637.906	2852.87
1641.134	2893.98
1644.361	2847.85
1647.588	2836.96
1650.815	2850.97
1654.042	2836.1
1657.269	2863.91
1660.495	2808.45
1663.72	2833.15
1666.946	2799.48
1670.171	2738.29
1673.396	2713.01
1676.621	2707.01
1679.845	2732.56
1683.069	2757.09
1686.293	2804.04
1689.517	2768.5
1692.74	2695.56
1695.963	2729.34
1699.185	2740.79
1702.408	2717.4
1705.63	2761.61
1708.852	2773.85
1712.073	2743.22
1715.294	2724
1718.515	2789.45
1721.736	2732.62
1724.956	2733.38
1728.176	2762.29
1731.396	2782.06
1734.616	2775.27
1737.835	2801.22
1741.054	2781.89
1744.272	2776.73
1747.491	2806.63
1750.709	2867.05
1753.927	2763.29
1757.144	2814.58
1760.361	2851.01
1763.578	2848.01
1766.795	2789.28
1770.011	2798.04
1773.227	2843.46
1776.443	2879.66
1779.658	2924.36
1782.874	2870.56
1786.089	2846.05
1789.303	2849.82
1792.518	2854.71
1795.732	2844.11
1798.945	2851.11
1802.159	2904.47
1805.372	2800.97
1808.585	2782.62
1811.797	2782.67
1815.01	2837.3
1818.222	2834.26
1821.434	2804.15
1824.645	2866.35
1827.856	2847.82
1831.067	2884.26
1834.278	2850.72
1837.488	2834.12
1840.698	2991.39
1843.908	2913.08
1847.117	2876.92
1850.326	2753.1
1853.535	2869.36
1856.744	2904.58
1859.952	2820.77
1863.16	2824.19
1866.368	2853.16
1869.575	2957.97
1872.782	2845.5
1875.989	2788.64
1879.196	2884.06
1882.402	2880.97
1885.608	2926.31
1888.814	2823.59
1892.019	2714.83
1895.224	2769.67
1898.429	2756.01
1901.634	2732.44
1904.838	2712.3
1908.042	2767.2
1911.246	2771.74
1914.449	2696.32
1917.652	2700.02
1920.855	2682.19
1924.058	2736.07
1927.26	2776.16
1930.462	2803.41
1933.664	2826.95
1936.865	2764.23
1940.066	2769.89
1943.267	2713.94
1946.467	2730.46
1949.668	2760.01
1952.868	2827.13
1956.067	2802.72
1959.267	2731.62
1962.466	2759.25
1965.665	2744.77
1968.863	2739.42
1972.061	2757.15
1975.259	2755.61
1978.457	2837.51
1981.654	2795.83
1984.852	2795.31
1988.048	2720.3
1991.245	2726.15
1994.441	2811.53
1997.637	2800.18
2000.833	2782.89
2004.028	2826.84
2007.223	2876.06
2010.418	2851.92
2013.613	2813.96
2016.807	2780.17
2020.001	2790.8
2023.194	2836.72
2026.388	2814.75
2029.581	2759.22
2032.774	2808.95
2035.966	2811.17
2039.158	2737.6
2042.35	2768.83
2045.542	2692.79
2048.733	2799.25
2051.924	2825.27
2055.115	2854.16
2058.306	2796.21
2061.496	2853.18
2064.686	2922.1
2067.875	2833.5
2071.065	2851.68
2074.254	2882.16
2077.442	2831.75
2080.631	2925.08
2083.819	2804.9
2087.007	2786.27
2090.195	2755.46
2093.382	2792.07
2096.569	2771.07
2099.756	2719.74
2102.942	2742.58
2106.128	2746.54
2109.314	2736.17
2112.5	2694.25
2115.685	2672.64
2118.87	2684.14
2122.055	2748.76
2125.239	2711.5
2128.424	2683.38
2131.608	2796.65
2134.791	2778.58
2137.974	2841.35
2141.157	2824.73
2144.34	2773.39
2147.523	2792.79
2150.705	2803.98
2153.887	2785.48
2157.068	2732.09
2160.25	2738.28
2163.431	2779.59
2166.611	2718.95
2169.792	2737.16
2172.972	2623.11
2176.152	2710.04
2179.331	2746.72
2182.511	2725.59
2185.69	2757.8
2188.868	2748.18
2192.047	2812.7
2195.225	2796.78
2198.403	2748.34
2201.58	2740.74
2204.758	2735.9
2207.935	2824.85
2211.111	2705.82
2214.288	2690.5
2217.464	2731.7
2220.64	2704.21
2223.815	2764.23
2226.991	2679.45
2230.166	2700.64
2233.34	2725.55
2236.515	2754.72
2239.689	2834.25
2242.863	2775.61
2246.036	2832.97
2249.209	2834.38
2252.382	2872.64
2255.555	2856.55
2258.727	2789.86
2261.9	2830.87
2265.071	2821.94
2268.243	2827.02
2271.414	2756
2274.585	2708.86
2277.756	2780.86
2280.926	2736.62
2284.096	2779
2287.266	2681.91
2290.436	2740.67
2293.605	2771.77
2296.774	2802.37
2299.942	2828.46
2303.111	2846.43
2306.279	2893.97
2309.447	2880.21
2312.614	2855.19
2315.781	2873.05
2318.948	2843.55
2322.115	2883.01
2325.281	2782.85
2328.447	2804.94
2331.613	2781.77
2334.779	2749.49
2337.944	2755.96
2341.109	2754.41
2344.274	2736.12
2347.438	2698.53
2350.602	2726.63
2353.766	2742.61
2356.929	2727.13
2360.092	2772.6
2363.255	2722.29
2366.418	2646.69
2369.58	2772.31
2372.742	2536.09
2375.904	2553.9
2379.066	2529.43
2382.227	2568.3
2385.388	2529.18
2388.548	2451.67
2391.709	2511.21
2394.869	2487.21
2398.029	2593.34
2401.188	2613.3
2404.347	2539.29
2407.506	2697.87
2410.665	2723.79
2413.823	2733.79
2416.981	2686.55
2420.139	2722.98
2423.296	2772.62
2426.453	2744.98
2429.61	2770.59
2432.767	2698.33
2435.923	2732.9
2439.079	2690.56
2442.235	2743.06
2445.391	2668.38
2448.546	2695.64
2451.701	2748.95
2454.855	2715.2
2458.009	2775.3
2461.163	2780.44
2464.317	2734.48
2467.471	2769.73
2470.624	2815.45
2473.777	2789.92
2476.929	2803.11
2480.082	2830.65
2483.234	2793.05
2486.385	2747.12
2489.537	2738.15
2492.688	2694.24
2495.839	2710.98
2498.989	2723.49
2502.14	2707.56
2505.29	2685.51
2508.439	2713.46
2511.589	2630.72
2514.738	2642.37
2517.887	2675.39
2521.035	2739.46
2524.183	2726.05
2527.331	2704.03
2530.479	2674.18
2533.627	2685.43
