Data from C_3_HIR_IL_4N_Splice17_13-39-08-071.txt Node
Date: Sat Mar 14 13:39:08 EDT 2020
User: sa697716
Spectrometer: FLMS03696
Trigger mode: 0
Integration Time (sec): 3.180400E-1
Scans to average: 20
Electric dark correction enabled: true
Nonlinearity correction enabled: true
Boxcar width: 5
XAxis mode: Wavelengths
Number of Pixels in Spectrum: 2048
>>>>>Begin Spectral Data<<<<<
187.83	-483523.89
188.298	3434.4
188.766	1815.67
189.233	1590.18
189.701	2201.13
190.169	3145.85
190.636	1238.94
191.104	1005.37
191.571	188.86
192.039	-78.5
192.506	-126.7
192.974	573.07
193.441	-960.96
193.908	-214.63
194.375	-117.16
194.842	-32.91
195.31	112.93
195.777	199.9
196.244	502
196.711	587.29
197.177	740.57
197.644	1047.54
198.111	1834.1
198.578	2566.36
199.045	2049.4
199.511	3321.4
199.978	3845.89
200.445	3251.41
200.911	3578.93
201.378	3953.71
201.844	3563.27
202.31	6040.74
202.777	6246.24
203.243	3450.98
203.709	3272.68
204.176	3857.5
204.642	3198.54
205.108	2993.46
205.574	2425.15
206.04	2208.61
206.506	2068.23
206.972	1948.65
207.438	1869.37
207.903	2123.41
208.369	1832.13
208.835	1807.2
209.301	1895.56
209.766	1903.37
210.232	1855.17
210.697	2277.76
211.163	2785.4
211.628	4147.32
212.094	3451.48
212.559	4228.84
213.024	2620.64
213.49	3241.8
213.955	3151.81
214.42	3039.37
214.885	2845.9
215.35	2732.71
215.815	2639.74
216.28	2788.1
216.745	2239.93
217.21	2374.48
217.675	2114.19
218.14	2325.68
218.604	2486.73
219.069	2750.8
219.534	2819.31
219.998	3158.02
220.463	3714.59
220.927	4411.79
221.392	4056.96
221.856	4033.94
222.32	4999.09
222.785	6092.77
223.249	7551.38
223.713	8373.27
224.177	8328.15
224.642	10575.02
225.106	12955.42
225.57	14069.68
226.034	10483.48
226.497	15881.44
226.961	14347.97
227.425	16631.4
227.889	18368.23
228.353	18308.47
228.816	37597.29
229.28	35914.74
229.744	30231.33
230.207	18386.77
230.671	18040.75
231.134	29596.17
231.597	34196.3
232.061	34053.35
232.524	33230.64
232.987	22871.9
233.45	20603.22
233.914	18509.89
234.377	18912.5
234.84	17326.55
235.303	20410.61
235.766	22821.89
236.229	23608.15
236.691	14862.9
237.154	16732.53
237.617	12598.08
238.08	12931.87
238.542	15134.97
239.005	10836.99
239.468	10774.74
239.93	10161.78
240.393	9240.7
240.855	8123.84
241.317	8334.89
241.78	10120.62
242.242	10472.49
242.704	11360.53
243.166	9910.62
243.629	9049.91
244.091	10435.51
244.553	11444.41
245.015	12332.69
245.477	15956.64
245.939	23405.44
246.4	24880.73
246.862	24237.42
247.324	22856.69
247.786	25547.34
248.247	33482.87
248.709	34403.68
249.17	25810.58
249.632	24451.26
250.093	28400.49
250.555	24584.93
251.016	15014.1
251.477	14256.2
251.939	15423.77
252.4	16219.92
252.861	19270.65
253.322	17980.11
253.783	21436.18
254.244	27780.29
254.705	21885.66
255.166	19448.21
255.627	19139.66
256.088	27059.3
256.549	28773.49
257.009	24774.8
257.47	30009.3
257.931	24452.98
258.391	18311.34
258.852	18880.03
259.312	19760.97
259.773	24353.23
260.233	20611.13
260.694	17416.83
261.154	19724.6
261.614	15854.22
262.074	14158.79
262.534	14731.44
262.994	13892.8
263.455	18485.81
263.915	15583.59
264.374	14659.29
264.834	15998.72
265.294	17698.57
265.754	18311.75
266.214	17305.27
266.673	16203.08
267.133	20433.9
267.593	20252.17
268.052	24781.05
268.512	21518.47
268.971	25976.03
269.431	28524.72
269.89	25548.53
270.349	38302.9
270.809	42728.14
271.268	38437.27
271.727	85882.58
272.186	55654.22
272.645	41718.77
273.104	30006.4
273.563	43496.45
274.022	34070.12
274.481	28997.13
274.94	22323.25
275.399	16573.98
275.857	19247.25
276.316	26014.92
276.775	23191.44
277.233	22835.45
277.692	21420.59
278.15	24318.95
278.609	25102.04
279.067	23279.27
279.525	21678.29
279.984	28026.27
280.442	33700.02
280.9	33377.31
281.358	21997.78
281.816	20509.79
282.274	20067.12
282.732	20704.62
283.19	20769.29
283.648	17892.03
284.106	19072.21
284.564	19358.24
285.021	17980.95
285.479	13369.33
285.937	12135.65
286.394	10648.78
286.852	10962.97
287.309	11560.36
287.767	11201.06
288.224	10667.67
288.682	11711.11
289.139	12858.95
289.596	11777.15
290.053	12220.87
290.511	15440.19
290.968	18724.83
291.425	25392.92
291.882	21195.43
292.339	18456.98
292.796	18284.08
293.252	17218.59
293.709	13682.21
294.166	12276.94
294.623	13567.09
295.079	13023.87
295.536	13131.07
295.992	11923.52
296.449	11815.13
296.905	12282.46
297.362	11793.38
297.818	12411.87
298.274	12906.7
298.731	13139.38
299.187	12993.09
299.643	13965.08
300.099	16911.25
300.555	18506.89
301.011	15484.06
301.467	14963.67
301.923	17484.01
302.379	17087.34
302.835	16786.39
303.291	16834.98
303.746	19161.65
304.202	24229.61
304.658	24324.03
305.113	16366.83
305.569	16077.28
306.024	17145.48
306.479	16268.04
306.935	13745.37
307.39	14964.47
307.845	13835.12
308.301	13915.9
308.756	13574.21
309.211	13083.98
309.666	13408.27
310.121	16661.84
310.576	16912.36
311.031	16758.77
311.486	19206.01
311.94	19167.91
312.395	25672.87
312.85	48287.37
313.305	237050.78
313.759	1231874.55
314.214	89320.97
314.668	71007.13
315.123	59985.18
315.577	21571.72
316.032	19274.49
316.486	24168.91
316.94	19172.39
317.394	13394.76
317.849	10418.51
318.303	9848.04
318.757	9291.24
319.211	10292.61
319.665	8992.17
320.119	9071.8
320.572	12986.04
321.026	12130.29
321.48	10111.2
321.934	10982.05
322.387	10959.95
322.841	11820.79
323.295	10720.22
323.748	12315.2
324.202	12512.56
324.655	15053.43
325.108	21118.1
325.562	14914.31
326.015	17719.76
326.468	13387.71
326.921	15011.73
327.374	14037.48
327.827	14673.1
328.28	16540.6
328.733	11119.21
329.186	9767.86
329.639	9309.84
330.092	7833.41
330.545	7487.63
330.997	7568.24
331.45	8299.59
331.903	9754.51
332.355	16794.18
332.808	16327.99
333.26	13481.93
333.713	14670.93
334.165	14779.46
334.617	19730.03
335.069	15931.58
335.522	28709.53
335.974	31799.56
336.426	29047.25
336.878	20040.23
337.33	10178.33
337.782	9916.12
338.234	12448.74
338.686	14870.2
339.137	17625.53
339.589	16587
340.041	12997.45
340.493	11210.91
340.944	11478.87
341.396	12391.9
341.847	10455.58
342.299	12368.03
342.75	15154.86
343.201	13196.33
343.653	15190.75
344.104	18697.46
344.555	14732.01
345.006	22938.12
345.457	17655.28
345.908	14016.76
346.359	13187.95
346.81	10727.35
347.261	11280.55
347.712	11092.49
348.163	11913.74
348.613	12096.49
349.064	11297.98
349.515	9923.26
349.965	10201.79
350.416	12240.74
350.866	13422.55
351.317	15137.87
351.767	25135.89
352.217	31791.15
352.668	26357.86
353.118	24156.91
353.568	23228.42
354.018	18365.04
354.468	19359.87
354.918	13839.06
355.368	12104.19
355.818	17109.66
356.268	49205.84
356.718	206289.5
357.168	51425.24
357.617	25804.92
358.067	28622.97
358.517	26804.22
358.966	31529.61
359.416	35401.24
359.865	38349.36
360.315	45644.99
360.764	21322.01
361.213	11976.02
361.663	11293.31
362.112	13912.08
362.561	22503.3
363.01	17002.2
363.459	14361.14
363.908	15501.61
364.357	13188.52
364.806	22260.89
365.255	15305.79
365.703	14056.74
366.152	14092.04
366.601	11439.04
367.05	9298.21
367.498	8462.56
367.947	8818.98
368.395	9147.2
368.844	8119.69
369.292	9734.46
369.74	6745.99
370.189	10321.65
370.637	12110.43
371.085	10417.37
371.533	12675.57
371.981	12207.82
372.429	11676.37
372.877	12199.74
373.325	10240.75
373.773	10392.67
374.221	9244.5
374.669	11439.48
375.116	9868.53
375.564	9930.15
376.012	11112.92
376.459	9179.7
376.907	10961.2
377.354	13204.18
377.801	12345.91
378.249	14161.22
378.696	18113.05
379.143	21987.14
379.591	23412.92
380.038	39719.58
380.485	28843.52
380.932	31167.67
381.379	28682.66
381.826	21227.39
382.273	15148.64
382.72	13239.81
383.166	12963.64
383.613	8470.25
384.06	7683.05
384.506	8988.98
384.953	6672.99
385.4	6763.29
385.846	6025.79
386.292	5941.86
386.739	5924.82
387.185	5968.64
387.631	6148.17
388.078	6159.59
388.524	6801.35
388.97	6464.37
389.416	5509.97
389.862	5972.87
390.308	5754.67
390.754	5957.51
391.2	6656.62
391.645	7059.23
392.091	7064.28
392.537	7084.16
392.983	7305.56
393.428	7359.14
393.874	8095.61
394.319	8461.77
394.765	8488.26
395.21	9347.34
395.655	9399.71
396.101	9413.9
396.546	9057.9
396.991	9732.57
397.436	9645.07
397.881	9989.11
398.326	10209.95
398.771	10372.24
399.216	9718.59
399.661	9300.64
400.106	9765.63
400.551	10501.73
400.995	9844.72
401.44	10128.1
401.885	9845.69
402.329	10264.2
402.774	10118.77
403.218	10025.87
403.663	9944.52
404.107	10515.8
404.551	10923.24
404.995	10365.95
405.44	10356.81
405.884	10903.59
406.328	10919.6
406.772	11231.09
407.216	10539.12
407.66	10553.88
408.104	10459.71
408.547	10172.71
408.991	10182.14
409.435	10109.98
409.879	10211.62
410.322	10310.65
410.766	10187.92
411.209	9930.86
411.653	9815.05
412.096	9881.75
412.54	10153.7
412.983	10308.94
413.426	10530.04
413.869	10757.7
414.312	10738.27
414.756	10573.95
415.199	10292.23
415.642	10172.34
416.085	10354.4
416.527	10441.46
416.97	10768.27
417.413	10319.77
417.856	10335.86
418.298	10324.23
418.741	10311.69
419.184	10356.2
419.626	10857.62
420.069	10908.09
420.511	11020.23
420.953	10853.45
421.396	10845.16
421.838	10677.75
422.28	11024.62
422.722	11166.29
423.164	11496.81
423.606	11461.63
424.048	11632.13
424.49	11172.77
424.932	11266.69
425.374	11255.94
425.816	11539.69
426.258	11728.38
426.699	11730.69
427.141	11326.3
427.582	11323.02
428.024	11143.42
428.465	11114.64
428.907	10950.21
429.348	11009.02
429.789	11157.12
430.231	11027.01
430.672	11301.86
431.113	11235.22
431.554	11384.83
431.995	11566.76
432.436	11547.51
432.877	11642.85
433.318	11660.33
433.759	11807.04
434.2	11946.03
434.64	11958.36
435.081	12139.97
435.522	11673.53
435.962	11446.79
436.403	11357.54
436.843	11691.92
437.284	11610.25
437.724	11442.16
438.164	11627.16
438.604	11464.28
439.045	11091.24
439.485	10703.74
439.925	10606.75
440.365	10461.51
440.805	10420.21
441.245	10336.17
441.685	9997.44
442.125	9970.08
442.564	10055.28
443.004	9816.68
443.444	9809.09
443.883	9846.31
444.323	9855.74
444.762	9963.7
445.202	10141.29
445.641	10318.22
446.081	10340.93
446.52	10435.47
446.959	10358.71
447.398	10137.43
447.837	10075.24
448.276	9951.31
448.716	10071.4
449.154	10173.44
449.593	9873.26
450.032	9791.37
450.471	9609.08
450.91	9576.55
451.349	9485.55
451.787	9402.58
452.226	9479.72
452.664	9411.77
453.103	9354.77
453.541	9271.42
453.98	9122.78
454.418	9107.3
454.856	8862.59
455.295	8779.01
455.733	8738.19
456.171	8713.81
456.609	8625.67
457.047	8519.79
457.485	8539.44
457.923	8471.53
458.361	8311.53
458.798	8320.78
459.236	8274.9
459.674	8351.27
460.111	8368.92
460.549	8300.83
460.987	8300.7
461.424	8293.94
461.862	8286.06
462.299	8184.57
462.736	8174.42
463.173	8229.43
463.611	8118.3
464.048	8118.09
464.485	8199.93
464.922	8164.6
465.359	8169.15
465.796	7966.39
466.233	7951.21
466.67	7891.47
467.106	7898.67
467.543	7886.88
467.98	7828.33
468.416	7706.43
468.853	7697.71
469.29	7507.3
469.726	7455.73
470.162	7277.63
470.599	7301.13
471.035	7254.08
471.471	7101.82
471.907	7093.84
472.344	7051.57
472.78	7041.26
473.216	7110.87
473.652	6987.44
474.088	6940.86
474.523	6858.91
474.959	6878.55
475.395	6765.07
475.831	6658.09
476.266	6636.46
476.702	6558.72
477.138	6415.31
477.573	6329.1
478.008	6229.26
478.444	6167.19
478.879	6125.31
479.314	6073.76
479.75	5987.75
480.185	5942.59
480.62	5917.63
481.055	5870.6
481.49	5819.36
481.925	5813.64
482.36	5799.38
482.795	5868.51
483.229	5942.37
483.664	5971.8
484.099	5904.35
484.534	5898.02
484.968	5866.59
485.403	5806.76
485.837	5734.7
486.271	5656.59
486.706	5597.99
487.14	5502.43
487.574	5365.38
488.009	5273.36
488.443	5187.31
488.877	5185.31
489.311	5160.72
489.745	5171.67
490.179	5169.84
490.613	5198.34
491.046	5199.35
491.48	5197.53
491.914	5158.53
492.348	5157.51
492.781	5147.78
493.215	5127.28
493.648	5115
494.082	5122.5
494.515	5092.74
494.948	5108.29
495.382	5118.43
495.815	5111.39
496.248	5107.9
496.681	5158.63
497.114	5199.91
497.547	5220.3
497.98	5251.81
498.413	5230.48
498.846	5238.44
499.279	5246.22
499.711	5228.98
500.144	5193.64
500.577	5202.25
501.009	5221.66
501.442	5222.31
501.874	5166.67
502.306	5134
502.739	5114.76
503.171	5164.15
503.603	5131.82
504.036	5131.08
504.468	5105.77
504.9	5112.39
505.332	5094.37
505.764	5056.76
506.196	5037.19
506.627	5056.48
507.059	5062.62
507.491	5060.02
507.923	4972.74
508.354	4981.69
508.786	4969.67
509.217	4990.53
509.649	4996.51
510.08	5021.85
510.512	5028.39
510.943	5030.68
511.374	5015.41
511.805	5036.94
512.237	5055.98
512.668	5137.7
513.099	5189.75
513.53	5230.88
513.961	5236.41
514.391	5286.85
514.822	5332.86
515.253	5397.2
515.684	5416.24
516.114	5450.44
516.545	5448.39
516.975	5466.32
517.406	5450.38
517.836	5381.31
518.267	5331.93
518.697	5327.6
519.127	5276.44
519.558	5239.31
519.988	5189.1
520.418	5164.42
520.848	5164.94
521.278	5137.96
521.708	5037.45
522.138	5027.8
522.567	5077.14
522.997	5105.59
523.427	5102.58
523.857	5101.89
524.286	5085.06
524.716	5085.97
525.145	5097.21
525.575	5089.81
526.004	5096.61
526.433	5127.31
526.863	5092.97
527.292	5027.84
527.721	5015.09
528.15	5010.52
528.579	4992.19
529.008	5004.45
529.437	5050.2
529.866	5068.59
530.295	5093.63
530.724	5102.24
531.152	5155.48
531.581	5170.26
532.01	5200.89
532.438	5206.03
532.867	5230.17
533.295	5264.33
533.723	5264.42
534.152	5242.34
534.58	5226.9
535.008	5170.88
535.436	5164.05
535.865	5176.05
536.293	5208.56
536.721	5241.23
537.149	5298.51
537.576	5292.72
538.004	5320.51
538.432	5337.14
538.86	5326.96
539.287	5345.09
539.715	5380.07
540.143	5391.6
540.57	5383.47
540.998	5378.79
541.425	5316.15
541.852	5269.1
542.28	5276.29
542.707	5242.36
543.134	5213.63
543.561	5211.28
543.988	5199.85
544.415	5211.22
544.842	5205.47
545.269	5192.5
545.696	5204.83
546.123	5257.86
546.549	5237.59
546.976	5207.41
547.403	5213.97
547.829	5229.78
548.256	5248.07
548.682	5246.68
549.108	5231.64
549.535	5241.15
549.961	5257.26
550.387	5228.16
550.813	5215.89
551.24	5242.95
551.666	5254.76
552.092	5234.67
552.518	5225.47
552.943	5212.34
553.369	5243.3
553.795	5268.3
554.221	5274.65
554.646	5270.53
555.072	5300.47
555.498	5321.15
555.923	5349.41
556.349	5393.6
556.774	5419.51
557.199	5422.03
557.625	5446.76
558.05	5429.39
558.475	5461.91
558.9	5460.68
559.325	5438.25
559.75	5426.09
560.175	5411.07
560.6	5397.64
561.025	5395.15
561.449	5402.26
561.874	5420.65
562.299	5429.23
562.723	5450.37
563.148	5416.59
563.572	5424.95
563.997	5452.9
564.421	5466.56
564.846	5464.19
565.27	5466.8
565.694	5455.91
566.118	5480.11
566.542	5492.21
566.966	5465.73
567.39	5442.38
567.814	5402.72
568.238	5397.6
568.662	5409.12
569.086	5413.72
569.509	5439.6
569.933	5399.6
570.357	5390.08
570.78	5342.25
571.204	5318.42
571.627	5308.42
572.05	5329.64
572.474	5356.12
572.897	5350.81
573.32	5359.19
573.743	5368.54
574.166	5344.43
574.589	5383.01
575.012	5394.67
575.435	5432
575.858	5444.03
576.281	5450.76
576.704	5441.87
577.126	5447.98
577.549	5453.34
577.972	5465.82
578.394	5469.18
578.817	5480.25
579.239	5458.67
579.661	5452.71
580.084	5433.52
580.506	5429.3
580.928	5455.59
581.35	5457.29
581.772	5476.1
582.194	5463.94
582.616	5450.35
583.038	5435.82
583.46	5435.43
583.882	5453.54
584.303	5500.46
584.725	5519.81
585.147	5535.03
585.568	5591.36
585.99	5646.45
586.411	5683.73
586.833	5749.17
587.254	5768.81
587.675	5837.05
588.096	5901.12
588.518	5896.11
588.939	5846.29
589.36	5849.55
589.781	5844.43
590.202	5741.29
590.623	5726.78
591.043	5734.72
591.464	5698.34
591.885	5691.03
592.305	5675.85
592.726	5624.89
593.147	5626.99
593.567	5602.71
593.987	5567.04
594.408	5538.39
594.828	5531.6
595.248	5491.43
595.669	5400.02
596.089	5355.44
596.509	5313.99
596.929	5238.67
597.349	5218.14
597.769	5158.26
598.189	5108.55
598.608	5089.14
599.028	5070.64
599.448	5048.17
599.867	4983.2
600.287	4953.43
600.706	4918.25
601.126	4865.29
601.545	4845.45
601.965	4830.02
602.384	4803.44
602.803	4808.97
603.222	4785.97
603.641	4762.18
604.061	4747.94
604.48	4738.36
604.898	4772.26
605.317	4799.35
605.736	4816.35
606.155	4817.44
606.574	4797.28
606.992	4830.06
607.411	4827.31
607.829	4819.05
608.248	4828.31
608.666	4841.06
609.085	4859.08
609.503	4847.02
609.921	4844.5
610.339	4874.46
610.758	4896.06
611.176	4903.54
611.594	4892.31
612.012	4904.27
612.43	4935.69
612.847	4981.43
613.265	5001.25
613.683	5039.91
614.101	5068.68
614.518	5080.56
614.936	5066.73
615.353	5033.29
615.771	5042.52
616.188	5066.72
616.606	5075.4
617.023	5072.75
617.44	5039.62
617.857	5040.94
618.274	5029.67
618.691	5022.74
619.108	5004.18
619.525	4997.32
619.942	5036.94
620.359	5059.48
620.776	5050.53
621.192	5040.31
621.609	5038.13
622.026	5067.58
622.442	5096.44
622.859	5115.48
623.275	5093.6
623.691	5121.08
624.108	5171.25
624.524	5235.78
624.94	5239.94
625.356	5284.16
625.772	5346.57
626.188	5401.36
626.604	5413.48
627.02	5400.75
627.436	5394.19
627.852	5423.96
628.268	5474.77
628.683	5443.9
629.099	5415.83
629.514	5407.5
629.93	5433.01
630.345	5460.96
630.761	5456.12
631.176	5484.29
631.591	5467.2
632.007	5458.65
632.422	5473.76
632.837	5447.89
633.252	5454.29
633.667	5433.28
634.082	5415.71
634.497	5384.75
634.911	5323.37
635.326	5336.58
635.741	5291.6
636.155	5285.8
636.57	5320.6
636.984	5353.56
637.399	5392.15
637.813	5433.21
638.228	5467.13
638.642	5531.47
639.056	5531.24
639.47	5582.98
639.884	5590.82
640.298	5611.46
640.712	5654.25
641.126	5647.55
641.54	5661.69
641.954	5701.22
642.368	5694.74
642.781	5699.77
643.195	5667.31
643.609	5722.79
644.022	5748.13
644.436	5782.05
644.849	5777.27
645.262	5769.95
645.676	5835.74
646.089	5856.4
646.502	5813.24
646.915	5832.71
647.328	5796.28
647.741	5825.68
648.154	5795.81
648.567	5802.67
648.98	5759.75
649.393	5796.13
649.805	5810.32
650.218	5802.21
650.631	5736.86
651.043	5734.91
651.456	5724.41
651.868	5754.25
652.28	5878.82
652.693	5973.47
653.105	6026.78
653.517	6087.06
653.929	6088.61
654.341	6129.85
654.753	6066.18
655.165	6130.63
655.577	6145.22
655.989	6157.01
656.401	6155.26
656.813	5971.28
657.224	5905.04
657.636	5805.15
658.047	5761.8
658.459	5714.26
658.87	5734.78
659.282	5732.3
659.693	5656.38
660.104	5618.13
660.515	5587.75
660.926	5632.75
661.338	5678.69
661.749	5695.54
662.159	5679.99
662.57	5715.46
662.981	5738.71
663.392	5735.94
663.803	5813.59
664.213	5853.27
664.624	5876.8
665.035	5948.58
665.445	5896.54
665.855	5881.21
666.266	5853.86
666.676	5876.8
667.086	5843.23
667.497	5862.6
667.907	5844.36
668.317	5800
668.727	5768.92
669.137	5796.86
669.547	5792.6
669.956	5828.27
670.366	5856.12
670.776	5878.33
671.186	5917.9
671.595	5945.11
672.005	5981.79
672.414	5968
672.824	5947.23
673.233	6005.54
673.642	6013.89
674.052	6025.17
674.461	6022.99
674.87	6053.02
675.279	6015.46
675.688	6024.6
676.097	6012.24
676.506	5971.8
676.915	6076.07
677.323	6084.71
677.732	6055.72
678.141	6039.68
678.549	5947.96
678.958	5931.53
679.366	5909.48
679.775	5936.75
680.183	5963.84
680.592	5983.54
681	5991.44
681.408	5896.04
681.816	5908.42
682.224	5925.93
682.632	5924.67
683.04	6064.81
683.448	6141.99
683.856	6221.43
684.264	6302.05
684.671	6364.5
685.079	6452.41
685.487	6548.34
685.894	6738.37
686.302	6837.95
686.709	6853.97
687.116	6903.95
687.524	6882.76
687.931	6839.76
688.338	6788.53
688.745	6734.59
689.152	6688.91
689.559	6681.51
689.966	6650.88
690.373	6513.66
690.78	6455.27
691.187	6484.34
691.593	6438.45
692	6371.93
692.407	6373.09
692.813	6414.44
693.22	6403.63
693.626	6411.19
694.032	6375.66
694.439	6430.04
694.845	6437.55
695.251	6494.04
695.657	6523.73
696.063	6651.42
696.469	6694.95
696.875	6724.45
697.281	6676.98
697.687	6648.05
698.093	6593.07
698.498	6631.86
698.904	6629.48
699.31	6701.82
699.715	6709.21
700.12	6797.1
700.526	6723.37
700.931	6778.55
701.337	6796.03
701.742	6782.1
702.147	6881.78
702.552	6866.62
702.957	6921.21
703.362	6892.98
703.767	6886.72
704.172	6912.71
704.577	6758.09
704.981	6795.83
705.386	6768.32
705.791	6696.18
706.195	6784.91
706.6	6747.59
707.004	6857.48
707.408	6748.57
707.813	6753.51
708.217	6683.03
708.621	6640.17
709.025	6777.62
709.43	6732.46
709.834	6799.29
710.237	6886.71
710.641	6819.54
711.045	6819.04
711.449	6764.49
711.853	6770.36
712.256	6801.84
712.66	6827.29
713.064	6909.23
713.467	6919.87
713.87	7036.57
714.274	7017.44
714.677	7083.69
715.08	7219.27
715.484	7349.19
715.887	7512.2
716.29	7662.17
716.693	7807.67
717.096	7994.17
717.499	8034.87
717.901	7957.92
718.304	7938.26
718.707	7965.84
719.109	7851.48
719.512	7853.42
719.915	7705.37
720.317	7671.87
720.719	7770.79
721.122	7762.86
721.524	7712.48
721.926	7658.49
722.328	7791.79
722.731	7740.73
723.133	7722.53
723.535	7933.21
723.937	7891.69
724.338	7904.19
724.74	7907.88
725.142	7773.75
725.544	7752.16
725.945	7770.46
726.347	7755.32
726.748	7734.13
727.15	7744.12
727.551	7683.02
727.952	7631.16
728.354	7582.7
728.755	7585.09
729.156	7545.51
729.557	7566.47
729.958	7422.78
730.359	7385.22
730.76	7405.29
731.161	7371.96
731.562	7383.79
731.962	7436.29
732.363	7388.84
732.763	7337.33
733.164	7421.05
733.564	7347.05
733.965	7219.91
734.365	7182.99
734.766	7230.63
735.166	7170.99
735.566	7080.93
735.966	7033.85
736.366	7014.71
736.766	6918.78
737.166	6962.51
737.566	6904.21
737.966	6862.38
738.365	6916.34
738.765	6900.31
739.165	6788.81
739.564	6747.8
739.964	6815.85
740.363	6754.65
740.763	6758.29
741.162	6747.22
741.561	6699.92
741.96	6633.72
742.36	6666.04
742.759	6677.56
743.158	6738.85
743.557	6760.63
743.955	6820.67
744.354	6751.4
744.753	6827.86
745.152	6762.27
745.55	6836.14
745.949	6820.04
746.348	6810.65
746.746	6822.21
747.144	6751.38
747.543	6707.05
747.941	6760.89
748.339	6644.76
748.737	6621.9
749.136	6596.23
749.534	6674.3
749.932	6617.99
750.33	6639.35
750.727	6707.9
751.125	6666.65
751.523	6637.11
751.921	6685.45
752.318	6629.72
752.716	6700.34
753.113	6705.6
753.511	6728.01
753.908	6714.55
754.305	6679.66
754.703	6751.75
755.1	6817.53
755.497	6881.33
755.894	7109
756.291	7274.71
756.688	7571.02
757.085	7916.57
757.482	8394.34
757.878	8850.49
758.275	9182.07
758.672	9740.21
759.068	10096.06
759.465	10702.93
759.861	11497
760.258	12394.79
760.654	12680.75
761.05	12354
761.447	11783.13
761.843	11110.28
762.239	10469.66
762.635	10291.65
763.031	10098.83
763.427	9712.85
763.822	9299.86
764.218	8906.1
764.614	8316.73
765.01	7976.88
765.405	7809.81
765.801	7709.7
766.196	7498.3
766.592	7428.72
766.987	7186.43
767.382	7036.08
767.778	7019.51
768.173	6930.9
768.568	6892.32
768.963	6776.15
769.358	6829.6
769.753	6790.87
770.148	6696.48
770.542	6705.24
770.937	6672.17
771.332	6789.4
771.726	6812.39
772.121	6724.94
772.515	6785.03
772.91	6761.8
773.304	6844.53
773.699	6750.11
774.093	6813.59
774.487	6874.61
774.881	6916.72
775.275	6898.51
775.669	6833.87
776.063	6881.12
776.457	6914.5
776.851	6810.13
777.245	6787.56
777.638	6819.28
778.032	6949.63
778.425	6888.81
778.819	6932.38
779.212	6871.79
779.606	6808.93
779.999	6817.37
780.392	6779.94
780.786	6865.02
781.179	6876.64
781.572	6916.2
781.965	6910.97
782.358	6826.76
782.751	6880.63
783.143	6801.58
783.536	6868.02
783.929	6899.01
784.322	7016.77
784.714	7033.03
785.107	7005.22
785.499	7068.6
785.891	7011.35
786.284	6960.69
786.676	7094.81
787.068	7037.58
787.46	7064.96
787.852	7053.78
788.245	7121.31
788.636	7126.09
789.028	7174.2
789.42	7188.76
789.812	7166.29
790.204	7247.56
790.595	7337.74
790.987	7096.8
791.378	7105.16
791.77	7234.97
792.161	7364.15
792.553	7408.94
792.944	7262.69
793.335	7165.23
793.726	7223.13
794.117	7304.4
794.508	7440.84
794.899	7388.52
795.29	7528.66
795.681	7570.02
796.072	7392.55
796.463	7179.95
796.853	7171.1
797.244	7318.88
797.634	7330.19
798.025	7308.55
798.415	7295.51
798.806	7362.5
799.196	7422.74
799.586	7441.25
799.976	7366.4
800.366	7575.18
800.756	7788
801.146	7711.27
801.536	7714.98
801.926	7765.15
802.316	7768.95
802.706	7819.63
803.095	7676.7
803.485	7765.13
803.874	7788.39
804.264	8036.33
804.653	7990.85
805.043	8119.12
805.432	8206.73
805.821	8185.19
806.21	8175.67
806.599	8260
806.988	8267.94
807.377	8322.49
807.766	8402.25
808.155	8627.19
808.544	8318.88
808.933	8277.41
809.321	8201.28
809.71	8421.79
810.098	8498.04
810.487	8855.02
810.875	9211.91
811.264	9137.88
811.652	9311.13
812.04	9333.58
812.428	9370.05
812.816	9920.75
813.204	10159.68
813.592	10493.98
813.98	10656.88
814.368	10471.27
814.756	10768.69
815.144	10616.15
815.531	10919.47
815.919	10786.78
816.306	10973.29
816.694	10683.47
817.081	10707.93
817.469	10977.25
817.856	10991.16
818.243	11222.59
818.63	11548.01
819.017	11215.28
819.404	11244.55
819.791	11501.02
820.178	11928
820.565	12085.16
820.952	12790.92
821.339	12366.96
821.725	12478.17
822.112	11861.76
822.498	11787.25
822.885	11847.84
823.271	11746.76
823.657	12067.56
824.044	12100.18
824.43	12177.07
824.816	12159.65
825.202	11793.55
825.588	12548.96
825.974	12514.82
826.36	12852.32
826.746	12825.68
827.132	13042.98
827.517	12982.11
827.903	12336.93
828.289	12319.26
828.674	11702.66
829.06	11585.15
829.445	11856.04
829.83	12086.86
830.216	12418.94
830.601	12670.52
830.986	12350.28
831.371	12239.2
831.756	12621.88
832.141	12293.75
832.526	12272.74
832.911	12467.69
833.295	12377.46
833.68	12709.04
834.065	12255.01
834.449	11574.58
834.834	11513.97
835.218	11501.47
835.603	11739.39
835.987	11572.63
836.371	12169.5
836.755	12077.66
837.139	12350.28
837.524	12508.06
837.908	12363.94
838.291	12392.8
838.675	12425.82
839.059	12566.03
839.443	12539.04
839.827	12345.16
840.21	12668.01
840.594	12546.95
840.977	12675.89
841.361	12642.45
841.744	12885.59
842.127	12758.55
842.511	12909.41
842.894	13315.61
843.277	13565.03
843.66	13927.62
844.043	13969.18
844.426	13383.61
844.809	13139.85
845.191	13144.19
845.574	12799.34
845.957	12525.88
846.339	12422.47
846.722	12030.68
847.104	12048.16
847.487	11883.91
847.869	11861.56
848.252	12032.25
848.634	12236.26
849.016	12385.82
849.398	12441.74
849.78	13000.45
850.162	12982.62
850.544	13238.14
850.926	13619.25
851.307	13509.92
851.689	13665.81
852.071	13935.12
852.452	14113.79
852.834	14065.89
853.215	14304.29
853.597	14381.37
853.978	14556.93
854.359	14830.75
854.741	14163.5
855.122	14109.58
855.503	13934.22
855.884	14037.82
856.265	14009.11
856.646	14092.2
857.026	13841.6
857.407	13793.46
857.788	13892.09
858.169	14066.06
858.549	13494.27
858.93	13895.53
859.31	13906.56
859.69	14035.21
860.071	13744.61
860.451	13587.72
860.831	13075.51
861.211	13817.11
861.591	14160.49
861.971	14121.48
862.351	14232.7
862.731	14455.04
863.111	14587.68
863.491	14772.42
863.87	15301.99
864.25	15485.97
864.629	15190.37
865.009	15488.2
865.388	16003.74
865.768	17116.58
866.147	17022.61
866.526	16048.28
866.905	16219.04
867.284	17123.2
867.663	16252.54
868.042	15566.95
868.421	15523.81
868.8	15773.9
869.179	15924.74
869.558	14981.82
869.936	13800.54
870.315	14038.52
870.693	14381.51
871.072	15499.94
871.45	14745.38
871.828	14925.2
872.207	15677.17
872.585	15418.73
872.963	15806.43
873.341	15257.26
873.719	15074.7
874.097	14881.15
874.475	15142.18
874.853	15466.69
875.23	14814.87
875.608	15431.42
875.986	16665.63
876.363	15931.45
876.741	16420.24
877.118	16009.28
877.495	16775.38
877.873	17025.85
878.25	17898.36
878.627	17144.82
879.004	17369.35
879.381	17261.47
879.758	16784.88
880.135	15615.69
880.512	16497.19
880.889	16035.93
881.265	15850.72
881.642	15694.48
882.019	15948.85
882.395	15610.05
882.772	16225.54
883.148	15507.48
883.524	15439.71
883.901	15342.35
884.277	15559.64
884.653	15433.97
885.029	15866.53
885.405	17555.38
885.781	17407.63
886.157	16671.71
886.532	16860.64
886.908	16838.35
887.284	18720.74
887.659	19314.41
888.035	19897.99
888.411	20394.91
888.786	20665.08
889.161	21361.08
889.537	20951.87
889.912	21601.45
890.287	21560.64
890.662	22087.48
891.037	21641.95
891.412	20128.61
891.787	19874.56
892.162	19134.01
892.536	19537.23
892.911	18764.23
893.286	18309.85
893.66	17513.22
894.035	17906.54
894.409	19426.53
894.784	18585.72
895.158	18834.9
895.532	19893.13
895.906	20382.12
896.281	20797.97
896.655	20397.36
897.029	23214.91
897.402	24116.14
897.776	26769.07
898.15	26597.06
898.524	26279.29
898.898	26578.73
899.271	29729.21
899.645	25724.3
900.018	24686.92
900.392	25606.08
900.765	25821.23
901.138	23917.3
901.511	23571.81
901.884	21689.74
902.258	20060.17
902.631	20772.59
903.003	23949.11
903.376	21627.99
903.749	24277.21
904.122	26021.45
904.495	28653.74
904.867	29021.06
905.24	25172.89
905.612	23404.92
905.985	23888.37
906.357	24933.28
906.729	23722.74
907.102	20220.79
907.474	19404.61
907.846	19489.98
908.218	19183.68
908.59	16932.66
908.962	16342.4
909.334	17587.42
909.705	18469.28
910.077	17913.51
910.449	18618.72
910.82	19141.06
911.192	21039.74
911.563	21862.29
911.935	23379.06
912.306	23394.89
912.677	24138.6
913.048	23899.95
913.419	25888.03
913.79	26002.82
914.161	27875.29
914.532	26654.91
914.903	24469.84
915.274	23234.71
915.645	22890.91
916.015	20132.71
916.386	19206.86
916.756	20443.76
917.127	21089.66
917.497	18872.25
917.868	20572.41
918.238	19570.28
918.608	20149.22
918.978	20594.16
919.348	21824.82
919.718	22576.48
920.088	21779.12
920.458	22659.65
920.828	23869.43
921.198	22660.54
921.567	24203.84
921.937	18737.69
922.306	18890.09
922.676	20367.97
923.045	17003.55
923.415	16168.38
923.784	14719.62
924.153	15132.06
924.522	15107.85
924.891	14191.51
925.26	15197.07
925.629	14836.81
925.998	17038.63
926.367	16635.49
926.736	15828.15
927.104	18802.55
927.473	20147.73
927.842	24253.15
928.21	23932.26
928.578	25060.54
928.947	23628.31
929.315	23661.27
929.683	27679.64
930.051	27804.63
930.42	32149.79
930.788	27356.18
931.156	27052.66
931.523	25301.41
931.891	23339.21
932.259	22378.46
932.627	25880.99
932.994	36514.98
933.362	30180.81
933.729	26142.9
934.097	24977.5
934.464	21133.79
934.831	24332.39
935.199	23964.06
935.566	23247.53
935.933	23507.14
936.3	28501.67
936.667	22207.64
937.034	20151.97
937.401	19918.28
937.767	17230.14
938.134	15393.85
938.501	21740.16
938.867	23324.57
939.234	39546.53
939.6	33798.95
939.967	37452.66
940.333	25150.79
940.699	21474.31
941.065	17186.91
941.431	22600.92
941.798	21803.26
942.163	28620.6
942.529	17885.35
942.895	16404.56
943.261	10614.73
943.627	13936.25
943.992	12188.81
944.358	12193.48
944.723	12255.39
945.089	11921.79
945.454	11002.33
945.82	11748.08
946.185	11281.71
946.55	13080.76
946.915	11748.23
947.28	13812.44
947.645	12172.22
948.01	11264.98
948.375	11771.57
948.74	14069.84
949.104	16417.17
949.469	23663.05
949.834	41787.95
950.198	39771.97
950.562	23817.46
950.927	19818.6
951.291	23790.86
951.655	20219.87
952.02	18922.39
952.384	14282.6
952.748	12448.91
953.112	12176.63
953.476	10598.83
953.839	9802.59
954.203	9701.98
954.567	12125.71
954.931	19039.98
955.294	16291.64
955.658	16403.68
956.021	27927.62
956.385	47231.9
956.748	69639.09
957.111	107364.15
957.474	120290.63
957.837	135224.7
958.2	102049.91
958.563	36705.28
958.926	24910.5
959.289	37790.87
959.652	42221.2
960.015	31686.21
960.377	45513.76
960.74	51959.7
961.102	89849.5
961.465	96852.55
961.827	52412.31
962.189	100601.66
962.552	69877.42
962.914	55943.83
963.276	36306.33
963.638	29984.73
964	29682.94
964.362	20075.57
964.724	19382.79
965.085	13862.02
965.447	11361.33
965.809	12854.34
966.17	12853.42
966.532	13902.74
966.893	12780.74
967.255	11650.6
967.616	13768.16
967.977	11037.61
968.338	12084.12
968.699	9971.22
969.061	9969.78
969.421	10063.99
969.782	11297.33
970.143	9583.3
970.504	9970.76
970.865	11346.68
971.225	11623.26
971.586	11388.4
971.946	16217.48
972.307	14061.47
972.667	18352.79
973.027	18908.8
973.388	22857.99
973.748	15562.45
974.108	16936.14
974.468	22832.18
974.828	17676.81
975.188	13567
975.548	12446.12
975.907	10469.15
976.267	11703.75
976.627	9862.4
976.986	10223.05
977.346	9733.46
977.705	9354.28
978.064	8521.43
978.424	7103.21
978.783	7293.76
979.142	8346.5
979.501	8016.69
979.86	8492.65
980.219	8197.73
980.578	10549.74
980.937	11811.86
981.296	10558.63
981.654	10892.51
982.013	16934.57
982.371	21985.53
982.73	20580.24
983.088	23301.33
983.447	24913.58
983.805	35626.71
984.163	74557.46
984.521	82855
984.879	121447.23
985.237	-197982.83
985.595	190825.78
985.953	47380.09
986.311	27341
986.669	15885.61
987.026	13714.62
987.384	18367.49
987.741	18986.17
988.099	13666.18
988.456	10904.09
988.814	10239.53
989.171	8895.92
989.528	8752.5
989.885	9268.27
990.242	7358.96
990.599	9174.77
990.956	7516.27
991.313	5276.74
991.67	4337.73
992.027	4645.55
992.383	4129.93
992.74	3624.45
993.096	3815.24
993.453	3962.8
993.809	4107.35
994.165	5470.54
994.522	5071.69
994.878	5588.48
995.234	7011.69
995.59	6923.68
995.946	6461.8
996.302	7377.94
996.658	8507.57
997.013	9350.14
997.369	11134.47
997.725	14301.07
998.08	9270.32
998.436	14113.82
998.791	19506.9
999.147	19503.45
999.502	21252.14
999.857	15457.18
1000.212	25268.54
1000.567	36038.89
1000.922	20850.5
1001.277	13295.03
1001.632	9845.36
1001.987	12720.13
1002.342	9141.03
1002.696	7315.07
1003.051	5853.48
1003.406	7106.79
1003.76	7069.72
1004.114	6935.72
1004.469	5852.26
1004.823	4847.44
1005.177	5208.79
1005.531	4137.07
1005.885	3661.41
1006.239	4154.47
1006.593	5219.16
1006.947	6975.61
1007.301	5243.63
1007.655	5733.08
1008.008	4239.03
1008.362	4775.19
1008.715	6803.31
1009.069	6186.69
1009.422	9409.39
1009.776	18945.63
1010.129	12542.12
1010.482	10438.62
1010.835	8811.51
1011.188	18276.95
1011.541	17167.26
1011.894	-104464.06
1012.247	307118.2
1012.6	20856.84
1012.952	13243.37
1013.305	6735.84
1013.657	4860.53
1014.01	4612.19
1014.362	3821.38
1014.715	3457.37
1015.067	3050.35
1015.419	2992.6
1015.771	2677.29
1016.123	2396.97
1016.475	2484.85
1016.827	2637.45
1017.179	2868.15
1017.531	2888.97
1017.883	2952.35
1018.234	2900.82
1018.586	3657.04
1018.938	3896.52
1019.289	5415.59
1019.64	6155.87
1019.992	5720.09
1020.343	5218.99
1020.694	4194.8
1021.045	3684.98
1021.396	4201.61
1021.747	4531.82
1022.098	5349.91
1022.449	3865.19
1022.8	3556.33
1023.151	2488.88
1023.501	2233.96
1023.852	2425.17
1024.202	2548.59
1024.553	2758.93
1024.903	2730.78
1025.253	2386.75
1025.604	2162.91
1025.954	2697.2
1026.304	3249.54
1026.654	3783.56
1027.004	5509.41
1027.354	8810.87
1027.703	8407.71
1028.053	10875.91
1028.403	16166.03
1028.753	23344.15
1029.102	31053.54
1029.452	157195.7
1029.801	6756.03
1030.15	4396.34
1030.499	3706.4
897.758	3311.28
901.051	3298.84
904.343	3336.5
907.636	3330.32
910.928	3400.27
914.22	3297.77
917.511	3311.72
920.803	3397.98
924.094	3447.26
927.384	3397.38
930.675	3358.88
933.965	3299.27
937.255	3289.03
940.544	3254.2
943.834	3101.19
947.123	3058.98
950.411	3164.69
953.7	3125.29
956.988	3071.74
960.276	3016.76
963.563	3142.23
966.851	3120.94
970.138	3200.91
973.424	3176.51
976.711	3122.54
979.997	3381.22
983.283	3396.78
986.568	3266.49
989.853	3313.41
993.138	3344.16
996.423	3425.64
999.708	3333.78
1002.992	3453.71
1006.275	3176.03
1009.559	3284.25
1012.842	3425.51
1016.125	3329.57
1019.408	3306.57
1022.69	3435.22
1025.972	3436.7
1029.254	3404.86
1032.536	3294.34
1035.817	3340.46
1039.098	3238.77
1042.379	3510.65
1045.659	3460.18
1048.939	3370.13
1052.219	3411.97
1055.498	3440.21
1058.778	3408.8
1062.057	3400.67
1065.335	3417.31
1068.614	3449.71
1071.892	3411.55
1075.17	3516.82
1078.447	3491.89
1081.724	3473.74
1085.001	3527.01
1088.278	3489.01
1091.554	3513.93
1094.83	3510.67
1098.106	3532.93
1101.382	3597.65
1104.657	3597.28
1107.932	3595.77
1111.206	3538.67
1114.481	3494.44
1117.755	3507.44
1121.029	3465.39
1124.302	3514.14
1127.575	3442.26
1130.848	3419.79
1134.121	3370.32
1137.393	3301.78
1140.665	3382.87
1143.937	3358.43
1147.208	3263.79
1150.48	3288.87
1153.75	3269.25
1157.021	3343.23
1160.291	3298
1163.561	3334
1166.831	3358
1170.101	3393.37
1173.37	3381.42
1176.639	3302.51
1179.907	3377.53
1183.176	3430.17
1186.444	3435.43
1189.711	3470.19
1192.979	3467.15
1196.246	3425.28
1199.513	3451.23
1202.78	3442.54
1206.046	3449.72
1209.312	3484.43
1212.578	3519.15
1215.843	3448.61
1219.108	3431.84
1222.373	3457.85
1225.638	3401.96
1228.902	3377.43
1232.166	3347.97
1235.43	3325.97
1238.693	3341.01
1241.956	3343.25
1245.219	3374.92
1248.482	3381.82
1251.744	3369.97
1255.006	3557.21
1258.268	3518.79
1261.529	3446.44
1264.79	3465.57
1268.051	3589.24
1271.312	3608.36
1274.572	3561.5
1277.832	3555.73
1281.092	3556.17
1284.351	3500.65
1287.61	3471.8
1290.869	3356.47
1294.128	3306.33
1297.386	3451.26
1300.644	3432.19
1303.902	3446.56
1307.159	3286.56
1310.416	3347.24
1313.673	3364.89
1316.93	3332.75
1320.186	3405.71
1323.442	3461.81
1326.697	3437.13
1329.953	3451.31
1333.208	3461.5
1336.463	3445.93
1339.717	3371.36
1342.972	3466.1
1346.226	3473.91
1349.479	3383.78
1352.733	3339.05
1355.986	3380.71
1359.238	3351.58
1362.491	3349.93
1365.743	3357.5
1368.995	3356.94
1372.247	3375.22
1375.498	3388.04
1378.749	3453.59
1382	3389.82
1385.251	3468.35
1388.501	3442.12
1391.751	3410.19
1395	3391.13
1398.25	3433.49
1401.499	3427.51
1404.748	3337.77
1407.996	3248.05
1411.244	3244.31
1414.492	3218.07
1417.74	3192.43
1420.987	3214.73
1424.234	3266.11
1427.481	3270.07
1430.728	3323.4
1433.974	3298.42
1437.22	3329.13
1440.465	3332.37
1443.711	3337.82
1446.956	3372.58
1450.201	3382.89
1453.445	3428.99
1456.689	3388.01
1459.933	3409.53
1463.177	3432.54
1466.42	3406.1
1469.663	3381.73
1472.906	3347.67
1476.148	3495.09
1479.391	3371.96
1482.633	3359.52
1485.874	3354.53
1489.115	3317.13
1492.356	3346.86
1495.597	3310.97
1498.838	3326.18
1502.078	3269.07
1505.318	3186.44
1508.557	3243.68
1511.797	3153.49
1515.036	3331.06
1518.274	3313.49
1521.513	3298.32
1524.751	3331.12
1527.989	3335.61
1531.227	3340.18
1534.464	3305.11
1537.701	3360.39
1540.938	3390.75
1544.174	3348.1
1547.41	3360.04
1550.646	3399.01
1553.882	3419.45
1557.117	3469.01
1560.352	3497.69
1563.587	3444.93
1566.821	3392.87
1570.055	3455.39
1573.289	3410.28
1576.523	3510.03
1579.756	3503.56
1582.989	3517.87
1586.222	3474.73
1589.454	3527.52
1592.686	3493.14
1595.918	3509.4
1599.15	3484.04
1602.381	3599.83
1605.612	3520.03
1608.843	3624.83
1612.073	3521.92
1615.303	3503.12
1618.533	3479.86
1621.762	3491.82
1624.992	3494.19
1628.221	3454.3
1631.449	3436.19
1634.678	3531.79
1637.906	3472.84
1641.134	3529.37
1644.361	3469.72
1647.588	3454.28
1650.815	3463.17
1654.042	3462.68
1657.269	3499.91
1660.495	3443.76
1663.72	3387.99
1666.946	3381.58
1670.171	3280.43
1673.396	3253.99
1676.621	3254.85
1679.845	3308.69
1683.069	3353.3
1686.293	3414.75
1689.517	3361.86
1692.74	3254.45
1695.963	3275.61
1699.185	3373.15
1702.408	3318
1705.63	3376.97
1708.852	3382.36
1712.073	3353.81
1715.294	3314.86
1718.515	3340.45
1721.736	3282.91
1724.956	3248.43
1728.176	3285.34
1731.396	3299.73
1734.616	3303.09
1737.835	3309.29
1741.054	3306.05
1744.272	3306.17
1747.491	3313.74
1750.709	3407.84
1753.927	3303.27
1757.144	3365.38
1760.361	3437.35
1763.578	3449.38
1766.795	3379.11
1770.011	3403.04
1773.227	3468
1776.443	3495.22
1779.658	3539.9
1782.874	3487.49
1786.089	3447.61
1789.303	3452.87
1792.518	3467.05
1795.732	3455.7
1798.945	3457.39
1802.159	3520.55
1805.372	3370.71
1808.585	3341.86
1811.797	3347.03
1815.01	3432.58
1818.222	3437.13
1821.434	3305.4
1824.645	3418.65
1827.856	3372.82
1831.067	3424.05
1834.278	3345.77
1837.488	3336.42
1840.698	3526.04
1843.908	3423.45
1847.117	3381.28
1850.326	3200
1853.535	3344.41
1856.744	3480.48
1859.952	3353.67
1863.16	3353.02
1866.368	3378.62
1869.575	3542.58
1872.782	3420.08
1875.989	3365.16
1879.196	3501.24
1882.402	3497.3
1885.608	3550.89
1888.814	3408.69
1892.019	3279.73
1895.224	3336.19
1898.429	3333.2
1901.634	3302.55
1904.838	3286.11
1908.042	3328.67
1911.246	3327.96
1914.449	3214.59
1917.652	3232.55
1920.855	3217.71
1924.058	3296.12
1927.26	3322.94
1930.462	3360.45
1933.664	3378.94
1936.865	3304.56
1940.066	3300.34
1943.267	3247.54
1946.467	3275.5
1949.668	3315.12
1952.868	3382.58
1956.067	3340.32
1959.267	3262.07
1962.466	3296.66
1965.665	3284.22
1968.863	3277.79
1972.061	3316.69
1975.259	3318.77
1978.457	3410.12
1981.654	3357.34
1984.852	3356.25
1988.048	3258.08
1991.245	3280.34
1994.441	3366.16
1997.637	3382.96
2000.833	3364.91
2004.028	3412.18
2007.223	3452.3
2010.418	3414.98
2013.613	3384.4
2016.807	3323.47
2020.001	3348.5
2023.194	3425.56
2026.388	3387.63
2029.581	3334.56
2032.774	3365.47
2035.966	3360.8
2039.158	3269.23
2042.35	3309.31
2045.542	3233.45
2048.733	3367.45
2051.924	3428.67
2055.115	3474.2
2058.306	3381.72
2061.496	3454.18
2064.686	3539.25
2067.875	3460.98
2071.065	3494.51
2074.254	3534.14
2077.442	3481.81
2080.631	3585.93
2083.819	3416.5
2087.007	3384.57
2090.195	3333.81
2093.382	3398.39
2096.569	3369.55
2099.756	3305.72
2102.942	3305.61
2106.128	3292.75
2109.314	3292.41
2112.5	3224.16
2115.685	3209.75
2118.87	3224.97
2122.055	3298.02
2125.239	3244.42
2128.424	3195
2131.608	3364.34
2134.791	3342.43
2137.974	3429.82
2141.157	3411.98
2144.34	3332.6
2147.523	3349.01
2150.705	3342.37
2153.887	3339.05
2157.068	3257.71
2160.25	3285.94
2163.431	3351.56
2166.611	3259.14
2169.792	3273.03
2172.972	3140.21
2176.152	3262.8
2179.331	3309
2182.511	3294.27
2185.69	3331.44
2188.868	3316.62
2192.047	3401.02
2195.225	3362.06
2198.403	3304.86
2201.58	3307.28
2204.758	3308.36
2207.935	3410.77
2211.111	3253.66
2214.288	3233.42
2217.464	3285.71
2220.64	3272.79
2223.815	3337.64
2226.991	3243.63
2230.166	3269.5
2233.34	3283.2
2236.515	3322.77
2239.689	3420.63
2242.863	3346.74
2246.036	3414.03
2249.209	3437.69
2252.382	3489.02
2255.555	3456.65
2258.727	3372.02
2261.9	3423.93
2265.071	3415.39
2268.243	3426.4
2271.414	3334.1
2274.585	3259.99
2277.756	3340.9
2280.926	3296.03
2284.096	3351.52
2287.266	3226.85
2290.436	3299.42
2293.605	3342.11
2296.774	3363.22
2299.942	3408.32
2303.111	3428.43
2306.279	3471.8
2309.447	3462.88
2312.614	3445.58
2315.781	3459.73
2318.948	3410.99
2322.115	3455.32
2325.281	3349.19
2328.447	3385.63
2331.613	3368.01
2334.779	3313
2337.944	3326.42
2341.109	3319.27
2344.274	3292.53
2347.438	3249.37
2350.602	3284.42
2353.766	3312.12
2356.929	3291.82
2360.092	3339.19
2363.255	3267.51
2366.418	3153.25
2369.58	3333.08
2372.742	2992.61
2375.904	3032.95
2379.066	2991.96
2382.227	3045.38
2385.388	3001.3
2388.548	2898.6
2391.709	2975.33
2394.869	2944.47
2398.029	3100.2
2401.188	3139.6
2404.347	3033.33
2407.506	3263.38
2410.665	3287.92
2413.823	3319.53
2416.981	3244.78
2420.139	3298.47
2423.296	3360.8
2426.453	3332.56
2429.61	3362.52
2432.767	3249.66
2435.923	3305.29
2439.079	3171.15
2442.235	3266.61
2445.391	3168.52
2448.546	3173.91
2451.701	3250.43
2454.855	3186.8
2458.009	3270.42
2461.163	3291.89
2464.317	3228.88
2467.471	3273.69
2470.624	3309.03
2473.777	3372.09
2476.929	3360.06
2480.082	3385.76
2483.234	3355.86
2486.385	3214.2
2489.537	3216.83
2492.688	3142.16
2495.839	3161.23
2498.989	3165.79
2502.14	3143.68
2505.29	3111.95
2508.439	3144.05
2511.589	3041.47
2514.738	3071.73
2517.887	3101.47
2521.035	3269.74
2524.183	3261.43
2527.331	3228.54
2530.479	3175.36
2533.627	3197.68
