Data from C_3_DIV_WI_4N_Splice17_12-56-40-184.txt Node
Date: Sat Mar 14 12:56:40 EDT 2020
User: sa697716
Spectrometer: FLMS03696
Trigger mode: 0
Integration Time (sec): 3.180400E-1
Scans to average: 20
Electric dark correction enabled: true
Nonlinearity correction enabled: true
Boxcar width: 5
XAxis mode: Wavelengths
Number of Pixels in Spectrum: 2048
>>>>>Begin Spectral Data<<<<<
187.83	-373437.28
188.298	2735.81
188.766	1424.51
189.233	1296.45
189.701	1754.19
190.169	2389.65
190.636	928.14
191.104	756.15
191.571	139.4
192.039	-44.9
192.506	-73.87
192.974	502.26
193.441	-812.33
193.908	-216.74
194.375	-37.06
194.842	17.01
195.31	68.77
195.777	147.61
196.244	350.02
196.711	409.55
197.177	482.72
197.644	697.46
198.111	1239.19
198.578	1746.6
199.045	1388.04
199.511	2265.29
199.978	2627.69
200.445	2264.59
200.911	2517.97
201.378	2809.34
201.844	2554.77
202.31	4454.35
202.777	4602.47
203.243	2543.42
203.709	2414.42
204.176	2863.33
204.642	2379.21
205.108	2236.79
205.574	1800.21
206.04	1625.45
206.506	1507.04
206.972	1408.44
207.438	1344.73
207.903	1542.49
208.369	1356.54
208.835	1351.8
209.301	1420.1
209.766	1423.78
210.232	1395.04
210.697	1722.48
211.163	2120.19
211.628	3228.35
212.094	2756.7
212.559	3434.39
213.024	2111.53
213.49	2563.02
213.955	2495.92
214.42	2417.33
214.885	2246.88
215.35	2146.26
215.815	2082.82
216.28	2212.16
216.745	1785.94
217.21	1896.1
217.675	1697.38
218.14	1888.84
218.604	2067.97
219.069	2307.02
219.534	2391.47
219.998	2733.69
220.463	3238.75
220.927	3873.68
221.392	3574.11
221.856	3583.81
222.32	4446.27
222.785	5426.11
223.249	6773.49
223.713	7526.75
224.177	7507.45
224.642	9540.92
225.106	11690.24
225.57	12731.76
226.034	9507.08
226.497	14436.51
226.961	13011.11
227.425	15089.95
227.889	16669.77
228.353	16601.16
228.816	34082.41
229.28	32414.04
229.744	27320.75
230.207	16596.71
230.671	16298.98
231.134	26807.73
231.597	30990.1
232.061	30814.54
232.524	29966.96
232.987	20631.68
233.45	18573.76
233.914	16669.35
234.377	17087.17
234.84	15620.09
235.303	18362.12
235.766	20462.92
236.229	21083.69
236.691	13229.71
237.154	14865.3
237.617	11233.28
238.08	11516.02
238.542	13452.62
239.005	9602.6
239.468	9525.04
239.93	8983.77
240.393	8173.9
240.855	7184.98
241.317	7354.09
241.78	8930.6
242.242	9235.05
242.704	9970.31
243.166	8663.56
243.629	7891.92
244.091	9103.38
244.553	9970.66
245.015	10720.74
245.477	13852.83
245.939	20268.55
246.4	21515.52
246.862	20921.31
247.324	19696.2
247.786	21990.76
248.247	28808.53
248.709	29634.49
249.17	22174.87
249.632	20991.02
250.093	24365.61
250.555	21043.49
251.016	12872.02
251.477	12230.28
251.939	13215.82
252.4	13897.64
252.861	16492.95
253.322	15369.51
253.783	18273.34
254.244	23659.68
254.705	18602.21
255.166	16516.77
255.627	16273.56
256.088	22939.97
256.549	24337.14
257.009	20939.68
257.47	25351.33
257.931	20685.97
258.391	15495.32
258.852	15997.45
259.312	16781.24
259.773	20710.81
260.233	17478.23
260.694	14739.23
261.154	16683.76
261.614	13429.92
262.074	11985.96
262.534	12469.35
262.994	11749.09
263.455	15613.57
263.915	13146.53
264.374	12358
264.834	13480.78
265.294	14939.3
265.754	15475.89
266.214	14639
266.673	13683.01
267.133	17252.97
267.593	17087.21
268.052	20891.52
268.512	18179.56
268.971	21958.19
269.431	24089.18
269.89	21563.76
270.349	32312.82
270.809	36016.21
271.268	32405.72
271.727	72567.09
272.186	47052.82
272.645	35329.36
273.104	25438.07
273.563	36795.06
274.022	28819.06
274.481	24537.8
274.94	18898.11
275.399	14045.54
275.857	16332.02
276.316	22102.87
276.775	19690.69
277.233	19410.57
277.692	18183.74
278.15	20643.9
278.609	21280.17
279.067	19727.59
279.525	18355.51
279.984	23719.8
280.442	28494.57
280.9	28158.35
281.358	18520.93
281.816	17287.49
282.274	16906.89
282.732	17430.17
283.19	17475.28
283.648	15081.9
284.106	16099.13
284.564	16372.33
285.021	15191.17
285.479	11319.99
285.937	10265.98
286.394	9020.73
286.852	9272.79
287.309	9781
287.767	9478.51
288.224	9032.8
288.682	9919.07
289.139	10871.55
289.596	9937.68
290.053	10330.17
290.511	13064.55
290.968	15889.59
291.425	21520.2
291.882	17924.11
292.339	15556.01
292.796	15422.62
293.252	14510.42
293.709	11547.41
294.166	10362.63
294.623	11453.14
295.079	10975.42
295.536	11023.42
295.992	9998.09
296.449	9889.21
296.905	10292.14
297.362	9874.62
297.818	10380.73
298.274	10801.25
298.731	10983.93
299.187	10851.36
299.643	11629.2
300.099	14083.74
300.555	15422.57
301.011	12877.03
301.467	12452.86
301.923	14538.61
302.379	14217.81
302.835	13941.97
303.291	13934.35
303.746	15829.65
304.202	20002.47
304.658	20148.11
305.113	13562.37
305.569	13325.6
306.024	14198.49
306.479	13443.97
306.935	11351.01
307.39	12378.74
307.845	11452.21
308.301	11541.21
308.756	11248.99
309.211	10831.04
309.666	11065.19
310.121	13742.07
310.576	13909.03
311.031	13798.52
311.486	15843.2
311.94	15812.74
312.395	21145.23
312.85	39754.22
313.305	194763.42
313.759	1015007.86
314.214	73643.79
314.668	58502.56
315.123	49327.91
315.577	17736.12
316.032	15816.57
316.486	19797.85
316.94	15662.13
317.394	10928.88
317.849	8481.94
318.303	8033.6
318.757	7566.1
319.211	8372.7
319.665	7325.81
320.119	7409.24
320.572	10592.49
321.026	9910.5
321.48	8254.63
321.934	8977.89
322.387	8990.17
322.841	9717.96
323.295	8770.28
323.748	10068.87
324.202	10225.59
324.655	12290.56
325.108	17185.83
325.562	12141.03
326.015	14392.69
326.468	10890.58
326.921	12181.19
327.374	11370.2
327.827	11876.91
328.28	13443.16
328.733	9021.48
329.186	7927.78
329.639	7556.01
330.092	6361.13
330.545	6085.86
330.997	6147.56
331.45	6728.98
331.903	7901.46
332.355	13557.06
332.808	13169.82
333.26	10843.81
333.713	11787
334.165	11889.72
334.617	15886.25
335.069	12832.18
335.522	23107.26
335.974	25555.67
336.426	23375.62
336.878	16156.93
337.33	8201.86
337.782	8010.42
338.234	10046.11
338.686	12019.54
339.137	14237.47
339.589	13368.41
340.041	10495.81
340.493	9049.34
340.944	9300.31
341.396	9990.41
341.847	8439.41
342.299	10002.86
342.75	12254.88
343.201	10686.57
343.653	12264.53
344.104	15063.24
344.555	11866
345.006	18359.3
345.457	14097.3
345.908	11174.66
346.359	10519.24
346.81	8551.72
347.261	8965.25
347.712	8777.54
348.163	9415.57
348.613	9591.54
349.064	8939.7
349.515	7817.48
349.965	8045.65
350.416	9652.1
350.866	10579.76
351.317	11969.29
351.767	19837.69
352.217	25056.45
352.668	20767.65
353.118	19006.09
353.568	18191.79
354.018	14404.67
354.468	15224.16
354.918	10934.26
355.368	9551.33
355.818	13511.96
356.268	38816.49
356.718	162940.44
357.168	40655.46
357.617	20426.32
358.067	22677.8
358.517	21301.32
358.966	24984.69
359.416	28073.91
359.865	30279.46
360.315	36164.04
360.764	16916.14
361.213	9509.56
361.663	8964.73
362.112	11081.44
362.561	17935.07
363.01	13574.07
363.459	11409.18
363.908	12355.23
364.357	10528.98
364.806	17773.79
365.255	12178.36
365.703	11169.29
366.152	11172.6
366.601	9092.27
367.05	7383.76
367.498	6709.06
367.947	6981.98
368.395	7255.9
368.844	6425.4
369.292	7690.9
369.74	5334.4
370.189	8188.23
370.637	9576.66
371.085	8257.62
371.533	10015.91
371.981	9647.6
372.429	9250.75
372.877	9665.72
373.325	8123.06
373.773	8279.09
374.221	7397.47
374.669	9166.55
375.116	7924.41
375.564	7989.91
376.012	8939.54
376.459	7383.93
376.907	8819.88
377.354	10623.9
377.801	9918.29
378.249	11428.77
378.696	14635.8
379.143	17746.47
379.591	18910.08
380.038	32009.72
380.485	23153.35
380.932	24983.45
381.379	22972.25
381.826	16977.56
382.273	12061.6
382.72	10559
383.166	10258.86
383.613	6654.48
384.06	5991.43
384.506	6952.39
384.953	5112.95
385.4	5148.66
385.846	4505.65
386.292	4379.39
386.739	4283.81
387.185	4243.37
387.631	4241.21
388.078	4140.69
388.524	4432.96
388.97	4109.51
389.416	3438.67
389.862	3659.64
390.308	3480.02
390.754	3547.4
391.2	3852.6
391.645	3942.62
392.091	3805.28
392.537	3688.28
392.983	3684.47
393.428	3651.79
393.874	3914.51
394.319	3938.38
394.765	3745.35
395.21	3850.43
395.655	3609.28
396.101	3382.47
396.546	3056.55
396.991	3061.13
397.436	2853.63
397.881	2753.37
398.326	2586.7
398.771	2452.07
399.216	2129.55
399.661	1918.22
400.106	1913.54
400.551	1966.3
400.995	1764.33
401.44	1744.89
401.885	1635.3
402.329	1643.82
402.774	1577.51
403.218	1540.87
403.663	1480.55
404.107	1520.21
404.551	1529.63
404.995	1395.71
405.44	1341.52
405.884	1358.59
406.328	1309.53
406.772	1306.59
407.216	1185.36
407.66	1140.37
408.104	1073.58
408.547	1004.98
408.991	972.78
409.435	931.48
409.879	922.68
410.322	909.34
410.766	877.01
411.209	834.02
411.653	799.1
412.096	787.11
412.54	788.2
412.983	781.44
413.426	782.26
413.869	780.28
414.312	768.87
414.756	736.11
415.199	700.8
415.642	682.02
416.085	683.14
416.527	680.19
416.97	689.09
417.413	655.22
417.856	648.74
418.298	642.02
418.741	638.26
419.184	634.16
419.626	659.31
420.069	658.76
420.511	663.91
420.953	651.3
421.396	643.04
421.838	626.42
422.28	640.55
422.722	646.09
423.164	653.41
423.606	642.68
424.048	641.48
424.49	612.1
424.932	607.4
425.374	596.18
425.816	603.95
426.258	614.23
426.699	620.65
427.141	613.99
427.582	617.65
428.024	614.79
428.465	608.47
428.907	593.59
429.348	583.9
429.789	586.73
430.231	577.29
430.672	585.99
431.113	572.96
431.554	563.5
431.995	545.21
432.436	529.79
432.877	519.7
433.318	515.24
433.759	512.96
434.2	515.01
434.64	509.24
435.081	509.38
435.522	483.5
435.962	465.19
436.403	457.46
436.843	464.62
437.284	452.88
437.724	437.48
438.164	435.19
438.604	426.43
439.045	411.58
439.485	395.55
439.925	387.31
440.365	377.83
440.805	372.53
441.245	370.13
441.685	357.75
442.125	354.65
442.564	357.13
443.004	350.17
443.444	348.4
443.883	349.27
444.323	345.17
444.762	342.13
445.202	345.1
445.641	353.17
446.081	348.17
446.52	349.43
446.959	347.35
447.398	340.8
447.837	334.77
448.276	327.21
448.716	327.77
449.154	329.93
449.593	323.56
450.032	322.86
450.471	314.68
450.91	313.2
451.349	313.43
451.787	311.22
452.226	315.77
452.664	316.69
453.103	317.52
453.541	315.81
453.98	317.01
454.418	318.77
454.856	313.46
455.295	312.91
455.733	317.02
456.171	316.99
456.609	317.29
457.047	316.23
457.485	321.46
457.923	323.71
458.361	319.72
458.798	318.88
459.236	318.46
459.674	320.29
460.111	321.79
460.549	318.35
460.987	317.01
461.424	316
461.862	314.53
462.299	309.94
462.736	309.17
463.173	310.16
463.611	309.67
464.048	309.81
464.485	312.93
464.922	310.04
465.359	306.5
465.796	309.77
466.233	308.75
466.67	307.22
467.106	308.01
467.543	304.6
467.98	301.39
468.416	291.9
468.853	287.87
469.29	277.53
469.726	274.21
470.162	268.2
470.599	258.84
471.035	255.08
471.471	247.81
471.907	243.43
472.344	241.36
472.78	242.2
473.216	244.42
473.652	241.95
474.088	241.33
474.523	241.5
474.959	242.29
475.395	240.31
475.831	239.03
476.266	240.48
476.702	239.06
477.138	236.43
477.573	234.34
478.008	233.68
478.444	235.51
478.879	239.12
479.314	239.92
479.75	240.07
480.185	240.44
480.62	241.27
481.055	241.89
481.49	244.86
481.925	248.05
482.36	254.54
482.795	260.4
483.229	265.37
483.664	270.61
484.099	270.88
484.534	274.8
484.968	278.19
485.403	278.69
485.837	277.49
486.271	276.71
486.706	276.96
487.14	272.32
487.574	268.75
488.009	266.33
488.443	262.77
488.877	265.89
489.311	266.82
489.745	269.5
490.179	273.22
490.613	279.92
491.046	281.45
491.48	283.54
491.914	283.77
492.348	285.71
492.781	288.77
493.215	289.94
493.648	290.37
494.082	293.12
494.515	294.94
494.948	299.25
495.382	301.35
495.815	304.72
496.248	308.75
496.681	315.39
497.114	321.53
497.547	327.16
497.98	335.31
498.413	341.11
498.846	347.38
499.279	351.67
499.711	355.51
500.144	358.25
500.577	366
501.009	372.49
501.442	379.96
501.874	383.24
502.306	385.71
502.739	393.65
503.171	402.05
503.603	406.56
504.036	413.5
504.468	418.73
504.9	427.05
505.332	432.01
505.764	437.37
506.196	443.96
506.627	454.4
507.059	465.15
507.491	471.12
507.923	474.19
508.354	485.67
508.786	495.35
509.217	507.9
509.649	519.84
510.08	533.74
510.512	548.02
510.943	560.54
511.374	571.84
511.805	587.91
512.237	602.91
512.668	625
513.099	644.91
513.53	666
513.961	683.49
514.391	706.67
514.822	733.02
515.253	758.56
515.684	778.78
516.114	801.52
516.545	818.77
516.975	840.48
517.406	856.94
517.836	863.21
518.267	872.34
518.697	889.14
519.127	897.86
519.558	906.62
519.988	913.53
520.418	924.4
520.848	939.63
521.278	949.92
521.708	983.6
522.138	996.9
522.567	1021.83
522.997	1043.13
523.427	1056.96
523.857	1073.37
524.286	1084.65
524.716	1099.96
525.145	1117.39
525.575	1129.82
526.004	1144.35
526.433	1128.35
526.863	1132.46
527.292	1130.48
527.721	1137.97
528.15	1146.04
528.579	1148.71
529.008	1159.49
529.437	1177.43
529.866	1190.05
530.295	1204.82
530.724	1216.36
531.152	1238.01
531.581	1250.59
532.01	1265.1
532.438	1272.79
532.867	1284.29
533.295	1299.41
533.723	1305.74
534.152	1306.12
534.58	1307.41
535.008	1296.64
535.436	1299.83
535.865	1305.28
536.293	1315.56
536.721	1327.47
537.149	1345.81
537.576	1349.18
538.004	1359.26
538.432	1364.38
538.86	1364.5
539.287	1368.98
539.715	1378.95
540.143	1380.3
540.57	1378.13
540.998	1375.5
541.425	1359.7
541.852	1345.51
542.28	1344.12
542.707	1332.46
543.134	1323.4
543.561	1320.16
543.988	1316.06
544.415	1315.4
544.842	1311.31
545.269	1306.44
545.696	1308.54
546.123	1318.62
546.549	1312.06
546.976	1303.96
547.403	1303.26
547.829	1305.09
548.256	1306.67
548.682	1304.91
549.108	1301.05
549.535	1301.54
549.961	1302.85
550.387	1294.35
550.813	1290.26
551.24	1294.97
551.666	1295.32
552.092	1289
552.518	1283.95
552.943	1280.25
553.369	1284.72
553.795	1288.88
554.221	1290.11
554.646	1287.87
555.072	1295.45
555.498	1297.66
555.923	1303.33
556.349	1313.02
556.774	1318.65
557.199	1319.27
557.625	1322.36
558.05	1317.23
558.475	1323.31
558.9	1320.4
559.325	1313.87
559.75	1306.85
560.175	1300.94
560.6	1294.16
561.025	1291
561.449	1289.86
561.874	1291.37
562.299	1292.9
562.723	1295.21
563.148	1285.66
563.572	1286.29
563.997	1290.03
564.421	1291.3
564.846	1287.78
565.27	1287.73
565.694	1282.67
566.118	1287.45
566.542	1289.67
566.966	1280.04
567.39	1273.62
567.814	1262.62
568.238	1258.21
568.662	1258.13
569.086	1256.41
569.509	1257.49
569.933	1243.56
570.357	1234.65
570.78	1216.68
571.204	1204.95
571.627	1194.5
572.05	1188.98
572.474	1185.4
572.897	1173.54
573.32	1164.87
573.743	1154.52
574.166	1140.09
574.589	1136.29
575.012	1129.29
575.435	1124.16
575.858	1113.86
576.281	1103.67
576.704	1092.03
577.126	1081.47
577.549	1071.35
577.972	1062.07
578.394	1053.38
578.817	1047.81
579.239	1033.8
579.661	1022.08
580.084	1011.98
580.506	1002.44
580.928	998.23
581.35	988.9
581.772	984.21
582.194	975.09
582.616	965.88
583.038	954.3
583.46	945.13
583.882	941.87
584.303	943.31
584.725	937.91
585.147	939.94
585.568	944.33
585.99	950.24
586.411	953.3
586.833	961.46
587.254	960.17
587.675	968.5
588.096	974.33
588.518	969.42
588.939	957.31
589.36	956.35
589.781	945.5
590.202	929.17
590.623	922.56
591.043	919.3
591.464	909.93
591.885	908.01
592.305	903.72
592.726	894.06
593.147	894.22
593.567	891.12
593.987	884.8
594.408	880.6
594.828	876.96
595.248	873.08
595.669	861.26
596.089	856.97
596.509	851.61
596.929	842.61
597.349	843.52
597.769	836.76
598.189	831.7
598.608	831.4
599.028	832.51
599.448	832.72
599.867	824.01
600.287	820.82
600.706	817.59
601.126	812.49
601.545	811.36
601.965	809.01
602.384	805.09
602.803	806.03
603.222	802.64
603.641	797.54
604.061	794.55
604.48	791.67
604.898	794.56
605.317	795.28
605.736	794.43
606.155	791.4
606.574	784.46
606.992	785.25
607.411	780.79
607.829	773.24
608.248	769.75
608.666	765.6
609.085	762.8
609.503	756.77
609.921	751.68
610.339	750.48
610.758	746.89
611.176	742.88
611.594	736.44
612.012	733.25
612.43	734.16
612.847	735.42
613.265	734.62
613.683	735.06
614.101	734
614.518	729.58
614.936	722.06
615.353	713.38
615.771	710.16
616.188	708.78
616.606	705.19
617.023	700.13
617.44	690.73
617.857	684.46
618.274	678.5
618.691	674.25
619.108	667.76
619.525	663.06
619.942	665.29
620.359	665.38
620.776	661.25
621.192	658.9
621.609	656.9
622.026	660.58
622.442	663.09
622.859	663.34
623.275	658.5
623.691	661.29
624.108	667.85
624.524	674.87
624.94	673.9
625.356	678.72
625.772	683.61
626.188	689.27
626.604	689.37
627.02	686.63
627.436	686.29
627.852	689.62
628.268	695.33
628.683	689.21
629.099	684.49
629.514	682.02
629.93	683.24
630.345	685.15
630.761	681.04
631.176	681.62
631.591	680.02
632.007	677.01
632.422	673.8
632.837	666.86
633.252	664.63
633.667	657.74
634.082	651.91
634.497	645.41
634.911	636.06
635.326	633.57
635.741	624.02
636.155	615.86
636.57	614.28
636.984	612.95
637.399	613.33
637.813	611.07
638.228	607.96
638.642	606.67
639.056	598.16
639.47	594.67
639.884	588.2
640.298	582.19
640.712	580.51
641.126	572.55
641.54	566.02
641.954	559.57
642.368	551.48
642.781	548.56
643.195	538.1
643.609	536.9
644.022	532.52
644.436	528.22
644.849	520.18
645.262	510.71
645.676	509.01
646.089	504.89
646.502	497.57
646.915	493.94
647.328	482.3
647.741	480.61
648.154	472.99
648.567	471.24
648.98	465.37
649.393	463.5
649.805	462.35
650.218	457.28
650.631	449.61
651.043	445.06
651.456	442.01
651.868	441.41
652.28	448.13
652.693	452.49
653.105	452.93
653.517	455.9
653.929	456.69
654.341	458.53
654.753	453.42
655.165	455.05
655.577	453.19
655.989	449.59
656.401	444.28
656.813	428.69
657.224	418.69
657.636	404.54
658.047	396.3
658.459	386.89
658.87	380.45
659.282	373.13
659.693	364.27
660.104	357.13
660.515	350
660.926	349.3
661.338	345.84
661.749	341.68
662.159	337.54
662.57	333.66
662.981	331.26
663.392	328.38
663.803	330.26
664.213	328.31
664.624	326.41
665.035	326.78
665.445	320.47
665.855	318.44
666.266	316.5
666.676	316.34
667.086	312.45
667.497	313.28
667.907	310.73
668.317	307.1
668.727	309.09
669.137	308.38
669.547	308.26
669.956	309.27
670.366	310.8
670.776	312.53
671.186	313.97
671.595	316.96
672.005	317.7
672.414	319.55
672.824	320.49
673.233	319.74
673.642	323.5
674.052	326.48
674.461	330.5
674.87	332.67
675.279	333.12
675.688	333.95
676.097	336.5
676.506	335.36
676.915	341.7
677.323	344.57
677.732	345.42
678.141	344.38
678.549	340.15
678.958	339.12
679.366	340.12
679.775	341.93
680.183	350.28
680.592	354.07
681	358.9
681.408	356.6
681.816	360.07
682.224	364.17
682.632	371.88
683.04	386.63
683.448	397.94
683.856	412.48
684.264	431.03
684.671	445.24
685.079	462.74
685.487	484.3
685.894	514.63
686.302	538.72
686.709	560.63
687.116	585.08
687.524	606.84
687.931	628.63
688.338	646.78
688.745	661.96
689.152	679.97
689.559	704.88
689.966	730.02
690.373	746.25
690.78	773.57
691.187	811.65
691.593	844.45
692	873.47
692.407	914.64
692.813	966.76
693.22	1010.97
693.626	1056.53
694.032	1098.49
694.439	1154.2
694.845	1200.22
695.251	1255.92
695.657	1309.05
696.063	1379.82
696.469	1440.36
696.875	1496.24
697.281	1535.61
697.687	1581.38
698.093	1622.43
698.498	1684.81
698.904	1738.86
699.31	1814.45
699.715	1877.15
700.12	1954.98
700.526	1986.8
700.931	2051.91
701.337	2106.45
701.742	2147.29
702.147	2222.58
702.552	2263.01
702.957	2324.62
703.362	2357.14
703.767	2392.77
704.172	2434.68
704.577	2417.98
704.981	2469.08
705.386	2497.01
705.791	2507.11
706.195	2575.31
706.6	2596.55
707.004	2668.47
707.408	2658.28
707.813	2692.37
708.217	2699.39
708.621	2716.61
709.025	2805.98
709.43	2819.86
709.834	2879
710.237	2945.72
710.641	2949.1
711.045	2981.08
711.449	2992.98
711.853	3030.95
712.256	3076.62
712.66	3118.68
713.064	3189.77
713.467	3234.3
713.87	3339.24
714.274	3391.16
714.677	3492.41
715.08	3637.12
715.484	3788.34
715.887	3969.07
716.29	4146.48
716.693	4333.36
717.096	4545.28
717.499	4669.79
717.901	4703.22
718.304	4738.22
718.707	4771.1
719.109	4696.72
719.512	4681.59
719.915	4577.85
720.317	4539.21
720.719	4585.87
721.122	4571.8
721.524	4540.42
721.926	4516.6
722.328	4615.46
722.731	4615.97
723.133	4647.65
723.535	4828.6
723.937	4854.95
724.338	4909.46
724.74	4955.09
725.142	4924.85
725.544	4931.99
725.945	4967.7
726.347	4972.03
726.748	4974.27
727.15	4994.42
727.551	4972.5
727.952	4949.87
728.354	4933.2
728.755	4937.69
729.156	4904.07
729.557	4887.06
729.958	4782.47
730.359	4734.54
730.76	4722.09
731.161	4672.25
731.562	4655.18
731.962	4661.24
732.363	4611
732.763	4555.47
733.164	4593.9
733.564	4540.35
733.965	4457.19
734.365	4433.39
734.766	4464.77
735.166	4433.96
735.566	4389.22
735.966	4367.21
736.366	4364.7
736.766	4313.49
737.166	4346.98
737.566	4311.94
737.966	4289.78
738.365	4327.15
738.765	4324.21
739.165	4257.98
739.564	4237.35
739.964	4278.17
740.363	4240.3
740.763	4238.78
741.162	4230.45
741.561	4202.95
741.96	4163.18
742.36	4182.51
742.759	4189.9
743.158	4223.38
743.557	4236.5
743.955	4271.11
744.354	4233.77
744.753	4285.54
745.152	4249.57
745.55	4299.68
745.949	4295.45
746.348	4297.36
746.746	4313.95
747.144	4277.24
747.543	4258.87
747.941	4305.2
748.339	4245.34
748.737	4238.5
749.136	4234.93
749.534	4298.8
749.932	4274.46
750.33	4297.98
750.727	4350.17
751.125	4330.52
751.523	4318.26
751.921	4361.73
752.318	4332.7
752.716	4388.18
753.113	4401.29
753.511	4423.08
753.908	4420.83
754.305	4408.15
754.703	4464.16
755.1	4519.85
755.497	4574.17
755.894	4746.9
756.291	4908.87
756.688	5208.26
757.085	5606.16
757.482	6171.37
757.878	6785.99
758.275	7344.41
758.672	8106.62
759.068	8729.41
759.465	9620.34
759.861	10767.77
760.258	12097.81
760.654	12783.68
761.05	12686.25
761.447	12104.95
761.843	11268.78
762.239	10403.68
762.635	10011.8
763.031	9638.05
763.427	9096.8
763.822	8530.02
764.218	7967.53
764.614	7238.67
765.01	6752.21
765.405	6433.96
765.801	6194.83
766.196	5887.9
766.592	5716.28
766.987	5429.54
767.382	5232.39
767.778	5151.66
768.173	5031.25
768.568	4967.38
768.963	4856.61
769.358	4872.65
769.753	4830.68
770.148	4756.21
770.542	4754.42
770.937	4727
771.332	4809.61
771.726	4830.95
772.121	4773.44
772.515	4821.94
772.91	4807.35
773.304	4870.05
773.699	4809.63
774.093	4857.21
774.487	4908.71
774.881	4949.61
775.275	4945.74
775.669	4908.33
776.063	4943.99
776.457	4977.96
776.851	4914.22
777.245	4907.29
777.638	4938.23
778.032	5046.93
778.425	5017.08
778.819	5053.96
779.212	5016.75
779.606	4980.73
779.999	5000.46
780.392	4988.73
780.786	5063.7
781.179	5079.76
781.572	5120.53
781.965	5132.47
782.358	5077.68
782.751	5128.92
783.143	5085.56
783.536	5151.87
783.929	5192.93
784.322	5294.15
784.714	5321.85
785.107	5316.58
785.499	5385.97
785.891	5368.14
786.284	5350.44
786.676	5475.61
787.068	5458.43
787.46	5506.06
787.852	5524.63
788.245	5601.83
788.636	5629.84
789.028	5693.87
789.42	5733.54
789.812	5741.98
790.204	5826.44
790.595	5919.84
790.987	5742.57
791.378	5762.85
791.77	5881.95
792.161	6006.04
792.553	6059.05
792.944	5960.07
793.335	5897.54
793.726	5964.62
794.117	6047.01
794.508	6169.09
794.899	6140.01
795.29	6270.78
795.681	6322.2
796.072	6189.74
796.463	6025.79
796.853	6033.57
797.244	6174.56
797.634	6204.99
798.025	6200.05
798.415	6207.85
798.806	6292.88
799.196	6374.14
799.586	6422.2
799.976	6392.87
800.366	6605.37
800.756	6817.51
801.146	6784.2
801.536	6812.88
801.926	6879.76
802.316	6905.81
802.706	6971.94
803.095	6859.41
803.485	6950.37
803.874	6988.65
804.264	7220.18
804.653	7197.1
805.043	7331.16
805.432	7430.22
805.821	7430.24
806.21	7450.24
806.599	7557.98
806.988	7600.75
807.377	7699.47
807.766	7819.5
808.155	8076.04
808.544	7835.99
808.933	7848.49
809.321	7830.67
809.71	8101.39
810.098	8248.83
810.487	8669.82
810.875	9111.11
811.264	9134.51
811.652	9399.08
812.04	9532.72
812.428	9687.21
812.816	10387.96
813.204	10771
813.592	11269.04
813.98	11579.66
814.368	11495.52
814.756	11934.32
815.144	11859.66
815.531	12287.4
815.919	12220.89
816.306	12499.02
816.694	12210.98
817.081	12253.13
817.469	12563.82
817.856	12568.94
818.243	12812.63
818.63	13170.18
819.017	12783.57
819.404	12844.67
819.791	13189.71
820.178	13758.39
820.565	13985.69
820.952	14847.02
821.339	14406.2
821.725	14583.91
822.112	13907.22
822.498	13860.72
822.885	13977.99
823.271	13896.18
823.657	14281.06
824.044	14293.41
824.43	14359.93
824.816	14338.55
825.202	13938.33
825.588	14867.73
825.974	14884.72
826.36	15355.43
826.746	15392.09
827.132	15715.71
827.517	15692.75
827.903	14967.39
828.289	14997.59
828.674	14288.44
829.06	14187.99
829.445	14546.12
829.83	14869.05
830.216	15299.31
830.601	15639.63
830.986	15267.46
831.371	15144.96
831.756	15660.13
832.141	15275.21
832.526	15267.06
832.911	15518.21
833.295	15412.19
833.68	15837.05
834.065	15278.13
834.449	14446.45
834.834	14374.22
835.218	14367.06
835.603	14677.1
835.987	14475.32
836.371	15230.38
836.755	15135.1
837.139	15494.87
837.524	15709.02
837.908	15543.42
838.291	15599.87
838.675	15655.27
839.059	15839.01
839.443	15826.85
839.827	15615.65
840.21	16054.29
840.594	15913.65
840.977	16104.6
841.361	16091.36
841.744	16435.81
842.127	16298.19
842.511	16508.6
842.894	17051.62
843.277	17396.74
843.66	17888.12
844.043	17959.48
844.426	17226.34
844.809	16943.16
845.191	16969.52
845.574	16544.37
845.957	16215.6
846.339	16113.27
846.722	15640.01
847.104	15701.96
847.487	15547.17
847.869	15566.09
848.252	15815.04
848.634	16117.24
849.016	16357.4
849.398	16466.71
849.78	17236.58
850.162	17234.98
850.544	17611.76
850.926	18177.31
851.307	18088.22
851.689	18339.37
852.071	18737.29
852.452	19037.87
852.834	19015.62
853.215	19377.33
853.597	19517.81
853.978	19785.83
854.359	20204.91
854.741	19296.48
855.122	19200.15
855.503	18945.56
855.884	19067.36
856.265	19011.17
856.646	19119.27
857.026	18760.33
857.407	18699.25
857.788	18838.56
858.169	19104.14
858.549	18324.25
858.93	18889.15
859.31	18938.5
859.69	19128.89
860.071	18764.51
860.451	18574.3
860.831	17896.47
861.211	18951.58
861.591	19450.9
861.971	19429.27
862.351	19599.09
862.731	19958.59
863.111	20208.75
863.491	20512.15
863.87	21309.89
864.25	21632.86
864.629	21269.78
865.009	21736.55
865.388	22495.23
865.768	24103.9
866.147	24007.27
866.526	22678.9
866.905	22958.34
867.284	24239.2
867.663	23021.86
868.042	22073.93
868.421	21983.82
868.8	22354.37
869.179	22581.02
869.558	21278.71
869.936	19604.08
870.315	19963.66
870.693	20457.51
871.072	22053.11
871.45	21008.85
871.828	21268.51
872.207	22351.45
872.585	22037.93
872.963	22634.7
873.341	21854.31
873.719	21590.57
874.097	21344.15
874.475	21750.58
874.853	22239.93
875.23	21306.77
875.608	22210.39
875.986	24036.45
876.363	22978.66
876.741	23666.03
877.118	23065.38
877.495	24191.96
877.873	24594.27
878.25	25881.1
878.627	24817.55
879.004	25159.18
879.381	25048.83
879.758	24376.84
880.135	22693.57
880.512	24004.17
880.889	23361.03
881.265	23126.53
881.642	22929.45
882.019	23314.9
882.395	22839.63
882.772	23735.84
883.148	22716.88
883.524	22624.27
883.901	22486.19
884.277	22814.96
884.653	22669.9
885.029	23335.83
885.405	25834.47
885.781	25636.28
886.157	24582.95
886.532	24878.83
886.908	24867.02
887.284	27642.1
887.659	28541.18
888.035	29430.69
888.411	30187.55
888.786	30584.8
889.161	31619.98
889.537	31044.77
889.912	32025.65
890.287	31982.26
890.662	32805.07
891.037	32195.64
891.412	30030.39
891.787	29713.14
892.162	28676.42
892.536	29339.37
892.911	28228.23
893.286	27626.22
893.66	26500.09
894.035	27177.86
894.409	29597.83
894.784	28388.8
895.158	28870.93
895.532	30556.69
895.906	31394.42
896.281	32122.94
896.655	31607.96
897.029	36112.31
897.402	37605.28
897.776	41843.13
898.15	41693.53
898.524	41229.46
898.898	41796.46
899.271	46794.43
899.645	40553.02
900.018	38929.35
900.392	40381.41
900.765	40702.07
901.138	37670.88
901.511	37095.05
901.884	34066.44
902.258	31422.85
902.631	32468.22
903.003	37343.59
903.376	33690.26
903.749	37753.71
904.122	40420.75
904.495	44491.38
904.867	45035.77
905.24	39102.21
905.612	36408.02
905.985	37227.57
906.357	38943.09
906.729	37166.74
907.102	31756.13
907.474	30527.37
907.846	30726.03
908.218	30323.06
908.59	26787.07
908.962	25915.79
909.334	27895.44
909.705	29312.94
910.077	28461.76
910.449	29614.27
910.82	30443.22
911.192	33509.38
911.563	34809.96
911.935	37241.47
912.306	37310.81
912.677	38546.53
913.048	38171.88
913.419	41404.87
913.79	41634.74
914.161	44648.14
914.532	42687.52
914.903	39254.46
915.274	37277.57
915.645	36744.91
916.015	32345.02
916.386	30837.99
916.756	32836.07
917.127	33882.89
917.497	30294.75
917.868	32962.65
918.238	31322.17
918.608	32209.54
918.978	32860.07
919.348	34790.92
919.718	35964.18
920.088	34658.42
920.458	36016.89
920.828	37892.64
921.198	35909.49
921.567	38358.02
921.937	29715.37
922.306	30003.03
922.676	32372.77
923.045	27025.81
923.415	25689.8
923.784	23396.7
924.153	24062.78
924.522	24039.94
924.891	22598.44
925.26	24213.62
925.629	23638.61
925.998	27189.6
926.367	26535.48
926.736	25280.49
927.104	30089.52
927.473	32343.39
927.842	39024.34
928.21	38632.34
928.578	40613.23
928.947	38435.37
929.315	38663.81
929.683	45330.09
930.051	45652.31
930.42	53049.39
930.788	45328.39
931.156	45010.62
931.523	42180.06
931.891	38994.38
932.259	37457.49
932.627	43390.19
932.994	61374.29
933.362	50735.76
933.729	44066.51
934.097	42189.53
934.464	35684.28
934.831	41179.09
935.199	40588.68
935.566	39362.1
935.933	39961.9
936.3	48388.68
936.667	37697.48
937.034	33980.24
937.401	33600.63
937.767	28991.25
938.134	25815.68
938.501	36437.24
938.867	38829.51
939.234	65637.84
939.6	56015.12
939.967	61562.74
940.333	41243.63
940.699	35073.24
941.065	28155.74
941.431	36886.12
941.798	35594.27
942.163	46749.47
942.529	29194.08
942.895	26882.88
943.261	17388.62
943.627	22833.39
943.992	20013.68
944.358	20059.38
944.723	20154.03
945.089	19644.05
945.454	18177.94
945.82	19428.1
946.185	18669.96
946.55	21627.33
946.915	19392.08
947.28	22763.19
947.645	20023.93
948.01	18507.96
948.375	19296.36
948.74	23126.9
949.104	26981.06
949.469	38962.97
949.834	68814.91
950.198	65310.88
950.562	39156.72
950.927	32579.21
951.291	39197.99
951.655	33414.18
952.02	31358.55
952.384	23709.74
952.748	20642.83
953.112	20133.69
953.476	17514.26
953.839	16190.74
954.203	16019.45
954.567	20016.16
954.931	31550.83
955.294	26985.63
955.658	27127.34
956.021	46091.91
956.385	78083.2
956.748	115153.16
957.111	178617.32
957.474	200365.85
957.837	225421.53
958.2	170528.65
958.563	61361.98
958.926	41448.74
959.289	62932.36
959.652	70296.98
960.015	52761.14
960.377	75703.4
960.74	86370.85
961.102	149110.81
961.465	160152.53
961.827	85986.14
962.189	164911.83
962.552	114372.76
962.914	91816.25
963.276	59518.29
963.638	49138.26
964	48641.12
964.362	32912.51
964.724	31809.43
965.085	22666.97
965.447	18588.96
965.809	21157.41
966.17	21193.17
966.532	22924.61
966.893	21023.08
967.255	19129.84
967.616	22597.65
967.977	18090.97
968.338	19745.79
968.699	16238.57
969.061	16244.49
969.421	16351.4
969.782	18339.87
970.143	15496.12
970.504	16063.14
970.865	18254.09
971.225	18673.93
971.586	18277.5
971.946	26083.87
972.307	22620.4
972.667	29543.59
973.027	30394.63
973.388	36812.86
973.748	25064.91
974.108	27307.39
974.468	36943.63
974.828	28508.88
975.188	21902.98
975.548	20094.63
975.907	16836.34
976.267	18903.97
976.627	15892.53
976.986	16474.6
977.346	15701.84
977.705	15085.33
978.064	13709.85
978.424	11397.76
978.783	11772.87
979.142	13453.88
979.501	12879.04
979.86	13631.52
980.219	13118.7
980.578	16925.09
980.937	18944.53
981.296	16904.34
981.654	17391.53
982.013	27105.07
982.371	35176.34
982.73	32870.98
983.088	37190.2
983.447	39703.12
983.805	56737.43
984.163	118707.51
984.521	131599.74
984.879	192899.27
985.237	-313473.43
985.595	302508.54
985.953	75047.85
986.311	43296.81
986.669	25133.33
987.026	21711.86
987.384	29199.8
987.741	30175.87
988.099	21529.27
988.456	17178.83
988.814	16088.27
989.171	14006.42
989.528	13822.59
989.885	14589.67
990.242	11587.87
990.599	14416.13
990.956	11786.15
991.313	8259.65
991.67	6779.02
992.027	7198.1
992.383	6388.26
992.74	5600.48
993.096	5866.64
993.453	6076.64
993.809	6306.7
994.165	8382.81
994.522	7701.04
994.878	8484.81
995.234	10637.32
995.59	10496.88
995.946	9923.23
996.302	11321.65
996.658	13075.53
997.013	14384.37
997.369	17056.64
997.725	21847.66
998.08	14127.21
998.436	21694.1
998.791	29960.58
999.147	29891.37
999.502	32615.06
999.857	23718.36
1000.212	38600.55
1000.567	55109.12
1000.922	31834.61
1001.277	20206.4
1001.632	14972.15
1001.987	19305.84
1002.342	13875.71
1002.696	11103.7
1003.051	8854.39
1003.406	10725.96
1003.76	10699.34
1004.114	10574.77
1004.469	8883.74
1004.823	7353.9
1005.177	7936.61
1005.531	6300.24
1005.885	5591.76
1006.239	6310.3
1006.593	7908.65
1006.947	10601.65
1007.301	7943.2
1007.655	8631.18
1008.008	6333.31
1008.362	7103.17
1008.715	10139.45
1009.069	9218.56
1009.422	13864.41
1009.776	27848.59
1010.129	18465.55
1010.482	15399.87
1010.835	12977.32
1011.188	27027.79
1011.541	25475.36
1011.894	-156019.97
1012.247	460224.65
1012.6	31284.9
1012.952	19724.02
1013.305	10157.19
1013.657	7298.52
1014.01	6920.52
1014.362	5731.3
1014.715	5112.61
1015.067	4447.77
1015.419	4350.57
1015.771	3844.43
1016.123	3424.02
1016.475	3520.04
1016.827	3755.9
1017.179	4043.97
1017.531	4075.22
1017.883	4166.14
1018.234	4005.53
1018.586	5056.46
1018.938	5367.51
1019.289	7372.36
1019.64	8475.3
1019.992	7878.02
1020.343	7213.39
1020.694	5701.31
1021.045	5024.49
1021.396	5749.24
1021.747	6144.32
1022.098	7361.55
1022.449	5318.82
1022.8	4920.47
1023.151	3448.52
1023.501	3048.25
1023.852	3323.2
1024.202	3454.94
1024.553	3771.34
1024.903	3693.15
1025.253	3164.1
1025.604	2855.52
1025.954	3567.46
1026.304	4372.14
1026.654	5143.17
1027.004	7534.83
1027.354	12168.1
1027.703	11452.29
1028.053	15069.75
1028.403	22191.01
1028.753	32103.58
1029.102	43553.42
1029.452	223826.64
1029.801	9604.78
1030.15	6181.18
1030.499	5191.71
897.758	2669.74
901.051	2623.45
904.343	2657.19
907.636	2660.51
910.928	2725.18
914.22	2634.81
917.511	2642.12
920.803	2703.5
924.094	2720.25
927.384	2701.34
930.675	2666.18
933.965	2619.7
937.255	2630.42
940.544	2598.1
943.834	2537.37
947.123	2480.07
950.411	2576.29
953.7	2549.18
956.988	2518.4
960.276	2459.27
963.563	2535.91
966.851	2533.48
970.138	2591.53
973.424	2586.77
976.711	2537.72
979.997	2665.9
983.283	2703.45
986.568	2608.55
989.853	2622.3
993.138	2647.17
996.423	2732.4
999.708	2671.7
1002.992	2733.36
1006.275	2569.56
1009.559	2610.73
1012.842	2725.75
1016.125	2658.65
1019.408	2638.34
1022.69	2723.88
1025.972	2743.27
1029.254	2722.99
1032.536	2654.61
1035.817	2682.52
1039.098	2626.77
1042.379	2765.92
1045.659	2767.15
1048.939	2699.72
1052.219	2721.59
1055.498	2728.96
1058.778	2717.36
1062.057	2701.52
1065.335	2720.17
1068.614	2737.4
1071.892	2719.62
1075.17	2794.45
1078.447	2787.48
1081.724	2779.04
1085.001	2813.84
1088.278	2786.04
1091.554	2800.25
1094.83	2794.1
1098.106	2821.61
1101.382	2866.55
1104.657	2869.52
1107.932	2865.36
1111.206	2826.49
1114.481	2784.49
1117.755	2785.07
1121.029	2765.18
1124.302	2821.88
1127.575	2772.3
1130.848	2759.8
1134.121	2722.7
1137.393	2672.49
1140.665	2738.98
1143.937	2713.43
1147.208	2676.46
1150.48	2715.5
1153.75	2701.87
1157.021	2735.69
1160.291	2702.71
1163.561	2747.83
1166.831	2737.7
1170.101	2768.68
1173.37	2740.47
1176.639	2684.22
1179.907	2741.91
1183.176	2748.17
1186.444	2756.7
1189.711	2786.41
1192.979	2795.96
1196.246	2755.47
1199.513	2773.34
1202.78	2771.7
1206.046	2782.55
1209.312	2805.79
1212.578	2833.14
1215.843	2786.85
1219.108	2760.48
1222.373	2782.59
1225.638	2745.63
1228.902	2729.23
1232.166	2690.03
1235.43	2676.71
1238.693	2698.63
1241.956	2694.96
1245.219	2739.21
1248.482	2729.1
1251.744	2725.59
1255.006	2874.02
1258.268	2827.69
1261.529	2770.94
1264.79	2776.09
1268.051	2882.58
1271.312	2897.71
1274.572	2860.79
1277.832	2846.67
1281.092	2836.57
1284.351	2810.41
1287.61	2787.85
1290.869	2702.92
1294.128	2681.22
1297.386	2770.97
1300.644	2759.75
1303.902	2774.98
1307.159	2627.82
1310.416	2685.07
1313.673	2713.63
1316.93	2698.55
1320.186	2744.49
1323.442	2787.2
1326.697	2777.01
1329.953	2767.79
1333.208	2792.63
1336.463	2773.05
1339.717	2709.04
1342.972	2846.52
1346.226	2820.25
1349.479	2752.96
1352.733	2725.34
1355.986	2745.85
1359.238	2722.3
1362.491	2725.08
1365.743	2727.36
1368.995	2720.05
1372.247	2737.15
1375.498	2762.27
1378.749	2778.7
1382	2733.01
1385.251	2788.1
1388.501	2746.09
1391.751	2731.05
1395	2704.53
1398.25	2737.35
1401.499	2745.13
1404.748	2673.03
1407.996	2659.09
1411.244	2646.2
1414.492	2628.45
1417.74	2605.85
1420.987	2616.43
1424.234	2675.59
1427.481	2653.61
1430.728	2710.24
1433.974	2685.65
1437.22	2699.66
1440.465	2700.85
1443.711	2665.67
1446.956	2702.95
1450.201	2687.04
1453.445	2733.93
1456.689	2709.27
1459.933	2723.78
1463.177	2757.92
1466.42	2728.06
1469.663	2709.8
1472.906	2705.35
1476.148	2778.11
1479.391	2742.25
1482.633	2706.99
1485.874	2722.04
1489.115	2709.4
1492.356	2715
1495.597	2688.49
1498.838	2689.12
1502.078	2660.88
1505.318	2609.01
1508.557	2650.78
1511.797	2630.91
1515.036	2699.28
1518.274	2683.7
1521.513	2656.03
1524.751	2678.72
1527.989	2688.96
1531.227	2701.88
1534.464	2700.1
1537.701	2718.41
1540.938	2735.77
1544.174	2689.25
1547.41	2685.65
1550.646	2722.32
1553.882	2766.65
1557.117	2816.41
1560.352	2830.61
1563.587	2789.98
1566.821	2750.88
1570.055	2780.21
1573.289	2751.72
1576.523	2829.37
1579.756	2836.05
1582.989	2854.93
1586.222	2816.84
1589.454	2853.46
1592.686	2826.54
1595.918	2851.52
1599.15	2840.6
1602.381	2913.42
1605.612	2871.16
1608.843	2969.12
1612.073	2881.43
1615.303	2863.58
1618.533	2855.76
1621.762	2861.21
1624.992	2845.22
1628.221	2832.15
1631.449	2817.36
1634.678	2871.47
1637.906	2825.58
1641.134	2867.52
1644.361	2822.13
1647.588	2809.43
1650.815	2829.25
1654.042	2804.52
1657.269	2833.69
1660.495	2788.19
1663.72	2810.17
1666.946	2774.92
1670.171	2719.83
1673.396	2695.53
1676.621	2683.74
1679.845	2699.1
1683.069	2721.14
1686.293	2761.54
1689.517	2735.07
1692.74	2665.27
1695.963	2694.55
1699.185	2711.4
1702.408	2685.55
1705.63	2727.3
1708.852	2739.21
1712.073	2708.9
1715.294	2698.94
1718.515	2758.79
1721.736	2707.97
1724.956	2700.37
1728.176	2725.99
1731.396	2749.61
1734.616	2734.23
1737.835	2762.53
1741.054	2744.48
1744.272	2736.45
1747.491	2770.17
1750.709	2822.33
1753.927	2726.5
1757.144	2771.14
1760.361	2816.07
1763.578	2805.42
1766.795	2747.11
1770.011	2756.61
1773.227	2795.46
1776.443	2829.29
1779.658	2878.36
1782.874	2816.3
1786.089	2794.74
1789.303	2799.11
1792.518	2801.42
1795.732	2788.82
1798.945	2804.04
1802.159	2851.48
1805.372	2754.75
1808.585	2742
1811.797	2742
1815.01	2787.7
1818.222	2793.24
1821.434	2771.25
1824.645	2827.85
1827.856	2817.07
1831.067	2852.17
1834.278	2805.04
1837.488	2790.67
1840.698	2940.84
1843.908	2863.5
1847.117	2827.14
1850.326	2713.63
1853.535	2815.02
1856.744	2838.05
1859.952	2753.86
1863.16	2755.27
1866.368	2777.77
1869.575	2881
1872.782	2766.81
1875.989	2701.63
1879.196	2788.68
1882.402	2780.65
1885.608	2822.13
1888.814	2727.43
1892.019	2618.9
1895.224	2671.32
1898.429	2648.33
1901.634	2626.57
1904.838	2605.99
1908.042	2655.03
1911.246	2665.83
1914.449	2595.7
1917.652	2591.87
1920.855	2575.91
1924.058	2622.05
1927.26	2660.78
1930.462	2688.43
1933.664	2718.35
1936.865	2656.54
1940.066	2664.33
1943.267	2608.31
1946.467	2624.42
1949.668	2651.41
1952.868	2721
1956.067	2695.77
1959.267	2630.98
1962.466	2658.89
1965.665	2642.05
1968.863	2636.48
1972.061	2651.56
1975.259	2648.61
1978.457	2730.88
1981.654	2688.91
1984.852	2687.04
1988.048	2620.18
1991.245	2624.38
1994.441	2708.72
1997.637	2692.72
2000.833	2677.85
2004.028	2715.71
2007.223	2771.37
2010.418	2749.64
2013.613	2710.29
2016.807	2678.78
2020.001	2691.75
2023.194	2733.49
2026.388	2709.25
2029.581	2654.09
2032.774	2706.33
2035.966	2708.13
2039.158	2642.58
2042.35	2667.86
2045.542	2594.51
2048.733	2693.94
2051.924	2715.21
2055.115	2741.33
2058.306	2685.26
2061.496	2745.59
2064.686	2810.33
2067.875	2721.37
2071.065	2737.62
2074.254	2764.21
2077.442	2716.6
2080.631	2807.78
2083.819	2700.41
2087.007	2684.37
2090.195	2652.14
2093.382	2686.96
2096.569	2666.52
2099.756	2618.31
2102.942	2645.58
2106.128	2652.42
2109.314	2645.86
2112.5	2608.03
2115.685	2580.55
2118.87	2592.49
2122.055	2655.18
2125.239	2624.57
2128.424	2596.81
2131.608	2699.27
2134.791	2680.91
2137.974	2738.36
2141.157	2723.15
2144.34	2673.85
2147.523	2688.2
2150.705	2704.88
2153.887	2683.16
2157.068	2635.41
2160.25	2634.78
2163.431	2675.62
2166.611	2619.07
2169.792	2637.84
2172.972	2530.13
2176.152	2608.07
2179.331	2643.7
2182.511	2627.1
2185.69	2656.62
2188.868	2652.51
2192.047	2705.94
2195.225	2698.43
2198.403	2644.69
2201.58	2639.62
2204.758	2632.83
2207.935	2717.34
2211.111	2606.83
2214.288	2590.31
2217.464	2629.51
2220.64	2599.22
2223.815	2655.4
2226.991	2578.45
2230.166	2596.94
2233.34	2630.75
2236.515	2654.39
2239.689	2730.71
2242.863	2671.51
2246.036	2727.86
2249.209	2725.9
2252.382	2762.25
2255.555	2749.75
2258.727	2684.19
2261.9	2725
2265.071	2717.4
2268.243	2716.9
2271.414	2647.63
2274.585	2609.44
2277.756	2679.76
2280.926	2636.82
2284.096	2677.17
2287.266	2582.54
2290.436	2638.03
2293.605	2667.69
2296.774	2697.64
2299.942	2718.79
2303.111	2738.13
2306.279	2787.4
2309.447	2775.66
2312.614	2747.95
2315.781	2764.88
2318.948	2735.53
2322.115	2775.12
2325.281	2677.27
2328.447	2698.16
2331.613	2669.69
2334.779	2642.86
2337.944	2644.38
2341.109	2646.1
2344.274	2625.09
2347.438	2589.8
2350.602	2613.81
2353.766	2633.1
2356.929	2618.22
2360.092	2658.99
2363.255	2610.3
2366.418	2547.23
2369.58	2662.74
2372.742	2448.38
2375.904	2460.41
2379.066	2437.26
2382.227	2476.76
2385.388	2438.99
2388.548	2361.85
2391.709	2418.98
2394.869	2400.66
2398.029	2497.13
2401.188	2508.48
2404.347	2440.4
2407.506	2583.29
2410.665	2614.31
2413.823	2617.97
2416.981	2574.63
2420.139	2606
2423.296	2655.64
2426.453	2627.74
2429.61	2652.69
2432.767	2587.99
2435.923	2630.02
2439.079	2590.7
2442.235	2638.14
2445.391	2564
2448.546	2598.39
2451.701	2645.54
2454.855	2622
2458.009	2673.19
2461.163	2671.49
2464.317	2629.78
2467.471	2664.7
2470.624	2701.42
2473.777	2673.76
2476.929	2687.94
2480.082	2712.77
2483.234	2675.54
2486.385	2628.66
2489.537	2620.15
2492.688	2583.05
2495.839	2604.74
2498.989	2617.67
2502.14	2599.21
2505.29	2579.53
2508.439	2609.01
2511.589	2532.82
2514.738	2541.97
2517.887	2572.23
2521.035	2640.32
2524.183	2621.86
2527.331	2602.52
2530.479	2575.3
2533.627	2583.14
