Data from C_3_DEC_OH_4N_Splice17_13-33-28-415.txt Node
Date: Sat Mar 14 13:33:28 EDT 2020
User: sa697716
Spectrometer: FLMS03696
Trigger mode: 0
Integration Time (sec): 3.180400E-1
Scans to average: 20
Electric dark correction enabled: true
Nonlinearity correction enabled: true
Boxcar width: 5
XAxis mode: Wavelengths
Number of Pixels in Spectrum: 2048
>>>>>Begin Spectral Data<<<<<
187.83	-435314.18
188.298	3087.16
188.766	1654.42
189.233	1546.58
189.701	2140.22
190.169	2881.02
190.636	1062.9
191.104	842.83
191.571	150.5
192.039	-71.52
192.506	-119.56
192.974	621.86
193.441	-995.71
193.908	-340.37
194.375	-83.37
194.842	-13.66
195.31	89.57
195.777	194.22
196.244	516.96
196.711	683.13
197.177	867.74
197.644	1244.47
198.111	2158.92
198.578	3020.14
199.045	2416.75
199.511	3916.77
199.978	4528.81
200.445	3791.57
200.911	4167.16
201.378	4611.82
201.844	4137.49
202.31	7003.14
202.777	7220.39
203.243	3953.41
203.709	3728.43
204.176	4387.22
204.642	3620.73
205.108	3347.98
205.574	2728.61
206.04	2482.5
206.506	2319.49
206.972	2178.23
207.438	2115.87
207.903	2389.91
208.369	2091.3
208.835	2057.8
209.301	2152.34
209.766	2177.26
210.232	2170.34
210.697	2668.38
211.163	3269.64
211.628	4891.68
212.094	4077.21
212.559	4949.8
213.024	3065.86
213.49	3712.92
213.955	3603.26
214.42	3515.02
214.885	3297.73
215.35	3140.06
215.815	3019.37
216.28	3197.07
216.745	2596.82
217.21	2786.37
217.675	2533.03
218.14	2845.18
218.604	3140.74
219.069	3566.65
219.534	3707.66
219.998	4246.63
220.463	5118.1
220.927	6223.91
221.392	5808.13
221.856	5872.49
222.32	7351.87
222.785	9052.26
223.249	11339.71
223.713	12640.78
224.177	12622
224.642	16130.47
225.106	19825.26
225.57	21616.88
226.034	16091.69
226.497	24418.51
226.961	21963.95
227.425	25607.38
227.889	28348.14
228.353	28319.61
228.816	58322.58
229.28	55654.97
229.744	46914.66
230.207	28489.16
230.671	27949.78
231.134	46117.23
231.597	53247.85
232.061	53167.3
232.524	51726.86
232.987	35611.17
233.45	32010.15
233.914	28706.27
234.377	29380.25
234.84	26845.91
235.303	31622.62
235.766	35345.07
236.229	36524.91
236.691	22981.64
237.154	25816.34
237.617	19407.28
238.08	19862.47
238.542	23201.46
239.005	16569.43
239.468	16452.34
239.93	15502.42
240.393	14084.47
240.855	12342.12
241.317	12622.24
241.78	15343.87
242.242	15856.97
242.704	17138.35
243.166	14922.84
243.629	13574.29
244.091	15667.61
244.553	17174.47
245.015	18469.09
245.477	23873.8
245.939	35009.73
246.4	37156.71
246.862	36147.58
247.324	34103.33
247.786	38189.6
248.247	50044.57
248.709	51647.59
249.17	38586.39
249.632	36399.17
250.093	42260.88
250.555	36570.9
251.016	22324.19
251.477	21211.4
251.939	22903.53
252.4	24046.29
252.861	28587
253.322	26618.69
253.783	31715.81
254.244	41191.99
254.705	32494.45
255.166	28889.81
255.627	28461.29
256.088	40235.3
256.549	42758.39
257.009	36844.78
257.47	44780.15
257.931	36514.65
258.391	27390.39
258.852	28252.07
259.312	29642.69
259.773	36628.83
260.233	31000.79
260.694	26197.43
261.154	29729.17
261.614	23894.45
262.074	21401.64
262.534	22237.78
262.994	20990.02
263.455	28010.63
263.915	23646.42
264.374	22301.38
264.834	24388.31
265.294	27034.19
265.754	28022.42
266.214	26542.39
266.673	24888.68
267.133	31414.49
267.593	31197.09
268.052	38197.46
268.512	33245.55
268.971	40133.96
269.431	44059.67
269.89	39482.44
270.349	59311.01
270.809	66190.34
271.268	59569.45
271.727	133716.33
272.186	86711.77
272.645	65095.37
273.104	46984.89
273.563	68071.19
274.022	53525.03
274.481	45571.42
274.94	35100.25
275.399	26074.28
275.857	30387.9
276.316	41092.37
276.775	36596.85
277.233	36051.8
277.692	33773.94
278.15	38237.98
278.609	39365.22
279.067	36450.74
279.525	33845.56
279.984	43769.21
280.442	52663.34
280.9	51904.09
281.358	34166.09
281.816	31843.27
282.274	31187.76
282.732	32220.81
283.19	32376.53
283.648	27939.35
284.106	29790.37
284.564	30297.39
285.021	28087.02
285.479	20903.67
285.937	18984.3
286.394	16667.34
286.852	17161.84
287.309	18053.25
287.767	17455.48
288.224	16615.13
288.682	18232.36
289.139	20023.11
289.596	18365.62
290.053	19122.36
290.511	24189.01
290.968	29434.71
291.425	39980.2
291.882	33274.61
292.339	29001.67
292.796	28799.06
293.252	27151.7
293.709	21619.37
294.166	19383.62
294.623	21422.34
295.079	20551.84
295.536	20647.37
295.992	18724.92
296.449	18512.41
296.905	19260.2
297.362	18473.5
297.818	19439.1
298.274	20173.35
298.731	20545.53
299.187	20340.77
299.643	21837.43
300.099	26426.67
300.555	29008.21
301.011	24278.84
301.467	23434.19
301.923	27427.57
302.379	26777.55
302.835	26313.55
303.291	26359
303.746	29989.81
304.202	37901.48
304.658	38047.44
305.113	25578.71
305.569	25050.95
306.024	26700.54
306.479	25397.83
306.935	21418.54
307.39	23378.04
307.845	21585.06
308.301	21740.47
308.756	21200.37
309.211	20429.16
309.666	20932.4
310.121	25986.85
310.576	26399.99
311.031	26152.17
311.486	29948.97
311.94	29932.7
312.395	40043.47
312.85	75248.3
313.305	368679.92
313.759	1910754.05
314.214	138346.76
314.668	109828.25
315.123	92396.93
315.577	33142.36
316.032	29490.22
316.486	36947.77
316.94	29159.28
317.394	20312.6
317.849	15788.86
318.303	14982.98
318.757	14151.35
319.211	15655.32
319.665	13703.95
320.119	13881.94
320.572	19908.71
321.026	18644.54
321.48	15548.17
321.934	16956.33
322.387	16984.94
322.841	18370.86
323.295	16501.04
323.748	18976.2
324.202	19243.06
324.655	23102.82
325.108	32305.17
325.562	22814.37
326.015	27102.68
326.468	20468.89
326.921	22892.54
327.374	21386.37
327.827	22297.67
328.28	25291.21
328.733	16986.62
329.186	14947.72
329.639	14252.77
330.092	12005.18
330.545	11439.53
330.997	11533.29
331.45	12608.87
331.903	14774.43
332.355	25393.05
332.808	24604.3
333.26	20302.84
333.713	21998.66
334.165	22135.91
334.617	29478.59
335.069	23781.23
335.522	42962.81
335.974	47624.01
336.426	43495.47
336.878	30106.36
337.33	15276.47
337.782	14938.9
338.234	18693.76
338.686	22325.05
339.137	26507.63
339.589	25027.82
340.041	19646.82
340.493	16920.41
340.944	17308.49
341.396	18653.51
341.847	15713.44
342.299	18563.59
342.75	22681.93
343.201	19831.78
343.653	22854.46
344.104	28091.49
344.555	22152.08
345.006	34490.26
345.457	26435.18
345.908	20998.43
346.359	19785.67
346.81	16134.2
347.261	17000.63
347.712	16728.48
348.163	17941.93
348.613	18173.95
349.064	16988.6
349.515	14846.12
349.965	15265.26
350.416	18385.42
350.866	20208.73
351.317	22817.26
351.767	37794.4
352.217	47768.25
352.668	39718.3
353.118	36422.16
353.568	35070.12
354.018	27693.5
354.468	29294.25
354.918	20987.61
355.368	18364.08
355.818	25925.56
356.268	74614.89
356.718	312528.91
357.168	77723.64
357.617	38969.86
358.067	43298.23
358.517	40668.52
358.966	47771.26
359.416	53526.19
359.865	57875.22
360.315	68985.79
360.764	32238.18
361.213	18070.13
361.663	17078.43
362.112	21135.17
362.561	34163.15
363.01	25839.3
363.459	21768.06
363.908	23541.71
364.357	19993.17
364.806	33736.01
365.255	23187.04
365.703	21279.74
366.152	21342.96
366.601	17325.7
367.05	14067.23
367.498	12785.18
367.947	13367.87
368.395	13886.63
368.844	12318.3
369.292	14875.47
369.74	10310.17
370.189	15787.5
370.637	18511.27
371.085	15985.12
371.533	19494.28
371.981	18744.78
372.429	17892.83
372.877	18618.67
373.325	15584.05
373.773	15851.99
374.221	14112.27
374.669	17476.69
375.116	15112.92
375.564	15214.51
376.012	17005.61
376.459	14023.14
376.907	16769.91
377.354	20257.69
377.801	18905.63
378.249	21746.68
378.696	27801.74
379.143	33624.37
379.591	35865.87
380.038	60751.52
380.485	43914.11
380.932	47426.76
381.379	43429.79
381.826	32015.15
382.273	22770.59
382.72	19908.39
383.166	19443.53
383.613	12662.62
384.06	11464.89
384.506	13346.08
384.953	9837.37
385.4	9968.29
385.846	8780.67
386.292	8615.97
386.739	8521.63
387.185	8521.82
387.631	8643.66
388.078	8527.86
388.524	9247.75
388.97	8645.08
389.416	7267.95
389.862	7793.96
390.308	7439.93
390.754	7638.08
391.2	8415.43
391.645	8784.32
392.091	8603.71
392.537	8476.03
392.983	8618.19
393.428	8589.31
393.874	9364.25
394.319	9651.85
394.765	9506.45
395.21	10251.79
395.655	10102.98
396.101	9967.03
396.546	9456
396.991	10036.08
397.436	9847.49
397.881	10102.91
398.326	10228.65
398.771	10321.42
399.216	9616.41
399.661	9175.79
400.106	9621.42
400.551	10351.73
400.995	9723.21
401.44	10041.4
401.885	9814.14
402.329	10286.27
402.774	10197.67
403.218	10161.49
403.663	10127.54
404.107	10766.53
404.551	11247.84
404.995	10741.65
405.44	10805.08
405.884	11440.8
406.328	11515.18
406.772	11891.55
407.216	11218.76
407.66	11286.35
408.104	11250.43
408.547	11000.79
408.991	11062.89
409.435	11034.76
409.879	11201.46
410.322	11361.72
410.766	11267.07
411.209	11028.79
411.653	10948.63
412.096	11054.55
412.54	11396.28
412.983	11601.92
413.426	11880.53
413.869	12172.67
414.312	12186.43
414.756	12022.42
415.199	11726.95
415.642	11621.47
416.085	11857.16
416.527	11980.09
416.97	12386.74
417.413	11904.49
417.856	11959.64
418.298	11979.65
418.741	11999.04
419.184	12075.67
419.626	12689.99
420.069	12775.54
420.511	12933.54
420.953	12761.5
421.396	12770.43
421.838	12582.53
422.28	13008.98
422.722	13185.93
423.164	13590.44
423.606	13559.91
424.048	13779.35
424.49	13254.99
424.932	13390.47
425.374	13392.17
425.816	13734.47
426.258	13973.28
426.699	13993.4
427.141	13516.12
427.582	13523
428.024	13323.27
428.465	13297.56
428.907	13128.65
429.348	13232.06
429.789	13434.23
430.231	13297.99
430.672	13663.54
431.113	13603.6
431.554	13828.91
431.995	14090.07
432.436	14123.05
432.877	14298.78
433.318	14387.83
433.759	14620.57
434.2	14828.67
434.64	14869.41
435.081	15128.57
435.522	14559.4
435.962	14304.81
436.403	14203.15
436.843	14649.87
437.284	14569.79
437.724	14368.88
438.164	14620.14
438.604	14433.74
439.045	14001.48
439.485	13572.36
439.925	13506.68
440.365	13389.69
440.805	13392.77
441.245	13363.18
441.685	12959.94
442.125	12965.98
442.564	13112.93
443.004	12828.6
443.444	12850.13
443.883	12939.86
444.323	12988.15
444.762	13169.73
445.202	13451.37
445.641	13728.7
446.081	13784.71
446.52	13977.27
446.959	13926.86
447.398	13691.49
447.837	13684.7
448.276	13588.22
448.716	13807.93
449.154	13983.4
449.593	13586.05
450.032	13496.72
450.471	13280.17
450.91	13276.67
451.349	13182.36
451.787	13099.31
452.226	13245.7
452.664	13177.4
453.103	13128.35
453.541	13082.49
453.98	12954.53
454.418	13038.74
454.856	12770.27
455.295	12703.19
455.733	12715.77
456.171	12743.42
456.609	12671.54
457.047	12604.57
457.485	12696.46
457.923	12649.36
458.361	12450.48
458.798	12496.24
459.236	12460.91
459.674	12605.33
460.111	12687.24
460.549	12599.33
460.987	12620.5
461.424	12644.11
461.862	12630.55
462.299	12495.41
462.736	12510.99
463.173	12596.57
463.611	12428.86
464.048	12421.52
464.485	12558.66
464.922	12518.49
465.359	12558.39
465.796	12284.42
466.233	12273.18
466.67	12203.88
467.106	12236.71
467.543	12238.16
467.98	12189.45
468.416	12055.72
468.853	12108.92
469.29	11872.89
469.726	11838.51
470.162	11604.49
470.599	11700.04
471.035	11695.69
471.471	11519.45
471.907	11574.76
472.344	11565.52
472.78	11605.34
473.216	11773.3
473.652	11618.21
474.088	11588.55
474.523	11515.59
474.959	11608.62
475.395	11468.96
475.831	11337.94
476.266	11351.83
476.702	11268.69
477.138	11075.58
477.573	10979.11
478.008	10854.25
478.444	10799.7
478.879	10772.83
479.314	10722.04
479.75	10608.72
480.185	10565.4
480.62	10557.18
481.055	10497.97
481.49	10435.52
481.925	10445.24
482.36	10421.13
482.795	10542.34
483.229	10649.39
483.664	10687.82
484.099	10564.33
484.534	10557.15
484.968	10506.87
485.403	10410.88
485.837	10295.4
486.271	10173.39
486.706	10099.28
487.14	9963.86
487.574	9759.71
488.009	9641.77
488.443	9523.06
488.877	9543.83
489.311	9518.47
489.745	9557.61
490.179	9569.19
490.613	9636.63
491.046	9653.71
491.48	9659.45
491.914	9599.1
492.348	9605.14
492.781	9598.7
493.215	9575.51
493.648	9571.96
494.082	9603.86
494.515	9558.08
494.948	9598.67
495.382	9628.78
495.815	9619.35
496.248	9615.99
496.681	9718.99
497.114	9801.31
497.547	9844.71
497.98	9905.26
498.413	9862.67
498.846	9877.94
499.279	9898.34
499.711	9874.08
500.144	9817.78
500.577	9841.62
501.009	9886.5
501.442	9891.33
501.874	9801.78
502.306	9755.89
502.739	9735.55
503.171	9851.36
503.603	9808.88
504.036	9828.47
504.468	9793.26
504.9	9816.91
505.332	9798.27
505.764	9742.87
506.196	9724.63
506.627	9774.32
507.059	9796.85
507.491	9808.42
507.923	9651.2
508.354	9681.43
508.786	9671.15
509.217	9725.44
509.649	9748.82
510.08	9810.4
510.512	9831.39
510.943	9840.51
511.374	9813.88
511.805	9864.79
512.237	9908.87
512.668	10072.73
513.099	10171.57
513.53	10239.67
513.961	10240.32
514.391	10332.54
514.822	10412.39
515.253	10532.71
515.684	10566.54
516.114	10636.25
516.545	10635.68
516.975	10675.07
517.406	10651.92
517.836	10530.61
518.267	10454.8
518.697	10466.83
519.127	10387.5
519.558	10334.67
519.988	10250.46
520.418	10219.26
520.848	10233.66
521.278	10189.16
521.708	9933.3
522.138	9920.04
522.567	10022.48
522.997	10075.45
523.427	10063.33
523.857	10051.61
524.286	10011.85
524.716	10009.23
525.145	10028.12
525.575	10008.6
526.004	10018.05
526.433	10135.03
526.863	10062.84
527.292	9926.76
527.721	9903.36
528.15	9899.84
528.579	9866.94
529.008	9893.09
529.437	9983.91
529.866	10013.76
530.295	10059.13
530.724	10067.68
531.152	10164.33
531.581	10186.88
532.01	10243.58
532.438	10249.02
532.867	10290.45
533.295	10354.33
533.723	10349.39
534.152	10302.39
534.58	10270.95
535.008	10157.36
535.436	10140.45
535.865	10162.5
536.293	10223.3
536.721	10284.78
537.149	10389.96
537.576	10371.97
538.004	10421.53
538.432	10453.58
538.86	10431.9
539.287	10467.29
539.715	10536.04
540.143	10560.11
540.57	10545.63
540.998	10539.63
541.425	10416.29
541.852	10329.62
542.28	10346.78
542.707	10285
543.134	10230.09
543.561	10228.69
543.988	10206.62
544.415	10229.86
544.842	10221.73
545.269	10199.28
545.696	10223.36
546.123	10329.55
546.549	10289.7
546.976	10233.92
547.403	10246.13
547.829	10279.31
548.256	10318.33
548.682	10318.14
549.108	10291.29
549.535	10310.58
549.961	10343.1
550.387	10286.93
550.813	10265.42
551.24	10320.7
551.666	10346.36
552.092	10309.84
552.518	10292.42
552.943	10263.26
553.369	10325.72
553.795	10373.6
554.221	10385.59
554.646	10378.43
555.072	10434.91
555.498	10474.11
555.923	10528.23
556.349	10612.97
556.774	10662.37
557.199	10666.59
557.625	10718.85
558.05	10682.76
558.475	10749.78
558.9	10747.86
559.325	10702.59
559.75	10680.33
560.175	10653.8
560.6	10632.27
561.025	10630.51
561.449	10646.71
561.874	10686.06
562.299	10701.61
562.723	10746.78
563.148	10680.45
563.572	10701.74
563.997	10758.96
564.421	10792.49
564.846	10790.04
565.27	10795.12
565.694	10773.89
566.118	10823.11
566.542	10848.17
566.966	10799.33
567.39	10754.81
567.814	10679.82
568.238	10670.16
568.662	10698.28
569.086	10710.96
569.509	10769.4
569.933	10693.36
570.357	10682.59
570.78	10596.77
571.204	10553.69
571.627	10541.05
572.05	10587.53
572.474	10642.47
572.897	10638.86
573.32	10657.64
573.743	10678.54
574.166	10630.19
574.589	10712.61
575.012	10735.24
575.435	10809.73
575.858	10832.78
576.281	10845.58
576.704	10831.68
577.126	10847.91
577.549	10858.08
577.972	10886.31
578.394	10895.65
578.817	10916.55
579.239	10876.64
579.661	10867.23
580.084	10825.13
580.506	10819.89
580.928	10874.88
581.35	10876.29
581.772	10913.72
582.194	10885.92
582.616	10853.51
583.038	10820.27
583.46	10816.8
583.882	10844.37
584.303	10932.26
584.725	10965.43
585.147	10977.55
585.568	11069.68
585.99	11157.98
586.411	11204.66
586.833	11310.84
587.254	11329.7
587.675	11447.1
588.096	11557.36
588.518	11533.96
588.939	11421.75
589.36	11419.41
589.781	11413.39
590.202	11210.83
590.623	11190.66
591.043	11217.6
591.464	11154.39
591.885	11144.01
592.305	11112.95
592.726	11015.79
593.147	11021.65
593.567	10978.88
593.987	10912.47
594.408	10860.13
594.828	10854.14
595.248	10775.45
595.669	10599.2
596.089	10518.57
596.509	10446.88
596.929	10308.26
597.349	10270.85
597.769	10157.04
598.189	10062.04
598.608	10026.6
599.028	9990.47
599.448	9948.6
599.867	9825.93
600.287	9772.88
600.706	9706.42
601.126	9605.47
601.545	9568.24
601.965	9543.03
602.384	9492.75
602.803	9506.25
603.222	9462.39
603.641	9417.39
604.061	9386.69
604.48	9366.62
604.898	9430.21
605.317	9481.47
605.736	9510.44
606.155	9504.36
606.574	9458.23
606.992	9516.72
607.411	9503.06
607.829	9480.47
608.248	9490.72
608.666	9510.44
609.085	9535.29
609.503	9503.83
609.921	9488.27
610.339	9535.42
610.758	9570.78
611.176	9573.19
611.594	9541.68
612.012	9555.8
612.43	9605.21
612.847	9682.48
613.265	9707.41
613.683	9771.22
614.101	9811.52
614.518	9825.51
614.936	9790.45
615.353	9716.83
615.771	9728.9
616.188	9768.03
616.606	9777.8
617.023	9766.06
617.44	9698.98
617.857	9701.59
618.274	9679.9
618.691	9666.07
619.108	9627.23
619.525	9609.75
619.942	9680.93
620.359	9719.61
620.776	9697.68
621.192	9670.07
621.609	9658.09
622.026	9704.72
622.442	9745.91
622.859	9772.57
623.275	9721.7
623.691	9764.96
624.108	9852.38
624.524	9965.18
624.94	9960.36
625.356	10032.34
625.772	10141.2
626.188	10233.71
626.604	10244.53
627.02	10213.24
627.436	10187.84
627.852	10230.37
628.268	10313.16
628.683	10242.52
629.099	10177.85
629.514	10154.84
629.93	10195.42
630.345	10239.86
630.761	10225.69
631.176	10271.47
631.591	10229.39
632.007	10205.79
632.422	10230.08
632.837	10175.71
633.252	10178
633.667	10132.54
634.082	10095.13
634.497	10027.63
634.911	9902.76
635.326	9918.96
635.741	9831.11
636.155	9814.05
636.57	9867.71
636.984	9912.61
637.399	9963.95
637.813	10025.95
638.228	10071.57
638.642	10167
639.056	10145.98
639.47	10220
639.884	10214.42
640.298	10228.46
640.712	10284.6
641.126	10256.11
641.54	10264.73
641.954	10325.55
642.368	10290.35
642.781	10272.19
643.195	10186.69
643.609	10255.63
644.022	10268.1
644.436	10293.09
644.849	10247.46
645.262	10200.76
645.676	10276.43
646.089	10270.49
646.502	10149.98
646.915	10152.2
647.328	10065.25
647.741	10098.91
648.154	10030.62
648.567	10028.73
648.98	9943.03
649.393	9994
649.805	10006.7
650.218	9982.7
650.631	9872.71
651.043	9867.34
651.456	9841.53
651.868	9879.04
652.28	10067.14
652.693	10184.02
653.105	10215.32
653.517	10248.84
653.929	10195.04
654.341	10214.78
654.753	10073.41
655.165	10148.13
655.577	10144.49
655.989	10140.97
656.401	10126.35
656.813	9819.9
657.224	9727.04
657.636	9595.18
658.047	9560.93
658.459	9510.68
658.87	9562.58
659.282	9566.81
659.693	9435.42
660.104	9362.27
660.515	9300.08
660.926	9351.17
661.338	9407.76
661.749	9419.69
662.159	9372.3
662.57	9409.73
662.981	9421.78
663.392	9391.26
663.803	9489.1
664.213	9525.07
664.624	9537.36
665.035	9628.98
665.445	9523.26
665.855	9471.04
666.266	9397.93
666.676	9410.41
667.086	9330.19
667.497	9335.56
667.907	9277.56
668.317	9180.58
668.727	9100.37
669.137	9121.13
669.547	9082.12
669.956	9113.52
670.366	9132.31
670.776	9142.14
671.186	9177.43
671.595	9192.86
672.005	9226.93
672.414	9184.65
672.824	9132.72
673.233	9206.49
673.642	9200.88
674.052	9197.35
674.461	9173.83
674.87	9199.59
675.279	9121.94
675.688	9117.4
676.097	9079.68
676.506	9000.47
676.915	9140.7
677.323	9133.66
677.732	9070.93
678.141	9025.45
678.549	8874.65
678.958	8832.37
679.366	8779.89
679.775	8806.45
680.183	8829.65
680.592	8844.61
681	8838.12
681.408	8685.1
681.816	8694.21
682.224	8708.65
682.632	8696.25
683.04	8889.18
683.448	8976.6
683.856	9054.79
684.264	9118.31
684.671	9161.6
685.079	9244.09
685.487	9347.68
685.894	9585.26
686.302	9697.2
686.709	9696.81
687.116	9755.05
687.524	9724.04
687.931	9685
688.338	9664.8
688.745	9654.1
689.152	9655.45
689.559	9705.4
689.966	9716.01
690.373	9565.85
690.78	9520.74
691.187	9601.49
691.593	9569.91
692	9503.82
692.407	9543.07
692.813	9631.94
693.22	9650.77
693.626	9697.41
694.032	9680.78
694.439	9802.72
694.845	9851.84
695.251	9980.01
695.657	10064.53
696.063	10288.54
696.469	10382.31
696.875	10440.87
697.281	10378.46
697.687	10335.12
698.093	10245.74
698.498	10297.56
698.904	10281.93
699.31	10380.38
699.715	10378.47
700.12	10510.16
700.526	10397.31
700.931	10484.55
701.337	10520.5
701.742	10507.86
702.147	10675.87
702.552	10664.99
702.957	10761.64
703.362	10732.42
703.767	10736.27
704.172	10786.18
704.577	10550.8
704.981	10617.76
705.386	10576.99
705.791	10462.82
706.195	10603.82
706.6	10541.21
707.004	10703.96
707.408	10534.73
707.813	10533.27
708.217	10418.1
708.621	10348.31
709.025	10555.92
709.43	10474.78
709.834	10573.3
710.237	10696.42
710.641	10578.24
711.045	10567.32
711.449	10472.82
711.853	10459.04
712.256	10491.76
712.66	10503.9
713.064	10597.08
713.467	10565.59
713.87	10679.41
714.274	10575.86
714.677	10599.68
715.08	10712.45
715.484	10808.38
715.887	10941.38
716.29	11056.64
716.693	11154.18
717.096	11312.22
717.499	11271.4
717.901	11102.95
718.304	11052.49
718.707	11094.92
719.109	10962.62
719.512	11004.08
719.915	10828.09
720.317	10813.67
720.719	10978.7
721.122	10985.36
721.524	10932.96
721.926	10867.45
722.328	11052.66
722.731	10962.46
723.133	10911.85
723.535	11170.32
723.937	11071.61
724.338	11054.82
724.74	11038.13
725.142	10799.76
725.544	10760.42
725.945	10772.77
726.347	10747.51
726.748	10714.47
727.15	10731.15
727.551	10642.67
727.952	10572.51
728.354	10509.16
728.755	10521.67
729.156	10474.06
729.557	10560.15
729.958	10393.33
730.359	10377.4
730.76	10439.53
731.161	10430.21
731.562	10486.49
731.962	10599.74
732.363	10564.67
732.763	10520.97
733.164	10666.03
733.564	10580.11
733.965	10410.2
734.365	10362.78
734.766	10438.97
735.166	10359.05
735.566	10227.28
735.966	10146.67
736.366	10117.59
736.766	9983.21
737.166	10049.97
737.566	9969.5
737.966	9917.71
738.365	9998.93
738.765	9977.91
739.165	9817.96
739.564	9762.31
739.964	9868.18
740.363	9791.81
740.763	9806.66
741.162	9788.65
741.561	9728.46
741.96	9637.16
742.36	9690.12
742.759	9712.68
743.158	9806.08
743.557	9844.84
743.955	9931.01
744.354	9835.08
744.753	9950.46
745.152	9849.78
745.55	9963.1
745.949	9935.14
746.348	9926.39
746.746	9943.58
747.144	9835.07
747.543	9769.47
747.941	9848.83
748.339	9680.78
748.737	9642.69
749.136	9604.76
749.534	9720.84
749.932	9636.21
750.33	9673.4
750.727	9774.74
751.125	9718
751.523	9684.46
751.921	9763.02
752.318	9685.21
752.716	9796.67
753.113	9815.84
753.511	9855.05
753.908	9843.47
754.305	9794
754.703	9901.94
755.1	10007.11
755.497	10099.17
755.894	10415.4
756.291	10617.37
756.688	10962.64
757.085	11320.42
757.482	11793.95
757.878	12181.47
758.275	12368.3
758.672	12852.87
759.068	13040.53
759.465	13490.02
759.861	14110.34
760.258	14813.94
760.654	14816.37
761.05	14261.54
761.447	13628.84
761.843	13018.75
762.239	12489.56
762.635	12498.96
763.031	12458.53
763.427	12160.5
763.822	11828.62
764.218	11538.25
764.614	10986.08
765.01	10737.88
765.405	10702.86
765.801	10730.18
766.196	10583.41
766.592	10615.32
766.987	10372.4
767.382	10254.08
767.778	10305.4
768.173	10242.77
768.568	10241.92
768.963	10106.85
769.358	10217.8
769.753	10184.44
770.148	10069.27
770.542	10100.66
770.937	10067.98
771.332	10260.12
771.726	10305.58
772.121	10182.12
772.515	10284.87
772.91	10252.8
773.304	10390.31
773.699	10260.36
774.093	10358.03
774.487	10455.17
774.881	10524.5
775.275	10498.33
775.669	10407.07
776.063	10476.98
776.457	10531.99
776.851	10370.09
777.245	10333.73
777.638	10374.03
778.032	10566.85
778.425	10474.63
778.819	10529.81
779.212	10428.09
779.606	10332.07
779.999	10344.55
780.392	10284.4
780.786	10411.34
781.179	10423.12
781.572	10473.99
781.965	10468.29
782.358	10329.35
782.751	10405.11
783.143	10278.54
783.536	10373.32
783.929	10406.91
784.322	10567.04
784.714	10574.11
785.107	10514.74
785.499	10591.26
785.891	10489.97
786.284	10386.83
786.676	10564.29
787.068	10452.39
787.46	10472.16
787.852	10436.93
788.245	10518.58
788.636	10503.86
789.028	10552
789.42	10552.7
789.812	10503.2
790.204	10605.9
790.595	10719.39
790.987	10357.32
791.378	10355.2
791.77	10525.59
792.161	10705.45
792.553	10754.86
792.944	10527.3
793.335	10371.86
793.726	10443.43
794.117	10541.07
794.508	10724.74
794.899	10640.06
795.29	10824.37
795.681	10874.62
796.072	10612.22
796.463	10266.65
796.853	10225.85
797.244	10420.35
797.634	10424.44
798.025	10370.76
798.415	10340.74
798.806	10413.4
799.196	10475.83
799.586	10475.03
799.976	10340.44
800.366	10606.03
800.756	10895.6
801.146	10771.19
801.536	10750.36
801.926	10791.63
802.316	10779.07
802.706	10826.23
803.095	10600.47
803.485	10698.47
803.874	10713.74
804.264	11038.69
804.653	10954.75
805.043	11101.37
805.432	11198.67
805.821	11141.24
806.21	11103.06
806.599	11177.88
806.988	11151.1
807.377	11201.17
807.766	11259.72
808.155	11508.26
808.544	11035.35
808.933	10923
809.321	10762.57
809.71	10981.8
810.098	11010.87
810.487	11383.12
810.875	11746.15
811.264	11541.47
811.652	11626.56
812.04	11536.7
812.428	11457.85
812.816	12003.51
813.204	12150.67
813.592	12411.89
813.98	12459.83
814.368	12104.74
814.756	12332.64
815.144	12047.61
815.531	12297.45
815.919	12081.34
816.306	12228.56
816.694	11850.63
817.081	11842.87
817.469	12130.63
817.856	12156.41
818.243	12433.04
818.63	12816.01
819.017	12438.85
819.404	12446.74
819.791	12671.79
820.178	13054.42
820.565	13147.4
820.952	13856.63
821.339	13354.76
821.725	13433.6
822.112	12717.75
822.498	12585.45
822.885	12600.56
823.271	12465.27
823.657	12819.22
824.044	12885.63
824.43	13014.49
824.816	13008.75
825.202	12610.08
825.588	13381.25
825.974	13299.84
826.36	13596.25
826.746	13495.49
827.132	13663.13
827.517	13527.54
827.903	12789.59
828.289	12712.05
828.674	12014.43
829.06	11864.08
829.445	12104.3
829.83	12315.49
830.216	12603.94
830.601	12823.87
830.986	12477.19
831.371	12325.21
831.756	12711.12
832.141	12370.87
832.526	12338.52
832.911	12526.59
833.295	12425.26
833.68	12757.03
834.065	12292.86
834.449	11619.51
834.834	11569.8
835.218	11562.59
835.603	11806.11
835.987	11620.19
836.371	12198.25
836.755	12103.22
837.139	12375.95
837.524	12525.84
837.908	12369.83
838.291	12384.65
838.675	12400.9
839.059	12514.56
839.443	12462.58
839.827	12262.93
840.21	12573.23
840.594	12429.87
840.977	12521.13
841.361	12453.32
841.744	12665.89
842.127	12512.11
842.511	12638.55
842.894	13013.64
843.277	13228.42
843.66	13557.83
844.043	13564.98
844.426	12963.49
844.809	12698.5
845.191	12680.32
845.574	12330.53
845.957	12036.19
846.339	11902.21
846.722	11475.81
847.104	11437.82
847.487	11242.69
847.869	11180.44
848.252	11294.11
848.634	11436.05
849.016	11540.86
849.398	11554.16
849.78	12024.42
850.162	11961.17
850.544	12147.95
850.926	12445.4
851.307	12293.19
851.689	12366.67
852.071	12545.77
852.452	12652.29
852.834	12564.73
853.215	12740.64
853.597	12768.98
853.978	12888.01
854.359	13112.19
854.741	12510.22
855.122	12465.3
855.503	12326.98
855.884	12441.42
856.265	12426.49
856.646	12495.52
857.026	12260.56
857.407	12203.54
857.788	12274.23
858.169	12411.46
858.549	11882.7
858.93	12204.07
859.31	12198.08
859.69	12276.97
860.071	11998.96
860.451	11837.02
860.831	11372.64
861.211	11998.31
861.591	12262.64
861.971	12196.44
862.351	12246.63
862.731	12383.28
863.111	12445.09
863.491	12530.28
863.87	12910.72
864.25	13002.47
864.629	12693.3
865.009	12882.44
865.388	13253.49
865.768	14122.64
866.147	13991.82
866.526	13170.96
866.905	13294.11
867.284	14022.02
867.663	13306.98
868.042	12753.39
868.421	12706.76
868.8	12899.42
869.179	13022.93
869.558	12249.86
869.936	11277.51
870.315	11463.83
870.693	11722
871.072	12620.3
871.45	12000.34
871.828	12139.2
872.207	12743.92
872.585	12525.62
872.963	12833.53
873.341	12356.84
873.719	12195.22
874.097	12023.61
874.475	12220.62
874.853	12473.73
875.23	11931.56
875.608	12405.76
875.986	13390.35
876.363	12776.78
876.741	13143.86
877.118	12796.49
877.495	13399.58
877.873	13578.45
878.25	14246.64
878.627	13622.84
879.004	13775.34
879.381	13656.07
879.758	13268.41
880.135	12313.48
880.512	12988.67
880.889	12601.09
881.265	12433.85
881.642	12288.61
882.019	12466.4
882.395	12182.56
882.772	12662.21
883.148	12080.11
883.524	12013.48
883.901	11910.61
884.277	12056.44
884.653	11931.14
885.029	12250.31
885.405	13547.03
885.781	13411.73
886.157	12821.31
886.532	12948.35
886.908	12896.89
887.284	14301.71
887.659	14725.12
888.035	15144.31
888.411	15495.87
888.786	15675.44
889.161	16178.95
889.537	15824.58
889.912	16280.56
890.287	16202.7
890.662	16546.66
891.037	16162.75
891.412	14993.88
891.787	14747.48
892.162	14131.7
892.536	14345.27
892.911	13682.08
893.286	13255.51
893.66	12584.01
894.035	12768.01
894.409	13754.32
894.784	13067.28
895.158	13134.47
895.532	13759.16
895.906	13979.49
896.281	14140.44
896.655	13765.23
897.029	15575.83
897.402	16071.9
897.776	17733.01
898.15	17534.87
898.524	17223.79
898.898	17328.89
899.271	19317.53
899.645	16664.26
900.018	15968.75
900.392	16556.99
900.765	16710.53
901.138	15514.65
901.511	15345.75
901.884	14186.46
902.258	13165.48
902.631	13688.81
903.003	15839.15
903.376	14360.06
903.749	16177.96
904.122	17365.7
904.495	19145.71
904.867	19363.24
905.24	16761.14
905.612	15542.08
905.985	15783.71
906.357	16395.04
906.729	15537.99
907.102	13180.26
907.474	12578.08
907.846	12567.32
908.218	12337.83
908.59	10868.68
908.962	10464.78
909.334	11235.17
909.705	11761.4
910.077	11387.65
910.449	11830.01
910.82	12128.13
911.192	13325.87
911.563	13841.14
911.935	14783.77
912.306	14774.46
912.677	15197.44
913.048	15029.6
913.419	16257.54
913.79	16300.13
914.161	17435.56
914.532	16632.73
914.903	15270.3
915.274	14473.93
915.645	14222.07
916.015	12505.17
916.386	11920.67
916.756	12712.98
917.127	13134.92
917.497	11776.15
917.868	12880.23
918.238	12299.01
918.608	12709.95
918.978	13031.18
919.348	13848.1
919.718	14389.89
920.088	13921.56
920.458	14531.41
920.828	15318.16
921.198	14534.2
921.567	15529.8
921.937	12024
922.306	12109.54
922.676	13027.59
923.045	10870.02
923.415	10326.83
923.784	9377.35
924.153	9637.19
924.522	9611.39
924.891	9014.89
925.26	9631.09
925.629	9356.43
925.998	10690.38
926.367	10382.47
926.736	9862.62
927.104	11634.53
927.473	12386.55
927.842	14800.38
928.21	14454.24
928.578	14952.33
928.947	13939.85
929.315	13852.11
929.683	16035.41
930.051	15926.78
930.42	18235.71
930.788	15304.34
931.156	14968.58
931.523	13849.01
931.891	12624.19
932.259	11964.71
932.627	13728.57
932.994	19213.98
933.362	15725.62
933.729	13531.45
934.097	12853.65
934.464	10807.37
934.831	12379.44
935.199	12138.7
935.566	11732.64
935.933	11858.22
936.3	14417.89
936.667	11248.94
937.034	10305.5
937.401	10233.28
937.767	8913.28
938.134	8019.74
938.501	11429.01
938.867	12356.04
939.234	21167.76
939.6	18267.6
939.967	20420.62
940.333	13790.19
940.699	11834.7
941.065	9431.89
941.431	12475.48
941.798	12135.99
942.163	15997.96
942.529	9992.16
942.895	9175.13
943.261	5946
943.627	7782.53
943.992	6797.4
944.358	6787.34
944.723	6845.85
945.089	6649.31
945.454	6145.12
945.82	6509.85
946.185	6225.31
946.55	7226.43
946.915	6507.05
947.28	7611.7
947.645	6722.66
948.01	6242.38
948.375	6529.73
948.74	7766.8
949.104	9079.91
949.469	13010.28
949.834	23000.1
950.198	22051.73
950.562	13213.36
950.927	10978.91
951.291	13199.97
951.655	11197.72
952.02	10458.27
952.384	7907.21
952.748	6914.09
953.112	6794.07
953.476	5898.02
953.839	5430.13
954.203	5354.15
954.567	6675.52
954.931	10456.85
955.294	8940.97
955.658	8991.4
956.021	15304.76
956.385	25885.61
956.748	38197.75
957.111	58696.77
957.474	66061.41
957.837	74439.89
958.2	56037.26
958.563	20230.76
958.926	13743.03
959.289	20892.8
959.652	23476.22
960.015	17652.56
960.377	25342.96
960.74	28907.44
961.102	49996.11
961.465	54124.46
961.827	29570.8
962.189	56883.72
962.552	39512.49
962.914	31730.06
963.276	20617.31
963.638	17055.84
964	16893.73
964.362	11473.06
964.724	11107.09
965.085	7963.67
965.447	6524.48
965.809	7342.02
966.17	7359.06
966.532	7952.39
966.893	7337.12
967.255	6706.83
967.616	7930.75
967.977	6400.24
968.338	7022.45
968.699	5828.88
969.061	5857.45
969.421	5940.5
969.782	6714.49
970.143	5743.61
970.504	6041.71
970.865	6924.35
971.225	7156.21
971.586	7013.87
971.946	9984.53
972.307	8698.14
972.667	11329.83
973.027	11670.87
973.388	14126.85
973.748	9606.48
974.108	10438.28
974.468	13956.24
974.828	10783.03
975.188	8244.77
975.548	7560.03
975.907	6356.11
976.267	7101.53
976.627	5997.66
976.986	6209.97
977.346	5906.69
977.705	5671.47
978.064	5146.77
978.424	4314.08
978.783	4411.33
979.142	5040.1
979.501	4851.81
979.86	5145.93
980.219	4973.87
980.578	6401.28
980.937	7183.32
981.296	6441.44
981.654	6639.79
982.013	10385.86
982.371	13515.5
982.73	12713.49
983.088	14418.97
983.447	15418.65
983.805	22108.87
984.163	46369.7
984.521	51380.09
984.879	75412.61
985.237	-122931.39
985.595	119980.86
985.953	29760.46
986.311	17197.78
986.669	9976.62
987.026	8640.08
987.384	11653.51
987.741	12051.2
988.099	8703.14
988.456	6985.22
988.814	6569.87
989.171	5738.78
989.528	5618.9
989.885	5962.81
990.242	4744.61
990.599	5930.37
990.956	4852.81
991.313	3403.72
991.67	2806.77
992.027	3024.9
992.383	2690.57
992.74	2376.03
993.096	2503.24
993.453	2604.63
993.809	2703.28
994.165	3597.16
994.522	3367.36
994.878	3729.92
995.234	4685.13
995.59	4617.24
995.946	4298.12
996.302	4920.84
996.658	5667.78
997.013	6244.16
997.369	7479.9
997.725	9623.23
998.08	6278.16
998.436	9480.24
998.791	13096.09
999.147	13126.69
999.502	14397.67
999.857	10454.37
1000.212	17126.84
1000.567	24442.33
1000.922	14089.2
1001.277	8913.35
1001.632	6618.16
1001.987	8516.45
1002.342	6150.85
1002.696	4929.34
1003.051	3967.7
1003.406	4822.48
1003.76	4808.41
1004.114	4761.06
1004.469	4030.71
1004.823	3336.03
1005.177	3595.58
1005.531	2860
1005.885	2557.66
1006.239	2909.9
1006.593	3692.37
1006.947	4934.01
1007.301	3711.28
1007.655	4055.52
1008.008	2985.52
1008.362	3370.6
1008.715	4842.66
1009.069	4394.33
1009.422	6707.34
1009.776	13407.41
1010.129	8843.96
1010.482	7338.28
1010.835	6168.68
1011.188	12845.48
1011.541	12081.5
1011.894	-73895
1012.247	217147.96
1012.6	14762.6
1012.952	9451.86
1013.305	4826.89
1013.657	3530.12
1014.01	3381.61
1014.362	2792.71
1014.715	2538.13
1015.067	2221.34
1015.419	2197.66
1015.771	1965.47
1016.123	1773.4
1016.475	1832.83
1016.827	1957.92
1017.179	2115.57
1017.531	2113.58
1017.883	2154.19
1018.234	2124.21
1018.586	2686.7
1018.938	2915.41
1019.289	4030.85
1019.64	4602.17
1019.992	4274.42
1020.343	3926.57
1020.694	3148.19
1021.045	2815.04
1021.396	3251.43
1021.747	3520
1022.098	4190.48
1022.449	3056.37
1022.8	2817.66
1023.151	1995.65
1023.501	1786.06
1023.852	1943.29
1024.202	2066.04
1024.553	2257.94
1024.903	2222.35
1025.253	1926.07
1025.604	1756.24
1025.954	2197.77
1026.304	2684.58
1026.654	3143.91
1027.004	4535.42
1027.354	7289.9
1027.703	7018.4
1028.053	9164.81
1028.403	13701.57
1028.753	19812.16
1029.102	26785.87
1029.452	137004.58
1029.801	5926.25
1030.15	3824.17
1030.499	3225.79
897.758	3223.78
901.051	3210.25
904.343	3244
907.636	3238.12
910.928	3305.7
914.22	3206.74
917.511	3219.12
920.803	3303.13
924.094	3349.83
927.384	3300.4
930.675	3264.87
933.965	3205.81
937.255	3195.26
940.544	3163.27
943.834	3023.72
947.123	2981.88
950.411	3087.86
953.7	3050.41
956.988	2999.3
960.276	2943.72
963.563	3065.23
966.851	3044.8
970.138	3121.4
973.424	3097.48
976.711	3048.24
979.997	3290.92
983.283	3305.67
986.568	3176.15
989.853	3223.6
993.138	3251.51
996.423	3331.06
999.708	3244
1002.992	3355.87
1006.275	3094.9
1009.559	3198.76
1012.842	3332.1
1016.125	3235.95
1019.408	3214.12
1022.69	3340.32
1025.972	3344.3
1029.254	3308.06
1032.536	3202.93
1035.817	3248.32
1039.098	3152.69
1042.379	3410
1045.659	3364.16
1048.939	3276.11
1052.219	3319.85
1055.498	3349.89
1058.778	3316.59
1062.057	3306.66
1065.335	3327.09
1068.614	3359.95
1071.892	3318.3
1075.17	3423.41
1078.447	3396.57
1081.724	3379.04
1085.001	3427.77
1088.278	3395.94
1091.554	3417.1
1094.83	3416.29
1098.106	3436.49
1101.382	3500.24
1104.657	3498.88
1107.932	3497.27
1111.206	3442.11
1114.481	3401.69
1117.755	3414.56
1121.029	3376.97
1124.302	3416.53
1127.575	3350.59
1130.848	3326.88
1134.121	3278.7
1137.393	3208.62
1140.665	3287.66
1143.937	3262
1147.208	3180.83
1150.48	3201.88
1153.75	3180.52
1157.021	3252.17
1160.291	3209.1
1163.561	3246.63
1166.831	3266.21
1170.101	3300.49
1173.37	3300.15
1176.639	3222.75
1179.907	3299.76
1183.176	3338.03
1186.444	3346.62
1189.711	3376.93
1192.979	3375.02
1196.246	3336.57
1199.513	3358.73
1202.78	3352.93
1206.046	3358.36
1209.312	3382.08
1212.578	3417.58
1215.843	3345.43
1219.108	3332.59
1222.373	3356.04
1225.638	3305.87
1228.902	3280.5
1232.166	3260.11
1235.43	3233.46
1238.693	3251.53
1241.956	3258.77
1245.219	3287.86
1248.482	3293.14
1251.744	3283.84
1255.006	3466.06
1258.268	3432.14
1261.529	3363.04
1264.79	3377.46
1268.051	3491.23
1271.312	3513.45
1274.572	3465.99
1277.832	3457.69
1281.092	3460.61
1284.351	3408.67
1287.61	3380.78
1290.869	3269.15
1294.128	3215.64
1297.386	3356.04
1300.644	3342.2
1303.902	3351.12
1307.159	3199.94
1310.416	3257.99
1313.673	3274.54
1316.93	3243.65
1320.186	3312.45
1323.442	3366.58
1326.697	3338.7
1329.953	3356.27
1333.208	3365
1336.463	3352.18
1339.717	3277.32
1342.972	3377.69
1346.226	3381.93
1349.479	3294.1
1352.733	3246.29
1355.986	3293.35
1359.238	3264.56
1362.491	3260.76
1365.743	3268.62
1368.995	3269.24
1372.247	3283.51
1375.498	3301.57
1378.749	3351.1
1382	3297.74
1385.251	3373.74
1388.501	3353.53
1391.751	3314.68
1395	3298.49
1398.25	3341.65
1401.499	3333.25
1404.748	3243.25
1407.996	3170.72
1411.244	3165.45
1414.492	3139.1
1417.74	3113.13
1420.987	3134.43
1424.234	3182.75
1427.481	3188.98
1430.728	3242.34
1433.974	3217.27
1437.22	3250.46
1440.465	3253.51
1443.711	3247.43
1446.956	3282.3
1450.201	3294.85
1453.445	3339.62
1456.689	3300.27
1459.933	3317.34
1463.177	3341.02
1466.42	3312.76
1469.663	3292.34
1472.906	3255.84
1476.148	3400.51
1479.391	3289.38
1482.633	3276.06
1485.874	3266.08
1489.115	3228.29
1492.356	3262.52
1495.597	3231.53
1498.838	3245.49
1502.078	3192.69
1505.318	3112.43
1508.557	3167.93
1511.797	3079.15
1515.036	3243.82
1518.274	3227.14
1521.513	3217.88
1524.751	3249.75
1527.989	3247.76
1531.227	3252.77
1534.464	3215.8
1537.701	3270.22
1540.938	3297.32
1544.174	3256.34
1547.41	3269.82
1550.646	3306.13
1553.882	3323.57
1557.117	3372.22
1560.352	3398.47
1563.587	3347.27
1566.821	3296.61
1570.055	3359.77
1573.289	3313.81
1576.523	3411.21
1579.756	3407.2
1582.989	3421.92
1586.222	3377.56
1589.454	3433.78
1592.686	3395.37
1595.918	3413.25
1599.15	3390.09
1602.381	3502.31
1605.612	3422.25
1608.843	3521.52
1612.073	3424.54
1615.303	3404.49
1618.533	3377.98
1621.762	3397.51
1624.992	3394.6
1628.221	3358.36
1631.449	3343.01
1634.678	3439.44
1637.906	3378.03
1641.134	3433.59
1644.361	3378.53
1647.588	3363.22
1650.815	3369.82
1654.042	3372.65
1657.269	3402.11
1660.495	3348.65
1663.72	3306.38
1666.946	3293.08
1670.171	3193.64
1673.396	3172.65
1676.621	3171.34
1679.845	3223.25
1683.069	3265.14
1686.293	3325.1
1689.517	3274.42
1692.74	3171.55
1695.963	3192.31
1699.185	3275.88
1702.408	3226.72
1705.63	3283.44
1708.852	3288.32
1712.073	3263.21
1715.294	3221.86
1718.515	3260.25
1721.736	3198.84
1724.956	3177.53
1728.176	3210.66
1731.396	3228
1734.616	3229.55
1737.835	3236.5
1741.054	3232.81
1744.272	3232.91
1747.491	3241.15
1750.709	3335.66
1753.927	3221.8
1757.144	3287.56
1760.361	3341.53
1763.578	3359.36
1766.795	3287.09
1770.011	3313.53
1773.227	3374.54
1776.443	3403.86
1779.658	3443.42
1782.874	3396.69
1786.089	3356.34
1789.303	3360.37
1792.518	3375.95
1795.732	3366.63
1798.945	3364.06
1802.159	3427.66
1805.372	3278.41
1808.585	3251.54
1811.797	3253.71
1815.01	3336.1
1818.222	3335.72
1821.434	3220.41
1824.645	3328.81
1827.856	3284.05
1831.067	3327.72
1834.278	3267.22
1837.488	3257.17
1840.698	3441.04
1843.908	3343.22
1847.117	3301.4
1850.326	3128.06
1853.535	3272.63
1856.744	3390.48
1859.952	3268.57
1863.16	3267.55
1866.368	3299.41
1869.575	3443.56
1872.782	3326.64
1875.989	3276.32
1879.196	3409.24
1882.402	3405.41
1885.608	3460.66
1888.814	3317.51
1892.019	3196.85
1895.224	3252.37
1898.429	3254.1
1901.634	3223.87
1904.838	3207.55
1908.042	3250.66
1911.246	3249.97
1914.449	3139.88
1917.652	3159.92
1920.855	3144.29
1924.058	3222.37
1927.26	3248.84
1930.462	3286.5
1933.664	3296.57
1936.865	3229.06
1940.066	3222.96
1943.267	3174.48
1946.467	3202.16
1949.668	3235.99
1952.868	3299.29
1956.067	3259.12
1959.267	3180.81
1962.466	3214.63
1965.665	3203.3
1968.863	3202.56
1972.061	3233.62
1975.259	3237.83
1978.457	3324.6
1981.654	3271.35
1984.852	3273.75
1988.048	3178.75
1991.245	3199.91
1994.441	3280.52
1997.637	3298.52
2000.833	3276.98
2004.028	3320.58
2007.223	3363.82
2010.418	3327.54
2013.613	3297.01
2016.807	3238.38
2020.001	3263.53
2023.194	3337.34
2026.388	3301.42
2029.581	3249.49
2032.774	3280.14
2035.966	3276.98
2039.158	3185.98
2042.35	3222.56
2045.542	3151.69
2048.733	3277.9
2051.924	3341.88
2055.115	3385.25
2058.306	3296.5
2061.496	3363.05
2064.686	3449.02
2067.875	3370.92
2071.065	3404.84
2074.254	3442.28
2077.442	3390.94
2080.631	3492.16
2083.819	3329.57
2087.007	3294.63
2090.195	3246.47
2093.382	3306.61
2096.569	3281.9
2099.756	3220.99
2102.942	3219.15
2106.128	3205.39
2109.314	3204.26
2112.5	3138.25
2115.685	3126.09
2118.87	3140.09
2122.055	3212.51
2125.239	3158.22
2128.424	3110.82
2131.608	3273.4
2134.791	3252.9
2137.974	3339.2
2141.157	3320.13
2144.34	3247.16
2147.523	3275.31
2150.705	3268.49
2153.887	3265.89
2157.068	3185.48
2160.25	3216.97
2163.431	3278.75
2166.611	3188.43
2169.792	3200.41
2172.972	3070.47
2176.152	3188.73
2179.331	3232.52
2182.511	3205.2
2185.69	3240.4
2188.868	3224.63
2192.047	3307.42
2195.225	3263.71
2198.403	3213.81
2201.58	3215.18
2204.758	3214.06
2207.935	3308.96
2211.111	3161.78
2214.288	3140.87
2217.464	3189.12
2220.64	3181.02
2223.815	3244.32
2226.991	3154.38
2230.166	3178.89
2233.34	3190.79
2236.515	3230.57
2239.689	3325.73
2242.863	3258.26
2246.036	3318.78
2249.209	3342.61
2252.382	3395.43
2255.555	3361.3
2258.727	3278
2261.9	3328.91
2265.071	3319.14
2268.243	3334.67
2271.414	3246.51
2274.585	3172.92
2277.756	3252.39
2280.926	3209.66
2284.096	3264.14
2287.266	3139.81
2290.436	3209.03
2293.605	3249.28
2296.774	3269.3
2299.942	3314.83
2303.111	3327.59
2306.279	3367.89
2309.447	3358.35
2312.614	3339.59
2315.781	3353.98
2318.948	3312.33
2322.115	3356.67
2325.281	3254.95
2328.447	3294.51
2331.613	3272.91
2334.779	3220.87
2337.944	3235.75
2341.109	3228.73
2344.274	3204.06
2347.438	3166.22
2350.602	3198.73
2353.766	3222.69
2356.929	3203.28
2360.092	3251.19
2363.255	3175.33
2366.418	3066.73
2369.58	3239.52
2372.742	2914.64
2375.904	2954.95
2379.066	2918.59
2382.227	2967.76
2385.388	2925.61
2388.548	2822.56
2391.709	2897.04
2394.869	2864.64
2398.029	3023.07
2401.188	3060.74
2404.347	2957.79
2407.506	3173.55
2410.665	3195.64
2413.823	3225.66
2416.981	3152.96
2420.139	3206.15
2423.296	3268.76
2426.453	3240.92
2429.61	3268.8
2432.767	3156.24
2435.923	3207.68
2439.079	3090.35
2442.235	3182.87
2445.391	3085.43
2448.546	3094.05
2451.701	3164.68
2454.855	3100.76
2458.009	3182.68
2461.163	3207.66
2464.317	3150.9
2467.471	3189.85
2470.624	3230.68
2473.777	3276.89
2476.929	3265.33
2480.082	3298.08
2483.234	3263.97
2486.385	3141.44
2489.537	3143.64
2492.688	3068.1
2495.839	3084.7
2498.989	3085.72
2502.14	3068.08
2505.29	3031.76
2508.439	3062.1
2511.589	2962.87
2514.738	2995.2
2517.887	3024.13
2521.035	3175.03
2524.183	3171.27
2527.331	3139.28
2530.479	3085.82
2533.627	3107.35
