Data from C_3_DEC_OH_4N_Splice17_13-25-42-421.txt Node
Date: Sat Mar 14 13:25:42 EDT 2020
User: sa697716
Spectrometer: FLMS03696
Trigger mode: 0
Integration Time (sec): 3.180400E-1
Scans to average: 20
Electric dark correction enabled: true
Nonlinearity correction enabled: true
Boxcar width: 5
XAxis mode: Wavelengths
Number of Pixels in Spectrum: 2048
>>>>>Begin Spectral Data<<<<<
187.83	-310500.72
188.298	2288.34
188.766	1259.31
189.233	1091.52
189.701	1580.98
190.169	2176.46
190.636	777.14
191.104	645.51
191.571	63.55
192.039	-100.96
192.506	-137.37
192.974	449.71
193.441	-757.15
193.908	-191.79
194.375	-86.42
194.842	-34.56
195.31	73.55
195.777	143.26
196.244	577.36
196.711	1028.66
197.177	1392.57
197.644	2106.96
198.111	3671.46
198.578	5152.63
199.045	4137.26
199.511	6765.23
199.978	7941.86
200.445	6631.29
200.911	7347.24
201.378	8190.26
201.844	7226.03
202.31	12195.62
202.777	12492.01
203.243	6808.55
203.709	6421.29
204.176	7573.94
204.642	6177.14
205.108	5709.29
205.574	4641.91
206.04	4246.46
206.506	3957.37
206.972	3739.35
207.438	3601.5
207.903	4088.34
208.369	3539.86
208.835	3481.16
209.301	3604.13
209.766	3662.01
210.232	3594.83
210.697	4410.12
211.163	5351.49
211.628	8016.57
212.094	6615.04
212.559	7934.68
213.024	4853.24
213.49	5864.3
213.955	5666.43
214.42	5515.21
214.885	5073.52
215.35	4779.81
215.815	4470.41
216.28	4654.51
216.745	3681.23
217.21	3807.38
217.675	3345.9
218.14	3562.85
218.604	3696.8
219.069	3914.67
219.534	3786.65
219.998	4071.45
220.463	4563.64
220.927	5184.1
221.392	4552.96
221.856	4331.85
222.32	5144.06
222.785	6037.13
223.249	7202.61
223.713	7702.34
224.177	7433.77
224.642	9190.19
225.106	11015.95
225.57	11743.93
226.034	8589.63
226.497	12792.3
226.961	11359.27
227.425	13029.77
227.889	14139.3
228.353	13893.94
228.816	28218.12
229.28	26526.17
229.744	21981.17
230.207	13217.86
230.671	12797.58
231.134	20619.92
231.597	23531.21
232.061	23160.58
232.524	22269.4
232.987	15213.97
233.45	13584.73
233.914	12087.97
234.377	12222.92
234.84	11118.45
235.303	12981.15
235.766	14423.66
236.229	14825.75
236.691	9273.2
237.154	10361.62
237.617	7780.67
238.08	7920.48
238.542	9258.37
239.005	6621.07
239.468	6601.56
239.93	6226.65
240.393	5643.88
240.855	4946
241.317	5061.82
241.78	6125.8
242.242	6329.78
242.704	6859
243.166	5984.75
243.629	5451.76
244.091	6274.27
244.553	6842.26
245.015	7340.44
245.477	9469
245.939	13837.57
246.4	14669.69
246.862	14233.61
247.324	13413.65
247.786	14908.69
248.247	19448.41
248.709	19885.68
249.17	14842.44
249.632	14091.83
250.093	16448.76
250.555	14225.59
251.016	8696.9
251.477	8274.92
251.939	8972.2
252.4	9413.53
252.861	11174.08
253.322	10430.72
253.783	12426.71
254.244	16126.49
254.705	12658.7
255.166	11187.09
255.627	11012.76
256.088	15561.81
256.549	16539.47
257.009	14193.73
257.47	17187.19
257.931	13988
258.391	10462.74
258.852	10753.23
259.312	11234.72
259.773	13798.55
260.233	11684.72
260.694	9856.76
261.154	11107.89
261.614	8918.55
262.074	7947
262.534	8254.18
262.994	7767.95
263.455	10295.57
263.915	8649.62
264.374	8116.2
264.834	8829.75
265.294	9693.94
265.754	9986.65
266.214	9419.4
266.673	8784.35
267.133	11025.46
267.593	10851.5
268.052	13242.08
268.512	11478.31
268.971	13871.06
269.431	15150.92
269.89	13542.89
270.349	20272.09
270.809	22620.22
271.268	20350.26
271.727	45415.58
272.186	29405.32
272.645	22063.58
273.104	15861.65
273.563	22981.51
274.022	18015.73
274.481	15408.78
274.94	11910.43
275.399	8866.18
275.857	10301.12
276.316	13933.97
276.775	12443.39
277.233	12343.34
277.692	11668.67
278.15	13270.15
278.609	13754.99
279.067	12772.21
279.525	11930.81
279.984	15439.86
280.442	18661.06
280.9	18589.81
281.358	12300.61
281.816	11531.89
282.274	11319.74
282.732	11690.99
283.19	11792.72
283.648	10221.05
284.106	10961.74
284.564	11205.22
285.021	10482.16
285.479	7856.28
285.937	7145.09
286.394	6328.86
286.852	6546.09
287.309	6915.45
287.767	6736.22
288.224	6460.53
288.682	7094.98
289.139	7827.27
289.596	7169.25
290.053	7458.39
290.511	9405.74
290.968	11439.58
291.425	15458.68
291.882	12906.2
292.339	11226.96
292.796	11105.3
293.252	10418.62
293.709	8290.82
294.166	7407.67
294.623	8170.34
295.079	7817.14
295.536	7874.62
295.992	7132.23
296.449	7061.65
296.905	7360.2
297.362	7079.09
297.818	7427.98
298.274	7735.48
298.731	7878.63
299.187	7798.88
299.643	8382.7
300.099	10177.83
300.555	11140.7
301.011	9340.74
301.467	9058.58
301.923	10531.55
302.379	10288.85
302.835	10142.97
303.291	10167.31
303.746	11570.68
304.202	14686.43
304.658	14778.28
305.113	9953.8
305.569	9827.13
306.024	10509.86
306.479	10004.11
306.935	8509.21
307.39	9301.35
307.845	8646.92
308.301	8749.36
308.756	8575.66
309.211	8304
309.666	8566.03
310.121	10707.5
310.576	10877.76
311.031	10844.26
311.486	12444.76
311.94	12491.54
312.395	16863.5
312.85	31775.53
313.305	156526.65
313.759	819127.27
314.214	59636.81
314.668	47537.09
315.123	40260.69
315.577	14572.96
316.032	13011.71
316.486	16356.17
316.94	12964.45
317.394	9054.53
317.849	7045.57
318.303	6655.76
318.757	6271.15
319.211	6927.02
319.665	6047.94
320.119	6088.58
320.572	8684.89
321.026	8094.43
321.48	6721.33
321.934	7286.42
322.387	7283
322.841	7889.9
323.295	7154.32
323.748	8217.66
324.202	8345.56
324.655	10061.54
325.108	14182.23
325.562	10051.61
326.015	11974.87
326.468	9122.56
326.921	10248.77
327.374	9611.58
327.827	10051.42
328.28	11412.51
328.733	7690.34
329.186	6800.64
329.639	6503.85
330.092	5484.23
330.545	5247.88
330.997	5332.35
331.45	5851.24
331.903	6908.38
332.355	11871.67
332.808	11563.29
333.26	9550.96
333.713	10416
334.165	10500.57
334.617	14048.58
335.069	11340.07
335.522	20546.98
335.974	22811.5
336.426	20887.87
336.878	14428.95
337.33	7348.16
337.782	7206.89
338.234	9100.29
338.686	10900.51
339.137	12940.38
339.589	12186.23
340.041	9607.4
340.493	8263.15
340.944	8497
341.396	9159.54
341.847	7743.36
342.299	9198.27
342.75	11262.28
343.201	9750.24
343.653	11181.77
344.104	13755.43
344.555	10835.4
345.006	16768.19
345.457	12893.67
345.908	10196.62
346.359	9609.77
346.81	7816.87
347.261	8187.46
347.712	8029.21
348.163	8635.26
348.613	8806.99
349.064	8227.69
349.515	7208.22
349.965	7417.66
350.416	8925.49
350.866	9810.63
351.317	11072.02
351.767	18366.05
352.217	23230.63
352.668	19291.97
353.118	17665.07
353.568	16943.32
354.018	13427.28
354.468	14227.58
354.918	10269.49
355.368	8993.98
355.818	12724.3
356.268	36752.83
356.718	154860.98
357.168	38808.32
357.617	19558.09
358.067	21827.18
358.517	20557.39
358.966	24269.97
359.416	27325.45
359.865	29557.86
360.315	35316.28
360.764	16606.75
361.213	9333.92
361.663	8825.2
362.112	10887.01
362.561	17637.05
363.01	13368.99
363.459	11261.48
363.908	12196.5
364.357	10424.42
364.806	17652.53
365.255	12164.04
365.703	11168.47
366.152	11208.33
366.601	9130.03
367.05	7461.3
367.498	6797.63
367.947	7112.09
368.395	7408.15
368.844	6568.99
369.292	7898.57
369.74	5477.09
370.189	8388.1
370.637	9850.96
371.085	8515.85
371.533	10360.12
371.981	9959.47
372.429	9543.34
372.877	9971.26
373.325	8384.72
373.773	8565.02
374.221	7638.08
374.669	9471.61
375.116	8197.78
375.564	8258.77
376.012	9265.15
376.459	7672.24
376.907	9194.24
377.354	11134.96
377.801	10449.72
378.249	12103.91
378.696	15496.34
379.143	18779
379.591	20122.96
380.038	34383.57
380.485	25104.33
380.932	27219.27
381.379	25151.52
381.826	18712.02
382.273	13346.8
382.72	11693.78
383.166	11466.93
383.613	7501.43
384.06	6841.85
384.506	7985.04
384.953	5892.9
385.4	5972.79
385.846	5304.86
386.292	5225.3
386.739	5199.98
387.185	5254.74
387.631	5408.63
388.078	5395.05
388.524	5927
388.97	5613.01
389.416	4790.33
389.862	5194.48
390.308	5009.88
390.754	5218.42
391.2	5874.16
391.645	6270.79
392.091	6322.3
392.537	6401.5
392.983	6689.13
393.428	6864.18
393.874	7729.91
394.319	8312.86
394.765	8641.39
395.21	9884.96
395.655	10376.35
396.101	10866.86
396.546	10967.31
396.991	12398.05
397.436	12923.23
397.881	14054.44
398.326	15077.39
398.771	16006.33
399.216	15703.98
399.661	15706.87
400.106	17201.22
400.551	19234.88
400.995	18742.39
401.44	19984.95
401.885	20096.33
402.329	21606.08
402.774	21906.48
403.218	22243.04
403.663	22610.98
404.107	24397.75
404.551	25816.82
404.995	24919.51
405.44	25248.31
405.884	26844.82
406.328	27110
406.772	28060.85
407.216	26510.45
407.66	26662.69
408.104	26470.51
408.547	25680.47
408.991	25650.27
409.435	25368.9
409.879	25524.33
410.322	25711.61
410.766	25293.36
411.209	24552.07
411.653	24140.8
412.096	24137.18
412.54	24662.06
412.983	24920.62
413.426	25321.79
413.869	25730.21
414.312	25615.57
414.756	25155.87
415.199	24417.59
415.642	24074.75
416.085	24460.53
416.527	24632.67
416.97	25383.03
417.413	24280.47
417.856	24224.29
418.298	24110.14
418.741	24039.89
419.184	24075.48
419.626	25192.38
420.069	25215.43
420.511	25426.05
420.953	24925.62
421.396	24812.99
421.838	24343.16
422.28	25041.43
422.722	25351.72
423.164	26087.62
423.606	25977.5
424.048	26302.53
424.49	25195.79
424.932	25374.8
425.374	25297.16
425.816	25967.91
426.258	26468.83
426.699	26570.16
427.141	25824.94
427.582	25995.7
428.024	25699.18
428.465	25603.02
428.907	25103.41
429.348	25064.88
429.789	25221.19
430.231	24801.61
430.672	25256.33
431.113	24935.05
431.554	25019.24
431.995	25132
432.436	24742.02
432.877	24674.13
433.318	24532.45
433.759	24752.38
434.2	24991.98
434.64	24994.67
435.081	25325.65
435.522	24331.31
435.962	23785.13
436.403	23586.9
436.843	24255.66
437.284	24088.64
437.724	23751.91
438.164	24143.19
438.604	23802.44
439.045	22982.35
439.485	22099.1
439.925	21824.88
440.365	21441.93
440.805	21299.39
441.245	21032.44
441.685	20297.11
442.125	20196.12
442.564	20335.86
443.004	19815.34
443.444	19775.89
443.883	19823.37
444.323	19823.25
444.762	20023.72
445.202	20351.83
445.641	20673.07
446.081	20720.39
446.52	20846.46
446.959	20643.11
447.398	20144.53
447.837	19952.83
448.276	19637.46
448.716	19828.77
449.154	20012.36
449.593	19408.5
450.032	19232.71
450.471	18858.77
450.91	18763.4
451.349	18561.2
451.787	18385.46
452.226	18513.82
452.664	18368.89
453.103	18238.56
453.541	18059.76
453.98	17729.18
454.418	17654.59
454.856	17134.23
455.295	16934.25
455.733	16823.13
456.171	16756.02
456.609	16567.37
457.047	16342.63
457.485	16371.56
457.923	16235.25
458.361	15922.92
458.798	15939.56
459.236	15844.58
459.674	15996.15
460.111	16026.66
460.549	15895.3
460.987	15898.54
461.424	15882.28
461.862	15875.59
462.299	15679.14
462.736	15659.65
463.173	15766.66
463.611	15553.41
464.048	15556.35
464.485	15712.64
464.922	15650.04
465.359	15662.68
465.796	15259.4
466.233	15230.28
466.67	15109.9
467.106	15124.07
467.543	15104.15
467.98	14994.25
468.416	14765.92
468.853	14750.71
469.29	14385.38
469.726	14282.99
470.162	13942
470.599	13990.82
471.035	13898.88
471.471	13600.79
471.907	13579.52
472.344	13490.97
472.78	13460.19
473.216	13581.72
473.652	13335.13
474.088	13232.93
474.523	13058.19
474.959	13075.05
475.395	12841.98
475.831	12620.71
476.266	12565.44
476.702	12399.71
477.138	12106.63
477.573	11928.57
478.008	11717.77
478.444	11580.37
478.879	11482.86
479.314	11374.25
479.75	11199.35
480.185	11106.32
480.62	11047.24
481.055	10947.59
481.49	10844.28
481.925	10826.97
482.36	10787.67
482.795	10918.5
483.229	11058.31
483.664	11113.15
484.099	10986.6
484.534	10969.66
484.968	10909.01
485.403	10792.78
485.837	10656.26
486.271	10506.58
486.706	10390.28
487.14	10207.68
487.574	9940.87
488.009	9756.96
488.443	9588.01
488.877	9574.72
489.311	9525.74
489.745	9539.77
490.179	9532.36
490.613	9575.47
491.046	9574.12
491.48	9568.32
491.914	9491.72
492.348	9485.7
492.781	9464.97
493.215	9426.02
493.648	9401.08
494.082	9409.7
494.515	9351.93
494.948	9378.97
495.382	9401.81
495.815	9386.03
496.248	9380.28
496.681	9478.5
497.114	9558.12
497.547	9600.7
497.98	9661.15
498.413	9623.37
498.846	9644.68
499.279	9660.19
499.711	9630.06
500.144	9564.23
500.577	9581.8
501.009	9618.65
501.442	9618.18
501.874	9514.25
502.306	9453.22
502.739	9409.67
503.171	9498.58
503.603	9432.95
504.036	9431.27
504.468	9383.59
504.9	9396.27
505.332	9362.71
505.764	9291.32
506.196	9255.12
506.627	9290.09
507.059	9298.36
507.491	9298.28
507.923	9134.42
508.354	9149.12
508.786	9123.82
509.217	9158.22
509.649	9165.21
510.08	9208.09
510.512	9218.25
510.943	9221.19
511.374	9190.75
511.805	9230.07
512.237	9264.56
512.668	9414.84
513.099	9510.08
513.53	9586.41
513.961	9599.67
514.391	9695.48
514.822	9778.55
515.253	9894.64
515.684	9924.97
516.114	9984.34
516.545	9973.29
516.975	9996.64
517.406	9957.48
517.836	9822.08
518.267	9718.74
518.697	9693.9
519.127	9584.27
519.558	9504.34
519.988	9399.17
520.418	9341.9
520.848	9326.98
521.278	9264.7
521.708	9020.59
522.138	8994.69
522.567	9072.9
522.997	9113.06
523.427	9100.44
523.857	9089.55
524.286	9053.02
524.716	9046.35
525.145	9057.52
525.575	9038.61
526.004	9044.77
526.433	9141.58
526.863	9074.45
527.292	8949.29
527.721	8920.83
528.15	8906.03
528.579	8865.71
529.008	8879.98
529.437	8956.89
529.866	8984.91
530.295	9025.56
530.724	9034.8
531.152	9124.23
531.581	9146.31
532.01	9199.43
532.438	9207.02
532.867	9246.19
533.295	9305.58
533.723	9303.8
534.152	9262.36
534.58	9233.33
535.008	9133.07
535.436	9121.21
535.865	9142.2
536.293	9199.02
536.721	9257.77
537.149	9358.86
537.576	9352.02
538.004	9404.3
538.432	9436.02
538.86	9421.56
539.287	9456.47
539.715	9520.98
540.143	9544.21
540.57	9534.33
540.998	9530.12
541.425	9418.83
541.852	9340
542.28	9353.28
542.707	9297
543.134	9247.75
543.561	9244.9
543.988	9226.84
544.415	9250.2
544.842	9242.99
545.269	9224.55
545.696	9248.66
546.123	9348.14
546.549	9313.01
546.976	9263.64
547.403	9275.27
547.829	9307.72
548.256	9343.47
548.682	9343.55
549.108	9319.24
549.535	9339.02
549.961	9368.25
550.387	9317.8
550.813	9298.34
551.24	9349.73
551.666	9373.6
552.092	9338.67
552.518	9323.17
552.943	9300.06
553.369	9359.38
553.795	9406.48
554.221	9419.85
554.646	9416.33
555.072	9470.31
555.498	9509.04
555.923	9562.83
556.349	9644.62
556.774	9696.85
557.199	9706.41
557.625	9757.68
558.05	9726.91
558.475	9787.46
558.9	9787.89
559.325	9746.71
559.75	9726.85
560.175	9702.75
560.6	9682.32
561.025	9678.11
561.449	9692.17
561.874	9724.05
562.299	9736.94
562.723	9778.76
563.148	9719.62
563.572	9738.29
563.997	9791.8
564.421	9819.71
564.846	9816.38
565.27	9819.39
565.694	9800.08
566.118	9841.86
566.542	9864.66
566.966	9817.75
567.39	9773.4
567.814	9702.4
568.238	9691.07
568.662	9712.22
569.086	9722.73
569.509	9771.56
569.933	9699.07
570.357	9685.08
570.78	9603.23
571.204	9561.14
571.627	9547.73
572.05	9589.3
572.474	9640.75
572.897	9638.48
573.32	9659.97
573.743	9683.91
574.166	9645.78
574.589	9728.27
575.012	9759.59
575.435	9838.29
575.858	9872.01
576.281	9895.72
576.704	9894.55
577.126	9916.51
577.549	9934.83
577.972	9969.54
578.394	9987.92
578.817	10015.91
579.239	9986.16
579.661	9982.1
580.084	9949.73
580.506	9950.6
580.928	10006.62
581.35	10015.43
581.772	10059.75
582.194	10045.28
582.616	10025.64
583.038	10006.27
583.46	10017.85
583.882	10056.65
584.303	10152.34
584.725	10199.2
585.147	10227.38
585.568	10338.67
585.99	10449.59
586.411	10525.66
586.833	10656.26
587.254	10700.24
587.675	10832.59
588.096	10955.86
588.518	10953.52
588.939	10866.33
589.36	10878.57
589.781	10882.58
590.202	10689.13
590.623	10664.11
591.043	10681.27
591.464	10613.95
591.885	10601.26
592.305	10572.11
592.726	10477.84
593.147	10478.98
593.567	10435.1
593.987	10366.99
594.408	10312.18
594.828	10303.12
595.248	10223.95
595.669	10047.08
596.089	9958.82
596.509	9879.88
596.929	9735.34
597.349	9690.45
597.769	9574.21
598.189	9472.93
598.608	9432
599.028	9390.19
599.448	9342.53
599.867	9218.02
600.287	9161.05
600.706	9089.92
601.126	8983.58
601.545	8941.09
601.965	8909.39
602.384	8856.53
602.803	8865.27
603.222	8818.46
603.641	8772.76
604.061	8743.42
604.48	8725.63
604.898	8788.04
605.317	8840.49
605.736	8877.26
606.155	8880.61
606.574	8847.77
606.992	8914.15
607.411	8911.72
607.829	8905.07
608.248	8928.24
608.666	8960.47
609.085	8997.7
609.503	8979.97
609.921	8981.43
610.339	9040.63
610.758	9090
611.176	9108.78
611.594	9093.37
612.012	9122.4
612.43	9182.45
612.847	9273.84
613.265	9314.42
613.683	9393.97
614.101	9454.92
614.518	9483.75
614.936	9464.12
615.353	9404.67
615.771	9426.93
616.188	9475.87
616.606	9497.64
617.023	9497.8
617.44	9438.39
617.857	9446.44
618.274	9430.14
618.691	9419.78
619.108	9391.25
619.525	9383.63
619.942	9462.88
620.359	9511.66
620.776	9501.85
621.192	9488.8
621.609	9492.91
622.026	9557.12
622.442	9618.39
622.859	9662.59
623.275	9629.75
623.691	9685.65
624.108	9787.69
624.524	9917.89
624.94	9933.54
625.356	10025.04
625.772	10149.31
626.188	10258.83
626.604	10286.71
627.02	10268.41
627.436	10259.46
627.852	10318.94
628.268	10418.77
628.683	10367.44
629.099	10318.67
629.514	10307.11
629.93	10357.77
630.345	10416.45
630.761	10413.88
631.176	10472.17
631.591	10440.89
632.007	10427.44
632.422	10463.03
632.837	10420.77
633.252	10434.12
633.667	10398.89
634.082	10369.96
634.497	10316.63
634.911	10198.5
635.326	10227.89
635.741	10148.75
636.155	10146.56
636.57	10219.81
636.984	10289.64
637.399	10368.81
637.813	10458.33
638.228	10530.19
638.642	10664.2
639.056	10669.42
639.47	10781.69
639.884	10806.61
640.298	10854.4
640.712	10943.72
641.126	10940.1
641.54	10975.31
641.954	11060.75
642.368	11049.07
642.781	11060.66
643.195	11000.13
643.609	11113.2
644.022	11167.13
644.436	11235.24
644.849	11231.14
645.262	11221.46
645.676	11354.32
646.089	11398.62
646.502	11318.47
646.915	11363.59
647.328	11302.37
647.741	11364.24
648.154	11311.05
648.567	11323.29
648.98	11246.09
649.393	11319.57
649.805	11349.96
650.218	11334.53
650.631	11208.6
651.043	11207.53
651.456	11188.32
651.868	11249.4
652.28	11494.25
652.693	11682.39
653.105	11792.24
653.517	11915.74
653.929	11924.67
654.341	12009.97
654.753	11890.52
655.165	12022.4
655.577	12055.2
655.989	12081.91
656.401	12083.23
656.813	11726.3
657.224	11596.07
657.636	11404.99
658.047	11316.3
658.459	11218.82
658.87	11257.44
659.282	11251.67
659.693	11096.76
660.104	11017.54
660.515	10955.98
660.926	11040.18
661.338	11129.65
661.749	11164.5
662.159	11130.33
662.57	11198.77
662.981	11244.01
663.392	11238.39
663.803	11387.6
664.213	11467.24
664.624	11514.12
665.035	11654.66
665.445	11551.87
665.855	11515.14
666.266	11459.01
666.676	11503.5
667.086	11435.72
667.497	11471.57
667.907	11433.42
668.317	11346.52
668.727	11277.85
669.137	11332.13
669.547	11323.13
669.956	11391.26
670.366	11443.54
670.776	11485.38
671.186	11562.26
671.595	11609.66
672.005	11681.42
672.414	11654.91
672.824	11612.79
673.233	11731.79
673.642	11748.58
674.052	11766.35
674.461	11761.36
674.87	11821.84
675.279	11747.7
675.688	11768.15
676.097	11747.5
676.506	11666.54
676.915	11868.05
677.323	11885.57
677.732	11830.03
678.141	11797.11
678.549	11620
678.958	11589.64
679.366	11548.88
679.775	11603.92
680.183	11650.83
680.592	11687.38
681	11702.32
681.408	11519.52
681.816	11547.81
682.224	11584.74
682.632	11582.22
683.04	11859.8
683.448	12027.81
683.856	12207.71
684.264	12402.3
684.671	12574.05
685.079	12794.14
685.487	13029.06
685.894	13447.83
686.302	13686.43
686.709	13755.21
687.116	13896.39
687.524	13888.54
687.931	13812.42
688.338	13713.83
688.745	13590.75
689.152	13474.9
689.559	13441.17
689.966	13361.5
690.373	13070.79
690.78	12939.6
691.187	12992.07
691.593	12891.92
692	12745.56
692.407	12742
692.813	12806.44
693.22	12770.6
693.626	12773.08
694.032	12677.37
694.439	12759.97
694.845	12753.9
695.251	12840.9
695.657	12869.8
696.063	13093.96
696.469	13157.49
696.875	13187.35
697.281	13075.08
697.687	12997.78
698.093	12868.67
698.498	12929.99
698.904	12912.71
699.31	13034.62
699.715	13024.12
700.12	13172.72
700.526	13005.1
700.931	13084.15
701.337	13090.03
701.742	13030.2
702.147	13191.12
702.552	13137.11
702.957	13214.21
703.362	13133.76
703.767	13096.55
704.172	13121.96
704.577	12802.64
704.981	12854.77
705.386	12779.84
705.791	12624.31
706.195	12777.4
706.6	12691.35
707.004	12873.86
707.408	12652.05
707.813	12638.38
708.217	12486.67
708.621	12393.22
709.025	12632.85
709.43	12529.06
709.834	12639.86
710.237	12788.57
710.641	12646.63
711.045	12630.27
711.449	12518.34
711.853	12514.73
712.256	12566.89
712.66	12602.74
713.064	12748.99
713.467	12763.9
713.87	12980.85
714.274	12956.01
714.677	13097.41
715.08	13373.51
715.484	13647.31
715.887	13983.75
716.29	14319.58
716.693	14644.15
717.096	15046.33
717.499	15169.23
717.901	15070.18
718.304	15052.65
718.707	15105.2
719.109	14866.42
719.512	14844.03
719.915	14526.83
720.317	14439.63
720.719	14594.01
721.122	14549.01
721.524	14436.33
721.926	14313.46
722.328	14549.42
722.731	14453.87
723.133	14435.16
723.535	14842.77
723.937	14779.87
724.338	14819.82
724.74	14835.78
725.142	14481.11
725.544	14438.47
725.945	14443.01
726.347	14412.49
726.748	14366.97
727.15	14380.32
727.551	14242.36
727.952	14145.18
728.354	14054.9
728.755	14056.15
729.156	13971.45
729.557	14092.39
729.958	13815
730.359	13752.04
730.76	13766.15
731.161	13680.44
731.562	13683
731.962	13769.77
732.363	13660.86
732.763	13545.74
733.164	13690.73
733.564	13539.57
733.965	13303.07
734.365	13225.04
734.766	13307.43
735.166	13198.07
735.566	13038.04
735.966	12950.45
736.366	12920.29
736.766	12752.14
737.166	12839.2
737.566	12727.36
737.966	12657.57
738.365	12760.12
738.765	12737.64
739.165	12536.72
739.564	12472.17
739.964	12603.56
740.363	12500.35
740.763	12514.71
741.162	12492.67
741.561	12415.45
741.96	12306.12
742.36	12380.24
742.759	12409.29
743.158	12536.87
743.557	12595.25
743.955	12715.52
744.354	12599.2
744.753	12762.15
745.152	12649.14
745.55	12806.44
745.949	12789.22
746.348	12787.62
746.746	12826.28
747.144	12699.29
747.543	12622.77
747.941	12733.64
748.339	12520.54
748.737	12480.32
749.136	12426.11
749.534	12575.32
749.932	12465.71
750.33	12500.17
750.727	12621.8
751.125	12524.03
751.523	12457.97
751.921	12527.8
752.318	12401.72
752.716	12522.55
753.113	12524.95
753.511	12555.34
753.908	12521.43
754.305	12433.68
754.703	12559.64
755.1	12672.79
755.497	12789.25
755.894	13211.11
756.291	13539.46
756.688	14092.45
757.085	14689.6
757.482	15427.56
757.878	16072.39
758.275	16493.34
758.672	17372.96
759.068	17880.42
759.465	18805.34
759.861	19997.04
760.258	21336.3
760.654	21565.7
761.05	20845.04
761.447	19901.39
761.843	19004.74
762.239	18223.4
762.635	18195.47
763.031	18068.79
763.427	17558.79
763.822	17000.61
764.218	16488.36
764.614	15592.13
765.01	15133.42
765.405	14968.7
765.801	14900.77
766.196	14591.98
766.592	14540.08
766.987	14120.2
767.382	13883.39
767.778	13889.4
768.173	13748.85
768.568	13709.78
768.963	13500.03
769.358	13627.37
769.753	13576.56
770.148	13414.54
770.542	13464.18
770.937	13422.35
771.332	13687
771.726	13753.03
772.121	13593.82
772.515	13746.81
772.91	13722.25
773.304	13926.39
773.699	13768.81
774.093	13918.89
774.487	14065.93
774.881	14172.39
775.275	14156.41
775.669	14044.78
776.063	14156.59
776.457	14253.87
776.851	14050.96
777.245	14013.67
777.638	14080.49
778.032	14363.27
778.425	14247.15
778.819	14334.34
779.212	14207.21
779.606	14087.44
779.999	14124.21
780.392	14057.65
780.786	14250.14
781.179	14281.65
781.572	14369.65
781.965	14376.87
782.358	14199.28
782.751	14316.61
783.143	14168.13
783.536	14320.27
783.929	14392.95
784.322	14630.55
784.714	14666.62
785.107	14600.05
785.499	14715.78
785.891	14589.57
786.284	14468.87
786.676	14739.93
787.068	14604.65
787.46	14646.82
787.852	14617.05
788.245	14743.12
788.636	14737.25
789.028	14811.56
789.42	14822.36
789.812	14772.14
790.204	14932.96
790.595	15100.38
790.987	14594.4
791.378	14603.93
791.77	14860.45
792.161	15115.87
792.553	15183.82
792.944	14873.53
793.335	14661.25
793.726	14766.7
794.117	14913.1
794.508	15176.41
794.899	15066.28
795.29	15329.6
795.681	15404.89
796.072	15026.83
796.463	14523.53
796.853	14478.14
797.244	14751.62
797.634	14756.65
798.025	14693.32
798.415	14651.1
798.806	14752.36
799.196	14837.34
799.586	14838.79
799.976	14650.21
800.366	15036.23
800.756	15473.75
801.146	15294.96
801.536	15269.04
801.926	15338
802.316	15301.66
802.706	15365.15
803.095	15053.4
803.485	15196.04
803.874	15219.72
804.264	15678.41
804.653	15548.21
805.043	15751.28
805.432	15885.26
805.821	15802.33
806.21	15740.9
806.599	15856.5
806.988	15811.55
807.377	15874.07
807.766	15958.86
808.155	16312.77
808.544	15652.04
808.933	15497.47
809.321	15266.5
809.71	15575.5
810.098	15600.76
810.487	16116.65
810.875	16618.65
811.264	16329.67
811.652	16421.22
812.04	16265.26
812.428	16119.59
812.816	16835.21
813.204	16998.35
813.592	17318.59
813.98	17349.06
814.368	16825.67
814.756	17113.41
815.144	16690.54
815.531	17002.29
815.919	16685.74
816.306	16875.68
816.694	16347.18
817.081	16337.28
817.469	16748.59
817.856	16804.61
818.243	17191.41
818.63	17729.44
819.017	17201.08
819.404	17186.55
819.791	17470.73
820.178	17987.8
820.565	18091.45
820.952	19045.32
821.339	18349.8
821.725	18441.26
822.112	17437.88
822.498	17228.56
822.885	17224.17
823.271	17041.4
823.657	17541.77
824.044	17642.01
824.43	17806.61
824.816	17797.6
825.202	17242.77
825.588	18274.56
825.974	18123.21
826.36	18512.92
826.746	18382.38
827.132	18600.92
827.517	18384.78
827.903	17361.64
828.289	17237.68
828.674	16298.03
829.06	16078.1
829.445	16397.73
829.83	16674.5
830.216	17075.47
830.601	17354.91
830.986	16859.59
831.371	16659.26
831.756	17164.97
832.141	16684.96
832.526	16643.09
832.911	16897.51
833.295	16762.74
833.68	17213.72
834.065	16582.84
834.449	15676.37
834.834	15599.16
835.218	15584.75
835.603	15907.59
835.987	15678.69
836.371	16469.96
836.755	16333.18
837.139	16679.22
837.524	16872.57
837.908	16646.53
838.291	16663.01
838.675	16670.62
839.059	16821.16
839.443	16750.74
839.827	16459.42
840.21	16852.34
840.594	16637.13
840.977	16747.44
841.361	16654.5
841.744	16933.13
842.127	16727.5
842.511	16884.13
842.894	17367.67
843.277	17645.92
843.66	18068.75
844.043	18072.47
844.426	17264.21
844.809	16919.09
845.191	16885.52
845.574	16411.14
845.957	16010.59
846.339	15812.67
846.722	15227.04
847.104	15159.14
847.487	14894.27
847.869	14799.59
848.252	14935.9
848.634	15117.21
849.016	15238.66
849.398	15243.39
849.78	15843.95
850.162	15746.19
850.544	15968.74
850.926	16347.36
851.307	16126.6
851.689	16187.15
852.071	16402.76
852.452	16527.08
852.834	16387.06
853.215	16593.18
853.597	16607.08
853.978	16751.86
854.359	17017.31
854.741	16231.59
855.122	16174.11
855.503	16004.8
855.884	16154.33
856.265	16141
856.646	16230.19
857.026	15917.91
857.407	15835.79
857.788	15926.21
858.169	16097.26
858.549	15401.9
858.93	15818.66
859.31	15794.95
859.69	15889.82
860.071	15521.53
860.451	15285.16
860.831	14679.46
861.211	15469.98
861.591	15804.05
861.971	15711.78
862.351	15759.4
862.731	15910.93
863.111	15958.26
863.491	16032.93
863.87	16480.15
864.25	16578.14
864.629	16170.57
865.009	16385.3
865.388	16847.05
865.768	17925.37
866.147	17724.65
866.526	16659.18
866.905	16819.84
867.284	17740.59
867.663	16854.45
868.042	16166.6
868.421	16114.67
868.8	16373.18
869.179	16519.12
869.558	15538.43
869.936	14304.96
870.315	14552.24
870.693	14885.95
871.072	16015.18
871.45	15218.04
871.828	15372.99
872.207	16110.29
872.585	15815.15
872.963	16184.18
873.341	15574.88
873.719	15346.14
874.097	15111.01
874.475	15344.1
874.853	15655.61
875.23	14967.14
875.608	15556.05
875.986	16786.32
876.363	16018.54
876.741	16470.56
877.118	16022.85
877.495	16770.88
877.873	16982.62
878.25	17812
878.627	17026.72
879.004	17195.82
879.381	17048.45
879.758	16547.91
880.135	15348.64
880.512	16179.19
880.889	15692.5
881.265	15470.39
881.642	15286.52
882.019	15511.65
882.395	15167.89
882.772	15730.41
883.148	15000.19
883.524	14897.21
883.901	14756.93
884.277	14923.84
884.653	14775.2
885.029	15149.98
885.405	16726.02
885.781	16550.4
886.157	15811.37
886.532	15954.25
886.908	15892.14
887.284	17618.2
887.659	18147.39
888.035	18664.97
888.411	19087.76
888.786	19287.44
889.161	19878.93
889.537	19437.64
889.912	19957.76
890.287	19831.54
890.662	20209.46
891.037	19717.89
891.412	18259.02
891.787	17917.88
892.162	17132.42
892.536	17353.44
892.911	16504.39
893.286	15969.94
893.66	15125.6
894.035	15298.46
894.409	16424.28
894.784	15551.76
895.158	15588.77
895.532	16270.25
895.906	16469.97
896.281	16605.11
896.655	16119.56
897.029	18181.58
897.402	18698.47
897.776	20571.53
898.15	20297.46
898.524	19897.08
898.898	19980.53
899.271	22207.81
899.645	19124.92
900.018	18317.3
900.392	18999.64
900.765	19181.04
901.138	17821.37
901.511	17653.08
901.884	16334.41
902.258	15191.36
902.631	15845.68
903.003	18385.85
903.376	16714.16
903.749	18872.02
904.122	20286.98
904.495	22370.61
904.867	22638.15
905.24	19582.95
905.612	18122.99
905.985	18408.23
906.357	19068.68
906.729	18000.7
907.102	15226.5
907.474	14491.82
907.846	14448.94
908.218	14155.17
908.59	12439.16
908.962	11967.56
909.334	12844
909.705	13461.13
910.077	13021.74
910.449	13526.18
910.82	13876.92
911.192	15227.84
911.563	15795.86
911.935	16866.22
912.306	16845.18
912.677	17333
913.048	17111.94
913.419	18484.87
913.79	18506.3
914.161	19778.83
914.532	18875.3
914.903	17301
915.274	16403.44
915.645	16157.33
916.015	14210.14
916.386	13564.98
916.756	14466.88
917.127	14971.18
917.497	13443.16
917.868	14716.07
918.238	14069.05
918.608	14556.1
918.978	14963.27
919.348	15959.05
919.718	16591.88
920.088	16092
920.458	16805.57
920.828	17743.72
921.198	16851.1
921.567	18007.9
921.937	13936.23
922.306	14048.74
922.676	15111.98
923.045	12607.6
923.415	11950.22
923.784	10846.55
924.153	11119.81
924.522	11070.98
924.891	10377.91
925.26	11064.46
925.629	10742.12
925.998	12261.36
926.367	11885.13
926.736	11251.94
927.104	13242.04
927.473	14057.77
927.842	16752.92
928.21	16299.21
928.578	16822.72
928.947	15612.28
929.315	15423.92
929.683	17763.11
930.051	17535.79
930.42	19924.72
930.788	16632.53
931.156	16146.55
931.523	14884.94
931.891	13472.39
932.259	12732.29
932.627	14521.85
932.994	20193.05
933.362	16479.84
933.729	14138.78
934.097	13419.68
934.464	11278.11
934.831	12924.68
935.199	12720.04
935.566	12278.6
935.933	12427.78
936.3	15076.35
936.667	11773.16
937.034	10821.23
937.401	10774.53
937.767	9401.5
938.134	8485.07
938.501	12139.07
938.867	13169.9
939.234	22547.56
939.6	19505.21
939.967	21928.22
940.333	14910.46
940.699	12854.93
941.065	10320.78
941.431	13654.23
941.798	13292.51
942.163	17570.68
942.529	11001.08
942.895	10122.34
943.261	6567.37
943.627	8627.96
943.992	7529.4
944.358	7500.57
944.723	7529.76
945.089	7307.94
945.454	6764.64
945.82	7191.75
946.185	6876.58
946.55	7958.56
946.915	7134.4
947.28	8341.64
947.645	7340.95
948.01	6796.71
948.375	7125.26
948.74	8496.46
949.104	9886.58
949.469	14186.42
949.834	25055.86
950.198	23889.28
950.562	14319.65
950.927	11923.89
951.291	14375.12
951.655	12186.05
952.02	11374.87
952.384	8593.92
952.748	7517.78
953.112	7376.73
953.476	6417.52
953.839	5913.64
954.203	5846.96
954.567	7301.64
954.931	11450.02
955.294	9800.89
955.658	9892.23
956.021	16873.42
956.385	28550.54
956.748	42109.61
957.111	65100.04
957.474	73068.56
957.837	82174.69
958.2	62018.05
958.563	22283.42
958.926	15131.91
959.289	22973.54
959.652	25713.53
960.015	19307.27
960.377	27743.34
960.74	31659.22
961.102	54622.39
961.465	59089.76
961.827	32260.33
962.189	62130.78
962.552	43260.53
962.914	34819.29
963.276	22672.03
963.638	18808.79
964	18697.05
964.362	12702.87
964.724	12313.55
965.085	8832.33
965.447	7255.44
965.809	8200.75
966.17	8220.55
966.532	8944.7
966.893	8236.75
967.255	7530.42
967.616	8937.27
967.977	7206.45
968.338	7922.79
968.699	6600.85
969.061	6655.16
969.421	6775.6
969.782	7682.09
970.143	6571.58
970.504	6900.3
970.865	7929.33
971.225	8186.04
971.586	8049.13
971.946	11508.06
972.307	10000.2
972.667	13063.96
973.027	13463.18
973.388	16278.84
973.748	11047.11
974.108	11996.81
974.468	16073.37
974.828	12375.4
975.188	9465.61
975.548	8645.23
975.907	7233.58
976.267	8094.65
976.627	6809.48
976.986	7067
977.346	6718.43
977.705	6482.9
978.064	5927.6
978.424	4962.51
978.783	5104.53
979.142	5841.48
979.501	5636.02
979.86	6001.16
980.219	5803.84
980.578	7502.28
980.937	8395.68
981.296	7533.74
981.654	7781.33
982.013	12120.96
982.371	15838.65
982.73	14923.84
983.088	16964
983.447	18257.76
983.805	26164.6
984.163	55020.16
984.521	61093.69
984.879	89784.94
985.237	-146892.45
985.595	142585.08
985.953	35541.71
986.311	20452.63
986.669	11910.3
987.026	10317.67
987.384	13861.72
987.741	14381.72
988.099	10370.75
988.456	8294.56
988.814	7826.59
989.171	6805.05
989.528	6688
989.885	7070.63
990.242	5644.07
990.599	7018.72
990.956	5744.43
991.313	4024.7
991.67	3319.73
992.027	3564.31
992.383	3181.07
992.74	2804.38
993.096	2960.46
993.453	3079.95
993.809	3199.95
994.165	4266.91
994.522	3980.95
994.878	4396.74
995.234	5529.23
995.59	5458.7
995.946	5096.45
996.302	5828.21
996.658	6722.27
997.013	7392.66
997.369	8810.18
997.725	11364.82
998.08	7354.53
998.436	11162.52
998.791	15536.55
999.147	15611.99
999.502	17068.82
999.857	12431.3
1000.212	20214.76
1000.567	28846.89
1000.922	16684.36
1001.277	10623.64
1001.632	7860.56
1001.987	10173.21
1002.342	7316.73
1002.696	5853.09
1003.051	4677.6
1003.406	5682.04
1003.76	5643.6
1004.114	5600
1004.469	4731.72
1004.823	3925.84
1005.177	4213.69
1005.531	3342.05
1005.885	2986.64
1006.239	3414.04
1006.593	4300.73
1006.947	5792.2
1007.301	4334.74
1007.655	4766.54
1008.008	3499.08
1008.362	3941.92
1008.715	5683.59
1009.069	5205.51
1009.422	7925.47
1009.776	15855.89
1010.129	10526.22
1010.482	8819.65
1010.835	7381.44
1011.188	15503.65
1011.541	14572.35
1011.894	-89945.61
1012.247	266148.94
1012.6	18025.75
1012.952	11496.12
1013.305	5887.2
1013.657	4279.81
1014.01	4067.15
1014.362	3346.38
1014.715	3043.66
1015.067	2672.14
1015.419	2628.99
1015.771	2336.93
1016.123	2098.78
1016.475	2170.87
1016.827	2299.24
1017.179	2513.84
1017.531	2537.69
1017.883	2587.26
1018.234	2564.5
1018.586	3216.11
1018.938	3447.28
1019.289	4809.02
1019.64	5528.29
1019.992	5156.71
1020.343	4764.99
1020.694	3823.52
1021.045	3381.51
1021.396	3865.93
1021.747	4192.01
1022.098	4941.06
1022.449	3600.3
1022.8	3345.96
1023.151	2341.91
1023.501	2092.19
1023.852	2259.03
1024.202	2355.15
1024.553	2573.67
1024.903	2548.67
1025.253	2220.52
1025.604	2022.87
1025.954	2540.34
1026.304	3100.73
1026.654	3613.8
1027.004	5284.23
1027.354	8488.62
1027.703	8188.08
1028.053	10721.62
1028.403	15643.23
1028.753	22476.13
1029.102	30421.34
1029.452	155469.36
1029.801	6712.92
1030.15	4358.13
1030.499	3672.43
897.758	2944.33
901.051	2913.04
904.343	2951.35
907.636	2947.03
910.928	3014.47
914.22	2920.61
917.511	2931.83
920.803	3002.73
924.094	3037.49
927.384	2999.29
930.675	2963.87
933.965	2913
937.255	2914.52
940.544	2882.59
943.834	2784.57
947.123	2734.29
950.411	2832.18
953.7	2799.19
956.988	2761.28
960.276	2701.16
963.563	2801.39
966.851	2786.92
970.138	2854.57
973.424	2839.19
976.711	2786.11
979.997	2968.54
983.283	2995.81
986.568	2885.9
989.853	2916.83
993.138	2944.07
996.423	3027.32
999.708	2949.99
1002.992	3039.64
1006.275	2828.38
1009.559	2901.24
1012.842	3029.45
1016.125	2948.43
1019.408	2923.98
1022.69	3029.81
1025.972	3042.28
1029.254	3011.64
1032.536	2923.86
1035.817	2962.45
1039.098	2883.69
1042.379	3083.93
1045.659	3060.03
1048.939	2976.2
1052.219	3007.77
1055.498	3031.65
1058.778	3006.54
1062.057	2994.12
1065.335	3013.9
1068.614	3040.67
1071.892	3009.23
1075.17	3101.72
1078.447	3079.05
1081.724	3069.65
1085.001	3114.69
1088.278	3085.62
1091.554	3101.33
1094.83	3098.42
1098.106	3120.25
1101.382	3172.68
1104.657	3170.58
1107.932	3169.54
1111.206	3124.11
1114.481	3085.35
1117.755	3087.46
1121.029	3058.39
1124.302	3106.9
1127.575	3047.19
1130.848	3031.35
1134.121	2987.92
1137.393	2930.33
1140.665	3003.33
1143.937	2974.16
1147.208	2940.64
1150.48	2966.88
1153.75	2951.77
1157.021	3001.67
1160.291	2964.15
1163.561	3009.89
1166.831	3009.33
1170.101	3044.6
1173.37	3027.22
1176.639	2961.52
1179.907	3031.74
1183.176	3025.49
1186.444	3040.45
1189.711	3069.59
1192.979	3073.88
1196.246	3033.97
1199.513	3051.87
1202.78	3046.61
1206.046	3054.05
1209.312	3079.24
1212.578	3111.66
1215.843	3051.01
1219.108	3031.89
1222.373	3055.21
1225.638	3013.72
1228.902	2992.51
1232.166	2966.58
1235.43	2944.34
1238.693	2968.42
1241.956	2969.63
1245.219	3001.85
1248.482	2999.1
1251.744	2993.51
1255.006	3160.68
1258.268	3116.57
1261.529	3053.16
1264.79	3066.11
1268.051	3172.07
1271.312	3190.79
1274.572	3149.92
1277.832	3139.25
1281.092	3135.76
1284.351	3095.49
1287.61	3068.31
1290.869	2970.76
1294.128	2935.11
1297.386	3051
1300.644	3034.92
1303.902	3048.31
1307.159	2900.85
1310.416	2954.3
1313.673	2976.95
1316.93	2956.88
1320.186	3014.22
1323.442	3065.21
1326.697	3045.1
1329.953	3050.69
1333.208	3062.62
1336.463	3047.24
1339.717	2971.82
1342.972	3118.47
1346.226	3102.84
1349.479	3026.16
1352.733	2989.49
1355.986	3024.14
1359.238	2996.54
1362.491	2997.95
1365.743	3003.64
1368.995	3003.43
1372.247	3019.13
1375.498	3045.17
1378.749	3051.22
1382	3013.92
1385.251	3073.78
1388.501	3044.41
1391.751	3016.51
1395	2997.64
1398.25	3032.69
1401.499	3033.1
1404.748	2946.9
1407.996	2928.16
1411.244	2913.25
1414.492	2890.33
1417.74	2861.73
1420.987	2881.76
1424.234	2935.02
1427.481	2927.8
1430.728	2982.19
1433.974	2959.19
1437.22	2980.75
1440.465	2987.37
1443.711	2945.36
1446.956	2988.63
1450.201	2984.54
1453.445	3029.92
1456.689	2999.93
1459.933	3015.53
1463.177	3038.79
1466.42	3011.55
1469.663	2990.05
1472.906	2970.11
1476.148	3074.29
1479.391	3001.64
1482.633	2979.18
1485.874	2984.17
1489.115	2958.51
1492.356	2973.2
1495.597	2947.35
1498.838	2956.38
1502.078	2914.26
1505.318	2849.29
1508.557	2898.58
1511.797	2846.58
1515.036	2959.97
1518.274	2945.66
1521.513	2925.38
1524.751	2952.67
1527.989	2961.64
1531.227	2968.64
1534.464	2950.03
1537.701	2987.98
1540.938	3010.4
1544.174	2962.85
1547.41	2970.6
1550.646	3006.63
1553.882	3033.85
1557.117	3088.12
1560.352	3104.58
1563.587	3056.9
1566.821	3009.9
1570.055	3058.58
1573.289	3020.94
1576.523	3103.6
1579.756	3108.65
1582.989	3119.93
1586.222	3081.34
1589.454	3127.24
1592.686	3093.44
1595.918	3116.31
1599.15	3100.2
1602.381	3194.99
1605.612	3133.18
1608.843	3232
1612.073	3139.73
1615.303	3120.84
1618.533	3107.82
1621.762	3119.51
1624.992	3107.76
1628.221	3082.58
1631.449	3069.04
1634.678	3144.22
1637.906	3090.28
1641.134	3133.46
1644.361	3082.42
1647.588	3072.3
1650.815	3082.94
1654.042	3072.01
1657.269	3101.09
1660.495	3049.56
1663.72	3043.89
1666.946	3012.18
1670.171	2933.14
1673.396	2909.89
1676.621	2905.18
1679.845	2941.04
1683.069	2972.58
1686.293	3025.48
1689.517	2985.76
1692.74	2898.02
1695.963	2925.91
1699.185	2971.75
1702.408	2941.49
1705.63	2992.4
1708.852	3000.14
1712.073	2973.71
1715.294	2943.45
1718.515	3012.92
1721.736	2951.58
1724.956	2954.25
1728.176	2983.89
1731.396	3007.05
1734.616	3001.56
1737.835	3023.47
1741.054	3004.66
1744.272	3003.21
1747.491	3026.77
1750.709	3098.5
1753.927	2976.98
1757.144	3036.77
1760.361	3069.72
1763.578	3073.58
1766.795	3006.35
1770.011	3020.99
1773.227	3072.66
1776.443	3106.96
1779.658	3151.08
1782.874	3097.81
1786.089	3065.79
1789.303	3069.41
1792.518	3077.56
1795.732	3066.24
1798.945	3070.42
1802.159	3129.76
1805.372	3007.65
1808.585	2985.14
1811.797	2986.62
1815.01	3050.6
1818.222	3051.96
1821.434	2986.85
1824.645	3066.38
1827.856	3034.68
1831.067	3073.51
1834.278	3048.51
1837.488	3032.26
1840.698	3198.33
1843.908	3113.07
1847.117	3075.74
1850.326	2931.3
1853.535	3055.11
1856.744	3124.58
1859.952	3027.17
1863.16	3028.21
1866.368	3055.7
1869.575	3155.2
1872.782	3043.02
1875.989	2986.77
1879.196	3094.13
1882.402	3087.15
1885.608	3137.42
1888.814	3017.11
1892.019	2909.51
1895.224	2959.57
1898.429	2952.1
1901.634	2925.76
1904.838	2907.32
1908.042	2954.54
1911.246	2957.97
1914.449	2871.13
1917.652	2878.97
1920.855	2860.18
1924.058	2925.69
1927.26	2953.64
1930.462	2987.21
1933.664	3006.38
1936.865	2940
1940.066	2937.59
1943.267	2886.9
1946.467	2910.38
1949.668	2939.89
1952.868	3006.34
1956.067	2976.45
1959.267	2898.61
1962.466	2929.73
1965.665	2917.91
1968.863	2913.11
1972.061	2939.73
1975.259	2945.13
1978.457	3027.44
1981.654	2980.43
1984.852	2982.48
1988.048	2902.4
1991.245	2914.4
1994.441	2999.61
1997.637	2999.62
2000.833	2980.92
2004.028	3022.48
2007.223	3067.72
2010.418	3037.67
2013.613	3006.38
2016.807	2959.77
2020.001	2974.34
2023.194	3033.36
2026.388	3002.33
2029.581	2950.2
2032.774	2990.26
2035.966	2989.59
2039.158	2911.91
2042.35	2945.56
2045.542	2873.83
2048.733	2984.09
2051.924	3025.1
2055.115	3061.78
2058.306	2988.65
2061.496	3052.5
2064.686	3128.24
2067.875	3045.97
2071.065	3068.41
2074.254	3100.52
2077.442	3050.62
2080.631	3144.28
2083.819	3008.59
2087.007	2983.82
2090.195	2943.86
2093.382	2993.59
2096.569	2969.98
2099.756	2916.56
2102.942	2927.39
2106.128	2926.29
2109.314	2920.83
2112.5	2869.34
2115.685	2853.78
2118.87	2865.69
2122.055	2934.42
2125.239	2892.67
2128.424	2854.41
2131.608	2986.63
2134.791	2963.98
2137.974	3039.17
2141.157	3021.72
2144.34	2961.06
2147.523	2991.37
2150.705	2994.18
2153.887	2979.09
2157.068	2915.72
2160.25	2931.8
2163.431	2981.46
2166.611	2910.45
2169.792	2925.94
2172.972	2803.58
2176.152	2903.36
2179.331	2943.1
2182.511	2912.77
2185.69	2946.98
2188.868	2937.16
2192.047	3007.29
2195.225	2980.08
2198.403	2928.22
2201.58	2924.69
2204.758	2927
2207.935	3017.46
2211.111	2885.52
2214.288	2868.73
2217.464	2912.02
2220.64	2891.66
2223.815	2952.45
2226.991	2865.74
2230.166	2886.28
2233.34	2909.32
2236.515	2944.22
2239.689	3023.23
2242.863	2961.55
2246.036	3020.41
2249.209	3033.96
2252.382	3077.11
2255.555	3054.91
2258.727	2981.03
2261.9	3030.36
2265.071	3023.59
2268.243	3030.3
2271.414	2950.69
2274.585	2897.48
2277.756	2970.61
2280.926	2926.13
2284.096	2972.27
2287.266	2866.15
2290.436	2927.77
2293.605	2962.47
2296.774	2984.68
2299.942	3021.46
2303.111	3034.62
2306.279	3079.24
2309.447	3066.96
2312.614	3045.22
2315.781	3062.48
2318.948	3025.61
2322.115	3066.09
2325.281	2967.8
2328.447	2993.42
2331.613	2974.43
2334.779	2930.32
2337.944	2942.01
2341.109	2938.4
2344.274	2918.73
2347.438	2881.51
2350.602	2910.79
2353.766	2929.1
2356.929	2912.78
2360.092	2955.64
2363.255	2900.22
2366.418	2809.36
2369.58	2951.69
2372.742	2681.45
2375.904	2709.52
2379.066	2677.45
2382.227	2722.2
2385.388	2681.73
2388.548	2595.73
2391.709	2658.41
2394.869	2631.77
2398.029	2759.83
2401.188	2785.46
2404.347	2701.75
2407.506	2883
2410.665	2905.7
2413.823	2924.35
2416.981	2866.31
2420.139	2908.9
2423.296	2963.76
2426.453	2939.34
2429.61	2967.67
2432.767	2875.71
2435.923	2914.15
2439.079	2843.59
2442.235	2906.51
2445.391	2824.01
2448.546	2841.5
2451.701	2904.14
2454.855	2858.03
2458.009	2926.69
2461.163	2936.86
2464.317	2883.69
2467.471	2924.74
2470.624	2970
2473.777	2972.25
2476.929	2982.71
2480.082	3008.75
2483.234	2970.13
2486.385	2896.64
2489.537	2890.79
2492.688	2831.67
2495.839	2850.18
2498.989	2857.41
2502.14	2837.68
2505.29	2810.75
2508.439	2842.44
2511.589	2751.22
2514.738	2771.75
2517.887	2807.66
2521.035	2901.73
2524.183	2896.15
2527.331	2873.82
2530.479	2834.34
2533.627	2852.11
