Data from C_3_DEC_OH_4N_Splice17_13-26-06-167.txt Node
Date: Sat Mar 14 13:26:06 EDT 2020
User: sa697716
Spectrometer: FLMS03696
Trigger mode: 0
Integration Time (sec): 3.180400E-1
Scans to average: 20
Electric dark correction enabled: true
Nonlinearity correction enabled: true
Boxcar width: 5
XAxis mode: Wavelengths
Number of Pixels in Spectrum: 2048
>>>>>Begin Spectral Data<<<<<
187.83	-332592.41
188.298	2483.59
188.766	1327.87
189.233	1192.9
189.701	1645.12
190.169	2306.77
190.636	871.22
191.104	781.3
191.571	109.81
192.039	-81.01
192.506	-187.36
192.974	387.44
193.441	-727.21
193.908	-49.26
194.375	-51.62
194.842	-15.22
195.31	106.08
195.777	151.88
196.244	369.26
196.711	332.74
197.177	393.73
197.644	526.98
198.111	948.55
198.578	1342.28
199.045	1053.15
199.511	1740.26
199.978	1983.33
200.445	1718.1
200.911	1900.58
201.378	2097.73
201.844	1937.56
202.31	3314.63
202.777	3427.06
203.243	1894.48
203.709	1824.28
204.176	2192.46
204.642	1803.31
205.108	1700.98
205.574	1363.62
206.04	1220.35
206.506	1138.06
206.972	1059.73
207.438	1040.72
207.903	1188.61
208.369	1034.75
208.835	1032.23
209.301	1070.2
209.766	1093.13
210.232	1092.22
210.697	1335.97
211.163	1646.75
211.628	2447.12
212.094	2038.9
212.559	2517.89
213.024	1577.51
213.49	1939.81
213.955	1869.5
214.42	1783.75
214.885	1654.2
215.35	1573.55
215.815	1573.64
216.28	1674.26
216.745	1360.91
217.21	1476.76
217.675	1312.49
218.14	1455.31
218.604	1586.51
219.069	1771.17
219.534	1872.16
219.998	2133.71
220.463	2540.14
220.927	2986.74
221.392	2776.82
221.856	2783.14
222.32	3427.74
222.785	4202.43
223.249	5247.25
223.713	5801.88
224.177	5795.98
224.642	7337.94
225.106	8962.61
225.57	9726.35
226.034	7273.43
226.497	11000.47
226.961	9964.63
227.425	11627.52
227.889	12858.52
228.353	12819.83
228.816	26383.65
229.28	25181.59
229.744	21139.39
230.207	12889.06
230.671	12708.38
231.134	20848.53
231.597	24064.71
232.061	23847.07
232.524	23108.21
232.987	15909.17
233.45	14302.47
233.914	12826.57
234.377	13085.28
234.84	11983.79
235.303	14094.42
235.766	15688.28
236.229	16207.13
236.691	10202.97
237.154	11515.5
237.617	8727.54
238.08	8935.48
238.542	10476.52
239.005	7517.91
239.468	7488.84
239.93	7062.87
240.393	6421.28
240.855	5652.54
241.317	5801.35
241.78	7041.11
242.242	7296.68
242.704	7913.51
243.166	6903.94
243.629	6300.7
244.091	7273.81
244.553	7964.56
245.015	8574.63
245.477	11074.51
245.939	16192.11
246.4	17210.61
246.862	16761.31
247.324	15801.84
247.786	17596
248.247	23055.24
248.709	23690.79
249.17	17729.95
249.632	16798.3
250.093	19530.6
250.555	16902.35
251.016	10329.98
251.477	9801.25
251.939	10597.75
252.4	11094.61
252.861	13176.97
253.322	12297.17
253.783	14617.2
254.244	18970.09
254.705	14926.61
255.166	13234.92
255.627	13052.85
256.088	18498.31
256.549	19694.2
257.009	16955.78
257.47	20572.79
257.931	16776.64
258.391	12549.91
258.852	12944.67
259.312	13536.69
259.773	16740.21
260.233	14193.14
260.694	11993.66
261.154	13575.26
261.614	10925.45
262.074	9760.69
262.534	10164.99
262.994	9598.64
263.455	12785.74
263.915	10795.44
264.374	10158.32
264.834	11074.68
265.294	12256.47
265.754	12692.14
266.214	12012.59
266.673	11230.42
267.133	14159.95
267.593	14046.62
268.052	17184.51
268.512	14939.16
268.971	18070.87
269.431	19853.59
269.89	17781.6
270.349	26696.29
270.809	29848.12
271.268	26824.11
271.727	60075.77
272.186	38925.45
272.645	29179.26
273.104	21028.19
273.563	30441.79
274.022	23836.42
274.481	20302.29
274.94	15674.47
275.399	11633.09
275.857	13529.44
276.316	18296.52
276.775	16267.29
277.233	16035.67
277.692	15056.26
278.15	17026.1
278.609	17591.12
279.067	16279.44
279.525	15144.11
279.984	19547.91
280.442	23546.92
280.9	23239.92
281.358	15333.81
281.816	14346.18
282.274	14055.49
282.732	14491.13
283.19	14607.46
283.648	12575.09
284.106	13419.32
284.564	13629.51
285.021	12662.8
285.479	9416.17
285.937	8534.07
286.394	7507.65
286.852	7723.22
287.309	8147.87
287.767	7917.86
288.224	7557.25
288.682	8313.08
289.139	9155.75
289.596	8407.06
290.053	8755.21
290.511	11080.83
290.968	13493.86
291.425	18269.19
291.882	15284.94
292.339	13312.94
292.796	13200.58
293.252	12428.69
293.709	9903.84
294.166	8885.42
294.623	9840.45
295.079	9433.78
295.536	9519.19
295.992	8661.06
296.449	8585.95
296.905	8920.26
297.362	8579.87
297.818	9003.81
298.274	9374
298.731	9552.94
299.187	9462
299.643	10150.22
300.099	12324.38
300.555	13503.33
301.011	11289.41
301.467	10951.36
301.923	12787.34
302.379	12504.45
302.835	12346.7
303.291	12348.72
303.746	14069.86
304.202	17782.19
304.658	17880.6
305.113	12019.74
305.569	11806.8
306.024	12575.69
306.479	11917.09
306.935	10101.58
307.39	11006.08
307.845	10190.99
308.301	10282.38
308.756	10004.94
309.211	9670
309.666	9921.16
310.121	12348.7
310.576	12519.12
311.031	12414.1
311.486	14213.92
311.94	14210.11
312.395	19046.31
312.85	35722.66
313.305	175173.6
313.759	914848.13
314.214	66406.74
314.668	52699.93
315.123	44397.7
315.577	15987.69
316.032	14304.27
316.486	17952.96
316.94	14217.26
317.394	9925.44
317.849	7715.51
318.303	7310.26
318.757	6885.95
319.211	7601.15
319.665	6665.26
320.119	6741.56
320.572	9653.3
321.026	9037.98
321.48	7526.78
321.934	8183.46
322.387	8198.78
322.841	8883.7
323.295	8051.73
323.748	9267.57
324.202	9428.86
324.655	11342.01
325.108	15917.99
325.562	11257.37
326.015	13340.93
326.468	10086.58
326.921	11299.16
327.374	10573.14
327.827	11031.23
328.28	12468.51
328.733	8382.34
329.186	7372.51
329.639	7036.42
330.092	5926.15
330.545	5650.16
330.997	5720.45
331.45	6274.84
331.903	7393.58
332.355	12665.23
332.808	12285.41
333.26	10125.3
333.713	10998.3
334.165	11058.8
334.617	14756.36
335.069	11866.45
335.522	21503.03
335.974	23862.04
336.426	21817.98
336.878	15029.55
337.33	7652.4
337.782	7497.76
338.234	9446.77
338.686	11277.86
339.137	13413
339.589	12639.12
340.041	9968.27
340.493	8559.21
340.944	8760.87
341.396	9430.47
341.847	7959.69
342.299	9452.28
342.75	11569.19
343.201	10034.16
343.653	11539.99
344.104	14181.15
344.555	11164.9
345.006	17334.24
345.457	13366.88
345.908	10637.43
346.359	10060.4
346.81	8186.18
347.261	8599.8
347.712	8443.95
348.163	9082.93
348.613	9236.31
349.064	8647.19
349.515	7554.1
349.965	7770.12
350.416	9324.39
350.866	10221.13
351.317	11531.79
351.767	19116.8
352.217	24184.49
352.668	20139.15
353.118	18543.99
353.568	17862.34
354.018	14161.79
354.468	15024.72
354.918	10785.88
355.368	9446.33
355.818	13362.59
356.268	38448.47
356.718	162172.08
357.168	40346.08
357.617	20200.17
358.067	22347.89
358.517	20966.31
358.966	24652.62
359.416	27736.09
359.865	29986.56
360.315	35721.01
360.764	16720.51
361.213	9399.66
361.663	8845.61
362.112	10957.61
362.561	17720.63
363.01	13422.2
363.459	11283.93
363.908	12187.64
364.357	10378.4
364.806	17510.89
365.255	12067.3
365.703	11095.41
366.152	11128.58
366.601	9054.66
367.05	7370.66
367.498	6722.93
367.947	7026.47
368.395	7335.83
368.844	6521.22
369.292	7819.38
369.74	5442.84
370.189	8337.45
370.637	9756.63
371.085	8415.34
371.533	10241.68
371.981	9842.52
372.429	9435.75
372.877	9814.89
373.325	8257.07
373.773	8390.39
374.221	7482.47
374.669	9261.7
375.116	8021.04
375.564	8102.65
376.012	9056.66
376.459	7505.22
376.907	8996.32
377.354	10845.35
377.801	10132.01
378.249	11633.73
378.696	14878.5
379.143	18052.83
379.591	19257.24
380.038	32660.65
380.485	23692.61
380.932	25597.95
381.379	23517.71
381.826	17393.81
382.273	12362.91
382.72	10792.19
383.166	10524.22
383.613	6840.33
384.06	6192.7
384.506	7175.9
384.953	5273.15
385.4	5296.68
385.846	4655.37
386.292	4509.92
386.739	4391.32
387.185	4343.41
387.631	4358.12
388.078	4247.22
388.524	4542.04
388.97	4188.18
389.416	3501.5
389.862	3717.95
390.308	3513.97
390.754	3564.94
391.2	3874.85
391.645	3961.45
392.091	3818.2
392.537	3697.68
392.983	3680.19
393.428	3643.82
393.874	3889.92
394.319	3915.64
394.765	3733.65
395.21	3842.07
395.655	3604.9
396.101	3378.85
396.546	3057.17
396.991	3068.3
397.436	2846.37
397.881	2759.94
398.326	2604.29
398.771	2481.47
399.216	2159.63
399.661	1937.96
400.106	1935.8
400.551	1998.62
400.995	1796.73
401.44	1784.46
401.885	1679.49
402.329	1704
402.774	1637.5
403.218	1598.8
403.663	1540.48
404.107	1594.59
404.551	1617.74
404.995	1487.38
405.44	1426.83
405.884	1447.59
406.328	1402.03
406.772	1400.99
407.216	1279.98
407.66	1238.6
408.104	1170.88
408.547	1098.59
408.991	1066.27
409.435	1025.68
409.879	1015.02
410.322	1005.02
410.766	974.85
411.209	929.15
411.653	892.03
412.096	876.49
412.54	876.16
412.983	874.12
413.426	883.18
413.869	879.2
414.312	866.61
414.756	835.48
415.199	797.04
415.642	777.31
416.085	781.64
416.527	777.24
416.97	789.45
417.413	751.2
417.856	742.37
418.298	733.41
418.741	727.31
419.184	725.11
419.626	751.75
420.069	754.22
420.511	757.86
420.953	742.22
421.396	738.31
421.838	718.33
422.28	738.06
422.722	743.76
423.164	753.67
423.606	744.82
424.048	740.33
424.49	707.42
424.932	702.16
425.374	693.52
425.816	703.68
426.258	715.51
426.699	725.28
427.141	715.13
427.582	725.11
428.024	719.4
428.465	713.4
428.907	697.77
429.348	688.06
429.789	689.7
430.231	674.68
430.672	681.58
431.113	663.93
431.554	651.75
431.995	633.76
432.436	612.85
432.877	597.77
433.318	589.11
433.759	585.25
434.2	585.82
434.64	578.74
435.081	580.42
435.522	550.5
435.962	531
436.403	522.01
436.843	527.88
437.284	514.23
437.724	500.09
438.164	497.07
438.604	484.58
439.045	466.9
439.485	448.53
439.925	436.78
440.365	425.67
440.805	418.66
441.245	412.1
441.685	395.31
442.125	390.55
442.564	392.2
443.004	383.99
443.444	382.54
443.883	382.07
444.323	377.16
444.762	376.01
445.202	379.81
445.641	389.09
446.081	385.76
446.52	388.98
446.959	385.25
447.398	375.83
447.837	373.29
448.276	364.91
448.716	367.39
449.154	367.92
449.593	361.42
450.032	360.67
450.471	351.57
450.91	349.31
451.349	349.4
451.787	347.04
452.226	351.87
452.664	350.15
453.103	351.16
453.541	349.32
453.98	351.51
454.418	352.71
454.856	347.67
455.295	346.74
455.733	351.46
456.171	352.41
456.609	352.67
457.047	353.17
457.485	359.58
457.923	361.86
458.361	356.42
458.798	356.38
459.236	354.79
459.674	355.81
460.111	357.11
460.549	353.22
460.987	351.48
461.424	349.68
461.862	346.04
462.299	338.29
462.736	337.54
463.173	338.59
463.611	337.89
464.048	337.98
464.485	340.79
464.922	336.97
465.359	334.55
465.796	337.49
466.233	337.14
466.67	336.86
467.106	338.45
467.543	334.08
467.98	330.22
468.416	319.24
468.853	315.36
469.29	305.55
469.726	302.14
470.162	294.13
470.599	283.71
471.035	278.97
471.471	271.3
471.907	267.92
472.344	265.78
472.78	267.26
473.216	269.97
473.652	266.83
474.088	265.27
474.523	265.2
474.959	267.61
475.395	266.56
475.831	265.83
476.266	267.3
476.702	266.47
477.138	264.25
477.573	262.68
478.008	261.3
478.444	263.95
478.879	268.49
479.314	270.14
479.75	270.01
480.185	269.67
480.62	271.82
481.055	273.04
481.49	275.73
481.925	279.63
482.36	286.52
482.795	294.73
483.229	301.51
483.664	307.24
484.099	308.12
484.534	313.24
484.968	317.06
485.403	317.53
485.837	316
486.271	314.51
486.706	314.88
487.14	310.47
487.574	305.96
488.009	303.52
488.443	300.54
488.877	304.54
489.311	305.61
489.745	309.74
490.179	313.44
490.613	321.68
491.046	324.81
491.48	327.87
491.914	328.39
492.348	330.77
492.781	333.06
493.215	334.24
493.648	334.73
494.082	337.48
494.515	337.7
494.948	342.88
495.382	344.85
495.815	348.78
496.248	352.34
496.681	359.42
497.114	365.66
497.547	372.57
497.98	381.9
498.413	386.6
498.846	393.2
499.279	399.21
499.711	402.14
500.144	404.85
500.577	412.17
501.009	419.37
501.442	427.51
501.874	431.04
502.306	433.16
502.739	441.29
503.171	451.38
503.603	455.73
504.036	462.66
504.468	468.13
504.9	476.56
505.332	482.43
505.764	487.16
506.196	492.78
506.627	503.15
507.059	513.52
507.491	517.27
507.923	518.64
508.354	529.95
508.786	539.68
509.217	552.86
509.649	564.74
510.08	577.12
510.512	590.01
510.943	601.76
511.374	611.79
511.805	626.72
512.237	641.75
512.668	663.21
513.099	680.89
513.53	698.9
513.961	714.39
514.391	736.48
514.822	760.88
515.253	786.05
515.684	804.34
516.114	824.74
516.545	840.99
516.975	859.69
517.406	873.52
517.836	878.82
518.267	885.92
518.697	900.42
519.127	905.11
519.558	911.76
519.988	916.66
520.418	925.57
520.848	939.15
521.278	946.45
521.708	985.44
522.138	996.81
522.567	1018.92
522.997	1037.65
523.427	1049.07
523.857	1062.29
524.286	1071.75
524.716	1083.1
525.145	1096.88
525.575	1106.35
526.004	1118.01
526.433	1090.45
526.863	1092.31
527.292	1088.18
527.721	1094.46
528.15	1099.66
528.579	1102.39
529.008	1111.02
529.437	1127.01
529.866	1137.33
530.295	1149.66
530.724	1159.34
531.152	1178.93
531.581	1189.29
532.01	1201.25
532.438	1206.5
532.867	1216.83
533.295	1229.24
533.723	1232.96
534.152	1231.78
534.58	1232.92
535.008	1222.55
535.436	1224.16
535.865	1229.83
536.293	1238.84
536.721	1248.63
537.149	1267.02
537.576	1268.78
538.004	1277
538.432	1282.13
538.86	1281.7
539.287	1285.78
539.715	1295.14
540.143	1296.49
540.57	1293.25
540.998	1290.21
541.425	1276.15
541.852	1260.04
542.28	1259.15
542.707	1248.3
543.134	1238.8
543.561	1235.6
543.988	1230.77
544.415	1230.29
544.842	1226.49
545.269	1222.49
545.696	1224.04
546.123	1233.02
546.549	1226.68
546.976	1218.24
547.403	1217.94
547.829	1219.68
548.256	1221.89
548.682	1220.26
549.108	1216.63
549.535	1215.97
549.961	1216.57
550.387	1208.7
550.813	1205.92
551.24	1211.1
551.666	1212.69
552.092	1206.9
552.518	1203.73
552.943	1200.08
553.369	1204.49
553.795	1207.46
554.221	1209.25
554.646	1208.17
555.072	1217.32
555.498	1219.12
555.923	1225.96
556.349	1235.53
556.774	1241.79
557.199	1241.56
557.625	1245.06
558.05	1241.54
558.475	1248.6
558.9	1247.9
559.325	1242.95
559.75	1237.4
560.175	1233.38
560.6	1227.39
561.025	1224.84
561.449	1224.61
561.874	1227.64
562.299	1230.43
562.723	1234.01
563.148	1225.96
563.572	1227.15
563.997	1232.22
564.421	1234.59
564.846	1233.53
565.27	1236.32
565.694	1234.16
566.118	1240.86
566.542	1246.37
566.966	1240.44
567.39	1236.08
567.814	1228.56
568.238	1228.15
568.662	1230.41
569.086	1231.41
569.509	1235.04
569.933	1223.91
570.357	1218.11
570.78	1202.84
571.204	1193.14
571.627	1184.68
572.05	1182.63
572.474	1180.39
572.897	1170.6
573.32	1164.21
573.743	1155.15
574.166	1142.7
574.589	1140.07
575.012	1134.3
575.435	1132.71
575.858	1125.16
576.281	1116.81
576.704	1106.08
577.126	1097.72
577.549	1089.35
577.972	1081.35
578.394	1074.57
578.817	1071.07
579.239	1058.67
579.661	1049.83
580.084	1040.07
580.506	1030.71
580.928	1027.89
581.35	1020.62
581.772	1018.07
582.194	1008.83
582.616	1000.31
583.038	989.81
583.46	980.03
583.882	978.02
584.303	979.29
584.725	974.02
585.147	977.55
585.568	984.58
585.99	991.57
586.411	994.84
586.833	1004.36
587.254	1005.62
587.675	1015.08
588.096	1022.77
588.518	1018.95
588.939	1007.87
589.36	1007.12
589.781	995.1
590.202	977.65
590.623	971.44
591.043	969.28
591.464	961.09
591.885	958.12
592.305	953.75
592.726	944.5
593.147	944.41
593.567	940.63
593.987	935.7
594.408	933.07
594.828	929.16
595.248	925.21
595.669	913.92
596.089	908.24
596.509	903.15
596.929	894.74
597.349	895.21
597.769	888.19
598.189	884.47
598.608	884.74
599.028	885.9
599.448	886.32
599.867	876.98
600.287	872.9
600.706	870.69
601.126	864.99
601.545	864.08
601.965	862.65
602.384	859.33
602.803	860.64
603.222	857.53
603.641	853.01
604.061	850.24
604.48	847.54
604.898	852.13
605.317	854.06
605.736	854.04
606.155	851.59
606.574	845.83
606.992	848.65
607.411	843.99
607.829	837.5
608.248	834.53
608.666	831.54
609.085	831.31
609.503	824.75
609.921	820.57
610.339	822.07
610.758	820.33
611.176	815.84
611.594	809.89
612.012	808.12
612.43	810.67
612.847	813.64
613.265	815.72
613.683	816.43
614.101	816.87
614.518	813.7
614.936	807.21
615.353	798.05
615.771	796.8
616.188	796.07
616.606	792.75
617.023	787.6
617.44	779.45
617.857	773.13
618.274	767.79
618.691	764.33
619.108	757.62
619.525	752.77
619.942	756.65
620.359	757.17
620.776	753.35
621.192	751.76
621.609	749.54
622.026	752.68
622.442	755.61
622.859	756.73
623.275	751.73
623.691	755.56
624.108	762.73
624.524	770.13
624.94	769.63
625.356	775.07
625.772	780.64
626.188	787.57
626.604	787.65
627.02	785.37
627.436	784.85
627.852	789.37
628.268	796.18
628.683	789.63
629.099	784.33
629.514	780.84
629.93	783.59
630.345	786.27
630.761	782.55
631.176	784.75
631.591	782.1
632.007	777.63
632.422	774.05
632.837	765.97
633.252	763.62
633.667	756.69
634.082	750.51
634.497	742.14
634.911	730.92
635.326	727.37
635.741	715.31
636.155	706.44
636.57	705.81
636.984	704.77
637.399	704.93
637.813	703.18
638.228	700.26
638.642	700.11
639.056	691.57
639.47	689.85
639.884	682.68
640.298	677.03
640.712	674.8
641.126	665.62
641.54	657.35
641.954	649.06
642.368	639.86
642.781	635.36
643.195	623.53
643.609	621.01
644.022	613.6
644.436	609.05
644.849	600.59
645.262	590.89
645.676	589.27
646.089	585.91
646.502	579.34
646.915	574.79
647.328	562.65
647.741	560.31
648.154	552.66
648.567	552.59
648.98	545.52
649.393	544.72
649.805	543.08
650.218	538.77
650.631	529.67
651.043	525.58
651.456	522.3
651.868	521.73
652.28	529.74
652.693	535.58
653.105	536.14
653.517	539.3
653.929	538.86
654.341	540.36
654.753	533.11
655.165	535.74
655.577	533.13
655.989	529.72
656.401	523.79
656.813	506.38
657.224	495.2
657.636	479.46
658.047	471.31
658.459	461.3
658.87	454.98
659.282	448.02
659.693	438.04
660.104	429.68
660.515	421.26
660.926	419.82
661.338	416.67
661.749	412.95
662.159	408.95
662.57	404
662.981	400.15
663.392	396.62
663.803	397.61
664.213	393.76
664.624	390.94
665.035	392.43
665.445	385.4
665.855	381.81
666.266	378.04
666.676	375.42
667.086	370.51
667.497	370.56
667.907	366.84
668.317	361.49
668.727	362.51
669.137	361.14
669.547	359.77
669.956	360.52
670.366	361.4
670.776	362.18
671.186	363.78
671.595	366.49
672.005	366.72
672.414	367.57
672.824	369.63
673.233	369.52
673.642	373.33
674.052	375.35
674.461	378.83
674.87	381.57
675.279	381.87
675.688	383.11
676.097	386.11
676.506	386.24
676.915	394.14
677.323	395.55
677.732	396.63
678.141	395.98
678.549	391.85
678.958	391.06
679.366	390.99
679.775	393.47
680.183	401.75
680.592	405.92
681	410.44
681.408	408.35
681.816	414.07
682.224	420.51
682.632	428.88
683.04	446.35
683.448	460.91
683.856	479.75
684.264	501.75
684.671	520.31
685.079	543.09
685.487	568.04
685.894	604.93
686.302	634.81
686.709	660.54
687.116	689.82
687.524	716.69
687.931	741.19
688.338	762.86
688.745	781.03
689.152	802.93
689.559	832.45
689.966	863.16
690.373	878.62
690.78	907.68
691.187	948.28
691.593	981.6
692	1010.37
692.407	1051.95
692.813	1103.37
693.22	1144.6
693.626	1185.23
694.032	1219.58
694.439	1271.27
694.845	1311.7
695.251	1362.27
695.657	1408.38
696.063	1474.49
696.469	1525.43
696.875	1572.25
697.281	1599.24
697.687	1632.52
698.093	1663.33
698.498	1716.16
698.904	1756.54
699.31	1819.53
699.715	1866.23
700.12	1930.94
700.526	1947.46
700.931	1997.41
701.337	2036.63
701.742	2062.5
702.147	2120.86
702.552	2145.05
702.957	2188.07
703.362	2204.83
703.767	2226.76
704.172	2251.77
704.577	2222.4
704.981	2256.59
705.386	2269.82
705.791	2266.83
706.195	2319.52
706.6	2330.39
707.004	2384.9
707.408	2365.82
707.813	2387.99
708.217	2380.98
708.621	2387.57
709.025	2456.02
709.43	2458.4
709.834	2502.44
710.237	2550.42
710.641	2541.88
711.045	2559.59
711.449	2558.48
711.853	2583.37
712.256	2611.49
712.66	2639.78
713.064	2692.04
713.467	2723.06
713.87	2802.62
714.274	2835.33
714.677	2912.3
715.08	3025.62
715.484	3139.86
715.887	3281.61
716.29	3413.82
716.693	3559.32
717.096	3721.36
717.499	3809.92
717.901	3825.33
718.304	3840.76
718.707	3858.01
719.109	3788.89
719.512	3766.7
719.915	3674.29
720.317	3634.42
720.719	3665.71
721.122	3645.73
721.524	3613.23
721.926	3588.9
722.328	3656.66
722.731	3650.04
723.133	3666.87
723.535	3800.3
723.937	3816.14
724.338	3854.04
724.74	3883.77
725.142	3874.61
725.544	3871.92
725.945	3898.06
726.347	3893.21
726.748	3888.34
727.15	3900.41
727.551	3878.35
727.952	3857.9
728.354	3834.93
728.755	3832.6
729.156	3801.9
729.557	3759.93
729.958	3677.87
730.359	3632.36
730.76	3620.17
731.161	3581.62
731.562	3564.27
731.962	3562.01
732.363	3518.48
732.763	3476.67
733.164	3502.45
733.564	3456.11
733.965	3391.83
734.365	3366.68
734.766	3386.54
735.166	3360.01
735.566	3323.45
735.966	3308.68
736.366	3307.94
736.766	3266.07
737.166	3288.17
737.566	3259.27
737.966	3244.43
738.365	3271.73
738.765	3270.51
739.165	3220.19
739.564	3202.8
739.964	3232.56
740.363	3198.15
740.763	3195.24
741.162	3189.6
741.561	3166.69
741.96	3136.65
742.36	3148.7
742.759	3151.72
743.158	3175.08
743.557	3184.02
743.955	3210.7
744.354	3178.85
744.753	3217.32
745.152	3190.26
745.55	3224.54
745.949	3219.53
746.348	3220.99
746.746	3231.46
747.144	3206.74
747.543	3191.2
747.941	3225.68
748.339	3177.8
748.737	3173.69
749.136	3169.23
749.534	3211.53
749.932	3194.29
750.33	3209.84
750.727	3245.64
751.125	3229.25
751.523	3214.51
751.921	3245.67
752.318	3220.21
752.716	3258.16
753.113	3267.86
753.511	3282.83
753.908	3283.75
754.305	3273.26
754.703	3314.89
755.1	3355.52
755.497	3396.24
755.894	3524.39
756.291	3643.7
756.688	3868.77
757.085	4167.29
757.482	4585.42
757.878	5044.08
758.275	5458.13
758.672	6020.18
759.068	6484.05
759.465	7145.85
759.861	7992.16
760.258	8981.03
760.654	9491.08
761.05	9416.25
761.447	8983.77
761.843	8361.51
762.239	7720.93
762.635	7425.66
763.031	7147.44
763.427	6746.81
763.822	6326.27
764.218	5915.46
764.614	5377.1
765.01	5017.6
765.405	4784
765.801	4609.92
766.196	4382.06
766.592	4255.99
766.987	4045.51
767.382	3903.74
767.778	3843.78
768.173	3756.09
768.568	3706.61
768.963	3623.14
769.358	3635.99
769.753	3605.02
770.148	3547.45
770.542	3545.56
770.937	3523.82
771.332	3585.58
771.726	3597.98
772.121	3556.32
772.515	3594.42
772.91	3583.91
773.304	3630.42
773.699	3585.25
774.093	3619.1
774.487	3656.84
774.881	3687.89
775.275	3686.36
775.669	3657.36
776.063	3685.9
776.457	3708.71
776.851	3657.32
777.245	3653.65
777.638	3677.17
778.032	3754.47
778.425	3730.56
778.819	3761.84
779.212	3734.27
779.606	3705.81
779.999	3717.72
780.392	3708.18
780.786	3763.69
781.179	3778.67
781.572	3805.93
781.965	3814.91
782.358	3776.33
782.751	3814.46
783.143	3776.69
783.536	3825.55
783.929	3853.25
784.322	3932.77
784.714	3952.57
785.107	3948.9
785.499	3996.32
785.891	3982.04
786.284	3971.28
786.676	4066.92
787.068	4057
787.46	4093.91
787.852	4105.23
788.245	4162.49
788.636	4180.29
789.028	4226.78
789.42	4256.74
789.812	4262.18
790.204	4325.17
790.595	4393.44
790.987	4259.57
791.378	4271.9
791.77	4359.52
792.161	4451.27
792.553	4490.49
792.944	4417.8
793.335	4372.93
793.726	4421.35
794.117	4484.77
794.508	4580.34
794.899	4558.1
795.29	4655.61
795.681	4697.26
796.072	4598.42
796.463	4486.58
796.853	4498.07
797.244	4608.13
797.634	4633.12
798.025	4632.71
798.415	4639.05
798.806	4700.54
799.196	4757.17
799.586	4793.89
799.976	4766.28
800.366	4928.69
800.756	5078.38
801.146	5048.98
801.536	5068.17
801.926	5114.76
802.316	5132.64
802.706	5185.7
803.095	5102.57
803.485	5172.68
803.874	5197.33
804.264	5377.5
804.653	5357.32
805.043	5462.21
805.432	5539.88
805.821	5539
806.21	5556.24
806.599	5635.7
806.988	5664.95
807.377	5736.04
807.766	5826.06
808.155	6023.99
808.544	5843.63
808.933	5853.08
809.321	5838.77
809.71	6035.4
810.098	6141.48
810.487	6452.62
810.875	6779.72
811.264	6790.74
811.652	6997.62
812.04	7098.38
812.428	7209.16
812.816	7726.55
813.204	8011.41
813.592	8376.95
813.98	8609.33
814.368	8552.02
814.756	8884.9
815.144	8834.24
815.531	9159.32
815.919	9098.08
816.306	9306.47
816.694	9086.18
817.081	9120.53
817.469	9358.78
817.856	9362.43
818.243	9541.67
818.63	9806.46
819.017	9522.52
819.404	9568.23
819.791	9822.1
820.178	10242.02
820.565	10405.84
820.952	11051.48
821.339	10720.01
821.725	10841.04
822.112	10334.89
822.498	10310.63
822.885	10394.71
823.271	10321.86
823.657	10599.95
824.044	10605.76
824.43	10653.46
824.816	10644.27
825.202	10344.31
825.588	11031.75
825.974	11045.34
826.36	11403.21
826.746	11423.19
827.132	11666.45
827.517	11651.99
827.903	11118.36
828.289	11150.68
828.674	10619.22
829.06	10537.75
829.445	10808.34
829.83	11052.13
830.216	11373.45
830.601	11620.45
830.986	11348.32
831.371	11257.25
831.756	11636.81
832.141	11349.78
832.526	11342.2
832.911	11537.46
833.295	11457.39
833.68	11774.32
834.065	11351.84
834.449	10729.89
834.834	10677.05
835.218	10666.92
835.603	10892.68
835.987	10744.66
836.371	11297.58
836.755	11223.09
837.139	11490.45
837.524	11646.96
837.908	11518.44
838.291	11558.79
838.675	11600.79
839.059	11734.13
839.443	11716.87
839.827	11558.18
840.21	11874.12
840.594	11778.87
840.977	11911.54
841.361	11890.76
841.744	12147.99
842.127	12039.98
842.511	12206.64
842.894	12604.05
843.277	12859
843.66	13227.26
844.043	13278.07
844.426	12740.04
844.809	12520.84
845.191	12541.43
845.574	12229.36
845.957	11978.32
846.339	11907.16
846.722	11547.26
847.104	11593.61
847.487	11473.6
847.869	11484.68
848.252	11669.34
848.634	11892.57
849.016	12067.17
849.398	12143.46
849.78	12706.99
850.162	12705.54
850.544	12980.87
850.926	13394.82
851.307	13339.62
851.689	13525.79
852.071	13826.91
852.452	14045.98
852.834	14024.99
853.215	14296.44
853.597	14403.06
853.978	14610.81
854.359	14920.67
854.741	14252.33
855.122	14180.25
855.503	13986.94
855.884	14085.12
856.265	14041.89
856.646	14123.68
857.026	13869.5
857.407	13823.86
857.788	13939.67
858.169	14131.66
858.549	13567.45
858.93	13990.5
859.31	14030.54
859.69	14166.2
860.071	13883.94
860.451	13748.37
860.831	13255.41
861.211	14022.86
861.591	14395.51
861.971	14374.39
862.351	14507.12
862.731	14773.43
863.111	14951.34
863.491	15190.8
863.87	15786.95
864.25	16026.45
864.629	15758.83
865.009	16104.84
865.388	16691.03
865.768	17883.84
866.147	17818.37
866.526	16835.72
866.905	17030.81
867.284	17985.37
867.663	17064.86
868.042	16355.37
868.421	16308.87
868.8	16570.37
869.179	16739.44
869.558	15760.02
869.936	14535.41
870.315	14793.66
870.693	15155.52
871.072	16347.6
871.45	15578.1
871.828	15793.28
872.207	16617
872.585	16371.09
872.963	16821.24
873.341	16233.19
873.719	16051.94
874.097	15855.72
874.475	16160.21
874.853	16533.67
875.23	15846.63
875.608	16510.04
875.986	17848.73
876.363	17057.94
876.741	17585.86
877.118	17142.44
877.495	17995.77
877.873	18287.94
878.25	19243.57
878.627	18442.32
879.004	18697.88
879.381	18602.63
879.758	18119.59
880.135	16867.81
880.512	17834.08
880.889	17348.3
881.265	17168.61
881.642	17019.86
882.019	17306.97
882.395	16960.8
882.772	17640.86
883.148	16869.54
883.524	16803.57
883.901	16707.3
884.277	16950.67
884.653	16839.61
885.029	17329.15
885.405	19199.88
885.781	19052.11
886.157	18266.07
886.532	18471.82
886.908	18463.1
887.284	20529.84
887.659	21206.42
888.035	21863.52
888.411	22422.55
888.786	22720.2
889.161	23504.9
889.537	23062.53
889.912	23796.7
890.287	23778.74
890.662	24400.14
891.037	23952.97
891.412	22335.93
891.787	22101.81
892.162	21319.19
892.536	21809.37
892.911	20988.54
893.286	20529.04
893.66	19694.05
894.035	20183.18
894.409	21958.9
894.784	21067.41
895.158	21409.93
895.532	22660.74
895.906	23265.29
896.281	23800.18
896.655	23426.07
897.029	26760.66
897.402	27867.64
897.776	31010.12
898.15	30902.79
898.524	30574.91
898.898	30985.51
899.271	34685.23
899.645	30045.97
900.018	28870.63
900.392	29953.97
900.765	30197.54
901.138	27944.25
901.511	27537.29
901.884	25306.17
902.258	23360.03
902.631	24150.26
903.003	27799.01
903.376	25093.51
903.749	28161.5
904.122	30158.79
904.495	33213.79
904.867	33634.82
905.24	29222.07
905.612	27196.49
905.985	27815.89
906.357	29086
906.729	27763.13
907.102	23729.33
907.474	22836.37
907.846	22986.38
908.218	22691.17
908.59	20075.43
908.962	19432.81
909.334	20936.52
909.705	22005.67
910.077	21368.2
910.449	22241.15
910.82	22879.79
911.192	25173.97
911.563	26156.78
911.935	27988.4
912.306	28017.55
912.677	28909.76
913.048	28636.15
913.419	31065.88
913.79	31249.62
914.161	33511.35
914.532	32049.28
914.903	29455.72
915.274	27997.11
915.645	27586.12
916.015	24299.6
916.386	23181.52
916.756	24693.55
917.127	25467.71
917.497	22767.8
917.868	24793.45
918.238	23574.3
918.608	24274.66
918.978	24777.7
919.348	26233.63
919.718	27148.36
920.088	26166.03
920.458	27192.7
920.828	28613.59
921.198	27122.62
921.567	28965.98
921.937	22449.23
922.306	22658.72
922.676	24432.94
923.045	20407.99
923.415	19392.9
923.784	17650.88
924.153	18158.03
924.522	18158.53
924.891	17067.2
925.26	18294.81
925.629	17864.42
925.998	20523.04
926.367	20035.34
926.736	19083.91
927.104	22700.66
927.473	24402.9
927.842	29445.02
928.21	29136.91
928.578	30604.05
928.947	28962.62
929.315	29133.52
929.683	34179.1
930.051	34474.59
930.42	40040.1
930.788	34231.35
931.156	33981.27
931.523	31857.72
931.891	29453.33
932.259	28308.34
932.627	32793.03
932.994	46399.48
933.362	38357.67
933.729	33309.11
934.097	31843.88
934.464	26957.29
934.831	31083.7
935.199	30641.83
935.566	29732.1
935.933	30129.35
936.3	36470.87
936.667	28428.6
937.034	25674.95
937.401	25407.1
937.767	21930.53
938.134	19548.51
938.501	27593.6
938.867	29425.46
939.234	49769.48
939.6	42450.01
939.967	46848.62
940.333	31358.43
940.699	26649.93
941.065	21340.65
941.431	27997.76
941.798	27025.96
942.163	35492.63
942.529	22160.28
942.895	20414.63
943.261	13214.35
943.627	17332.99
943.992	15163.89
944.358	15188.33
944.723	15274.93
945.089	14879.3
945.454	13741.08
945.82	14657.85
946.185	14079.4
946.55	16297.95
946.915	14596.1
947.28	17112.88
947.645	15065.68
948.01	13921.83
948.375	14530.14
948.74	17404.58
949.104	20288.06
949.469	29292.13
949.834	51798.01
950.198	49211.74
950.562	29529.17
950.927	24609.74
951.291	29633.97
951.655	25247.63
952.02	23723.68
952.384	17950.9
952.748	15649.38
953.112	15304.63
953.476	13290.92
953.839	12301.52
954.203	12191.27
954.567	15244.16
954.931	23994.92
955.294	20534.31
955.658	20701.09
956.021	35237.82
956.385	59703.55
956.748	88046.76
957.111	136371.84
957.474	153385.75
957.837	172451.27
958.2	130458.94
958.563	46975.22
958.926	31794.07
959.289	48227.09
959.652	53801.64
960.015	40349.48
960.377	58000.48
960.74	66231.43
961.102	114338.94
961.465	122811.14
961.827	66105.18
962.189	126773.51
962.552	87842.19
962.914	70445.12
963.276	45774.46
963.638	37844.55
964	37470.97
964.362	25334.78
964.724	24494.88
965.085	17508
965.447	14369.22
965.809	16337.04
966.17	16347.7
966.532	17689.45
966.893	16240.72
967.255	14780.61
967.616	17454.25
967.977	13982.22
968.338	15279.16
968.699	12554.4
969.061	12528.95
969.421	12589.35
969.782	14116.52
970.143	11941.05
970.504	12389.81
970.865	14088.49
971.225	14407.12
971.586	14091.13
971.946	20071.84
972.307	17412.84
972.667	22770.52
973.027	23482.99
973.388	28517.41
973.748	19410.81
974.108	21119.11
974.468	28475.19
974.828	21975.58
975.188	16919.21
975.548	15543.75
975.907	13056.56
976.267	14633.79
976.627	12306.96
976.986	12756.43
977.346	12160.81
977.705	11696.84
978.064	10664.3
978.424	8897.45
978.783	9188.46
979.142	10478.18
979.501	10016.17
979.86	10585.61
980.219	10197.97
980.578	13137.85
980.937	14736.73
981.296	13124.94
981.654	13494.09
982.013	20961.92
982.371	27193.2
982.73	25410.85
983.088	28744.44
983.447	30789.9
983.805	44029.67
984.163	92054.32
984.521	102198.32
984.879	149266.15
985.237	-242832.41
985.595	234664.93
985.953	58297.67
986.311	33623.97
986.669	19536.89
987.026	16872.14
987.384	22655.79
987.741	23442.46
988.099	16809.31
988.456	13404.06
988.814	12585.48
989.171	10964.62
989.528	10796.42
989.885	11412.19
990.242	9065.96
990.599	11289.22
990.956	9250
991.313	6465.33
991.67	5310.15
992.027	5645.26
992.383	5021.01
992.74	4402.64
993.096	4626.91
993.453	4799.87
993.809	4970.71
994.165	6631.77
994.522	6102.59
994.878	6717.86
995.234	8439.36
995.59	8318.87
995.946	7821.44
996.302	8917.25
996.658	10298.05
997.013	11296.66
997.369	13460.27
997.725	17254.47
998.08	11153.83
998.436	17092.45
998.791	23587.97
999.147	23605.72
999.502	25810.68
999.857	18764.65
1000.212	30533.91
1000.567	43500.46
1000.922	25141.84
1001.277	15904.66
1001.632	11810.77
1001.987	15238.77
1002.342	10901.59
1002.696	8718.22
1003.051	6954.39
1003.406	8418.93
1003.76	8392.73
1004.114	8306.21
1004.469	6992.55
1004.823	5795.47
1005.177	6236.31
1005.531	4937.73
1005.885	4373.65
1006.239	4975.7
1006.593	6255.04
1006.947	8375.12
1007.301	6281.46
1007.655	6844.5
1008.008	5014.58
1008.362	5634.81
1008.715	8015.54
1009.069	7286.67
1009.422	11049.64
1009.776	22154.35
1010.129	14706.72
1010.482	12306.04
1010.835	10400.99
1011.188	21585.5
1011.541	20331.23
1011.894	-124675.77
1012.247	366931.95
1012.6	24995.54
1012.952	15779.96
1013.305	8103.57
1013.657	5839.93
1014.01	5489.73
1014.362	4515.25
1014.715	4038.58
1015.067	3525.23
1015.419	3441.83
1015.771	3049.14
1016.123	2723.8
1016.475	2809.88
1016.827	2997.16
1017.179	3202.29
1017.531	3227.81
1017.883	3302.61
1018.234	3208.18
1018.586	4016.94
1018.938	4277.15
1019.289	5902.8
1019.64	6719.87
1019.992	6252.29
1020.343	5705.4
1020.694	4537.22
1021.045	4031.89
1021.396	4610.1
1021.747	4978.5
1022.098	5933.88
1022.449	4311.95
1022.8	3998.24
1023.151	2786.75
1023.501	2479.13
1023.852	2678.22
1024.202	2772.66
1024.553	3026.97
1024.903	2965.21
1025.253	2547.09
1025.604	2285.36
1025.954	2830.96
1026.304	3429.5
1026.654	4007.04
1027.004	5840.26
1027.354	9405.66
1027.703	8911.5
1028.053	11769.36
1028.403	17111.4
1028.753	24555.78
1029.102	33217.92
1029.452	170560.81
1029.801	7391.36
1030.15	4793.46
1030.499	4007.85
897.758	2951.48
901.051	2918.79
904.343	2957.13
907.636	2949.96
910.928	3018.16
914.22	2924.13
917.511	2933.21
920.803	3006.13
924.094	3040.97
927.384	3004.23
930.675	2968.89
933.965	2915.46
937.255	2919.07
940.544	2886.47
943.834	2789.92
947.123	2738.88
950.411	2837.62
953.7	2805.04
956.988	2763.5
960.276	2704.68
963.563	2805.33
966.851	2791.2
970.138	2859.92
973.424	2842.43
976.711	2789.25
979.997	2974.67
983.283	3001.2
986.568	2890.28
989.853	2921.94
993.138	2949.3
996.423	3031.16
999.708	2954.07
1002.992	3044.16
1006.275	2831.47
1009.559	2905.86
1012.842	3030.93
1016.125	2948.53
1019.408	2926.55
1022.69	3034.32
1025.972	3045.34
1029.254	3016.21
1032.536	2928.13
1035.817	2964.95
1039.098	2886.88
1042.379	3087.25
1045.659	3062.22
1048.939	2984
1052.219	3014.42
1055.498	3036.09
1058.778	3009.18
1062.057	2998.06
1065.335	3017.63
1068.614	3043.47
1071.892	3014.31
1075.17	3105.52
1078.447	3084.28
1081.724	3072.67
1085.001	3116.8
1088.278	3086.37
1091.554	3103.27
1094.83	3101.3
1098.106	3125.08
1101.382	3177.78
1104.657	3175.19
1107.932	3172.77
1111.206	3127.95
1114.481	3089.48
1117.755	3093.85
1121.029	3064.45
1124.302	3113.57
1127.575	3054.33
1130.848	3038.66
1134.121	2990.58
1137.393	2930.55
1140.665	3007.91
1143.937	2976.82
1147.208	2943.24
1150.48	2969.28
1153.75	2954.63
1157.021	3004.13
1160.291	2966.74
1163.561	3009.39
1166.831	3010.2
1170.101	3048.17
1173.37	3033.24
1176.639	2965.66
1179.907	3036.09
1183.176	3030.28
1186.444	3044.8
1189.711	3073.34
1192.979	3076.74
1196.246	3039.56
1199.513	3055.79
1202.78	3052.03
1206.046	3059.07
1209.312	3084.36
1212.578	3115.22
1215.843	3057.39
1219.108	3037.95
1222.373	3059.78
1225.638	3018.72
1228.902	2998.61
1232.166	2970.9
1235.43	2950.43
1238.693	2972.82
1241.956	2974.01
1245.219	3006.72
1248.482	3005.67
1251.744	2999.43
1255.006	3166.09
1258.268	3123.24
1261.529	3059.46
1264.79	3071
1268.051	3178.37
1271.312	3199.12
1274.572	3155.88
1277.832	3144.6
1281.092	3141.55
1284.351	3101.05
1287.61	3073.34
1290.869	2974.92
1294.128	2938.48
1297.386	3054.52
1300.644	3038.64
1303.902	3050.83
1307.159	2903.67
1310.416	2957.34
1313.673	2980.8
1316.93	2960.12
1320.186	3017.01
1323.442	3067.82
1326.697	3050.83
1329.953	3054.3
1333.208	3067.52
1336.463	3053.35
1339.717	2978.24
1342.972	3123.75
1346.226	3107.82
1349.479	3030.68
1352.733	2992.43
1355.986	3025.97
1359.238	3000.98
1362.491	3000.07
1365.743	3008.12
1368.995	3005.16
1372.247	3023.26
1375.498	3048.7
1378.749	3058.19
1382	3018.02
1385.251	3078.92
1388.501	3048.83
1391.751	3024.09
1395	3001.81
1398.25	3039.16
1401.499	3037.04
1404.748	2953.28
1407.996	2931.1
1411.244	2916.75
1414.492	2891
1417.74	2865.36
1420.987	2887.83
1424.234	2942.6
1427.481	2931.59
1430.728	2989.87
1433.974	2963.69
1437.22	2986.8
1440.465	2991.23
1443.711	2950.39
1446.956	2991.96
1450.201	2989.19
1453.445	3035.77
1456.689	3004.09
1459.933	3018.29
1463.177	3046.73
1466.42	3016.21
1469.663	2994.61
1472.906	2975.9
1476.148	3083.32
1479.391	3009.05
1482.633	2987.43
1485.874	2989.95
1489.115	2964.05
1492.356	2980.14
1495.597	2952.45
1498.838	2958.38
1502.078	2915.91
1505.318	2851.98
1508.557	2901.65
1511.797	2845.02
1515.036	2959.49
1518.274	2947.22
1521.513	2929.46
1524.751	2956.61
1527.989	2961.55
1531.227	2970.28
1534.464	2952.32
1537.701	2989.66
1540.938	3011.52
1544.174	2964.95
1547.41	2973.11
1550.646	3009.83
1553.882	3036.12
1557.117	3087.51
1560.352	3103.64
1563.587	3058.84
1566.821	3012.66
1570.055	3062.86
1573.289	3025.54
1576.523	3109.89
1579.756	3112.48
1582.989	3130.21
1586.222	3087.63
1589.454	3131.2
1592.686	3099.12
1595.918	3122.73
1599.15	3103.92
1602.381	3198.41
1605.612	3134.9
1608.843	3233.26
1612.073	3142.67
1615.303	3121.32
1618.533	3105.63
1621.762	3118.26
1624.992	3110.69
1628.221	3084.63
1631.449	3072.47
1634.678	3145.05
1637.906	3090.43
1641.134	3135.91
1644.361	3085.04
1647.588	3072.64
1650.815	3087
1654.042	3075.55
1657.269	3105.83
1660.495	3051.54
1663.72	3046.09
1666.946	3014.63
1670.171	2939.11
1673.396	2916.36
1676.621	2910.74
1679.845	2946.19
1683.069	2977.72
1686.293	3031.21
1689.517	2987.62
1692.74	2901.7
1695.963	2929.49
1699.185	2974.72
1702.408	2941.62
1705.63	2994.13
1708.852	3000.58
1712.073	2973.99
1715.294	2944.16
1718.515	3013.48
1721.736	2949.82
1724.956	2956.75
1728.176	2985.07
1731.396	3008.85
1734.616	3004.84
1737.835	3026.85
1741.054	3007.21
1744.272	3005.39
1747.491	3028.55
1750.709	3101
1753.927	2979.94
1757.144	3040.09
1760.361	3070.53
1763.578	3074.82
1766.795	3008.64
1770.011	3022.1
1773.227	3075.36
1776.443	3109.37
1779.658	3154.4
1782.874	3101.17
1786.089	3069.13
1789.303	3072.78
1792.518	3082.81
1795.732	3073.2
1798.945	3076.8
1802.159	3132.98
1805.372	3011.09
1808.585	2988.49
1811.797	2991.89
1815.01	3055.89
1818.222	3056.35
1821.434	2990.75
1824.645	3069.45
1827.856	3038.25
1831.067	3076.13
1834.278	3052.02
1837.488	3038.3
1840.698	3204.5
1843.908	3118.11
1847.117	3077.34
1850.326	2934.06
1853.535	3059.74
1856.744	3126.96
1859.952	3029.62
1863.16	3029.54
1866.368	3057.88
1869.575	3155.35
1872.782	3043.29
1875.989	2987.15
1879.196	3095.56
1882.402	3089.89
1885.608	3139.71
1888.814	3017.77
1892.019	2911.3
1895.224	2962.45
1898.429	2953.58
1901.634	2925.36
1904.838	2907.72
1908.042	2954.85
1911.246	2958.69
1914.449	2870.12
1917.652	2879
1920.855	2860.87
1924.058	2926.1
1927.26	2955.2
1930.462	2988.49
1933.664	3008.12
1936.865	2942.04
1940.066	2942.2
1943.267	2889.28
1946.467	2914.31
1949.668	2945.1
1952.868	3008.69
1956.067	2977.97
1959.267	2901.06
1962.466	2931.98
1965.665	2918.89
1968.863	2915.81
1972.061	2939.51
1975.259	2944.38
1978.457	3027.2
1981.654	2982.09
1984.852	2980.78
1988.048	2902.16
1991.245	2914.23
1994.441	3002.59
1997.637	3001.51
2000.833	2983.75
2004.028	3023.31
2007.223	3073.68
2010.418	3044.36
2013.613	3013.21
2016.807	2963.53
2020.001	2981.58
2023.194	3040.66
2026.388	3010.93
2029.581	2953.81
2032.774	2996.04
2035.966	2993.58
2039.158	2917.01
2042.35	2950.42
2045.542	2876.18
2048.733	2987.76
2051.924	3027.14
2055.115	3062.83
2058.306	2989.44
2061.496	3051.54
2064.686	3128.57
2067.875	3045.59
2071.065	3069.36
2074.254	3100.84
2077.442	3050.35
2080.631	3145.12
2083.819	3009.12
2087.007	2986.56
2090.195	2946.59
2093.382	2995.52
2096.569	2973.3
2099.756	2919.49
2102.942	2931.11
2106.128	2929.61
2109.314	2926.43
2112.5	2875.53
2115.685	2857.27
2118.87	2869
2122.055	2937.48
2125.239	2896.58
2128.424	2857.94
2131.608	2990.83
2134.791	2967.97
2137.974	3042.58
2141.157	3027.27
2144.34	2964.46
2147.523	2994.87
2150.705	2999.41
2153.887	2986.4
2157.068	2922.55
2160.25	2938.71
2163.431	2988.56
2166.611	2915.44
2169.792	2932.87
2172.972	2811.52
2176.152	2906.99
2179.331	2948.58
2182.511	2918.08
2185.69	2949.79
2188.868	2936.56
2192.047	3008.63
2195.225	2980.47
2198.403	2929.48
2201.58	2926.93
2204.758	2929.67
2207.935	3017.68
2211.111	2887.87
2214.288	2868.03
2217.464	2911.99
2220.64	2892.82
2223.815	2954.95
2226.991	2866.26
2230.166	2887.04
2233.34	2910.46
2236.515	2944.89
2239.689	3021.8
2242.863	2961.22
2246.036	3022.96
2249.209	3036.78
2252.382	3078.97
2255.555	3056.17
2258.727	2981.67
2261.9	3031.09
2265.071	3024.8
2268.243	3031.53
2271.414	2951.91
2274.585	2896.95
2277.756	2971.95
2280.926	2924.3
2284.096	2972.24
2287.266	2866.67
2290.436	2930.83
2293.605	2965.35
2296.774	2988.13
2299.942	3021.68
2303.111	3036.64
2306.279	3082.96
2309.447	3072.54
2312.614	3049.87
2315.781	3068.77
2318.948	3029.84
2322.115	3070.64
2325.281	2969.78
2328.447	2998.64
2331.613	2977.16
2334.779	2935.3
2337.944	2946.33
2341.109	2942.47
2344.274	2921.94
2347.438	2884.24
2350.602	2912.41
2353.766	2933.47
2356.929	2916.2
2360.092	2960.55
2363.255	2901.43
2366.418	2814.25
2369.58	2956.96
2372.742	2684.88
2375.904	2711.83
2379.066	2679.67
2382.227	2726.88
2385.388	2687.95
2388.548	2594.72
2391.709	2659.65
2394.869	2635.51
2398.029	2762.45
2401.188	2787.03
2404.347	2704.29
2407.506	2886.51
2410.665	2906.92
2413.823	2928.07
2416.981	2868.1
2420.139	2909.72
2423.296	2971.22
2426.453	2944.61
2429.61	2969.78
2432.767	2882.45
2435.923	2921.93
2439.079	2849.23
2442.235	2912.71
2445.391	2831.04
2448.546	2845.72
2451.701	2909.32
2454.855	2863.72
2458.009	2932.86
2461.163	2940.99
2464.317	2891.76
2467.471	2928.98
2470.624	2974.37
2473.777	2976.63
2476.929	2985.08
2480.082	3014.1
2483.234	2976.81
2486.385	2900.81
2489.537	2894.38
2492.688	2832.65
2495.839	2854.88
2498.989	2859.45
2502.14	2842.8
2505.29	2814.21
2508.439	2845.53
2511.589	2754.42
2514.738	2775.04
2517.887	2811.42
2521.035	2905.41
2524.183	2900.04
2527.331	2878.88
2530.479	2837.93
2533.627	2855.81
