Data from C_3_HIR_IL_4N_Splice17_13-39-33-484.txt Node
Date: Sat Mar 14 13:39:33 EDT 2020
User: sa697716
Spectrometer: FLMS03696
Trigger mode: 0
Integration Time (sec): 3.180400E-1
Scans to average: 20
Electric dark correction enabled: true
Nonlinearity correction enabled: true
Boxcar width: 5
XAxis mode: Wavelengths
Number of Pixels in Spectrum: 2048
>>>>>Begin Spectral Data<<<<<
187.83	-500036.36
188.298	3589.9
188.766	1850.51
189.233	1662.76
189.701	2235.47
190.169	3068.9
190.636	1186.51
191.104	1019.96
191.571	214.36
192.039	-66.06
192.506	-89.58
192.974	469.77
193.441	-680.1
193.908	-108.93
194.375	-13.1
194.842	-34.05
195.31	46.17
195.777	153.87
196.244	369.4
196.711	321.19
197.177	377.79
197.644	498.59
198.111	830.44
198.578	1139.83
199.045	892.85
199.511	1417.26
199.978	1627.15
200.445	1430.7
200.911	1569.03
201.378	1699.43
201.844	1589.53
202.31	2682.97
202.777	2768.77
203.243	1556.54
203.709	1471.17
204.176	1759.41
204.642	1461.86
205.108	1373.38
205.574	1095
206.04	968.51
206.506	916.33
206.972	837.59
207.438	823.71
207.903	945.43
208.369	833.53
208.835	857.83
209.301	909.09
209.766	917.21
210.232	925.96
210.697	1140.86
211.163	1401.99
211.628	2071.56
212.094	1793.64
212.559	2254.42
213.024	1423.11
213.49	1771.75
213.955	1728.64
214.42	1663.64
214.885	1582.65
215.35	1526.51
215.815	1558.5
216.28	1687.49
216.745	1391.32
217.21	1533.84
217.675	1391.84
218.14	1570.99
218.604	1756.6
219.069	2044.81
219.534	2211.99
219.998	2583.31
220.463	3183.41
220.927	3859.66
221.392	3671.11
221.856	3774.19
222.32	4770.59
222.785	5972.49
223.249	7585.19
223.713	8541.05
224.177	8582.35
224.642	11036.35
225.106	13659.48
225.57	14964.18
226.034	11287.35
226.497	17262.31
226.961	15689.43
227.425	18384.19
227.889	20442.39
228.353	20530.03
228.816	42493.89
229.28	40762.37
229.744	34484.64
230.207	21051.03
230.671	20754.65
231.134	34308.3
231.597	39718.58
232.061	39709.47
232.524	38709.2
232.987	26694.78
233.45	24086.36
233.914	21675.23
234.377	22233.87
234.84	20394.84
235.303	24099.62
235.766	26959.53
236.229	27854.04
236.691	17554.48
237.154	19769.33
237.617	14919.42
238.08	15311.7
238.542	17915.62
239.005	12811.63
239.468	12726.79
239.93	11987.54
240.393	10891.77
240.855	9553.03
241.317	9801.63
241.78	11914.61
242.242	12334.78
242.704	13327.97
243.166	11608.56
243.629	10584.31
244.091	12210.31
244.553	13406.14
245.015	14448.22
245.477	18714.99
245.939	27478.48
246.4	29202.49
246.862	28403.1
247.324	26778.11
247.786	29966.77
248.247	39325.31
248.709	40585.63
249.17	30402.43
249.632	28720.94
250.093	33385.98
250.555	28866.48
251.016	17638.34
251.477	16734.63
251.939	18101.56
252.4	19014.58
252.861	22607.83
253.322	21061.6
253.783	25046.91
254.244	32525.07
254.705	25655.12
255.166	22766.34
255.627	22418.29
256.088	31678.17
256.549	33721.77
257.009	29039.78
257.47	35225.99
257.931	28742.48
258.391	21544.57
258.852	22236.17
259.312	23296.72
259.773	28786.46
260.233	24399.12
260.694	20613.14
261.154	23357.59
261.614	18759.64
262.074	16784.63
262.534	17456.85
262.994	16462.36
263.455	21977.21
263.915	18532.88
264.374	17476.34
264.834	19071.81
265.294	21125.99
265.754	21892.29
266.214	20740.06
266.673	19438.37
267.133	24577.76
267.593	24390.6
268.052	29888.05
268.512	25962.18
268.971	31377.42
269.431	34408.16
269.89	30805.07
270.349	46205.91
270.809	51545.89
271.268	46348.29
271.727	103910.76
272.186	67216.56
272.645	50455.77
273.104	36335.22
273.563	52599.25
274.022	41283.49
274.481	35144.54
274.94	27092.44
275.399	20123
275.857	23433.96
276.316	31724.83
276.775	28278.39
277.233	27882.51
277.692	26134.37
278.15	29622.64
278.609	30537.55
279.067	28264.23
279.525	26283.3
279.984	34009.63
280.442	40937.08
280.9	40444.72
281.358	26615.29
281.816	24776.41
282.274	24255.31
282.732	25013.09
283.19	25135.04
283.648	21698.34
284.106	23131.11
284.564	23510.78
285.021	21808.68
285.479	16234.48
285.937	14760.36
286.394	12961.41
286.852	13365.45
287.309	14064.12
287.767	13636.47
288.224	13004.15
288.682	14277.39
289.139	15737.71
289.596	14444.06
290.053	15042.73
290.511	19034.19
290.968	23107.23
291.425	31436.19
291.882	26244.93
292.339	22909.23
292.796	22764.29
293.252	21477.35
293.709	17110.24
294.166	15335.03
294.623	16965.16
295.079	16270.42
295.536	16384.9
295.992	14892.84
296.449	14723.69
296.905	15310.84
297.362	14708.86
297.818	15476.27
298.274	16071.24
298.731	16375.72
299.187	16215.8
299.643	17409.17
300.099	21076.1
300.555	23088.44
301.011	19283.57
301.467	18646.33
301.923	21823.29
302.379	21294.26
302.835	20914.28
303.291	20949.09
303.746	23828.79
304.202	30107.12
304.658	30231.9
305.113	20342.01
305.569	19954.9
306.024	21287.39
306.479	20225.7
306.935	17049.56
307.39	18623.63
307.845	17207.68
308.301	17323.44
308.756	16881.59
309.211	16246.46
309.666	16640.86
310.121	20656.31
310.576	20938.68
311.031	20765.49
311.486	23750.15
311.94	23696.32
312.395	31679.51
312.85	59495.45
313.305	291445.84
313.759	1511802.69
314.214	109661.18
314.668	86976.25
315.123	73170.1
315.577	26283.68
316.032	23371.91
316.486	29313.16
316.94	23163.78
317.394	16138.94
317.849	12548.14
318.303	11881.95
318.757	11197.37
319.211	12392.85
319.665	10848.34
320.119	10988.46
320.572	15752.85
321.026	14738.6
321.48	12274.05
321.934	13373.29
322.387	13387.71
322.841	14457.68
323.295	13051.4
323.748	15013.6
324.202	15214.01
324.655	18295.93
325.108	25611.84
325.562	18080
326.015	21447.67
326.468	16222.09
326.921	18167.53
327.374	16944.49
327.827	17654.92
328.28	19964.45
328.733	13394.79
329.186	11790.61
329.639	11231.78
330.092	9456.48
330.545	9006.18
330.997	9088.66
331.45	9935.19
331.903	11646.97
332.355	20028.67
332.808	19444.93
333.26	15978.25
333.713	17365.23
334.165	17460.1
334.617	23291.45
335.069	18781.41
335.522	33977.69
335.974	37677.53
336.426	34359.45
336.878	23723.44
337.33	12029.88
337.782	11757.1
338.234	14790.16
338.686	17645.32
339.137	20952.76
339.589	19743.92
340.041	15483.71
340.493	13331.6
340.944	13659.5
341.396	14717.89
341.847	12446.09
342.299	14711.58
342.75	17991.21
343.201	15704.09
343.653	18090.39
344.104	22223.07
344.555	17518.9
345.006	27293.52
345.457	20935.12
345.908	16644.26
346.359	15727.79
346.81	12796.5
347.261	13487.8
347.712	13258.02
348.163	14201.84
348.613	14431.71
349.064	13497.15
349.515	11804.85
349.965	12120.37
350.416	14572.77
350.866	15977.97
351.317	18016.3
351.767	29791.08
352.217	37656.91
352.668	31298.43
353.118	28711.76
353.568	27598.38
354.018	21807.7
354.468	23003.9
354.918	16501.19
355.368	14407.1
355.818	20381.79
356.268	58606.95
356.718	245900.23
357.168	61326.21
357.617	30759.43
358.067	34121.61
358.517	31890.52
358.966	37425.33
359.416	42048.39
359.865	45372.73
360.315	54170.92
360.764	25290.22
361.213	14166.79
361.663	13392.12
362.112	16488.29
362.561	26647.29
363.01	20167.96
363.459	17021.47
363.908	18380.96
364.357	15630.16
364.806	26408.92
365.255	18126.87
365.703	16632.08
366.152	16689.61
366.601	13545.39
367.05	11020.07
367.498	10032.46
367.947	10450.87
368.395	10858.98
368.844	9640.64
369.292	11576.77
369.74	8015.06
370.189	12275.61
370.637	14363.51
371.085	12380.74
371.533	15068.22
371.981	14477
372.429	13793.65
372.877	14365.56
373.325	12037.2
373.773	12242.44
374.221	10893.83
374.669	13488.48
375.116	11657.98
375.564	11764.6
376.012	13154.69
376.459	10836.97
376.907	12945.58
377.354	15636.46
377.801	14612.82
378.249	16803.6
378.696	21404.08
379.143	25914.38
379.591	27592.52
380.038	46579.5
380.485	33634.62
380.932	36233.58
381.379	33222.21
381.826	24452.02
382.273	17334.82
382.72	15113.37
383.166	14717.61
383.613	9546.23
384.06	8596.47
384.506	9957.17
384.953	7294.13
385.4	7303.51
385.846	6384.73
386.292	6181.29
386.739	6046.5
387.185	5962.43
387.631	5936.98
388.078	5750.58
388.524	6130.36
388.97	5646.72
389.416	4696.56
389.862	5001.93
390.308	4749.72
390.754	4817.99
391.2	5211.98
391.645	5310.83
392.091	5088.37
392.537	4919.61
392.983	4908.26
393.428	4850.54
393.874	5183.38
394.319	5204.83
394.765	4934.92
395.21	5030.38
395.655	4696.87
396.101	4394.65
396.546	3961.34
396.991	3971.25
397.436	3676.91
397.881	3544.16
398.326	3331.92
398.771	3157.21
399.216	2738.51
399.661	2447.44
400.106	2440.44
400.551	2499.16
400.995	2233.97
401.44	2200.35
401.885	2063.04
402.329	2078.28
402.774	1985.75
403.218	1930.98
403.663	1850.55
404.107	1900.74
404.551	1912.31
404.995	1744.78
405.44	1672.89
405.884	1693.93
406.328	1632.78
406.772	1625.4
407.216	1482.71
407.66	1432.34
408.104	1348.8
408.547	1257.18
408.991	1212.19
409.435	1167.34
409.879	1154.72
410.322	1138.92
410.766	1101.12
411.209	1047.76
411.653	1006.05
412.096	985.08
412.54	982.11
412.983	974.18
413.426	979.66
413.869	978.06
414.312	956.62
414.756	918.89
415.199	874.02
415.642	847.79
416.085	848.79
416.527	840.6
416.97	850.09
417.413	806.9
417.856	796.28
418.298	786.9
418.741	779.26
419.184	776.59
419.626	804.76
420.069	806.91
420.511	810.74
420.953	796.34
421.396	788.48
421.838	768.06
422.28	786.31
422.722	793.76
423.164	804.11
423.606	792.89
424.048	789
424.49	752.92
424.932	746.65
425.374	733.07
425.816	740.05
426.258	754.98
426.699	763.56
427.141	753.07
427.582	761.18
428.024	754.62
428.465	748.05
428.907	732.64
429.348	723.18
429.789	726.76
430.231	717.19
430.672	727.34
431.113	707.11
431.554	696.05
431.995	676.17
432.436	654.76
432.877	641.69
433.318	633.68
433.759	629.07
434.2	626.11
434.64	616.99
435.081	617.83
435.522	588
435.962	567.72
436.403	556.98
436.843	562.18
437.284	548.15
437.724	530.3
438.164	527.85
438.604	514.43
439.045	496.64
439.485	478.86
439.925	466.06
440.365	450.97
440.805	445.41
441.245	439.84
441.685	424.48
442.125	419.4
442.564	421.06
443.004	410.84
443.444	410.5
443.883	411.43
444.323	403.7
444.762	401.14
445.202	405.75
445.641	412.98
446.081	406.46
446.52	409.1
446.959	405.08
447.398	397.05
447.837	392.42
448.276	385.03
448.716	386.58
449.154	386.55
449.593	378.55
450.032	376.88
450.471	365.21
450.91	364.6
451.349	363.85
451.787	359.87
452.226	364.01
452.664	362.43
453.103	359.76
453.541	358.75
453.98	361.69
454.418	362.81
454.856	358.55
455.295	358.91
455.733	362.09
456.171	362.93
456.609	363.33
457.047	362.25
457.485	368.6
457.923	371.84
458.361	366.41
458.798	366.27
459.236	365.34
459.674	365.02
460.111	366.56
460.549	363.33
460.987	360.89
461.424	359.61
461.862	357.43
462.299	350.97
462.736	349.92
463.173	349.63
463.611	348.13
464.048	348.14
464.485	352.44
464.922	348.58
465.359	345
465.796	350.97
466.233	349.33
466.67	348.97
467.106	349.53
467.543	344.8
467.98	340.64
468.416	328.55
468.853	324.27
469.29	312.72
469.726	308.85
470.162	300.98
470.599	287.95
471.035	283.56
471.471	274.26
471.907	270.64
472.344	268.32
472.78	270.35
473.216	273.5
473.652	270.82
474.088	269.62
474.523	269.9
474.959	272.73
475.395	270.21
475.831	269.97
476.266	271.89
476.702	270.33
477.138	268.11
477.573	265.44
478.008	264.78
478.444	266.74
478.879	271.79
479.314	272.43
479.75	271.57
480.185	272.17
480.62	273.39
481.055	274.24
481.49	277.07
481.925	280.6
482.36	288.49
482.795	295.78
483.229	302.2
483.664	307.04
484.099	307.16
484.534	312.34
484.968	316.18
485.403	316.16
485.837	314.67
486.271	313.64
486.706	312.69
487.14	306.65
487.574	301.14
488.009	297.5
488.443	293.37
488.877	296.91
489.311	295.75
489.745	297.46
490.179	299.96
490.613	306.97
491.046	307.84
491.48	308.99
491.914	307.12
492.348	308.15
492.781	308.7
493.215	307.13
493.648	305.11
494.082	306.11
494.515	304.82
494.948	306.71
495.382	304.44
495.815	303.99
496.248	304.37
496.681	307.86
497.114	309.99
497.547	311.48
497.98	315.74
498.413	316.73
498.846	317.9
499.279	318.45
499.711	316.5
500.144	313.89
500.577	316.24
501.009	317.42
501.442	319.26
501.874	317.18
502.306	314.68
502.739	317.61
503.171	319.72
503.603	318.18
504.036	318.14
504.468	318.05
504.9	320.03
505.332	319.03
505.764	318.17
506.196	316.81
506.627	319.28
507.059	321.85
507.491	317.63
507.923	313.93
508.354	316.13
508.786	316.9
509.217	319.2
509.649	321.92
510.08	324.49
510.512	327.88
510.943	330.17
511.374	330.72
511.805	333.73
512.237	337.74
512.668	344.05
513.099	348.66
513.53	354.34
513.961	359.01
514.391	365.79
514.822	374.95
515.253	383.55
515.684	389.11
516.114	396.04
516.545	402.03
516.975	407.73
517.406	411.48
517.836	411.29
518.267	412.62
518.697	418.19
519.127	418.51
519.558	418.83
519.988	417.92
520.418	419.26
520.848	422.44
521.278	423.38
521.708	473.01
522.138	478.84
522.567	487.82
522.997	495.24
523.427	497.48
523.857	502.08
524.286	504.85
524.716	510.37
525.145	517.88
525.575	523.32
526.004	527.93
526.433	483.02
526.863	482.03
527.292	480.98
527.721	483.53
528.15	486.49
528.579	487.98
529.008	491.79
529.437	497.79
529.866	501.35
530.295	505.39
530.724	511.3
531.152	520.01
531.581	524.61
532.01	530.2
532.438	531.82
532.867	535.59
533.295	541.68
533.723	544.3
534.152	544.14
534.58	544.74
535.008	540.77
535.436	542.13
535.865	544.03
536.293	548
536.721	552.02
537.149	560.63
537.576	563.07
538.004	565.98
538.432	567.35
538.86	567.5
539.287	569.58
539.715	573.69
540.143	572.41
540.57	571.2
540.998	570.46
541.425	565.99
541.852	559.44
542.28	557.77
542.707	553.1
543.134	550.22
543.561	549.29
543.988	547.06
544.415	547.42
544.842	546.01
545.269	544.42
545.696	545.99
546.123	548.84
546.549	546.35
546.976	543.23
547.403	543.85
547.829	543.99
548.256	543.44
548.682	542.98
549.108	541.92
549.535	542.57
549.961	542.75
550.387	538.23
550.813	538.07
551.24	540.3
551.666	541
552.092	538.85
552.518	537.01
552.943	536.78
553.369	538.83
553.795	540.36
554.221	540.6
554.646	540.1
555.072	545.38
555.498	544.69
555.923	546.85
556.349	551.79
556.774	553.65
557.199	553.88
557.625	554.99
558.05	553.36
558.475	555.74
558.9	556.25
559.325	555.2
559.75	552.34
560.175	550.11
560.6	548.02
561.025	545.76
561.449	545.3
561.874	546.45
562.299	548.64
562.723	550.27
563.148	546.26
563.572	544.72
563.997	544.98
564.421	544.38
564.846	543.67
565.27	544.46
565.694	543.63
566.118	546.21
566.542	548.62
566.966	545.15
567.39	543.35
567.814	540.21
568.238	540.24
568.662	541.71
569.086	542.44
569.509	543.73
569.933	539.96
570.357	537.13
570.78	531.15
571.204	528.22
571.627	524.5
572.05	523.03
572.474	523.84
572.897	519.75
573.32	518.36
573.743	514.77
574.166	510.62
574.589	508.94
575.012	506.41
575.435	505.23
575.858	501.64
576.281	498.08
576.704	493.04
577.126	487.02
577.549	483.33
577.972	478.49
578.394	476.26
578.817	476.73
579.239	471.53
579.661	468.71
580.084	466.17
580.506	462.89
580.928	461.67
581.35	458.78
581.772	457.78
582.194	454.45
582.616	451.77
583.038	446.4
583.46	440.39
583.882	439.71
584.303	439.32
584.725	436.28
585.147	442.16
585.568	446.99
585.99	451.9
586.411	455.42
586.833	460.48
587.254	460.85
587.675	465.18
588.096	469.74
588.518	468.28
588.939	465.09
589.36	464.64
589.781	454.4
590.202	448.8
590.623	445.56
591.043	443.75
591.464	439.79
591.885	438.62
592.305	437.18
592.726	432.52
593.147	432.65
593.567	430.52
593.987	428.59
594.408	427.5
594.828	422.69
595.248	421.28
595.669	417.52
596.089	416.24
596.509	414.22
596.929	409.12
597.349	410.23
597.769	407.4
598.189	405.76
598.608	406.23
599.028	406.18
599.448	406.14
599.867	401.88
600.287	399.51
600.706	398.28
601.126	396.16
601.545	397.67
601.965	396.29
602.384	394.62
602.803	394.46
603.222	394.06
603.641	391.88
604.061	391.43
604.48	390.18
604.898	392.85
605.317	393.52
605.736	394.07
606.155	394.28
606.574	391.64
606.992	393.8
607.411	392.83
607.829	389.21
608.248	388.98
608.666	388.17
609.085	388.59
609.503	386.17
609.921	385.9
610.339	386.49
610.758	384.87
611.176	383.73
611.594	381.51
612.012	381.42
612.43	383.98
612.847	385.65
613.265	388.13
613.683	390.29
614.101	391.5
614.518	389.7
614.936	387.6
615.353	384.42
615.771	385
616.188	385.18
616.606	385.23
617.023	383.59
617.44	379.94
617.857	376.05
618.274	373.46
618.691	372.47
619.108	369.56
619.525	367.36
619.942	370.19
620.359	371.35
620.776	370.29
621.192	369.26
621.609	368.93
622.026	372.62
622.442	375.21
622.859	376.57
623.275	374.24
623.691	376.29
624.108	381.1
624.524	384.84
624.94	384.76
625.356	387.45
625.772	390.68
626.188	393.34
626.604	393.49
627.02	391.88
627.436	390.95
627.852	394.7
628.268	398.48
628.683	394.16
629.099	391.45
629.514	389.69
629.93	391.09
630.345	393.21
630.761	391.43
631.176	392.01
631.591	393.33
632.007	392.79
632.422	390.04
632.837	386.76
633.252	388.36
633.667	386.02
634.082	383.05
634.497	380.42
634.911	376.47
635.326	376.07
635.741	371.85
636.155	367.46
636.57	369.7
636.984	370.72
637.399	374.85
637.813	374.28
638.228	374.42
638.642	377.54
639.056	374.5
639.47	374.93
639.884	373.59
640.298	372.13
640.712	373.89
641.126	370.16
641.54	368.31
641.954	364.08
642.368	362.99
642.781	366.1
643.195	361.52
643.609	364.04
644.022	363.46
644.436	363.41
644.849	360.57
645.262	357.38
645.676	358.56
646.089	358.35
646.502	357.28
646.915	355.89
647.328	349.77
647.741	351.29
648.154	348.09
648.567	351.48
648.98	350.16
649.393	352.62
649.805	354.04
650.218	353.09
650.631	350.48
651.043	350.06
651.456	349.87
651.868	350.23
652.28	355.61
652.693	360.87
653.105	361.82
653.517	365.57
653.929	366.07
654.341	368.55
654.753	365.9
655.165	368.98
655.577	368.76
655.989	368.16
656.401	366.02
656.813	357.83
657.224	352.66
657.636	342.27
658.047	339.4
658.459	335.44
658.87	332.87
659.282	330.15
659.693	326.34
660.104	323.77
660.515	321.09
660.926	322.28
661.338	321.77
661.749	321.6
662.159	323.13
662.57	321.65
662.981	321.72
663.392	322.59
663.803	326.35
664.213	325.67
664.624	325.26
665.035	328.44
665.445	325.12
665.855	326.26
666.266	326.16
666.676	325.81
667.086	324.1
667.497	326.64
667.907	325.04
668.317	322.46
668.727	326.27
669.137	326.93
669.547	327.41
669.956	329.48
670.366	330.89
670.776	331.91
671.186	334.31
671.595	337.38
672.005	337.82
672.414	338.73
672.824	339.69
673.233	337.83
673.642	339.89
674.052	342.55
674.461	345.15
674.87	346.85
675.279	346.74
675.688	345.28
676.097	346.45
676.506	346.25
676.915	351.81
677.323	352.71
677.732	351.99
678.141	350.97
678.549	343.91
678.958	340.88
679.366	338.67
679.775	338.97
680.183	346.37
680.592	347.67
681	348.5
681.408	344.29
681.816	344.61
682.224	346.01
682.632	349.87
683.04	361
683.448	368.9
683.856	378.73
684.264	389.16
684.671	395.42
685.079	404.77
685.487	416
685.894	433.31
686.302	444.73
686.709	453.19
687.116	461.31
687.524	467.04
687.931	471.8
688.338	472.61
688.745	471.22
689.152	470.99
689.559	475.44
689.966	481
690.373	477.67
690.78	482.64
691.187	492.61
691.593	499.31
692	503.87
692.407	513.94
692.813	533.07
693.22	545.24
693.626	556.91
694.032	567.24
694.439	584.53
694.845	597.3
695.251	615.57
695.657	633.43
696.063	658.75
696.469	677.11
696.875	697.3
697.281	706.37
697.687	721.47
698.093	736.18
698.498	760.75
698.904	779.08
699.31	809.22
699.715	833.93
700.12	864.84
700.526	875.86
700.931	902.33
701.337	924.04
701.742	939.35
702.147	969.21
702.552	982.63
702.957	1005.96
703.362	1018.35
703.767	1031.82
704.172	1048.41
704.577	1038.35
704.981	1058.35
705.386	1070
705.791	1073.19
706.195	1102.63
706.6	1112.3
707.004	1144.69
707.408	1139.67
707.813	1156.36
708.217	1160.32
708.621	1166.82
709.025	1207.29
709.43	1215.67
709.834	1242.12
710.237	1272.09
710.641	1274.09
711.045	1288.6
711.449	1294.75
711.853	1317.02
712.256	1335.47
712.66	1354.37
713.064	1387.64
713.467	1408.2
713.87	1453.25
714.274	1476.15
714.677	1520.67
715.08	1584.11
715.484	1649.6
715.887	1732.31
716.29	1803.31
716.693	1886.61
717.096	1981.3
717.499	2037.31
717.901	2053.85
718.304	2071.83
718.707	2088.06
719.109	2056.97
719.512	2051.11
719.915	2010.95
720.317	1993.85
720.719	2017.52
721.122	2014.21
721.524	2001.81
721.926	1996.85
722.328	2040.19
722.731	2041.03
723.133	2056.18
723.535	2137.22
723.937	2151.19
724.338	2175.4
724.74	2197.78
725.142	2243.28
725.544	2252.06
725.945	2281.79
726.347	2279.87
726.748	2282.6
727.15	2293.66
727.551	2289.28
727.952	2277.81
728.354	2270.24
728.755	2275.49
729.156	2259.52
729.557	2195.71
729.958	2145.42
730.359	2113.64
730.76	2108.72
731.161	2087.87
731.562	2079.92
731.962	2079.93
732.363	2061.16
732.763	2039.36
733.164	2054.68
733.564	2031.53
733.965	1999.22
734.365	1988.2
734.766	2001.13
735.166	1987.04
735.566	1967.95
735.966	1959.7
736.366	1961.28
736.766	1937.37
737.166	1950.5
737.566	1934.59
737.966	1924.68
738.365	1940.94
738.765	1941.68
739.165	1912.23
739.564	1903.02
739.964	1919.94
740.363	1902.47
740.763	1900.48
741.162	1898.8
741.561	1887.42
741.96	1870.57
742.36	1879.73
742.759	1882.31
743.158	1897.74
743.557	1902.96
743.955	1920.42
744.354	1903.7
744.753	1926.41
745.152	1910.29
745.55	1931.8
745.949	1927.39
746.348	1929.64
746.746	1934.97
747.144	1921.61
747.543	1912.35
747.941	1935.09
748.339	1907.33
748.737	1906.91
749.136	1906.17
749.534	1933.34
749.932	1924.98
750.33	1938.43
750.727	1960.63
751.125	1954.38
751.523	1946.12
751.921	1969.18
752.318	1955.86
752.716	1982.32
753.113	1986.86
753.511	1996.89
753.908	1998.42
754.305	1995.27
754.703	2019.76
755.1	2047.13
755.497	2072.71
755.894	2152.65
756.291	2221.5
756.688	2358.77
757.085	2539.71
757.482	2796.26
757.878	3079.88
758.275	3330.62
758.672	3667.18
759.068	3949.03
759.465	4349.63
759.861	4859.87
760.258	5455.21
760.654	5771.5
761.05	5725.05
761.447	5461.59
761.843	5083.79
762.239	4689.18
762.635	4513.01
763.031	4341.43
763.427	4099.74
763.822	3844.56
764.218	3594.05
764.614	3270.31
765.01	3047.11
765.405	2903.77
765.801	2796.74
766.196	2660.29
766.592	2583.41
766.987	2454.65
767.382	2369.95
767.778	2332.6
768.173	2277.35
768.568	2250.26
768.963	2196.8
769.358	2204.22
769.753	2187.38
770.148	2153.27
770.542	2151.18
770.937	2135.93
771.332	2174.69
771.726	2179.78
772.121	2157.53
772.515	2180.14
772.91	2172.52
773.304	2202.68
773.699	2175.22
774.093	2194.28
774.487	2215.3
774.881	2233.67
775.275	2235.81
775.669	2218.43
776.063	2239.03
776.457	2253.39
776.851	2223.61
777.245	2221.33
777.638	2234.78
778.032	2282.94
778.425	2271.53
778.819	2294.22
779.212	2281.37
779.606	2265.75
779.999	2272.21
780.392	2267.92
780.786	2300.14
781.179	2308.58
781.572	2328.95
781.965	2335.32
782.358	2313.66
782.751	2333.93
783.143	2309.23
783.536	2338.71
783.929	2355.18
784.322	2405.93
784.714	2415.12
785.107	2413.79
785.499	2446
785.891	2436.19
786.284	2427.78
786.676	2484.35
787.068	2483.29
787.46	2504.44
787.852	2510.11
788.245	2545.59
788.636	2554.06
789.028	2584.65
789.42	2604.62
789.812	2608.33
790.204	2646.26
790.595	2689.97
790.987	2609.93
791.378	2613.34
791.77	2666.61
792.161	2721.41
792.553	2743.93
792.944	2698.62
793.335	2668.31
793.726	2699.77
794.117	2738.54
794.508	2794.06
794.899	2780.8
795.29	2840.04
795.681	2866.24
796.072	2809.39
796.463	2759.24
796.853	2770.59
797.244	2840.59
797.634	2859.13
798.025	2854.42
798.415	2854.45
798.806	2894.55
799.196	2932.06
799.586	2956.38
799.976	2942.46
800.366	3038.22
800.756	3111.93
801.146	3088.95
801.536	3099.48
801.926	3124.74
802.316	3136.51
802.706	3170.94
803.095	3124.17
803.485	3166.2
803.874	3178.68
804.264	3286.39
804.653	3279.18
805.043	3344.43
805.432	3396.22
805.821	3401.41
806.21	3415.52
806.599	3466.62
806.988	3488.6
807.377	3531.81
807.766	3586.42
808.155	3709.5
808.544	3596.72
808.933	3605.24
809.321	3598.07
809.71	3719.1
810.098	3786.05
810.487	3979.03
810.875	4183.14
811.264	4192.94
811.652	4325.83
812.04	4388.05
812.428	4457.45
812.816	4784.9
813.204	4965.18
813.592	5191.83
813.98	5333.7
814.368	5298.91
814.756	5501.04
815.144	5466.93
815.531	5665.14
815.919	5620.97
816.306	5749.72
816.694	5620.56
817.081	5645.01
817.469	5786.16
817.856	5785.69
818.243	5902.53
818.63	6060.55
819.017	5886.78
819.404	5918.01
819.791	6075.47
820.178	6332.07
820.565	6441.19
820.952	6843.53
821.339	6637.96
821.725	6720.83
822.112	6413.66
822.498	6401.5
822.885	6456.55
823.271	6417.02
823.657	6588.41
824.044	6593.43
824.43	6624.32
824.816	6623.81
825.202	6438.08
825.588	6860.58
825.974	6867.42
826.36	7085.26
826.746	7087.77
827.132	7235.75
827.517	7226.58
827.903	6894
828.289	6914.47
828.674	6590.46
829.06	6532.93
829.445	6689.7
829.83	6838.49
830.216	7034.95
830.601	7186.89
830.986	7023.94
831.371	6968.77
831.756	7205.13
832.141	7023.95
832.526	7019.16
832.911	7134.82
833.295	7085.28
833.68	7285.72
834.065	7029.04
834.449	6643.65
834.834	6612.96
835.218	6605.27
835.603	6741.41
835.987	6646.92
836.371	6994.35
836.755	6950.13
837.139	7112.21
837.524	7208.67
837.908	7126.63
838.291	7150.89
838.675	7179.37
839.059	7256.59
839.443	7251.56
839.827	7150.56
840.21	7347.28
840.594	7291.17
840.977	7376.31
841.361	7372.48
841.744	7528.65
842.127	7465.96
842.511	7561.93
842.894	7804.64
843.277	7960.89
843.66	8175.83
844.043	8218.03
844.426	7890.97
844.809	7749.44
845.191	7758.2
845.574	7567.96
845.957	7416.25
846.339	7375.34
846.722	7161.14
847.104	7186.75
847.487	7116.57
847.869	7130.22
848.252	7245.72
848.634	7378.06
849.016	7491.83
849.398	7541.66
849.78	7888.87
850.162	7893.38
850.544	8066.5
850.926	8327.71
851.307	8295.52
851.689	8421.94
852.071	8605.34
852.452	8742.69
852.834	8735.06
853.215	8907.78
853.597	8976.07
853.978	9110.95
854.359	9302.58
854.741	8885.24
855.122	8840.32
855.503	8718.12
855.884	8766.92
856.265	8746.52
856.646	8787.17
857.026	8624.17
857.407	8595.99
857.788	8666.22
858.169	8771.3
858.549	8424.67
858.93	8680.52
859.31	8704.48
859.69	8797.86
860.071	8635.76
860.451	8551.04
860.831	8243.39
861.211	8719.89
861.591	8942.92
861.971	8924.07
862.351	9009.82
862.731	9163.08
863.111	9277.83
863.491	9422.32
863.87	9787.48
864.25	9919.61
864.629	9749.49
865.009	9965.13
865.388	10327.78
865.768	11059.84
866.147	11014.82
866.526	10407.83
866.905	10536.49
867.284	11117.07
867.663	10541.84
868.042	10097.69
868.421	10070.57
868.8	10232.42
869.179	10336.86
869.558	9736.01
869.936	8984.56
870.315	9143.9
870.693	9364.76
871.072	10088.64
871.45	9615.12
871.828	9745.3
872.207	10252.07
872.585	10098.73
872.963	10374.64
873.341	10022.37
873.719	9909.95
874.097	9783.33
874.475	9968.24
874.853	10200.85
875.23	9776.9
875.608	10188.73
875.986	11023
876.363	10541.83
876.741	10874.47
877.118	10614.02
877.495	11136.82
877.873	11316.09
878.25	11916.16
878.627	11425.1
879.004	11573.37
879.381	11515.94
879.758	11219.12
880.135	10436.62
880.512	11023.91
880.889	10722.33
881.265	10590.62
881.642	10493.71
882.019	10663.22
882.395	10454.36
882.772	10885.05
883.148	10423.94
883.524	10399.58
883.901	10338.56
884.277	10493.22
884.653	10428.61
885.029	10731.47
885.405	11911.65
885.781	11814.2
886.157	11328.77
886.532	11449.18
886.908	11436.89
887.284	12721.92
887.659	13131.59
888.035	13533.89
888.411	13881.98
888.786	14064.46
889.161	14563.85
889.537	14285.17
889.912	14760.19
890.287	14753.49
890.662	15146.83
891.037	14869.75
891.412	13865.28
891.787	13727.35
892.162	13260.26
892.536	13578.16
892.911	13076.87
893.286	12792.1
893.66	12273.46
894.035	12585.28
894.409	13706.69
894.784	13163.86
895.158	13386.78
895.532	14164.7
895.906	14546.87
896.281	14879.95
896.655	14650.71
897.029	16742.59
897.402	17425.13
897.776	19393.55
898.15	19311.76
898.524	19097.76
898.898	19331.28
899.271	21657.39
899.645	18780.21
900.018	18041.53
900.392	18703.54
900.765	18839.74
901.138	17417.46
901.511	17156.91
901.884	15747.78
902.258	14540.53
902.631	15024.61
903.003	17291.72
903.376	15590.97
903.749	17480.06
904.122	18692.18
904.495	20579.99
904.867	20821.94
905.24	18084.19
905.612	16816.43
905.985	17193.42
906.357	17966.23
906.729	17149.68
907.102	14644.24
907.474	14080.64
907.846	14162.57
908.218	13991.24
908.59	12376.77
908.962	11978.36
909.334	12900.74
909.705	13567.09
910.077	13155.88
910.449	13686.49
910.82	14064.16
911.192	15473.41
911.563	16079.94
911.935	17195.39
912.306	17191.54
912.677	17728.44
913.048	17556.29
913.419	19040.98
913.79	19137.91
914.161	20535.21
914.532	19640.24
914.903	18055.28
915.274	17163.57
915.645	16898.85
916.015	14873.11
916.386	14189.52
916.756	15115.2
917.127	15563.05
917.497	13901.76
917.868	15133.99
918.238	14385.54
918.608	14791.08
918.978	15089.65
919.348	15960.5
919.718	16494.13
920.088	15884.86
920.458	16509.19
920.828	17347.26
921.198	16474.7
921.567	17620.66
921.937	13661.16
922.306	13779.84
922.676	14857.84
923.045	12412
923.415	11814.73
923.784	10755.39
924.153	11076.47
924.522	11067.13
924.891	10412.45
925.26	11151.04
925.629	10878.68
925.998	12502.72
926.367	12220.68
926.736	11671.16
927.104	13878.8
927.473	14894.63
927.842	17985.7
928.21	17776.51
928.578	18672.27
928.947	17665.83
929.315	17784.61
929.683	20894.37
930.051	21052.96
930.42	24424.02
930.788	20844.25
931.156	20698.33
931.523	19431.39
931.891	17977.17
932.259	17293.02
932.627	20048.89
932.994	28360.95
933.362	23436.79
933.729	20335.6
934.097	19428.69
934.464	16450.13
934.831	18955.69
935.199	18665.36
935.566	18100.75
935.933	18292.67
936.3	22138.62
936.667	17220.02
937.034	15640.42
937.401	15435.77
937.767	13307.82
938.134	11862.83
938.501	16745.82
938.867	17890.62
939.234	30254.34
939.6	25718.62
939.967	28450.67
940.333	19065.54
940.699	16240.43
941.065	12913.5
941.431	16973.73
941.798	16422.17
942.163	21564.32
942.529	13438.38
942.895	12340.3
943.261	7994.44
943.627	10542.69
943.992	9222.77
944.358	9241.64
944.723	9293.54
945.089	9035.15
945.454	8372.69
945.82	8914.76
946.185	8564.45
946.55	9929.82
946.915	8910.81
947.28	10450.87
947.645	9189.29
948.01	8508.76
948.375	8887.82
948.74	10630.44
949.104	12399.71
949.469	17774.13
949.834	31389.52
950.198	29928.54
950.562	17955.91
950.927	14931.43
951.291	17967.5
951.655	15291.53
952.02	14297.67
952.384	10792.21
952.748	9438.5
953.112	9265.44
953.476	8076.16
953.839	7463.63
954.203	7392.67
954.567	9250.97
954.931	14552.05
955.294	12466.78
955.658	12525.58
956.021	21341.87
956.385	36098.83
956.748	53121.61
957.111	81925.51
957.474	91949.18
957.837	103486.85
958.2	77929.27
958.563	27965.86
958.926	18947
959.289	28675.3
959.652	32039.82
960.015	24002.63
960.377	34464.64
960.74	39292.93
961.102	67758.77
961.465	73025.28
961.827	39655.72
962.189	76121.55
962.552	52769.28
962.914	42201.4
963.276	27415.8
963.638	22674.18
964	22447.31
964.362	15188.06
964.724	14660.61
965.085	10473.52
965.447	8571.34
965.809	9642.46
966.17	9612.94
966.532	10396.16
966.893	9565.41
967.255	8694.09
967.616	10269.74
967.977	8235.41
968.338	8983.48
968.699	7404.58
969.061	7402.39
969.421	7445.63
969.782	8344.58
970.143	7095.83
970.504	7401.08
970.865	8417.58
971.225	8659.77
971.586	8448.06
971.946	12002.67
972.307	10421.86
972.667	13603.22
973.027	14023.99
973.388	17000.83
973.748	11556.79
974.108	12575.54
974.468	16907.74
974.828	13091.89
975.188	10000.47
975.548	9181.54
975.907	7719.5
976.267	8641.27
976.627	7291.72
976.986	7538.28
977.346	7174.61
977.705	6923.47
978.064	6283.56
978.424	5237.87
978.783	5374.33
979.142	6127.34
979.501	5882.99
979.86	6232.72
980.219	6014.33
980.578	7702.41
980.937	8621
981.296	7699.65
981.654	7931.77
982.013	12335.28
982.371	16038.3
982.73	15000.14
983.088	17005.67
983.447	18188.05
983.805	26024.49
984.163	54329.87
984.521	60296.02
984.879	88207.51
985.237	-143969.82
985.595	138963.43
985.953	34480.12
986.311	19828.03
986.669	11516.49
987.026	9954.74
987.384	13318.29
987.741	13695.85
988.099	9880.82
988.456	7891.22
988.814	7420.88
989.171	6417.05
989.528	6274.03
989.885	6618.98
990.242	5264.72
990.599	6542.61
990.956	5333.86
991.313	3741.24
991.67	3079.63
992.027	3304.05
992.383	2935.75
992.74	2578.06
993.096	2727.51
993.453	2835.93
993.809	2948.51
994.165	3911.18
994.522	3644.5
994.878	4030.59
995.234	5049.78
995.59	4968.07
995.946	4609.38
996.302	5269.74
996.658	6063.7
997.013	6641.24
997.369	7919.8
997.725	10176.64
998.08	6591.07
998.436	9928.82
998.791	13698.1
999.147	13744.63
999.502	15073.42
999.857	10876.07
1000.212	17703.01
1000.567	25300.32
1000.922	14590.21
1001.277	9226.71
1001.632	6811.37
1001.987	8766.99
1002.342	6295.6
1002.696	5047.27
1003.051	4033.01
1003.406	4893.86
1003.76	4910.52
1004.114	4855.84
1004.469	4096.53
1004.823	3392.26
1005.177	3659.68
1005.531	2903.17
1005.885	2597.68
1006.239	2964.99
1006.593	3728.99
1006.947	4998.99
1007.301	3732.35
1007.655	4074.33
1008.008	3014.93
1008.362	3380.39
1008.715	4808.61
1009.069	4356.67
1009.422	6665.78
1009.776	13213.33
1010.129	8753.08
1010.482	7257.57
1010.835	6038.86
1011.188	12513.18
1011.541	11770.32
1011.894	-71410.29
1012.247	210434.46
1012.6	14292.8
1012.952	9107.58
1013.305	4599.38
1013.657	3378.3
1014.01	3190.81
1014.362	2618.16
1014.715	2411.21
1015.067	2131.52
1015.419	2082.1
1015.771	1838.38
1016.123	1643.1
1016.475	1714.57
1016.827	1814.2
1017.179	1974.56
1017.531	1960.79
1017.883	1992.08
1018.234	2002.3
1018.586	2481.37
1018.938	2701.68
1019.289	3731.15
1019.64	4237.2
1019.992	3920.94
1020.343	3555.95
1020.694	2857.86
1021.045	2518.93
1021.396	2882.97
1021.747	3137.16
1022.098	3653.63
1022.449	2665.53
1022.8	2426.89
1023.151	1704
1023.501	1544.54
1023.852	1678.85
1024.202	1762.89
1024.553	1895.51
1024.903	1881.78
1025.253	1656.2
1025.604	1492.4
1025.954	1823.57
1026.304	2183.94
1026.654	2509.94
1027.004	3631.16
1027.354	5803.03
1027.703	5539.65
1028.053	7138.62
1028.403	10887.74
1028.753	15274.94
1029.102	20125.74
1029.452	101493.69
1029.801	4447.73
1030.15	2900.02
1030.499	2425.2
897.758	3323.78
901.051	3312.5
904.343	3351.37
907.636	3339.41
910.928	3410.32
914.22	3310.76
917.511	3320.49
920.803	3411.18
924.094	3459.18
927.384	3403.87
930.675	3368.85
933.965	3308.63
937.255	3297.85
940.544	3261.15
943.834	3111.01
947.123	3067.68
950.411	3171.93
953.7	3135.08
956.988	3076.31
960.276	3021.6
963.563	3145.56
966.851	3123.73
970.138	3200.64
973.424	3176.04
976.711	3121.52
979.997	3379.54
983.283	3395.87
986.568	3261.74
989.853	3310.04
993.138	3339.48
996.423	3419.13
999.708	3329.73
1002.992	3445.99
1006.275	3172.11
1009.559	3278.51
1012.842	3420.01
1016.125	3323.03
1019.408	3295.81
1022.69	3428.15
1025.972	3424.79
1029.254	3393.81
1032.536	3283.09
1035.817	3325.94
1039.098	3225.7
1042.379	3495.31
1045.659	3442.81
1048.939	3352.2
1052.219	3391.73
1055.498	3424.18
1058.778	3385.77
1062.057	3382.27
1065.335	3395.89
1068.614	3428.22
1071.892	3389.7
1075.17	3491.71
1078.447	3462.72
1081.724	3446.7
1085.001	3497.4
1088.278	3461.67
1091.554	3483.16
1094.83	3485.21
1098.106	3502.69
1101.382	3565.01
1104.657	3564.12
1107.932	3562.39
1111.206	3501.67
1114.481	3463.6
1117.755	3473.77
1121.029	3428.94
1124.302	3471.89
1127.575	3400.99
1130.848	3373.74
1134.121	3324.29
1137.393	3256
1140.665	3335.46
1143.937	3309.66
1147.208	3225.41
1150.48	3242.85
1153.75	3221.32
1157.021	3299.06
1160.291	3253.16
1163.561	3286.53
1166.831	3311.48
1170.101	3346.97
1173.37	3344.54
1176.639	3264.74
1179.907	3342.57
1183.176	3387.78
1186.444	3393.82
1189.711	3427.11
1192.979	3422.39
1196.246	3384.72
1199.513	3409.3
1202.78	3400.59
1206.046	3405.2
1209.312	3434.78
1212.578	3470.29
1215.843	3398.03
1219.108	3381.29
1222.373	3409.53
1225.638	3355.1
1228.902	3329.83
1232.166	3307.98
1235.43	3285.18
1238.693	3301.6
1241.956	3307.75
1245.219	3334.36
1248.482	3343.11
1251.744	3330.13
1255.006	3518.34
1258.268	3479.73
1261.529	3410.05
1264.79	3425.24
1268.051	3542.5
1271.312	3562.4
1274.572	3513.7
1277.832	3504.58
1281.092	3507.87
1284.351	3449.23
1287.61	3421.99
1290.869	3306.25
1294.128	3251.64
1297.386	3398.07
1300.644	3383.41
1303.902	3392.94
1307.159	3240.04
1310.416	3301.42
1313.673	3316.25
1316.93	3284.35
1320.186	3357.67
1323.442	3414.39
1326.697	3391.3
1329.953	3413.83
1333.208	3417.76
1336.463	3407.15
1339.717	3333.76
1342.972	3429.42
1346.226	3437.32
1349.479	3352.13
1352.733	3307.81
1355.986	3355.22
1359.238	3325.53
1362.491	3325.31
1365.743	3328.39
1368.995	3337.75
1372.247	3352.34
1375.498	3368.19
1378.749	3431.35
1382	3372.67
1385.251	3451.71
1388.501	3430.36
1391.751	3396.06
1395	3379.68
1398.25	3422.94
1401.499	3418.09
1404.748	3325.78
1407.996	3241.29
1411.244	3239.02
1414.492	3210.77
1417.74	3185.91
1420.987	3208.61
1424.234	3260.72
1427.481	3266.03
1430.728	3319.67
1433.974	3292.63
1437.22	3327.34
1440.465	3330.36
1443.711	3335
1446.956	3369.57
1450.201	3379.6
1453.445	3424.48
1456.689	3383.51
1459.933	3401.87
1463.177	3425.21
1466.42	3397.65
1469.663	3373.08
1472.906	3336.05
1476.148	3480.19
1479.391	3359.22
1482.633	3344.9
1485.874	3338.47
1489.115	3299.11
1492.356	3330.18
1495.597	3292.67
1498.838	3305.04
1502.078	3247.16
1505.318	3165.12
1508.557	3220.41
1511.797	3128.22
1515.036	3300.24
1518.274	3284.08
1521.513	3270.9
1524.751	3304.57
1527.989	3301.08
1531.227	3303.87
1534.464	3264.68
1537.701	3320.61
1540.938	3348.91
1544.174	3307.89
1547.41	3322.6
1550.646	3357.18
1553.882	3373.7
1557.117	3420.45
1560.352	3445.77
1563.587	3394.59
1566.821	3341.67
1570.055	3406.65
1573.289	3362.18
1576.523	3458.32
1579.756	3450.25
1582.989	3462.97
1586.222	3422.8
1589.454	3473.54
1592.686	3438.19
1595.918	3449.96
1599.15	3426.82
1602.381	3544.66
1605.612	3459.43
1608.843	3556.62
1612.073	3458.82
1615.303	3437.58
1618.533	3410.34
1621.762	3425.06
1624.992	3428.14
1628.221	3384.14
1631.449	3370.95
1634.678	3465.78
1637.906	3401.53
1641.134	3460.44
1644.361	3402.95
1647.588	3388.65
1650.815	3396.79
1654.042	3400.21
1657.269	3433.32
1660.495	3376
1663.72	3331.87
1666.946	3322.9
1670.171	3222.1
1673.396	3200.36
1676.621	3203.36
1679.845	3257.94
1683.069	3297.55
1686.293	3361.22
1689.517	3306.98
1692.74	3201.11
1695.963	3220.96
1699.185	3308.51
1702.408	3258.61
1705.63	3316.72
1708.852	3321.8
1712.073	3291.73
1715.294	3249.99
1718.515	3287.79
1721.736	3223.69
1724.956	3199.25
1728.176	3234.85
1731.396	3251.49
1734.616	3256.16
1737.835	3259.53
1741.054	3257.53
1744.272	3259.85
1747.491	3268.74
1750.709	3363.91
1753.927	3252.64
1757.144	3323.49
1760.361	3384.67
1763.578	3399.01
1766.795	3331.69
1770.011	3356.01
1773.227	3423.77
1776.443	3450.91
1779.658	3490.2
1782.874	3442.34
1786.089	3400.29
1789.303	3405.54
1792.518	3420.25
1795.732	3412.43
1798.945	3412.59
1802.159	3473.76
1805.372	3327.39
1808.585	3294.58
1811.797	3299.96
1815.01	3391.72
1818.222	3394.18
1821.434	3272.07
1824.645	3386.21
1827.856	3337.8
1831.067	3386.57
1834.278	3317.74
1837.488	3311.32
1840.698	3496.83
1843.908	3397.18
1847.117	3359.14
1850.326	3177.76
1853.535	3323.54
1856.744	3456.19
1859.952	3330.99
1863.16	3333.45
1866.368	3362.59
1869.575	3523.34
1872.782	3404.97
1875.989	3357.22
1879.196	3497.03
1882.402	3496.6
1885.608	3550.88
1888.814	3410.57
1892.019	3284.09
1895.224	3342.56
1898.429	3339.05
1901.634	3312.57
1904.838	3299.6
1908.042	3342.53
1911.246	3341.38
1914.449	3227.63
1917.652	3244.46
1920.855	3232.28
1924.058	3312.36
1927.26	3340.35
1930.462	3379.19
1933.664	3396.77
1936.865	3320.23
1940.066	3314.23
1943.267	3263.5
1946.467	3292.27
1949.668	3331.12
1952.868	3398.91
1956.067	3355.01
1959.267	3270.81
1962.466	3305.93
1965.665	3292.66
1968.863	3289.21
1972.061	3329.48
1975.259	3328.87
1978.457	3418.9
1981.654	3368.43
1984.852	3366.44
1988.048	3267.01
1991.245	3291.05
1994.441	3381.69
1997.637	3398.2
2000.833	3377.75
2004.028	3424.91
2007.223	3463.39
2010.418	3428.02
2013.613	3396.93
2016.807	3330.35
2020.001	3360.04
2023.194	3436.45
2026.388	3394.49
2029.581	3345.05
2032.774	3377.92
2035.966	3375.46
2039.158	3281.4
2042.35	3322.75
2045.542	3245.32
2048.733	3383.72
2051.924	3444.52
2055.115	3489.23
2058.306	3398.11
2061.496	3469.45
2064.686	3550.69
2067.875	3467.26
2071.065	3500.51
2074.254	3540.07
2077.442	3485.92
2080.631	3592.2
2083.819	3418.28
2087.007	3382.47
2090.195	3332.68
2093.382	3396.5
2096.569	3370.67
2099.756	3306.38
2102.942	3307.45
2106.128	3295.81
2109.314	3297.29
2112.5	3227.93
2115.685	3212.07
2118.87	3226.66
2122.055	3304.58
2125.239	3247.18
2128.424	3199.88
2131.608	3370.34
2134.791	3348.59
2137.974	3437.88
2141.157	3417.53
2144.34	3338.03
2147.523	3354.29
2150.705	3349.01
2153.887	3346.07
2157.068	3263.76
2160.25	3295.16
2163.431	3359.49
2166.611	3262.63
2169.792	3278.67
2172.972	3143.56
2176.152	3266.97
2179.331	3314.62
2182.511	3298.89
2185.69	3334.87
2188.868	3320.9
2192.047	3409.34
2195.225	3365.77
2198.403	3308.25
2201.58	3315.8
2204.758	3314.73
2207.935	3414.55
2211.111	3260.37
2214.288	3237.23
2217.464	3289.8
2220.64	3279.6
2223.815	3341.92
2226.991	3246.48
2230.166	3272.57
2233.34	3287.34
2236.515	3326.28
2239.689	3422.94
2242.863	3352.51
2246.036	3417.56
2249.209	3442.5
2252.382	3498.55
2255.555	3464.51
2258.727	3381.34
2261.9	3432.04
2265.071	3425.81
2268.243	3436.95
2271.414	3345
2274.585	3272.64
2277.756	3353.61
2280.926	3308.37
2284.096	3364.87
2287.266	3235.15
2290.436	3308.93
2293.605	3351.04
2296.774	3373.01
2299.942	3416.18
2303.111	3438.07
2306.279	3480.37
2309.447	3469.14
2312.614	3452.32
2315.781	3465.98
2318.948	3423.03
2322.115	3469.1
2325.281	3360.76
2328.447	3401.25
2331.613	3380.56
2334.779	3327.14
2337.944	3339.59
2341.109	3331.62
2344.274	3307.28
2347.438	3265.35
2350.602	3300.2
2353.766	3324.14
2356.929	3305.08
2360.092	3354.99
2363.255	3278.85
2366.418	3167.02
2369.58	3349.05
2372.742	3005.62
2375.904	3048.52
2379.066	3006.78
2382.227	3057.88
2385.388	3015.01
2388.548	2912.32
2391.709	2988.23
2394.869	2956.15
2398.029	3115.16
2401.188	3151.97
2404.347	3044.12
2407.506	3276.43
2410.665	3300.44
2413.823	3330.02
2416.981	3256.37
2420.139	3311.14
2423.296	3375.14
2426.453	3348
2429.61	3375.69
2432.767	3263.14
2435.923	3321.15
2439.079	3184.13
2442.235	3282.44
2445.391	3182.44
2448.546	3191.94
2451.701	3269.26
2454.855	3202.33
2458.009	3287.42
2461.163	3306.73
2464.317	3248.65
2467.471	3290.58
2470.624	3328.91
2473.777	3393.22
2476.929	3378.85
2480.082	3407.66
2483.234	3375.23
2486.385	3229.85
2489.537	3234.14
2492.688	3156.92
2495.839	3175.44
2498.989	3178.71
2502.14	3157.98
2505.29	3125.12
2508.439	3158.25
2511.589	3052.77
2514.738	3084.11
2517.887	3115.42
2521.035	3287.47
2524.183	3280.15
2527.331	3245.44
2530.479	3195
2533.627	3216.45
