Data from C_3_HIR_IL_4N_Splice17_13-39-20-792.txt Node
Date: Sat Mar 14 13:39:20 EDT 2020
User: sa697716
Spectrometer: FLMS03696
Trigger mode: 0
Integration Time (sec): 3.180400E-1
Scans to average: 20
Electric dark correction enabled: true
Nonlinearity correction enabled: true
Boxcar width: 5
XAxis mode: Wavelengths
Number of Pixels in Spectrum: 2048
>>>>>Begin Spectral Data<<<<<
187.83	-429953.3
188.298	2978.35
188.766	1562.48
189.233	1414.51
189.701	2006.91
190.169	2730.99
190.636	1070.29
191.104	944.63
191.571	192.43
192.039	-70.36
192.506	-38.67
192.974	685.75
193.441	-1349.69
193.908	-430.22
194.375	-148.5
194.842	-31.27
195.31	47.98
195.777	176.66
196.244	487.97
196.711	582.79
197.177	742.26
197.644	1074.64
198.111	1868.27
198.578	2613.41
199.045	2078.2
199.511	3418.99
199.978	3969.37
200.445	3386.51
200.911	3735.85
201.378	4153.03
201.844	3764.5
202.31	6444.53
202.777	6699.19
203.243	3696.1
203.709	3517.29
204.176	4182.54
204.642	3433.97
205.108	3223.25
205.574	2596.92
206.04	2371.62
206.506	2233.01
206.972	2112.99
207.438	2057.42
207.903	2343.49
208.369	2060.95
208.835	2063.67
209.301	2167.15
209.766	2233.15
210.232	2231.59
210.697	2790.9
211.163	3484.33
211.628	5278.65
212.094	4477.92
212.559	5492.42
213.024	3423.23
213.49	4224.37
213.955	4150.38
214.42	4081.94
214.885	3805.8
215.35	3647.65
215.815	3539.67
216.28	3762.84
216.745	3100.6
217.21	3378.72
217.675	3147.72
218.14	3606.06
218.604	4110.77
219.069	4789.64
219.534	5109.51
219.998	6065.54
220.463	7479.4
220.927	9359.26
221.392	8948.58
221.856	9150.17
222.32	11677.87
222.785	14543.01
223.249	18472.62
223.713	20740.72
224.177	20859.48
224.642	26912.13
225.106	33286.57
225.57	36523.99
226.034	27232.37
226.497	41530.83
226.961	37573.94
227.425	43828.14
227.889	48764.18
228.353	48881.59
228.816	101199.33
229.28	96930.31
229.744	81992.9
230.207	49817.12
230.671	49091.45
231.134	81426.44
231.597	93988.04
232.061	94259.26
232.524	92093.52
232.987	63540.41
233.45	57211.31
233.914	51387.54
234.377	52797.28
234.84	48377.07
235.303	57179.43
235.766	63887.79
236.229	66080.32
236.691	41686.25
237.154	46884.86
237.617	35309.2
238.08	36229.99
238.542	42515.42
239.005	30387.81
239.468	30157.08
239.93	28441.08
240.393	25862.66
240.855	22716.43
241.317	23289.82
241.78	28373.3
242.242	29369.62
242.704	31691.22
243.166	27568.86
243.629	25015.89
244.091	28855.4
244.553	31639.36
245.015	34065.68
245.477	44140.06
245.939	64797.73
246.4	68800.75
246.862	66975.47
247.324	63152.15
247.786	70848.6
248.247	93036.27
248.709	96218.73
249.17	72087.76
249.632	68012.3
250.093	78818.9
250.555	68115.63
251.016	41551.02
251.477	39448.1
251.939	42559.54
252.4	44711.36
252.861	53203.12
253.322	49513.55
253.783	58961.14
254.244	76497.76
254.705	60355.93
255.166	53691.69
255.627	52899.32
256.088	74633.09
256.549	79307.32
257.009	68335.91
257.47	82802.23
257.931	67424.59
258.391	50523.2
258.852	52111.28
259.312	54639.24
259.773	67466.17
260.233	57003.01
260.694	48051.36
261.154	54546.3
261.614	43759
262.074	39155.47
262.534	40715.21
262.994	38352.75
263.455	51131.79
263.915	43059.15
264.374	40577.11
264.834	44322.35
265.294	49153.65
265.754	50913.7
266.214	48189.66
266.673	45173.58
267.133	56984.21
267.593	56556.93
268.052	69207.87
268.512	60193.53
268.971	72513.85
269.431	79443.03
269.89	71149.32
270.349	106657.82
270.809	118824.81
271.268	106723.55
271.727	239364.98
272.186	155054.8
272.645	116217.48
273.104	83845
273.563	121297.14
274.022	95454.79
274.481	81202.28
274.94	62519.25
275.399	46452.43
275.857	54090.58
276.316	73117.36
276.775	65037.05
277.233	63986.29
277.692	59879
278.15	67709.12
278.609	69659.31
279.067	64454.87
279.525	59845.11
279.984	77281.28
280.442	92788.27
280.9	91445.21
281.358	60182.25
281.816	56031.34
282.274	54854.03
282.732	56639.85
283.19	56892.79
283.648	49071.53
284.106	52234.76
284.564	53084.42
285.021	49181.66
285.479	36641.53
285.937	33335.6
286.394	29211.58
286.852	30060.04
287.309	31602.26
287.767	30504.33
288.224	28975.63
288.682	31774.38
289.139	34855.09
289.596	31899.5
290.053	33141.86
290.511	41812.57
290.968	50697.66
291.425	68818.1
291.882	57269.7
292.339	49843.97
292.796	49481.88
293.252	46693.32
293.709	37102.36
294.166	33248.85
294.623	36765.76
295.079	35289.01
295.536	35451.98
295.992	32176.46
296.449	31839.93
296.905	33075.4
297.362	31693.97
297.818	33355.72
298.274	34579.87
298.731	35227.32
299.187	34884.03
299.643	37436.63
300.099	45308.54
300.555	49689.82
301.011	41533.4
301.467	39978.46
301.923	46857.73
302.379	45750.63
302.835	44943.24
303.291	45011.39
303.746	51225.31
304.202	64711.61
304.658	65008.28
305.113	43688.83
305.569	42801.83
306.024	45640.96
306.479	43503.2
306.935	36639.34
307.39	40048.76
307.845	36952.07
308.301	37175.34
308.756	36264.85
309.211	34923.19
309.666	35769.81
310.121	44383.58
310.576	45092.27
311.031	44706.82
311.486	51224.58
311.94	51210.2
312.395	68447.28
312.85	128735.67
313.305	632206.98
313.759	3268202.05
314.214	236720.79
314.668	187512.54
315.123	157695.52
315.577	56548.87
316.032	50292.61
316.486	62997.47
316.94	49605.75
317.394	34508.25
317.849	26791.51
318.303	25382.09
318.757	23929.56
319.211	26479.78
319.665	23155.57
320.119	23432.05
320.572	33613.08
321.026	31391.62
321.48	26125.81
321.934	28537.9
322.387	28607.55
322.841	30911.59
323.295	27775.24
323.748	32059.46
324.202	32488.51
324.655	39051.49
325.108	54511.72
325.562	38484.01
326.015	45754.39
326.468	34567.88
326.921	38682.83
327.374	36064.73
327.827	37541.38
328.28	42484.37
328.733	28409.86
329.186	24990.85
329.639	23798.69
330.092	20076.95
330.545	19102.97
330.997	19259.92
331.45	21037.42
331.903	24618.01
332.355	42407.71
332.808	41244
333.26	34024.9
333.713	36911
334.165	37164.39
334.617	49614.15
335.069	40104.7
335.522	72556.7
335.974	80388.79
336.426	73470.62
336.878	50893.5
337.33	25757.37
337.782	25135.07
338.234	31468.54
338.686	37717.92
339.137	44722.19
339.589	42111.07
340.041	32965.95
340.493	28330.6
340.944	28994.82
341.396	31191.78
341.847	26244.87
342.299	30987.83
342.75	37796.04
343.201	33058.55
343.653	37966.58
344.104	46678.37
344.555	36742.8
345.006	57168.3
345.457	43704.77
345.908	34724.11
346.359	32685.39
346.81	26601.96
347.261	28041.02
347.712	27614.41
348.163	29594.98
348.613	29935.31
349.064	27933.49
349.515	24452.99
349.965	25096.53
350.416	30231.78
350.866	33176.78
351.317	37508.47
351.767	62068.99
352.217	78350
352.668	65035.01
353.118	59552.31
353.568	57484.18
354.018	45429.67
354.468	47844.13
354.918	34286.49
355.368	29977.63
355.818	42299.66
356.268	121529.35
356.718	507976.81
357.168	126316.18
357.617	63397.36
358.067	70562.65
358.517	66074.15
358.966	77353.87
359.416	86687.65
359.865	93743.46
360.315	111620.54
360.764	52148.16
361.213	29260.62
361.663	27762.27
362.112	34270.84
362.561	55245.75
363.01	41636.3
363.459	35019.78
363.908	37920.81
364.357	32196.18
364.806	54351.34
365.255	37364.39
365.703	34165.92
366.152	34224.45
366.601	27731.14
367.05	22472.1
367.498	20419.03
367.947	21322.64
368.395	22181.29
368.844	19598.33
369.292	23636.4
369.74	16299.66
370.189	24957.18
370.637	29243.16
371.085	25187.23
371.533	30642.46
371.981	29571.58
372.429	28158.72
372.877	29282.81
373.325	24469.28
373.773	24934.37
374.221	22208.46
374.669	27552.85
375.116	23773.21
375.564	23957.61
376.012	26773.44
376.459	22037.66
376.907	26325.89
377.354	31812.19
377.801	29618.92
378.249	33976.04
378.696	43377.86
379.143	52432.64
379.591	55843.08
380.038	94360.48
380.485	68081.77
380.932	73364.9
381.379	67096.59
381.826	49283.51
382.273	34936.62
382.72	30511.46
383.166	29718.05
383.613	19271.39
384.06	17351.62
384.506	20040.78
384.953	14700.07
385.4	14748.06
385.846	12898.65
386.292	12533.49
386.739	12241.36
387.185	12096.67
387.631	12069.79
388.078	11678.38
388.524	12471.88
388.97	11475.29
389.416	9550.92
389.862	10130.37
390.308	9595.54
390.754	9726.84
391.2	10526.71
391.645	10746.1
392.091	10251.53
392.537	9895.28
392.983	9903.43
393.428	9702.24
393.874	10379.35
394.319	10391.05
394.765	9829.33
395.21	10070.94
395.655	9406.07
396.101	8798.16
396.546	7914.71
396.991	7967.67
397.436	7383.55
397.881	7108.17
398.326	6718.53
398.771	6339.04
399.216	5525.12
399.661	4961
400.106	4929.45
400.551	5033.69
400.995	4497.05
401.44	4440.46
401.885	4159.1
402.329	4187.66
402.774	4011.24
403.218	3872.81
403.663	3722.57
404.107	3823.24
404.551	3847.58
404.995	3520.11
405.44	3390.08
405.884	3438.95
406.328	3320.49
406.772	3310.16
407.216	3011.2
407.66	2903.22
408.104	2751.42
408.547	2572.35
408.991	2485.57
409.435	2388.4
409.879	2353.49
410.322	2315.96
410.766	2234.75
411.209	2123.05
411.653	2032.13
412.096	1985.34
412.54	1982.26
412.983	1970.05
413.426	1974.62
413.869	1967.41
414.312	1929.47
414.756	1857.83
415.199	1769.81
415.642	1713.5
416.085	1715.02
416.527	1701.81
416.97	1728.57
417.413	1639.28
417.856	1619.2
418.298	1599.58
418.741	1588.36
419.184	1580.12
419.626	1646.58
420.069	1646.7
420.511	1656.68
420.953	1618.46
421.396	1603.66
421.838	1561.16
422.28	1597.15
422.722	1604.33
423.164	1623.74
423.606	1596.65
424.048	1594.46
424.49	1511.16
424.932	1503.49
425.374	1481.25
425.816	1508.42
426.258	1535.35
426.699	1553.73
427.141	1530.06
427.582	1550.07
428.024	1545.33
428.465	1533.97
428.907	1495.65
429.348	1479.23
429.789	1479.44
430.231	1447.73
430.672	1465.1
431.113	1429.45
431.554	1407.99
431.995	1371.25
432.436	1324.53
432.877	1294.5
433.318	1271.76
433.759	1265.36
434.2	1264.28
434.64	1248.57
435.081	1252.11
435.522	1186.78
435.962	1142.72
436.403	1115.9
436.843	1133.97
437.284	1108.38
437.724	1077.13
438.164	1077.63
438.604	1053
439.045	1011.72
439.485	970.52
439.925	947.79
440.365	923.42
440.805	910.19
441.245	898.15
441.685	861.34
442.125	854.52
442.564	857.62
443.004	836.31
443.444	832.22
443.883	832.77
444.323	824.06
444.762	823.83
445.202	833.67
445.641	846.14
446.081	839.06
446.52	843.92
446.959	832.54
447.398	811.3
447.837	801.16
448.276	784.78
448.716	789.31
449.154	794.72
449.593	775.23
450.032	768.07
450.471	753.93
450.91	752.05
451.349	748.66
451.787	742.43
452.226	753.14
452.664	751.76
453.103	752.07
453.541	749.26
453.98	746.66
454.418	750.26
454.856	738.42
455.295	734.63
455.733	739.72
456.171	741.85
456.609	742.21
457.047	739.4
457.485	749.75
457.923	749.91
458.361	739.76
458.798	740.59
459.236	737.72
459.674	743.02
460.111	747.11
460.549	740.11
460.987	736.75
461.424	733.9
461.862	729.52
462.299	715.79
462.736	714.94
463.173	715.69
463.611	709.03
464.048	706.58
464.485	710.74
464.922	701.49
465.359	695.4
465.796	689.44
466.233	683.85
466.67	677.71
467.106	677.25
467.543	669.94
467.98	660.61
468.416	641.24
468.853	634.94
469.29	614.02
469.726	608.59
470.162	592.88
470.599	582.52
471.035	576.22
471.471	561.97
471.907	557.6
472.344	553.16
472.78	555.22
473.216	561.54
473.652	554.33
474.088	553.54
474.523	551.19
474.959	556.59
475.395	550.28
475.831	548.43
476.266	549.92
476.702	547
477.138	541.81
477.573	538.96
478.008	536.72
478.444	540.42
478.879	545.87
479.314	547.99
479.75	546.67
480.185	548.65
480.62	551.57
481.055	554.52
481.49	559.27
481.925	566.45
482.36	577.37
482.795	592.82
483.229	606.57
483.664	617.59
484.099	617.99
484.534	626.03
484.968	631.57
485.403	632.64
485.837	630.67
486.271	627.58
486.706	626.08
487.14	615.38
487.574	603.55
488.009	595.84
488.443	587.61
488.877	592.35
489.311	591.98
489.745	596.73
490.179	599.54
490.613	609.44
491.046	611.87
491.48	613.91
491.914	612.59
492.348	614.45
492.781	616.48
493.215	615.46
493.648	613.39
494.082	614.97
494.515	612.42
494.948	616.26
495.382	615.79
495.815	616.37
496.248	617.58
496.681	624.83
497.114	630.63
497.547	634.71
497.98	643.03
498.413	644.47
498.846	648.65
499.279	650.76
499.711	649.84
500.144	647.17
500.577	651.37
501.009	655.11
501.442	658.92
501.874	655.96
502.306	652.51
502.739	655.46
503.171	661.86
503.603	660.71
504.036	663.21
504.468	662.79
504.9	666.35
505.332	666.87
505.764	667.01
506.196	666.64
506.627	672.46
507.059	678.44
507.491	677.61
507.923	672.27
508.354	678.7
508.786	683.09
509.217	692.36
509.649	700.03
510.08	709.72
510.512	718.97
510.943	726.94
511.374	732.33
511.805	743.62
512.237	755.54
512.668	775.59
513.099	792.24
513.53	809.25
513.961	822.39
514.391	843.4
514.822	867.74
515.253	891.91
515.684	910.11
516.114	930.44
516.545	946.45
516.975	965.36
517.406	978.57
517.836	981.23
518.267	987.69
518.697	1002.28
519.127	1007.48
519.558	1013.35
519.988	1017.05
520.418	1026.78
520.848	1042.12
521.278	1051.11
521.708	1093.49
522.138	1106.62
522.567	1132.49
522.997	1153.77
523.427	1168.63
523.857	1184.7
524.286	1195.86
524.716	1211.36
525.145	1229.11
525.575	1242.28
526.004	1256.86
526.433	1230.62
526.863	1234.89
527.292	1232.72
527.721	1241.97
528.15	1250.12
528.579	1254.14
529.008	1266.24
529.437	1286.46
529.866	1299.77
530.295	1314.8
530.724	1328.42
531.152	1351.89
531.581	1364.77
532.01	1380.46
532.438	1388.52
532.867	1401.25
533.295	1418.27
533.723	1424.9
534.152	1425.32
534.58	1426.82
535.008	1416.54
535.436	1419.47
535.865	1427.09
536.293	1439.21
536.721	1451.74
537.149	1473.18
537.576	1477.52
538.004	1487.74
538.432	1493.87
538.86	1493.46
539.287	1499.67
539.715	1510.97
540.143	1512.82
540.57	1509.92
540.998	1508.27
541.425	1492.67
541.852	1476.24
542.28	1474.29
542.707	1461.41
543.134	1451.52
543.561	1447.47
543.988	1442.7
544.415	1442.66
544.842	1437.96
545.269	1432.95
545.696	1435.23
546.123	1445.61
546.549	1438.26
546.976	1429.67
547.403	1431.28
547.829	1434.02
548.256	1437.62
548.682	1435.44
549.108	1431.53
549.535	1433.1
549.961	1436.04
550.387	1426.37
550.813	1423.44
551.24	1429.52
551.666	1431.27
552.092	1423.1
552.518	1417.45
552.943	1413.07
553.369	1419.77
553.795	1422.46
554.221	1423.32
554.646	1420.7
555.072	1429.7
555.498	1431.91
555.923	1438.18
556.349	1449.34
556.774	1456.4
557.199	1456.64
557.625	1460.98
558.05	1455.34
558.475	1463.72
558.9	1462.27
559.325	1454.43
559.75	1447.82
560.175	1441.21
560.6	1435.07
561.025	1430.46
561.449	1428.02
561.874	1431.6
562.299	1433.19
562.723	1435.73
563.148	1425.31
563.572	1425.33
563.997	1430.63
564.421	1430.97
564.846	1427.81
565.27	1427.41
565.694	1423.46
566.118	1430.92
566.542	1433.01
566.966	1423.56
567.39	1415.8
567.814	1402.72
568.238	1399.18
568.662	1398.1
569.086	1396.85
569.509	1398.99
569.933	1383.79
570.357	1374.42
570.78	1353.75
571.204	1340.79
571.627	1329.49
572.05	1325.88
572.474	1324.17
572.897	1310.81
573.32	1303.89
573.743	1292.82
574.166	1276.29
574.589	1274.13
575.012	1266.4
575.435	1263.03
575.858	1254.52
576.281	1244.51
576.704	1230.87
577.126	1220.1
577.549	1210.76
577.972	1201.54
578.394	1193.67
578.817	1190.18
579.239	1174.37
579.661	1163.72
580.084	1152.81
580.506	1141.53
580.928	1137.28
581.35	1128.35
581.772	1123.9
582.194	1113.98
582.616	1103.87
583.038	1091.66
583.46	1080.41
583.882	1078.23
584.303	1079.27
584.725	1075.57
585.147	1080.83
585.568	1089.12
585.99	1097.69
586.411	1102.06
586.833	1113.13
587.254	1112.87
587.675	1123.39
588.096	1132.04
588.518	1128.1
588.939	1115.7
589.36	1113.3
589.781	1099.76
590.202	1079.78
590.623	1072.72
591.043	1069.78
591.464	1059.15
591.885	1056.96
592.305	1051.53
592.726	1041.74
593.147	1041.25
593.567	1037.04
593.987	1031
594.408	1027.45
594.828	1024.12
595.248	1019.88
595.669	1007.2
596.089	1001.03
596.509	994.98
596.929	984.63
597.349	985.06
597.769	976.87
598.189	971.89
598.608	972.2
599.028	972.54
599.448	970.67
599.867	959.98
600.287	955.41
600.706	952.19
601.126	945.57
601.545	945.47
601.965	942.94
602.384	939.32
602.803	941.05
603.222	938.4
603.641	934.35
604.061	932.82
604.48	929.84
604.898	935.86
605.317	938.6
605.736	939.7
606.155	938.08
606.574	932.31
606.992	935.65
607.411	932.28
607.829	924.86
608.248	921.44
608.666	918.53
609.085	919.3
609.503	912.97
609.921	909.35
610.339	910.7
610.758	909.31
611.176	905.57
611.594	898.97
612.012	896.19
612.43	899.08
612.847	902.82
613.265	904.68
613.683	906.51
614.101	907.49
614.518	904.21
614.936	896.84
615.353	886.67
615.771	884.71
616.188	885.11
616.606	882.08
617.023	877.46
617.44	868.51
617.857	862.3
618.274	856.29
618.691	853.04
619.108	846.48
619.525	842.3
619.942	847.85
620.359	849.16
620.776	845.33
621.192	844.61
621.609	842.86
622.026	847.77
622.442	853.24
622.859	855.69
623.275	850.27
623.691	854.49
624.108	862.65
624.524	871.16
624.94	871.69
625.356	877.76
625.772	885.13
626.188	891.85
626.604	892.65
627.02	888.79
627.436	887.22
627.852	891.6
628.268	899.88
628.683	892.87
629.099	886.06
629.514	881.73
629.93	884.97
630.345	887.82
630.761	885.9
631.176	887.66
631.591	884.95
632.007	880.83
632.422	878.59
632.837	869.98
633.252	868.44
633.667	862.28
634.082	857.24
634.497	849.21
634.911	837.78
635.326	835.58
635.741	824.37
636.155	817.2
636.57	819.32
636.984	819.66
637.399	823.67
637.813	823.07
638.228	823.52
638.642	826
639.056	819.28
639.47	818.88
639.884	813.93
640.298	810.59
640.712	811.91
641.126	804.63
641.54	799.81
641.954	794.34
642.368	788.76
642.781	786.66
643.195	777.09
643.609	780.31
644.022	778.46
644.436	776.93
644.849	769.96
645.262	762.06
645.676	763.56
646.089	761.83
646.502	756.49
646.915	755.26
647.328	744.61
647.741	745.66
648.154	736.9
648.567	739.61
648.98	733.13
649.393	736.16
649.805	736.93
650.218	734.04
650.631	725.37
651.043	720.96
651.456	717.93
651.868	719.07
652.28	732.61
652.693	744.42
653.105	748.68
653.517	756.29
653.929	757.52
654.341	762.32
654.753	756.26
655.165	762.92
655.577	764.62
655.989	765.52
656.401	761.59
656.813	738.62
657.224	726.95
657.636	708.17
658.047	699.45
658.459	688.97
658.87	685.57
659.282	679.68
659.693	669.34
660.104	661.43
660.515	653.23
660.926	655.14
661.338	656.75
661.749	655.46
662.159	653.63
662.57	653.38
662.981	654.5
663.392	652.86
663.803	660.79
664.213	662.59
664.624	663.07
665.035	671.24
665.445	664.98
665.855	663.11
666.266	660.79
666.676	662.02
667.086	658.61
667.497	661.67
667.907	660.92
668.317	656.76
668.727	658.64
669.137	661.99
669.547	661.95
669.956	667.17
670.366	671.35
670.776	676.33
671.186	681.28
671.595	687.03
672.005	691.99
672.414	691.43
672.824	691.26
673.233	694.79
673.642	697.95
674.052	701.73
674.461	705.54
674.87	710.77
675.279	708.92
675.688	710.38
676.097	712.47
676.506	708.93
676.915	724.47
677.323	727.68
677.732	725.35
678.141	724.66
678.549	714.36
678.958	712.92
679.366	710.34
679.775	712.91
680.183	723.52
680.592	727.04
681	730.57
681.408	721.87
681.816	725.8
682.224	729.88
682.632	736.19
683.04	758
683.448	772.89
683.856	793.66
684.264	817.88
684.671	835.31
685.079	859.07
685.487	885.79
685.894	923.45
686.302	951.12
686.709	971.52
687.116	994.37
687.524	1010.51
687.931	1022.8
688.338	1028.87
688.745	1030.42
689.152	1035.98
689.559	1050.41
689.966	1066.36
690.373	1067.01
690.78	1082.62
691.187	1113.56
691.593	1136.86
692	1157.33
692.407	1189.85
692.813	1238.68
693.22	1276.69
693.626	1316.8
694.032	1352.05
694.439	1404.54
694.845	1447.19
695.251	1502.45
695.657	1556.2
696.063	1633.14
696.469	1692.23
696.875	1753.31
697.281	1791.19
697.687	1839.06
698.093	1881.6
698.498	1951.31
698.904	2010.84
699.31	2096.27
699.715	2164.93
700.12	2254.37
700.526	2287.25
700.931	2362.78
701.337	2425.31
701.742	2472.7
702.147	2560.91
702.552	2608.13
702.957	2679.68
703.362	2717.41
703.767	2761.97
704.172	2816.63
704.577	2797.23
704.981	2858.16
705.386	2894.84
705.791	2909.82
706.195	2997.07
706.6	3026.62
707.004	3119.24
707.408	3112.39
707.813	3158.33
708.217	3169.7
708.621	3193
709.025	3303.81
709.43	3326.84
709.834	3403.36
710.237	3489.75
710.641	3494.48
711.045	3536.54
711.449	3551.5
711.853	3601.06
712.256	3660.85
712.66	3717.36
713.064	3809.67
713.467	3869.41
713.87	3999.45
714.274	4064.71
714.677	4192.31
715.08	4374.64
715.484	4562.7
715.887	4789.22
716.29	5009.7
716.693	5244.85
717.096	5508.9
717.499	5665.97
717.901	5716.55
718.304	5767.86
718.707	5816.13
719.109	5731.41
719.512	5723.26
719.915	5606.01
720.317	5562.63
720.719	5628.54
721.122	5615.46
721.524	5583.41
721.926	5558.74
722.328	5682.8
722.731	5689.78
723.133	5737.85
723.535	5966.02
723.937	6003.1
724.338	6075.93
724.74	6140.2
725.142	6103.43
725.544	6118.97
725.945	6168.33
726.347	6179.72
726.748	6187.68
727.15	6216.88
727.551	6191.13
727.952	6170.9
728.354	6150.13
728.755	6161.23
729.156	6128.24
729.557	6112.21
729.958	5986.01
730.359	5930.72
730.76	5918.53
731.161	5861.03
731.562	5842.67
731.962	5851.96
732.363	5788.91
732.763	5727.17
733.164	5776.32
733.564	5704.12
733.965	5605.65
734.365	5573.36
734.766	5611.12
735.166	5573.38
735.566	5516.52
735.966	5494.19
736.366	5493.39
736.766	5430.38
737.166	5472.65
737.566	5431.14
737.966	5409.3
738.365	5456.69
738.765	5453.83
739.165	5373.16
739.564	5346.03
739.964	5402.33
740.363	5350.61
740.763	5350.97
741.162	5338.87
741.561	5304.73
741.96	5255.18
742.36	5279.86
742.759	5287.65
743.158	5337.91
743.557	5357.75
743.955	5404.71
744.354	5353.25
744.753	5422.16
745.152	5379.33
745.55	5448.08
745.949	5443.06
746.348	5449.86
746.746	5471.72
747.144	5430.79
747.543	5404.3
747.941	5464.83
748.339	5388.69
748.737	5384.65
749.136	5376.69
749.534	5451.39
749.932	5416.99
750.33	5444.06
750.727	5506.11
751.125	5479.7
751.523	5463.23
751.921	5515.82
752.318	5475.19
752.716	5543.07
753.113	5561.62
753.511	5592.77
753.908	5597.13
754.305	5582.39
754.703	5655.31
755.1	5726.78
755.497	5797.58
755.894	6018.25
756.291	6225.52
756.688	6608.4
757.085	7120.33
757.482	7831.37
757.878	8612.75
758.275	9314.89
758.672	10281.56
759.068	11075.04
759.465	12204.27
759.861	13662.19
760.258	15354.49
760.654	16233.41
761.05	16101.95
761.447	15363.88
761.843	14308.69
762.239	13214.1
762.635	12717.79
763.031	12241.69
763.427	11557.01
763.822	10835.92
764.218	10122.74
764.614	9197.03
765.01	8574.2
765.405	8177.85
765.801	7874.54
766.196	7486.55
766.592	7269.64
766.987	6907.8
767.382	6662.99
767.778	6556.83
768.173	6407.66
768.568	6324
768.963	6179.34
769.358	6200.32
769.753	6143.97
770.148	6046.95
770.542	6046.28
770.937	6008.24
771.332	6114.15
771.726	6138.66
772.121	6069.28
772.515	6133.86
772.91	6119.77
773.304	6202.3
773.699	6129.31
774.093	6194.03
774.487	6260.08
774.881	6311.51
775.275	6309.22
775.669	6262.95
776.063	6311.53
776.457	6352.12
776.851	6267.34
777.245	6255.27
777.638	6294.99
778.032	6429.17
778.425	6388.2
778.819	6438.64
779.212	6394.7
779.606	6350.27
779.999	6372.42
780.392	6356.92
780.786	6451.98
781.179	6476.09
781.572	6527.55
781.965	6545.23
782.358	6476.23
782.751	6544.14
783.143	6489.31
783.536	6569.9
783.929	6620.16
784.322	6755.61
784.714	6790.35
785.107	6789.1
785.499	6870.31
785.891	6848.57
786.284	6822.69
786.676	6990.53
787.068	6963.72
787.46	7023.73
787.852	7050.03
788.245	7152.87
788.636	7186.93
789.028	7269.89
789.42	7318.18
789.812	7330.4
790.204	7442.03
790.595	7562.34
790.987	7333.71
791.378	7363.09
791.77	7515.12
792.161	7669.91
792.553	7731.41
792.944	7602.93
793.335	7521.7
793.726	7604.93
794.117	7712.66
794.508	7869.62
794.899	7834.93
795.29	8001.63
795.681	8072.78
796.072	7907.46
796.463	7702.71
796.853	7718.87
797.244	7903.16
797.634	7941.48
798.025	7943.56
798.415	7956.67
798.806	8063.04
799.196	8160.47
799.586	8221.2
799.976	8179.8
800.366	8450.29
800.756	8722.53
801.146	8675.77
801.536	8709.57
801.926	8795.12
802.316	8826.44
802.706	8911.11
803.095	8768.5
803.485	8888.34
803.874	8936.11
804.264	9236.38
804.653	9208.74
805.043	9376.93
805.432	9506.99
805.821	9510.06
806.21	9544.3
806.599	9684.65
806.988	9742.9
807.377	9874.98
807.766	10031.37
808.155	10367.1
808.544	10065.2
808.933	10087.47
809.321	10071.96
809.71	10420.95
810.098	10612.72
810.487	11157.56
810.875	11723.9
811.264	11752.8
811.652	12095.56
812.04	12273.27
812.428	12472.21
812.816	13371.97
813.204	13867.66
813.592	14517.83
813.98	14918.14
814.368	14808.74
814.756	15374.26
815.144	15286.77
815.531	15836.42
815.919	15749.36
816.306	16110.71
816.694	15744.53
817.081	15810.54
817.469	16225.04
817.856	16223.98
818.243	16545.89
818.63	17019.98
819.017	16525.07
819.404	16598.02
819.791	17050.81
820.178	17777.41
820.565	18072.17
820.952	19173.09
821.339	18589.47
821.725	18792.14
822.112	17922.14
822.498	17870.37
822.885	18016.59
823.271	17902.08
823.657	18388.45
824.044	18394.85
824.43	18478.89
824.816	18448.01
825.202	17936.66
825.588	19133.41
825.974	19150.66
826.36	19746.27
826.746	19779.8
827.132	20182.56
827.517	20150.27
827.903	19222.36
828.289	19265.76
828.674	18347.08
829.06	18219.24
829.445	18676.19
829.83	19087.78
830.216	19650.47
830.601	20066.37
830.986	19587.48
831.371	19435.58
831.756	20081.63
832.141	19573.89
832.526	19555.77
832.911	19885.13
833.295	19734.4
833.68	20273.28
834.065	19540.75
834.449	18459.63
834.834	18383.06
835.218	18368.76
835.603	18756.09
835.987	18500.45
836.371	19469.09
836.755	19341.83
837.139	19797.01
837.524	20077.83
837.908	19866.09
838.291	19924.79
838.675	20003.32
839.059	20228.82
839.443	20206.08
839.827	19932.98
840.21	20481.8
840.594	20308.22
840.977	20543.38
841.361	20516.82
841.744	20944.99
842.127	20752.47
842.511	21029.91
842.894	21711.45
843.277	22150.08
843.66	22789.04
844.043	22883.3
844.426	21956.4
844.809	21584.84
845.191	21622.03
845.574	21077.29
845.957	20656.14
846.339	20547.16
846.722	19946.77
847.104	20030.72
847.487	19832.6
847.869	19847.66
848.252	20167.99
848.634	20558.13
849.016	20869.23
849.398	21021.36
849.78	22024.93
850.162	22032.98
850.544	22508.45
850.926	23236.32
851.307	23138.07
851.689	23464.02
852.071	23986.57
852.452	24368.5
852.834	24335.94
853.215	24802.01
853.597	24971.2
853.978	25315.81
854.359	25837.79
854.741	24682.15
855.122	24572.59
855.503	24236.3
855.884	24402.7
856.265	24329.48
856.646	24460.58
857.026	24014.22
857.407	23934.88
857.788	24122.91
858.169	24456.61
858.549	23483.01
858.93	24215.14
859.31	24282.31
859.69	24528.76
860.071	24052.62
860.451	23800.08
860.831	22948.58
861.211	24289.93
861.591	24932.53
861.971	24906.8
862.351	25133.43
862.731	25583.62
863.111	25881.28
863.491	26257.84
863.87	27274.73
864.25	27681.57
864.629	27225.8
865.009	27811.59
865.388	28806.13
865.768	30868.7
866.147	30737.79
866.526	29027.69
866.905	29367.37
867.284	31016.36
867.663	29448.68
868.042	28210.68
868.421	28108.31
868.8	28573.3
869.179	28855.9
869.558	27165.82
869.936	25034.76
870.315	25475.51
870.693	26086.48
871.072	28131.02
871.45	26802.29
871.828	27146.15
872.207	28549.76
872.585	28134.63
872.963	28882.22
873.341	27891.98
873.719	27561.37
874.097	27235.5
874.475	27753.32
874.853	28394.74
875.23	27209.77
875.608	28335.16
875.986	30640.34
876.363	29286.91
876.741	30169.75
877.118	29423.96
877.495	30865.52
877.873	31371.15
878.25	32985.38
878.627	31636.1
879.004	32064.84
879.381	31899.65
879.758	31053.77
880.135	28908.13
880.512	30581.18
880.889	29749.17
881.265	29421.93
881.642	29151.97
882.019	29645.87
882.395	29052.95
882.772	30214.19
883.148	28907.04
883.524	28792.63
883.901	28633.01
884.277	29061.23
884.653	28871.73
885.029	29704.79
885.405	32909.3
885.781	32670.89
886.157	31320.15
886.532	31698.67
886.908	31680.46
887.284	35233.26
887.659	36391.27
888.035	37512.78
888.411	38463.37
888.786	38959.42
889.161	40317.94
889.537	39569.47
889.912	40839
890.287	40809.95
890.662	41872.86
891.037	41103.26
891.412	38317.86
891.787	37925.19
892.162	36604.05
892.536	37469.24
892.911	36060.39
893.286	35294.9
893.66	33855.24
894.035	34703.07
894.409	37771.82
894.784	36231.07
895.158	36827.77
895.532	39011.81
895.906	40066.2
896.281	41003.75
896.655	40343.2
897.029	46100.63
897.402	48005.33
897.776	53437.93
898.15	53261.81
898.524	52674.77
898.898	53388.59
899.271	59774.01
899.645	51761.38
900.018	49710.93
900.392	51552
900.765	51972.54
901.138	48101.6
901.511	47363.84
901.884	43512.57
902.258	40146.38
902.631	41497.75
903.003	47759.19
903.376	43094.25
903.749	48324.06
904.122	51763.37
904.495	57006.25
904.867	57695.85
905.24	50096.51
905.612	46638.83
905.985	47694.57
906.357	49854.11
906.729	47600.13
907.102	40659.18
907.474	39082.35
907.846	39335.43
908.218	38800.92
908.59	34281.46
908.962	33176.38
909.334	35715.81
909.705	37531.55
910.077	36412.22
910.449	37906.87
910.82	38970.52
911.192	42890.49
911.563	44599.45
911.935	47716.41
912.306	47757.05
912.677	49313.07
913.048	48809.92
913.419	52934
913.79	53227.41
914.161	57091.12
914.532	54568.47
914.903	50120.2
915.274	47568.12
915.645	46844.36
916.015	41245.9
916.386	39333.64
916.756	41892.67
917.127	43234.04
917.497	38641.46
917.868	42047.15
918.238	39954.52
918.608	41101.46
918.978	41953.82
919.348	44457.29
919.718	45944.32
920.088	44260.63
920.458	46010.77
920.828	48375.24
921.198	45855.64
921.567	48987.79
921.937	37951.26
922.306	38329.58
922.676	41338.1
923.045	34510.71
923.415	32781.18
923.784	29854.07
924.153	30694.95
924.522	30660.02
924.891	28829.9
925.26	30875.02
925.629	30152.36
925.998	34691.91
926.367	33871.72
926.736	32260.47
927.104	38410.52
927.473	41294.25
927.842	49868.45
928.21	49380.2
928.578	51919.62
928.947	49108.63
929.315	49417.61
929.683	57988.8
930.051	58430.57
930.42	67865.46
930.788	58036.31
931.156	57623.17
931.523	54049.54
931.891	49964.13
932.259	48013.85
932.627	55653.51
932.994	78782.08
933.362	65127.27
933.729	56575.85
934.097	54138.96
934.464	45789.74
934.831	52830.31
935.199	52091.38
935.566	50503.09
935.933	51152.31
936.3	61978.66
936.667	48259.15
937.034	43542.01
937.401	43088.52
937.767	37167.91
938.134	33097.54
938.501	46731.29
938.867	49786.73
939.234	84182.18
939.6	71870.13
939.967	79325.36
940.333	53089.3
940.699	45207.57
941.065	36255.31
941.431	47528.46
941.798	45875.47
942.163	60260.73
942.529	37642.25
942.895	34690.55
943.261	22435.67
943.627	29452.92
943.992	25801.13
944.358	25852
944.723	25939.86
945.089	25291.84
945.454	23388.95
945.82	24939.71
946.185	23970.42
946.55	27780.5
946.915	24917.12
947.28	29231.66
947.645	25705.8
948.01	23714.03
948.375	24726.74
948.74	29629.56
949.104	34572.47
949.469	49903.69
949.834	88303.06
950.198	83694.28
950.562	50125.92
950.927	41765.37
951.291	50282.3
951.655	42820.24
952.02	40210.22
952.384	30398.48
952.748	26469.98
953.112	25829.96
953.476	22450.41
953.839	20726.18
954.203	20514.54
954.567	25662.57
954.931	40380.36
955.294	34501.15
955.658	34688.25
956.021	58983.38
956.385	99973.99
956.748	147477.06
957.111	228401.72
957.474	256198.4
957.837	288508.71
958.2	218099.44
958.563	78398.47
958.926	52991.89
959.289	80472.64
959.652	89931.32
960.015	67464.83
960.377	96789.13
960.74	110441.25
961.102	190722.7
961.465	204788.62
961.827	109830.01
962.189	210851.91
962.552	146167.84
962.914	117192.9
963.276	75996.11
963.638	62780.45
964	62185.94
964.362	42012.38
964.724	40601.03
965.085	28940.39
965.447	23752.38
965.809	27034.65
966.17	27046.89
966.532	29250.55
966.893	26847.24
967.255	24444.96
967.616	28856.91
967.977	23085.11
968.338	25222.45
968.699	20713.19
969.061	20706.54
969.421	20834.42
969.782	23395.2
970.143	19773.04
970.504	20490.4
970.865	23298.76
971.225	23823.83
971.586	23313.64
971.946	33261.59
972.307	28837.98
972.667	37729.43
973.027	38863.17
973.388	47086.01
973.748	31997.97
974.108	34809.59
974.468	47075.77
974.828	36262.23
975.188	27855.68
975.548	25550.64
975.907	21400.92
976.267	24007.91
976.627	20162.66
976.986	20904.12
977.346	19907.74
977.705	19151.6
978.064	17449.91
978.424	14523.89
978.783	15021.72
979.142	17147.42
979.501	16451.21
979.86	17421.19
980.219	16793.85
980.578	21654.48
980.937	24266.19
981.296	21637.5
981.654	22231.4
982.013	34610.31
982.371	44878.22
982.73	41900.3
983.088	47512.83
983.447	50667.96
983.805	72417.11
984.163	151405.71
984.521	168231.32
984.879	246290.78
985.237	-401191.24
985.595	387411.22
985.953	96202.24
986.311	55593.23
986.669	32293.41
987.026	27837.17
987.384	37422.93
987.741	38701.5
988.099	27674.89
988.456	22019.84
988.814	20630.6
989.171	17929.32
989.528	17683.89
989.885	18685.13
990.242	14809.74
990.599	18434.83
990.956	15074.37
991.313	10555.14
991.67	8669.42
992.027	9194.9
992.383	8181.35
992.74	7183.59
993.096	7539.01
993.453	7815.98
993.809	8104.98
994.165	10802.21
994.522	9913.4
994.878	10936.49
995.234	13711.1
995.59	13510.32
995.946	12787.99
996.302	14591.57
996.658	16867.86
997.013	18565.86
997.369	22047.48
997.725	28248.36
998.08	18296.57
998.436	28160.32
998.791	38837.94
999.147	38771.19
999.502	42329.1
999.857	30740.66
1000.212	50120.28
1000.567	71250.21
1000.922	41128.43
1001.277	26094.87
1001.632	19306.49
1001.987	24845.58
1002.342	17835.75
1002.696	14283.08
1003.051	11402.32
1003.406	13814.54
1003.76	13751.89
1004.114	13524.54
1004.469	11376.02
1004.823	9419.26
1005.177	10158.78
1005.531	8065.78
1005.885	7168.84
1006.239	8088.13
1006.593	10115.78
1006.947	13543.82
1007.301	10148.26
1007.655	11072.94
1008.008	8135.83
1008.362	9124.95
1008.715	13025.99
1009.069	11826.05
1009.422	17803.11
1009.776	35637.6
1010.129	23644.76
1010.482	19818.88
1010.835	16762.44
1011.188	34898.39
1011.541	32762.18
1011.894	-200681.08
1012.247	592849.45
1012.6	40330.27
1012.952	25509.12
1013.305	13163.21
1013.657	9494.19
1014.01	9009.89
1014.362	7422.81
1014.715	6609.8
1015.067	5761.95
1015.419	5639.8
1015.771	5002.45
1016.123	4446.69
1016.475	4568.12
1016.827	4869.36
1017.179	5234.35
1017.531	5280.24
1017.883	5392.27
1018.234	5226.21
1018.586	6594.35
1018.938	7000.18
1019.289	9683.71
1019.64	11078.99
1019.992	10309.86
1020.343	9451.16
1020.694	7472.15
1021.045	6610.15
1021.396	7529.2
1021.747	8066.89
1022.098	9629.41
1022.449	6973.34
1022.8	6447.66
1023.151	4492.05
1023.501	3986.95
1023.852	4342.46
1024.202	4496.18
1024.553	4927.01
1024.903	4816.01
1025.253	4127.86
1025.604	3713.23
1025.954	4621.84
1026.304	5644.69
1026.654	6593.22
1027.004	9651.49
1027.354	15566.01
1027.703	14656.92
1028.053	19337.15
1028.403	28335.25
1028.753	40972.74
1029.102	56011.14
1029.452	289495.19
1029.801	12535.64
1030.15	8080.97
1030.499	6858.91
897.758	3327.43
901.051	3314.9
904.343	3355.02
907.636	3345.29
910.928	3414.72
914.22	3313.59
917.511	3325.99
920.803	3417.37
924.094	3464.82
927.384	3413.03
930.675	3376.07
933.965	3316.5
937.255	3306.57
940.544	3270.23
943.834	3117.38
947.123	3077.67
950.411	3184.91
953.7	3146.94
956.988	3088.17
960.276	3036.34
963.563	3163.87
966.851	3140.92
970.138	3221.24
973.424	3198.82
976.711	3145.84
979.997	3411.06
983.283	3425.3
986.568	3292.67
989.853	3343.06
993.138	3375.83
996.423	3458.66
999.708	3369.42
1002.992	3493.39
1006.275	3210.48
1009.559	3319.51
1012.842	3463.8
1016.125	3364.37
1019.408	3342.43
1022.69	3475.85
1025.972	3476.91
1029.254	3443.87
1032.536	3334.15
1035.817	3376.73
1039.098	3276.24
1042.379	3555.92
1045.659	3505.24
1048.939	3412.54
1052.219	3458.97
1055.498	3487.65
1058.778	3453.78
1062.057	3446.25
1065.335	3465.49
1068.614	3498.93
1071.892	3462.42
1075.17	3567.06
1078.447	3540.73
1081.724	3524.98
1085.001	3580.77
1088.278	3543.44
1091.554	3567.11
1094.83	3566.29
1098.106	3591.22
1101.382	3655.91
1104.657	3658.74
1107.932	3657.53
1111.206	3600.01
1114.481	3557.55
1117.755	3569.52
1121.029	3526.86
1124.302	3577.24
1127.575	3505.73
1130.848	3480.57
1134.121	3432.37
1137.393	3362.79
1140.665	3445.07
1143.937	3424.57
1147.208	3319.84
1150.48	3347.91
1153.75	3328.72
1157.021	3402.99
1160.291	3354.97
1163.561	3397.6
1166.831	3419.4
1170.101	3456.66
1173.37	3436.45
1176.639	3354.08
1179.907	3429.91
1183.176	3493.32
1186.444	3497.86
1189.711	3530.41
1192.979	3529.02
1196.246	3490.48
1199.513	3511.42
1202.78	3508.29
1206.046	3512.19
1209.312	3556.89
1212.578	3593.28
1215.843	3519.83
1219.108	3499.38
1222.373	3524.35
1225.638	3467.24
1228.902	3444.5
1232.166	3401.86
1235.43	3378.18
1238.693	3390.93
1241.956	3394.53
1245.219	3424.38
1248.482	3430.73
1251.744	3420.01
1255.006	3610.95
1258.268	3572.29
1261.529	3500.44
1264.79	3516.67
1268.051	3650.42
1271.312	3674.59
1274.572	3628.01
1277.832	3622.4
1281.092	3625.66
1284.351	3569.36
1287.61	3538.84
1290.869	3421.74
1294.128	3372.89
1297.386	3517.32
1300.644	3500.88
1303.902	3516.07
1307.159	3350.38
1310.416	3412.14
1313.673	3429.13
1316.93	3395.8
1320.186	3470.61
1323.442	3527.19
1326.697	3500.77
1329.953	3515.1
1333.208	3525.23
1336.463	3506.8
1339.717	3431.77
1342.972	3519.99
1346.226	3527.24
1349.479	3435.54
1352.733	3389.67
1355.986	3428.74
1359.238	3399.21
1362.491	3399.02
1365.743	3400.77
1368.995	3403.48
1372.247	3420.21
1375.498	3431.99
1378.749	3503.87
1382	3438.19
1385.251	3516.46
1388.501	3487.59
1391.751	3456.31
1395	3432.59
1398.25	3473.82
1401.499	3469.39
1404.748	3377.18
1407.996	3280.72
1411.244	3276.99
1414.492	3250.33
1417.74	3223.05
1420.987	3243.24
1424.234	3294.2
1427.481	3296.56
1430.728	3355
1433.974	3326.94
1437.22	3356.92
1440.465	3360.24
1443.711	3370.19
1446.956	3406.74
1450.201	3416.55
1453.445	3461.96
1456.689	3424.14
1459.933	3444.4
1463.177	3471.73
1466.42	3442.17
1469.663	3421.32
1472.906	3389.42
1476.148	3537.74
1479.391	3408.98
1482.633	3395.95
1485.874	3394.03
1489.115	3358.2
1492.356	3388.5
1495.597	3354.77
1498.838	3370.32
1502.078	3312.61
1505.318	3229.23
1508.557	3290.68
1511.797	3200.79
1515.036	3389.62
1518.274	3370
1521.513	3354.95
1524.751	3389.35
1527.989	3394.95
1531.227	3400.74
1534.464	3369.67
1537.701	3425.43
1540.938	3456.43
1544.174	3409.72
1547.41	3423.69
1550.646	3463.67
1553.882	3487.86
1557.117	3542.32
1560.352	3570.18
1563.587	3517.99
1566.821	3465.18
1570.055	3528.13
1573.289	3485.23
1576.523	3589.06
1579.756	3585.51
1582.989	3604.98
1586.222	3559.71
1589.454	3611.88
1592.686	3575.9
1595.918	3593.79
1599.15	3572.43
1602.381	3689.04
1605.612	3608.23
1608.843	3714.91
1612.073	3609.27
1615.303	3590.8
1618.533	3565.44
1621.762	3579.92
1624.992	3580.85
1628.221	3544.06
1631.449	3526.49
1634.678	3621.07
1637.906	3561.46
1641.134	3618.8
1644.361	3560.69
1647.588	3544.06
1650.815	3552.75
1654.042	3549.02
1657.269	3585.28
1660.495	3534.08
1663.72	3463.14
1666.946	3459.57
1670.171	3355.48
1673.396	3328.43
1676.621	3330.24
1679.845	3382.6
1683.069	3424.02
1686.293	3490.11
1689.517	3435.3
1692.74	3326.86
1695.963	3346.09
1699.185	3457.71
1702.408	3397.19
1705.63	3457.02
1708.852	3464.24
1712.073	3430.52
1715.294	3393.63
1718.515	3411.86
1721.736	3356.15
1724.956	3311.13
1728.176	3350.09
1731.396	3364.36
1734.616	3365.93
1737.835	3371.31
1741.054	3368.36
1744.272	3366.29
1747.491	3377.1
1750.709	3469.69
1753.927	3372.94
1757.144	3428.12
1760.361	3513.48
1763.578	3520.91
1766.795	3450.5
1770.011	3468.53
1773.227	3535.97
1776.443	3564.28
1779.658	3610.55
1782.874	3553.16
1786.089	3513.07
1789.303	3518.44
1792.518	3531.77
1795.732	3521.13
1798.945	3523.6
1802.159	3585.16
1805.372	3439.67
1808.585	3407.38
1811.797	3411.83
1815.01	3495.81
1818.222	3503.21
1821.434	3360.38
1824.645	3479.53
1827.856	3433.1
1831.067	3484.49
1834.278	3395.61
1837.488	3388
1840.698	3578.67
1843.908	3473.52
1847.117	3429.6
1850.326	3246.57
1853.535	3391.02
1856.744	3534.57
1859.952	3397.64
1863.16	3396.69
1866.368	3417.31
1869.575	3589.5
1872.782	3459.59
1875.989	3401.12
1879.196	3536.82
1882.402	3530.11
1885.608	3581.21
1888.814	3435.92
1892.019	3303.14
1895.224	3360.25
1898.429	3355.32
1901.634	3325.54
1904.838	3306.35
1908.042	3348.82
1911.246	3346.72
1914.449	3232.75
1917.652	3249.5
1920.855	3236.42
1924.058	3314.36
1927.26	3342.4
1930.462	3378.72
1933.664	3395.92
1936.865	3320.42
1940.066	3314.49
1943.267	3263.29
1946.467	3292.74
1949.668	3333.27
1952.868	3399.84
1956.067	3355.68
1959.267	3274.47
1962.466	3310.19
1965.665	3298.53
1968.863	3293.12
1972.061	3334.72
1975.259	3338.97
1978.457	3430.02
1981.654	3378.48
1984.852	3375.39
1988.048	3278.36
1991.245	3302.17
1994.441	3391.99
1997.637	3407.58
2000.833	3390.19
2004.028	3435.38
2007.223	3474.72
2010.418	3438.5
2013.613	3405.43
2016.807	3341.21
2020.001	3369.2
2023.194	3447.12
2026.388	3405.69
2029.581	3354.88
2032.774	3386.3
2035.966	3382.07
2039.158	3291.98
2042.35	3331.65
2045.542	3254
2048.733	3391.31
2051.924	3452.21
2055.115	3497.76
2058.306	3404.87
2061.496	3478.38
2064.686	3562.46
2067.875	3482.16
2071.065	3516.36
2074.254	3554.05
2077.442	3501.07
2080.631	3607.28
2083.819	3435.69
2087.007	3402.66
2090.195	3351.91
2093.382	3417.08
2096.569	3389.7
2099.756	3323.63
2102.942	3323.93
2106.128	3312.11
2109.314	3314.91
2112.5	3246.39
2115.685	3229.82
2118.87	3244.91
2122.055	3320.9
2125.239	3265.76
2128.424	3215.5
2131.608	3384.61
2134.791	3365.57
2137.974	3454.39
2141.157	3434.44
2144.34	3354.72
2147.523	3367.78
2150.705	3362.58
2153.887	3359.95
2157.068	3276.34
2160.25	3305.08
2163.431	3372.07
2166.611	3278
2169.792	3292.03
2172.972	3156.27
2176.152	3279.56
2179.331	3325.79
2182.511	3314.88
2185.69	3351.2
2188.868	3334.84
2192.047	3420.79
2195.225	3381.22
2198.403	3321.99
2201.58	3326.72
2204.758	3326.15
2207.935	3428.07
2211.111	3272.89
2214.288	3251.96
2217.464	3301.95
2220.64	3289.55
2223.815	3353.31
2226.991	3257.76
2230.166	3283.99
2233.34	3298.53
2236.515	3336.37
2239.689	3433.11
2242.863	3361.05
2246.036	3424.98
2249.209	3450.02
2252.382	3502.65
2255.555	3470.54
2258.727	3386.58
2261.9	3438.15
2265.071	3429.93
2268.243	3438.9
2271.414	3348.94
2274.585	3274.49
2277.756	3355.92
2280.926	3309.39
2284.096	3363.01
2287.266	3236.04
2290.436	3307.38
2293.605	3351.79
2296.774	3373.42
2299.942	3415.58
2303.111	3438.7
2306.279	3480.75
2309.447	3470.27
2312.614	3453.24
2315.781	3467.36
2318.948	3422.86
2322.115	3468.44
2325.281	3361.71
2328.447	3397.4
2331.613	3378.04
2334.779	3324.7
2337.944	3337.38
2341.109	3331.15
2344.274	3304.55
2347.438	3259.76
2350.602	3295.41
2353.766	3318.6
2356.929	3299.21
2360.092	3345.22
2363.255	3271.7
2366.418	3158.51
2369.58	3340.35
2372.742	2997.35
2375.904	3036.11
2379.066	2995.73
2382.227	3048.4
2385.388	3007.53
2388.548	2903.89
2391.709	2980.83
2394.869	2952.08
2398.029	3109.77
2401.188	3147.04
2404.347	3039.35
2407.506	3271.59
2410.665	3296.28
2413.823	3326.39
2416.981	3252.22
2420.139	3302.65
2423.296	3367.85
2426.453	3341.89
2429.61	3367.67
2432.767	3255.49
2435.923	3311.75
2439.079	3176.63
2442.235	3272.2
2445.391	3172.14
2448.546	3181
2451.701	3258.93
2454.855	3194.83
2458.009	3281.42
2461.163	3298.7
2464.317	3238.72
2467.471	3281.93
2470.624	3320.38
2473.777	3384.79
2476.929	3370.57
2480.082	3400.27
2483.234	3367.97
2486.385	3223.73
2489.537	3228.09
2492.688	3149.99
2495.839	3167.11
2498.989	3172.36
2502.14	3150.72
2505.29	3118.77
2508.439	3150.56
2511.589	3047.53
2514.738	3077.15
2517.887	3107.57
2521.035	3276.25
2524.183	3268.27
2527.331	3234.2
2530.479	3184.58
2533.627	3206.51
