Data from C_3_DIV_PA_2N_Splice17_13-15-48-812.txt Node
Date: Sat Mar 14 13:15:48 EDT 2020
User: sa697716
Spectrometer: FLMS03696
Trigger mode: 0
Integration Time (sec): 3.180400E-1
Scans to average: 20
Electric dark correction enabled: true
Nonlinearity correction enabled: true
Boxcar width: 5
XAxis mode: Wavelengths
Number of Pixels in Spectrum: 2048
>>>>>Begin Spectral Data<<<<<
187.83	-271569.15
188.298	2162.24
188.766	1154.99
189.233	1060.21
189.701	1447.22
190.169	2055.04
190.636	794.72
191.104	702.27
191.571	113.1
192.039	-32.56
192.506	-16.79
192.974	565.37
193.441	-854.17
193.908	-203.53
194.375	-37.24
194.842	13.61
195.31	105.7
195.777	180.68
196.244	342.94
196.711	243.02
197.177	282.82
197.644	321.83
198.111	516.19
198.578	716.78
199.045	561.21
199.511	870.5
199.978	941.08
200.445	841.16
200.911	917.13
201.378	976.45
201.844	935.56
202.31	1552.85
202.777	1623.7
203.243	910.13
203.709	877.49
204.176	1035.65
204.642	869.42
205.108	830.84
205.574	637.87
206.04	534.73
206.506	501.01
206.972	444.74
207.438	435.11
207.903	499.31
208.369	451.48
208.835	448.47
209.301	470.29
209.766	463.72
210.232	458.39
210.697	568.94
211.163	719.04
211.628	1055.48
212.094	935.69
212.559	1257.11
213.024	801.37
213.49	1008.3
213.955	987.48
214.42	935.85
214.885	909.69
215.35	897.5
215.815	951.6
216.28	1022.06
216.745	833.16
217.21	933.94
217.675	829.17
218.14	949.59
218.604	1043.36
219.069	1227.31
219.534	1366.83
219.998	1593.58
220.463	1946.08
220.927	2364.13
221.392	2264.54
221.856	2353.31
222.32	2953.53
222.785	3692.18
223.249	4690.4
223.713	5310.57
224.177	5350.24
224.642	6822.22
225.106	8460.32
225.57	9323.2
226.034	7042.65
226.497	10800.93
226.961	9862.28
227.425	11609.88
227.889	12950.44
228.353	13000.97
228.816	26948.71
229.28	26006.07
229.744	22091.6
230.207	13565.75
230.671	13438.76
231.134	22295.49
231.597	25928.19
232.061	26016.71
232.524	25499.32
232.987	17696.59
233.45	16080.76
233.914	14544.65
234.377	14962.32
234.84	13773.84
235.303	16302.6
235.766	18295.53
236.229	18989.73
236.691	12014.4
237.154	13549.99
237.617	10240.84
238.08	10512.87
238.542	12329.39
239.005	8847.19
239.468	8817.75
239.93	8332.63
240.393	7596.01
240.855	6684.05
241.317	6843.41
241.78	8316.46
242.242	8642.7
242.704	9381.25
243.166	8209.97
243.629	7505.27
244.091	8688.8
244.553	9583.7
245.015	10367.02
245.477	13462.11
245.939	19808.4
246.4	21155.08
246.862	20662.8
247.324	19553.11
247.786	21953.16
248.247	28852.05
248.709	29826.7
249.17	22411.74
249.632	21241.92
250.093	24805.37
250.555	21531.14
251.016	13217.36
251.477	12586.28
251.939	13673.12
252.4	14394.61
252.861	17169.11
253.322	16064.19
253.783	19179.07
254.244	24950.17
254.705	19689.36
255.166	17542.58
255.627	17328.2
256.088	24510.64
256.549	26147.53
257.009	22552.22
257.47	27425.03
257.931	22415.75
258.391	16851.02
258.852	17436
259.312	18331.69
259.773	22742.45
260.233	19315.49
260.694	16379.04
261.154	18668.17
261.614	15108.36
262.074	13586.53
262.534	14231.2
262.994	13502.63
263.455	18084.55
263.915	15357.65
264.374	14579.32
264.834	16000.25
265.294	17797.13
265.754	18551.87
266.214	17653.03
266.673	16609.52
267.133	21074.12
267.593	20993.39
268.052	25836.04
268.512	22577.47
268.971	27334.93
269.431	30086.35
269.89	27064.55
270.349	40850.11
270.809	45738.9
271.268	41298.78
271.727	92977.73
272.186	60504.06
272.645	45589.74
273.104	32955.16
273.563	47896.15
274.022	37837.83
274.481	32344.06
274.94	25061.26
275.399	18674.43
275.857	21825.71
276.316	29630.51
276.775	26454.79
277.233	26126.8
277.692	24541.46
278.15	27896.83
278.609	28825.3
279.067	26757.38
279.525	24946.12
279.984	32279.41
280.442	38852.97
280.9	38433.74
281.358	25368.36
281.816	23693.08
282.274	23278.19
282.732	24105.32
283.19	24275.12
283.648	20984.49
284.106	22389.74
284.564	22754.4
285.021	21145.46
285.479	15785.29
285.937	14358.48
286.394	12616.22
286.852	13015.03
287.309	13715.53
287.767	13299.31
288.224	12691.34
288.682	13973.33
289.139	15422.45
289.596	14218.92
290.053	14842.29
290.511	18868.44
290.968	23048.69
291.425	31510.37
291.882	26409.4
292.339	23108.73
292.796	23047.05
293.252	21809.4
293.709	17422.68
294.166	15671.38
294.623	17364.18
295.079	16715.42
295.536	16838.29
295.992	15317.21
296.449	15163.67
296.905	15786.78
297.362	15199.33
297.818	16012.58
298.274	16653.21
298.731	17007.17
299.187	16861.61
299.643	18151.46
300.099	22020.71
300.555	24199.07
301.011	20251.65
301.467	19592.01
301.923	22974.9
302.379	22455.91
302.835	22109.25
303.291	22192.71
303.746	25269.97
304.202	31962.39
304.658	32140.59
305.113	21677.67
305.569	21282.75
306.024	22732.84
306.479	21652.93
306.935	18288.51
307.39	19984.78
307.845	18486.25
308.301	18615.5
308.756	18182.25
309.211	17562.79
309.666	17995.39
310.121	22337.67
310.576	22672
311.031	22527.24
311.486	25845.72
311.94	25835.1
312.395	34557.18
312.85	64933.89
313.305	319113.82
313.759	1656018.56
314.214	120128.56
314.668	95545.98
315.123	80558.06
315.577	29021.31
316.032	25882.95
316.486	32486.65
316.94	25713.22
317.394	17977.65
317.849	14026.29
318.303	13331.67
318.757	12627.63
319.211	14029.42
319.665	12325.05
320.119	12528.19
320.572	18007.29
321.026	16890.43
321.48	14110.64
321.934	15446.66
322.387	15508.21
322.841	16793.89
323.295	15154.69
323.748	17479.98
324.202	17746.27
324.655	21374.01
325.108	29894.08
325.562	21167.59
326.015	25174.08
326.468	19079.12
326.921	21385.54
327.374	19989.98
327.827	20872.78
328.28	23650.87
328.733	15879.53
329.186	13983.47
329.639	13333.24
330.092	11259.84
330.545	10741.24
330.997	10858.7
331.45	11875.9
331.903	13917.6
332.355	24020.35
332.808	23352.78
333.26	19268.74
333.713	20951.17
334.165	21107.46
334.617	28217.51
335.069	22787.58
335.522	41203.55
335.974	45671.09
336.426	41741.36
336.878	28971.73
337.33	14680.79
337.782	14337.56
338.234	18000.62
338.686	21540.4
339.137	25613.19
339.589	24140.08
340.041	18988.22
340.493	16368.94
340.944	16798.94
341.396	18145.09
341.847	15306.69
342.299	18137.96
342.75	22252.49
343.201	19526.81
343.653	22517.99
344.104	27774.6
344.555	21958.95
345.006	34306.26
345.457	26392.48
345.908	21059.96
346.359	19873.92
346.81	16225.31
347.261	17141.33
347.712	16907.98
348.163	18157.72
348.613	18471.9
349.064	17282.62
349.515	15135.91
349.965	15526.96
350.416	18723.52
350.866	20576.3
351.317	23331.75
351.767	38700.75
352.217	48911.95
352.668	40680.02
353.118	37323.37
353.568	35966.53
354.018	28443.57
354.468	30056.85
354.918	21594.14
355.368	18888.46
355.818	26714.15
356.268	76784.73
356.718	321740.12
357.168	80259.88
357.617	40288.25
358.067	44838.43
358.517	42089.95
358.966	49494.72
359.416	55659.58
359.865	60294.11
360.315	71948.08
360.764	33647.77
361.213	18907.41
361.663	17966.26
362.112	22229.1
362.561	36015.03
363.01	27252.11
363.459	23006.02
363.908	24959.48
364.357	21239.03
364.806	35963.52
365.255	24791.12
365.703	22789.23
366.152	22877.97
366.601	18572.08
367.05	15102.16
367.498	13724.29
367.947	14396.25
368.395	14999.22
368.844	13320.1
369.292	16095.75
369.74	11140.13
370.189	17131.85
370.637	20121.22
371.085	17395.29
371.533	21272.88
371.981	20556.94
372.429	19662.95
372.877	20519.41
373.325	17213.83
373.773	17558.11
374.221	15686.49
374.669	19509.19
375.116	16924.38
375.564	17095.74
376.012	19184.37
376.459	15841.26
376.907	18973.35
377.354	23021.85
377.801	21505.32
378.249	24752.52
378.696	31710.78
379.143	38452.29
379.591	41114.46
380.038	69583.17
380.485	50358.71
380.932	54501.52
381.379	50011.13
381.826	36889.18
382.273	26270.34
382.72	23027.44
383.166	22527
383.613	14658.68
384.06	13240.21
384.506	15352.16
384.953	11289.17
385.4	11393.83
385.846	9982.38
386.292	9738.06
386.739	9536.97
387.185	9435.52
387.631	9439.99
388.078	9144.01
388.524	9784.3
388.97	9027.71
389.416	7519.9
389.862	7996.53
390.308	7568.42
390.754	7680.54
391.2	8321.65
391.645	8506.55
392.091	8121.48
392.537	7820.43
392.983	7813.64
393.428	7662.48
393.874	8209.7
394.319	8222.64
394.765	7783.41
395.21	7987.65
395.655	7483.73
396.101	6989.47
396.546	6298.92
396.991	6335.96
397.436	5879.98
397.881	5677.67
398.326	5363.66
398.771	5052.87
399.216	4407.59
399.661	3946.38
400.106	3921.88
400.551	3995.69
400.995	3578.09
401.44	3534.45
401.885	3328.13
402.329	3367.29
402.774	3228.63
403.218	3121
403.663	3005.13
404.107	3080.11
404.551	3108.28
404.995	2843.54
405.44	2740.66
405.884	2783.1
406.328	2685.52
406.772	2666.68
407.216	2420
407.66	2334.4
408.104	2213.38
408.547	2065.05
408.991	1997.24
409.435	1918.13
409.879	1890.51
410.322	1863.88
410.766	1793.61
411.209	1704.03
411.653	1632.82
412.096	1592.57
412.54	1588.85
412.983	1571.85
413.426	1576.4
413.869	1572.43
414.312	1538.66
414.756	1479.55
415.199	1406.54
415.642	1363.99
416.085	1363.68
416.527	1352.46
416.97	1376.34
417.413	1305.45
417.856	1295.97
418.298	1284.07
418.741	1276.59
419.184	1275.43
419.626	1327.65
420.069	1332.45
420.511	1341.13
420.953	1314.21
421.396	1303.27
421.838	1267.66
422.28	1296.38
422.722	1302.22
423.164	1318.49
423.606	1296.88
424.048	1294.29
424.49	1233.83
424.932	1225.02
425.374	1206.94
425.816	1229.5
426.258	1254.21
426.699	1273.56
427.141	1259.92
427.582	1281.33
428.024	1274.71
428.465	1264.26
428.907	1230.93
429.348	1211.47
429.789	1208
430.231	1182.57
430.672	1195.4
431.113	1165.25
431.554	1144.11
431.995	1108.12
432.436	1065.36
432.877	1038.64
433.318	1021.55
433.759	1013.31
434.2	1011.43
434.64	999.46
435.081	997.64
435.522	941.21
435.962	904.62
436.403	879.97
436.843	889.63
437.284	868
437.724	843.6
438.164	840.84
438.604	823.65
439.045	790.83
439.485	757.4
439.925	740.38
440.365	720.36
440.805	708.61
441.245	700.25
441.685	674.32
442.125	666.53
442.564	668.97
443.004	653.69
443.444	649.41
443.883	648.36
444.323	640.91
444.762	638.73
445.202	645.41
445.641	655.32
446.081	649.61
446.52	652.27
446.959	644.07
447.398	626.64
447.837	617.32
448.276	603.82
448.716	606.48
449.154	610.48
449.593	595.63
450.032	592.4
450.471	577.72
450.91	574.7
451.349	571.74
451.787	567.41
452.226	574.72
452.664	572.87
453.103	573.59
453.541	572.8
453.98	573.86
454.418	578
454.856	567.7
455.295	568.61
455.733	574.46
456.171	577.2
456.609	578.29
457.047	578.5
457.485	587.5
457.923	589.48
458.361	581.46
458.798	579.89
459.236	578.24
459.674	581.51
460.111	583.08
460.549	577.02
460.987	574.9
461.424	573.31
461.862	569.35
462.299	559.51
462.736	557.29
463.173	559.04
463.611	555.24
464.048	552.41
464.485	557.22
464.922	551.33
465.359	548.09
465.796	543.83
466.233	539.41
466.67	536.16
467.106	536.3
467.543	530.62
467.98	524.46
468.416	509.68
468.853	505.62
469.29	491.18
469.726	487.97
470.162	475.54
470.599	467.13
471.035	462.98
471.471	451.54
471.907	447.9
472.344	446.32
472.78	448.31
473.216	454.66
473.652	450.55
474.088	449.43
474.523	448.65
474.959	453.7
475.395	450.24
475.831	449.22
476.266	453
476.702	452.28
477.138	447.32
477.573	446.19
478.008	444.86
478.444	448.93
478.879	455
479.314	457.22
479.75	457.55
480.185	460.9
480.62	464.68
481.055	467.06
481.49	472.34
481.925	480.64
482.36	491.47
482.795	505.3
483.229	518.54
483.664	529.37
484.099	531.66
484.534	540.59
484.968	546.28
485.403	549.04
485.837	548.13
486.271	546.16
486.706	546.04
487.14	537.23
487.574	528.92
488.009	523.47
488.443	518.57
488.877	522.93
489.311	522.97
489.745	527.53
490.179	530.62
490.613	540.31
491.046	542.75
491.48	544.44
491.914	543.82
492.348	545.61
492.781	546.6
493.215	544.82
493.648	542.69
494.082	544.37
494.515	541.37
494.948	544.7
495.382	544.42
495.815	545.22
496.248	546.86
496.681	553.59
497.114	557.79
497.547	560.99
497.98	566.92
498.413	568.05
498.846	570.1
499.279	571.06
499.711	568.15
500.144	563.42
500.577	565.77
501.009	567.23
501.442	566.49
501.874	561.48
502.306	556.62
502.739	556.84
503.171	559.42
503.603	554.63
504.036	555.02
504.468	551.75
504.9	552.14
505.332	548.29
505.764	543.49
506.196	540.94
506.627	542.18
507.059	542.22
507.491	536.53
507.923	527.96
508.354	527.89
508.786	525.24
509.217	526.85
509.649	526.71
510.08	528.06
510.512	529.03
510.943	527.87
511.374	524.98
511.805	525.75
512.237	526.72
512.668	532.31
513.099	536.1
513.53	539.08
513.961	539.3
514.391	543.59
514.822	549.78
515.253	555.84
515.684	557.52
516.114	560.65
516.545	561.95
516.975	563.54
517.406	561.87
517.836	554.35
518.267	550.1
518.697	550.13
519.127	544.82
519.558	539.37
519.988	532.56
520.418	528.8
520.848	527.64
521.278	522.97
521.708	552.52
522.138	552.58
522.567	557.75
522.997	559.99
523.427	559.08
523.857	560.12
524.286	558.14
524.716	559.33
525.145	562.16
525.575	562.33
526.004	562.77
526.433	526.89
526.863	521.59
527.292	516.38
527.721	516.07
528.15	514.55
528.579	511.72
529.008	513.2
529.437	516.7
529.866	517.7
530.295	520.24
530.724	523.52
531.152	529.93
531.581	534.13
532.01	537.43
532.438	537.21
532.867	540.52
533.295	545.39
533.723	545.79
534.152	544.55
534.58	544.45
535.008	540.2
535.436	541.21
535.865	542.4
536.293	545.59
536.721	550.19
537.149	558.36
537.576	559.71
538.004	563.78
538.432	565.71
538.86	566.26
539.287	569.03
539.715	572.99
540.143	572.96
540.57	572.74
540.998	571.7
541.425	566.84
541.852	561.12
542.28	561.32
542.707	556.31
543.134	553.79
543.561	553.22
543.988	551.18
544.415	551.53
544.842	550.27
545.269	549.44
545.696	552.12
546.123	556.48
546.549	554.21
546.976	551.9
547.403	552.76
547.829	553.52
548.256	554.88
548.682	555.64
549.108	555.75
549.535	556.86
549.961	558.22
550.387	554.8
550.813	554.82
551.24	558.08
551.666	558.78
552.092	557.42
552.518	557.13
552.943	556.92
553.369	560.18
553.795	562.83
554.221	564.57
554.646	565.45
555.072	571.66
555.498	572.75
555.923	576.76
556.349	583.47
556.774	587.94
557.199	589.97
557.625	593.64
558.05	594.55
558.475	600.08
558.9	602.13
559.325	602.21
559.75	602.16
560.175	603.22
560.6	604.34
561.025	605.8
561.449	608.33
561.874	613.64
562.299	618.45
562.723	623.14
563.148	621.87
563.572	626.15
563.997	632.07
564.421	635.96
564.846	639.38
565.27	643.69
565.694	647.04
566.118	655.98
566.542	663
566.966	664.4
567.39	666.06
567.814	666.33
568.238	670.01
568.662	675.74
569.086	681.57
569.509	688.52
569.933	688.43
570.357	689.64
570.78	685.95
571.204	686.52
571.627	686.72
572.05	691.2
572.474	696.8
572.897	697.23
573.32	699.74
573.743	699.51
574.166	696.74
574.589	699.49
575.012	700.67
575.435	704.34
575.858	703.87
576.281	704.17
576.704	701.53
577.126	699.65
577.549	698.2
577.972	697.43
578.394	698.01
578.817	700.84
579.239	696.88
579.661	695.95
580.084	693.82
580.506	691.24
580.928	692.21
581.35	690.75
581.772	692.46
582.194	690.6
582.616	687.78
583.038	683.1
583.46	680.4
583.882	682.56
584.303	686.03
584.725	685.73
585.147	692.97
585.568	701.25
585.99	708.6
586.411	714.03
586.833	722.05
587.254	724.54
587.675	733.35
588.096	739.57
588.518	737.9
588.939	731.96
589.36	732.71
589.781	724.95
590.202	714.97
590.623	713.04
591.043	712.35
591.464	707.89
591.885	708.9
592.305	707.58
592.726	703.32
593.147	706.31
593.567	704.65
593.987	701.55
594.408	700.61
594.828	698.47
595.248	696.76
595.669	690.29
596.089	687.76
596.509	684.51
596.929	679.03
597.349	679.99
597.769	675.01
598.189	672.92
598.608	674.96
599.028	676.16
599.448	676.23
599.867	669.83
600.287	666.78
600.706	667.23
601.126	664.06
601.545	664.67
601.965	665.11
602.384	663.64
602.803	666.38
603.222	665.01
603.641	663.33
604.061	664.03
604.48	663.93
604.898	671.11
605.317	674.25
605.736	676.38
606.155	677.43
606.574	674.51
606.992	679.61
607.411	679.16
607.829	676.58
608.248	677.19
608.666	677.77
609.085	681.26
609.503	678.62
609.921	678.59
610.339	682.66
610.758	684.79
611.176	685.1
611.594	683.32
612.012	683.56
612.43	689.2
612.847	695.26
613.265	699.11
613.683	703.39
614.101	706.86
614.518	706.52
614.936	703.72
615.353	698.98
615.771	700.24
616.188	702.85
616.606	704.62
617.023	703.68
617.44	698.43
617.857	696.15
618.274	693.16
618.691	693.01
619.108	690.3
619.525	689.61
619.942	695.37
620.359	698.83
620.776	697.75
621.192	697.81
621.609	697.8
622.026	703.57
622.442	708.99
622.859	712.78
623.275	708.96
623.691	712.96
624.108	721.05
624.524	730.14
624.94	731.35
625.356	737.65
625.772	746.01
626.188	753.08
626.604	754.58
627.02	752.63
627.436	751.34
627.852	757.22
628.268	765.75
628.683	760.22
629.099	754.96
629.514	752.47
629.93	755.84
630.345	759.06
630.761	757.59
631.176	760.92
631.591	760.87
632.007	760.32
632.422	760.69
632.837	755.73
633.252	757.9
633.667	755.62
634.082	753.73
634.497	750.08
634.911	742.27
635.326	745.05
635.741	739.25
636.155	736.4
636.57	742.34
636.984	747.78
637.399	756.15
637.813	760.64
638.228	765.75
638.642	774.96
639.056	775.67
639.47	784.29
639.884	785.57
640.298	789.07
640.712	797.63
641.126	797.65
641.54	799.19
641.954	802.18
642.368	803.47
642.781	809.01
643.195	805.84
643.609	815.95
644.022	819.74
644.436	826.74
644.849	827.32
645.262	826.48
645.676	837.84
646.089	843.55
646.502	841.74
646.915	845.34
647.328	838.75
647.741	844.91
648.154	841.14
648.567	846.95
648.98	842.16
649.393	847.75
649.805	850.69
650.218	848.22
650.631	839.73
651.043	839.13
651.456	838.34
651.868	842.47
652.28	860.13
652.693	874.66
653.105	882.23
653.517	893.59
653.929	898.3
654.341	906.73
654.753	900.59
655.165	910.41
655.577	911.86
655.989	912.92
656.401	910.91
656.813	885.42
657.224	874.15
657.636	854.84
658.047	845.12
658.459	832.86
658.87	830.64
659.282	825.84
659.693	813.37
660.104	806.31
660.515	800.29
660.926	804.09
661.338	806.32
661.749	805.09
662.159	802.15
662.57	803.33
662.981	805.18
663.392	803.7
663.803	813.42
664.213	815.59
664.624	816.43
665.035	824.62
665.445	816.29
665.855	813.64
666.266	809.97
666.676	809.7
667.086	803.79
667.497	805.39
667.907	801.22
668.317	793.61
668.727	792.96
669.137	796.02
669.547	793.46
669.956	796.86
670.366	798.85
670.776	801.14
671.186	805.41
671.595	808.32
672.005	811.5
672.414	810.18
672.824	807.7
673.233	810.4
673.642	809.89
674.052	811.5
674.461	811.68
674.87	814.59
675.279	809.95
675.688	809.94
676.097	809.47
676.506	803.31
676.915	815.5
677.323	814.63
677.732	808.54
678.141	805.81
678.549	791.94
678.958	787.36
679.366	783.84
679.775	784.33
680.183	789.81
680.592	790.8
681	792.05
681.408	779.56
681.816	780.99
682.224	784.14
682.632	786.22
683.04	806.75
683.448	821.1
683.856	838.61
684.264	859.27
684.671	876.28
685.079	898.74
685.487	921.98
685.894	959.77
686.302	983.11
686.709	996.69
687.116	1013.8
687.524	1021.61
687.931	1023.66
688.338	1021.68
688.745	1012.58
689.152	1005.54
689.559	1005.4
689.966	1004.17
690.373	985.81
690.78	981.96
691.187	989.73
691.593	987.57
692	979.28
692.407	982.38
692.813	992.91
693.22	995.01
693.626	997.79
694.032	993.45
694.439	1001.42
694.845	1000.81
695.251	1007.77
695.657	1011.01
696.063	1027.01
696.469	1034.45
696.875	1039.75
697.281	1031.69
697.687	1027.96
698.093	1022.14
698.498	1030.8
698.904	1031.36
699.31	1046.25
699.715	1054.05
700.12	1069.83
700.526	1060.15
700.931	1067.94
701.337	1070.15
701.742	1066.02
702.147	1079.88
702.552	1075.39
702.957	1081.38
703.362	1076.96
703.767	1074.13
704.172	1072.23
704.577	1046.56
704.981	1050.95
705.386	1045.83
705.791	1033.95
706.195	1046.85
706.6	1039.92
707.004	1053.47
707.408	1034.58
707.813	1034.51
708.217	1023.4
708.621	1016.54
709.025	1036.3
709.43	1030.52
709.834	1040.75
710.237	1052.98
710.641	1040.92
711.045	1042.15
711.449	1035.6
711.853	1042.33
712.256	1045.7
712.66	1048.38
713.064	1061.18
713.467	1067.62
713.87	1089.62
714.274	1096.28
714.677	1117.82
715.08	1151.49
715.484	1187.37
715.887	1235.21
716.29	1272.02
716.693	1318.22
717.096	1370.01
717.499	1396.95
717.901	1394.02
718.304	1395.62
718.707	1393.75
719.109	1364.62
719.512	1355.07
719.915	1322.44
720.317	1303.68
720.719	1311.8
721.122	1300.91
721.524	1287.44
721.926	1278.92
722.328	1300.2
722.731	1291.84
723.133	1295.63
723.535	1337.78
723.937	1338.87
724.338	1343.62
724.74	1350.02
725.142	1387.61
725.544	1388.78
725.945	1405.5
726.347	1397.09
726.748	1393.97
727.15	1395.79
727.551	1389.14
727.952	1380.04
728.354	1370.53
728.755	1369.88
729.156	1357.13
729.557	1298.98
729.958	1264.74
730.359	1238.47
730.76	1235.37
731.161	1222.51
731.562	1216.95
731.962	1212.69
732.363	1197.94
732.763	1183.02
733.164	1188.41
733.564	1171.97
733.965	1151.4
734.365	1143.05
734.766	1149.12
735.166	1138.86
735.566	1126.13
735.966	1121.15
736.366	1120.79
736.766	1106.93
737.166	1113.98
737.566	1106.12
737.966	1100.36
738.365	1109.13
738.765	1109.94
739.165	1091.62
739.564	1083.93
739.964	1092.23
740.363	1079.78
740.763	1077.59
741.162	1075.72
741.561	1067
741.96	1056.72
742.36	1061.04
742.759	1062.62
743.158	1069.34
743.557	1072.78
743.955	1082.44
744.354	1071.35
744.753	1084.31
745.152	1076.56
745.55	1086.14
745.949	1086.54
746.348	1086.22
746.746	1089.77
747.144	1083.01
747.543	1078.24
747.941	1090.15
748.339	1075.37
748.737	1075.52
749.136	1075.28
749.534	1088.94
749.932	1085.89
750.33	1090.21
750.727	1102.14
751.125	1098.4
751.523	1092.5
751.921	1106.49
752.318	1099.37
752.716	1114.91
753.113	1116.99
753.511	1122.04
753.908	1124.21
754.305	1125.86
754.703	1142.78
755.1	1158.87
755.497	1172.24
755.894	1215.26
756.291	1250.75
756.688	1323.61
757.085	1413.91
757.482	1546.15
757.878	1689.92
758.275	1813.87
758.672	1975.44
759.068	2107.76
759.465	2306.23
759.861	2560.9
760.258	2857
760.654	3006.39
761.05	2972.66
761.447	2834.67
761.843	2647.8
762.239	2451.42
762.635	2366.69
763.031	2287.96
763.427	2174.76
763.822	2049.26
764.218	1927.34
764.614	1761.1
765.01	1652.44
765.405	1584.02
765.801	1538.47
766.196	1471.2
766.592	1435.92
766.987	1372.83
767.382	1331.01
767.778	1314.82
768.173	1288.63
768.568	1276.64
768.963	1252.26
769.358	1260.9
769.753	1255.67
770.148	1238.87
770.542	1239.79
770.937	1233.29
771.332	1256.17
771.726	1261.15
772.121	1251.65
772.515	1266.26
772.91	1263.67
773.304	1282.93
773.699	1267.09
774.093	1277.36
774.487	1289.79
774.881	1298.82
775.275	1298.26
775.669	1288.9
776.063	1300.22
776.457	1306.19
776.851	1289.1
777.245	1287.54
777.638	1294.67
778.032	1321.06
778.425	1315.5
778.819	1329.24
779.212	1325.76
779.606	1318.51
779.999	1321.34
780.392	1318.5
780.786	1336.56
781.179	1341.22
781.572	1351.29
781.965	1354.56
782.358	1342.59
782.751	1354.86
783.143	1339.76
783.536	1352.92
783.929	1362.61
784.322	1391.24
784.714	1396.22
785.107	1396.06
785.499	1413.31
785.891	1408.38
786.284	1401.31
786.676	1432.39
787.068	1428.49
787.46	1439.71
787.852	1441.91
788.245	1458.89
788.636	1463.16
789.028	1480.69
789.42	1490.04
789.812	1493.62
790.204	1513.24
790.595	1541.8
790.987	1495.03
791.378	1498.1
791.77	1526.94
792.161	1555.25
792.553	1569.7
792.944	1543.71
793.335	1524.59
793.726	1538.9
794.117	1558.36
794.508	1588.02
794.899	1576.07
795.29	1607.44
795.681	1621.51
796.072	1589.18
796.463	1572.59
796.853	1577.76
797.244	1615.16
797.634	1624.75
798.025	1624.17
798.415	1623.39
798.806	1648.07
799.196	1669.5
799.586	1686.19
799.976	1676.65
800.366	1728.32
800.756	1756.2
801.146	1744.06
801.536	1749.53
801.926	1763.64
802.316	1771.99
802.706	1787.64
803.095	1759.01
803.485	1781.03
803.874	1786.89
804.264	1845.25
804.653	1841.81
805.043	1881.53
805.432	1907.83
805.821	1908.44
806.21	1916.69
806.599	1939.57
806.988	1952.86
807.377	1970.67
807.766	1997.96
808.155	2060.26
808.544	1996.19
808.933	1994.85
809.321	1988.5
809.71	2051.19
810.098	2084.57
810.487	2181.52
810.875	2284.69
811.264	2279.91
811.652	2354.32
812.04	2379.16
812.428	2412.08
812.816	2576.1
813.204	2665.17
813.592	2772.23
813.98	2838.48
814.368	2815.32
814.756	2921.31
815.144	2902.21
815.531	3008.42
815.919	2977.46
816.306	3048.01
816.694	2976.65
817.081	2994.06
817.469	3076.34
817.856	3077.89
818.243	3137.49
818.63	3220.76
819.017	3128.25
819.404	3145.61
819.791	3222.36
820.178	3350.1
820.565	3402.88
820.952	3617.45
821.339	3503.15
821.725	3534.24
822.112	3375.32
822.498	3370.59
822.885	3396.36
823.271	3371.05
823.657	3453.19
824.044	3462.81
824.43	3484.51
824.816	3487.76
825.202	3385.57
825.588	3609.5
825.974	3615.75
826.36	3721.97
826.746	3719.86
827.132	3793.42
827.517	3788.02
827.903	3614.27
828.289	3616.28
828.674	3439.56
829.06	3404.19
829.445	3484.14
829.83	3559.53
830.216	3654.97
830.601	3734.74
830.986	3655.61
831.371	3626.83
831.756	3748.5
832.141	3663.8
832.526	3662.62
832.911	3730.68
833.295	3703.96
833.68	3809.78
834.065	3675.62
834.449	3475.46
834.834	3461.24
835.218	3455.67
835.603	3530.76
835.987	3478.21
836.371	3652.75
836.755	3627.24
837.139	3704.31
837.524	3755
837.908	3707.55
838.291	3719.97
838.675	3730.46
839.059	3771.32
839.443	3760.63
839.827	3701.37
840.21	3804.8
840.594	3772.52
840.977	3814.56
841.361	3804.3
841.744	3879.28
842.127	3844.86
842.511	3889.12
842.894	4015.43
843.277	4090.95
843.66	4199.42
844.043	4218.9
844.426	4044.82
844.809	3969.76
845.191	3975.98
845.574	3877.75
845.957	3799.68
846.339	3780.56
846.722	3665.65
847.104	3677.48
847.487	3632.7
847.869	3636.88
848.252	3692.71
848.634	3761.5
849.016	3817.29
849.398	3837.62
849.78	4015.28
850.162	4014.72
850.544	4092.66
850.926	4218.34
851.307	4197.75
851.689	4260.87
852.071	4347.1
852.452	4416.62
852.834	4404.71
853.215	4494.46
853.597	4528.3
853.978	4594.94
854.359	4691.02
854.741	4486.72
855.122	4467.55
855.503	4406.35
855.884	4436.69
856.265	4433.85
856.646	4453.26
857.026	4376.6
857.407	4356.89
857.788	4386.18
858.169	4440.24
858.549	4268.14
858.93	4394.98
859.31	4409.73
859.69	4458.32
860.071	4366.74
860.451	4316.75
860.831	4163.31
861.211	4399.25
861.591	4505.66
861.971	4497.12
862.351	4541.16
862.731	4609.15
863.111	4665.65
863.491	4735.37
863.87	4909.19
864.25	4978.23
864.629	4902.76
865.009	5006.15
865.388	5183.45
865.768	5560.45
866.147	5541.45
866.526	5230.45
866.905	5296.62
867.284	5583.77
867.663	5292.06
868.042	5072.94
868.421	5059.04
868.8	5129.44
869.179	5186.19
869.558	4884.37
869.936	4502.44
870.315	4578.9
870.693	4697.15
871.072	5053.86
871.45	4812.95
871.828	4885.82
872.207	5138.89
872.585	5066.52
872.963	5206.37
873.341	5034.55
873.719	4984.36
874.097	4930.16
874.475	5025.23
874.853	5131.43
875.23	4931.57
875.608	5148.06
875.986	5556.12
876.363	5317.31
876.741	5487.57
877.118	5355.2
877.495	5609.37
877.873	5690.57
878.25	5978.54
878.627	5732.38
879.004	5812.91
879.381	5777.54
879.758	5627.91
880.135	5250.61
880.512	5548.58
880.889	5386.21
881.265	5319.47
881.642	5268.8
882.019	5357.29
882.395	5255.73
882.772	5471.74
883.148	5241.99
883.524	5225.3
883.901	5192.57
884.277	5261.61
884.653	5222.45
885.029	5383.81
885.405	5980.26
885.781	5932.68
886.157	5685.01
886.532	5748.17
886.908	5738.92
887.284	6368.16
887.659	6575.27
888.035	6772.19
888.411	6945.93
888.786	7040.93
889.161	7269.6
889.537	7122.73
889.912	7347.51
890.287	7352.44
890.662	7536.25
891.037	7388.91
891.412	6895.15
891.787	6818.59
892.162	6579.83
892.536	6733.26
892.911	6481.21
893.286	6345.55
893.66	6090.72
894.035	6244.88
894.409	6782.55
894.784	6516.41
895.158	6622.87
895.532	7010.15
895.906	7196.28
896.281	7357.33
896.655	7245.28
897.029	8278.56
897.402	8617.24
897.776	9569.93
898.15	9539.79
898.524	9436.34
898.898	9551.33
899.271	10707.89
899.645	9281.93
900.018	8917.7
900.392	9264.29
900.765	9326.33
901.138	8625.7
901.511	8492.73
901.884	7823.44
902.258	7223.29
902.631	7479.89
903.003	8605.49
903.376	7763
903.749	8705.89
904.122	9312.7
904.495	10231.75
904.867	10359.27
905.24	8990.27
905.612	8356.82
905.985	8520.68
906.357	8891.88
906.729	8470.82
907.102	7238.59
907.474	6963.76
907.846	7003.52
908.218	6923.68
908.59	6140.03
908.962	5935.58
909.334	6403.05
909.705	6750.7
910.077	6562.4
910.449	6829.51
910.82	7030.53
911.192	7722.77
911.563	8023.64
911.935	8562.14
912.306	8553.05
912.677	8815.08
913.048	8740.15
913.419	9455.13
913.79	9474.03
914.161	10153.02
914.532	9727.65
914.903	8934.47
915.274	8493.29
915.645	8360.42
916.015	7371.66
916.386	7035.88
916.756	7491.12
917.127	7708.68
917.497	6904.31
917.868	7529.35
918.238	7147.23
918.608	7336.08
918.978	7482.87
919.348	7921.07
919.718	8194.92
920.088	7896.67
920.458	8225.95
920.828	8635.72
921.198	8199.24
921.567	8737.85
921.937	6764.38
922.306	6830.99
922.676	7370.21
923.045	6182.65
923.415	5887.49
923.784	5365.92
924.153	5527.46
924.522	5522.29
924.891	5196.39
925.26	5558.83
925.629	5427.57
925.998	6234.49
926.367	6094.97
926.736	5843.98
927.104	6920.41
927.473	7410.34
927.842	8927.54
928.21	8818.63
928.578	9227.02
928.947	8717.88
929.315	8782.41
929.683	10321.62
930.051	10407.33
930.42	12071.85
930.788	10263.17
931.156	10190.28
931.523	9589.17
931.891	8861.43
932.259	8519.86
932.627	9900.83
932.994	14014.56
933.362	11605.89
933.729	10061.62
934.097	9621.34
934.464	8137.17
934.831	9357.17
935.199	9196.99
935.566	8909.22
935.933	8982.78
936.3	10857.2
936.667	8449.88
937.034	7727.04
937.401	7611.57
937.767	6563.7
938.134	5848.08
938.501	8234.01
938.867	8819.08
939.234	14920.06
939.6	12712.2
939.967	14120.93
940.333	9502.78
940.699	8069.2
941.065	6369.05
941.431	8384.72
941.798	8167.8
942.163	10769.45
942.529	6732.87
942.895	6182.56
943.261	4030.2
943.627	5294.71
943.992	4660.95
944.358	4654.76
944.723	4712.53
945.089	4587.9
945.454	4236.5
945.82	4500.22
946.185	4306.64
946.55	5008.04
946.915	4468.89
947.28	5231.24
947.645	4612.17
948.01	4264.95
948.375	4467.92
948.74	5302.26
949.104	6185.1
949.469	8904.29
949.834	15664.24
950.198	14984.98
950.562	9004.52
950.927	7525.48
951.291	9010.88
951.655	7632.09
952.02	7113.22
952.384	5361.72
952.748	4716.59
953.112	4660.4
953.476	4049.76
953.839	3751.9
954.203	3712.23
954.567	4608.74
954.931	7213.64
955.294	6211.32
955.658	6275.05
956.021	10646.7
956.385	18016.64
956.748	26507.83
957.111	40480.67
957.474	45406.18
957.837	50925.62
958.2	38309.66
958.563	13863.03
958.926	9403.98
959.289	14208.17
959.652	15855.7
960.015	11913.1
960.377	17050.43
960.74	19402.23
961.102	33456.65
961.465	36075.55
961.827	19805.49
962.189	37901.06
962.552	26230.18
962.914	20983.27
963.276	13615.64
963.638	11241.53
964	11132.42
964.362	7576.74
964.724	7279.67
965.085	5196.68
965.447	4270.09
965.809	4772.26
966.17	4753.48
966.532	5120.17
966.893	4707.42
967.255	4284.81
967.616	5035.2
967.977	4032.53
968.338	4386.27
968.699	3646.38
969.061	3657.71
969.421	3682.79
969.782	4116.26
970.143	3515.19
970.504	3706.4
970.865	4223.75
971.225	4353.53
971.586	4258.5
971.946	6054.49
972.307	5239.17
972.667	6781.34
973.027	6968.16
973.388	8378.92
973.748	5710.84
974.108	6216.91
974.468	8235.5
974.828	6423.96
975.188	4898.27
975.548	4499.53
975.907	3796.48
976.267	4245.84
976.627	3601.46
976.986	3737.66
977.346	3560.08
977.705	3433.54
978.064	3109.29
978.424	2611.47
978.783	2655.01
979.142	3016.19
979.501	2905.97
979.86	3069.36
980.219	2955.3
980.578	3783.06
980.937	4225.54
981.296	3774.58
981.654	3882.06
982.013	6005.79
982.371	7814
982.73	7310.89
983.088	8318.36
983.447	8910.61
983.805	12770.95
984.163	26740.54
984.521	29651.82
984.879	43290.99
985.237	-70928.37
985.595	68848.61
985.953	17096.01
986.311	9752.53
986.669	5711.2
987.026	4927.42
987.384	6543.66
987.741	6715.01
988.099	4894.43
988.456	3914.24
988.814	3697.52
989.171	3213.28
989.528	3108.04
989.885	3276.78
990.242	2616.5
990.599	3192.2
990.956	2608.89
991.313	1838.28
991.67	1508.06
992.027	1635.91
992.383	1455.11
992.74	1279.97
993.096	1351.26
993.453	1415.35
993.809	1474.42
994.165	1976.69
994.522	1901.1
994.878	2105.87
995.234	2644.52
995.59	2614.74
995.946	2378.44
996.302	2713.45
996.658	3101.82
997.013	3398.07
997.369	4052.29
997.725	5275.61
998.08	3383.41
998.436	4968.2
998.791	6897.54
999.147	6938.69
999.502	7599.57
999.857	5482.01
1000.212	8887.95
1000.567	12833.26
1000.922	7388.54
1001.277	4643.25
1001.632	3417.1
1001.987	4416.03
1002.342	3174.45
1002.696	2500.17
1003.051	2004.45
1003.406	2441.85
1003.76	2439.67
1004.114	2436.56
1004.469	2043.22
1004.823	1690.67
1005.177	1823.31
1005.531	1437.51
1005.885	1292.57
1006.239	1488.4
1006.593	1899.41
1006.947	2526.97
1007.301	1873.27
1007.655	2052.7
1008.008	1494.66
1008.362	1688.59
1008.715	2427.57
1009.069	2219.97
1009.422	3424.42
1009.776	6798.15
1010.129	4414.23
1010.482	3610.82
1010.835	3019.76
1011.188	6303.14
1011.541	5888.97
1011.894	-35876.6
1012.247	104363.69
1012.6	6995.57
1012.952	4426.44
1013.305	2174.66
1013.657	1588.79
1014.01	1506.5
1014.362	1249.8
1014.715	1175.16
1015.067	1050.6
1015.419	1050.53
1015.771	952.72
1016.123	867.74
1016.475	918.92
1016.827	977.58
1017.179	1097.77
1017.531	1084.21
1017.883	1123.64
1018.234	1135.63
1018.586	1390.06
1018.938	1517.25
1019.289	2072.93
1019.64	2331.46
1019.992	2147.24
1020.343	1886.58
1020.694	1552.36
1021.045	1344.51
1021.396	1518.74
1021.747	1658.61
1022.098	1876.19
1022.449	1371.42
1022.8	1235.7
1023.151	884.64
1023.501	808.12
1023.852	878.43
1024.202	953.38
1024.553	1023.05
1024.903	1037.65
1025.253	942.01
1025.604	853.62
1025.954	1069.31
1026.304	1276.64
1026.654	1464.28
1027.004	2078.57
1027.354	3253.08
1027.703	3116.82
1028.053	4006.61
1028.403	5788.6
1028.753	7933.08
1029.102	10123.83
1029.452	49369.43
1029.801	2129.05
1030.15	1382.13
1030.499	1140.51
897.758	2770.71
901.051	2726.96
904.343	2767.42
907.636	2764.49
910.928	2828.79
914.22	2735.93
917.511	2743.74
920.803	2807.14
924.094	2830.54
927.384	2804.38
930.675	2768.81
933.965	2719.64
937.255	2726.7
940.544	2690.38
943.834	2619.46
947.123	2565.75
950.411	2661.47
953.7	2632.77
956.988	2599.66
960.276	2535.21
963.563	2623.17
966.851	2613.14
970.138	2674.23
973.424	2664.38
976.711	2612.81
979.997	2758.1
983.283	2789.91
986.568	2691.11
989.853	2710.23
993.138	2734.22
996.423	2820.69
999.708	2747.97
1002.992	2822.1
1006.275	2644.13
1009.559	2696.46
1012.842	2812.07
1016.125	2740.72
1019.408	2719.37
1022.69	2808.92
1025.972	2825.39
1029.254	2799.92
1032.536	2723.7
1035.817	2754.63
1039.098	2689.47
1042.379	2849.98
1045.659	2842.03
1048.939	2772.07
1052.219	2793
1055.498	2805.74
1058.778	2787.66
1062.057	2773.55
1065.335	2790.5
1068.614	2811.98
1071.892	2791.63
1075.17	2870.34
1078.447	2848.01
1081.724	2840.66
1085.001	2879.78
1088.278	2851.92
1091.554	2864.9
1094.83	2864.69
1098.106	2886.95
1101.382	2934.08
1104.657	2930.5
1107.932	2925.48
1111.206	2886.38
1114.481	2848.46
1117.755	2850.36
1121.029	2822.2
1124.302	2875.17
1127.575	2822.22
1130.848	2806.36
1134.121	2765.93
1137.393	2712.98
1140.665	2783.18
1143.937	2756.01
1147.208	2719.05
1150.48	2752.49
1153.75	2734.55
1157.021	2775.35
1160.291	2741.68
1163.561	2785.47
1166.831	2779.1
1170.101	2811.32
1173.37	2789.39
1176.639	2729.25
1179.907	2792.33
1183.176	2794.9
1186.444	2804.2
1189.711	2832.39
1192.979	2841.84
1196.246	2801.33
1199.513	2815.78
1202.78	2812.84
1206.046	2821.55
1209.312	2845.26
1212.578	2872.43
1215.843	2820.3
1219.108	2795.02
1222.373	2818.19
1225.638	2780.76
1228.902	2763.07
1232.166	2732.71
1235.43	2719.18
1238.693	2740.25
1241.956	2739.98
1245.219	2777.94
1248.482	2773.09
1251.744	2766.38
1255.006	2920.76
1258.268	2880
1261.529	2821.23
1264.79	2827.12
1268.051	2929.04
1271.312	2944.24
1274.572	2904.29
1277.832	2893.37
1281.092	2883.73
1284.351	2851.6
1287.61	2828.08
1290.869	2741.5
1294.128	2710.16
1297.386	2811.51
1300.644	2799.71
1303.902	2812.65
1307.159	2671.78
1310.416	2727.28
1313.673	2751.67
1316.93	2736.15
1320.186	2784.32
1323.442	2828.82
1326.697	2817.86
1329.953	2813.22
1333.208	2832.1
1336.463	2815.13
1339.717	2749.25
1342.972	2892.77
1346.226	2873.55
1349.479	2803.8
1352.733	2773.78
1355.986	2804
1359.238	2784.24
1362.491	2785.01
1365.743	2790.67
1368.995	2786.71
1372.247	2806.53
1375.498	2832.48
1378.749	2843.53
1382	2800.86
1385.251	2856.8
1388.501	2824.97
1391.751	2806.75
1395	2779.92
1398.25	2815.48
1401.499	2823.84
1404.748	2748.67
1407.996	2740.52
1411.244	2726.01
1414.492	2704.93
1417.74	2685.78
1420.987	2699.25
1424.234	2754.5
1427.481	2737.79
1430.728	2798.54
1433.974	2768.86
1437.22	2786.99
1440.465	2788.9
1443.711	2745.33
1446.956	2783.72
1450.201	2772.72
1453.445	2816.88
1456.689	2791.35
1459.933	2804.62
1463.177	2835.38
1466.42	2805.9
1469.663	2789.78
1472.906	2777.17
1476.148	2857.13
1479.391	2810.69
1482.633	2781.36
1485.874	2789.07
1489.115	2769.35
1492.356	2778.22
1495.597	2753.47
1498.838	2753.4
1502.078	2718.6
1505.318	2661.15
1508.557	2704.47
1511.797	2671.64
1515.036	2748.1
1518.274	2736.91
1521.513	2710.94
1524.751	2732.4
1527.989	2738.88
1531.227	2746.85
1534.464	2732.78
1537.701	2758.92
1540.938	2776.9
1544.174	2729.51
1547.41	2730.47
1550.646	2767.58
1553.882	2796.27
1557.117	2847.52
1560.352	2862.97
1563.587	2821.58
1566.821	2778.76
1570.055	2818.6
1573.289	2783.96
1576.523	2861.11
1579.756	2863.82
1582.989	2880.97
1586.222	2838.81
1589.454	2879.5
1592.686	2847.85
1595.918	2871.56
1599.15	2854.3
1602.381	2938.45
1605.612	2887.03
1608.843	2979.67
1612.073	2891.34
1615.303	2875.58
1618.533	2862.59
1621.762	2870.68
1624.992	2858.87
1628.221	2841.64
1631.449	2824.35
1634.678	2886.08
1637.906	2835.26
1641.134	2875.42
1644.361	2830.22
1647.588	2822.58
1650.815	2837.66
1654.042	2822.28
1657.269	2849.68
1660.495	2797.49
1663.72	2824.21
1666.946	2792.25
1670.171	2731.51
1673.396	2707.22
1676.621	2699.14
1679.845	2723.09
1683.069	2746.86
1686.293	2793.85
1689.517	2759.72
1692.74	2685.88
1695.963	2718.94
1699.185	2729.76
1702.408	2707.15
1705.63	2752.26
1708.852	2761.31
1712.073	2736.06
1715.294	2718.54
1718.515	2781.97
1721.736	2725.3
1724.956	2726.66
1728.176	2755.14
1731.396	2776.55
1734.616	2767.81
1737.835	2791.97
1741.054	2770.93
1744.272	2768.38
1747.491	2797.28
1750.709	2856.9
1753.927	2753.41
1757.144	2804.9
1760.361	2840.23
1763.578	2837.9
1766.795	2777.86
1770.011	2789.42
1773.227	2832.91
1776.443	2870.03
1779.658	2913.91
1782.874	2859.02
1786.089	2835.38
1789.303	2838.76
1792.518	2846.02
1795.732	2835.91
1798.945	2844.52
1802.159	2895.33
1805.372	2789.63
1808.585	2773.28
1811.797	2774.1
1815.01	2829.5
1818.222	2826.76
1821.434	2797.71
1824.645	2859.85
1827.856	2838.19
1831.067	2876.97
1834.278	2841.5
1837.488	2828.01
1840.698	2984.74
1843.908	2907.35
1847.117	2872.09
1850.326	2748.24
1853.535	2864.63
1856.744	2897.53
1859.952	2813.96
1863.16	2817.09
1866.368	2843.37
1869.575	2948.57
1872.782	2836.74
1875.989	2782.41
1879.196	2875.87
1882.402	2871.15
1885.608	2918.34
1888.814	2815.83
1892.019	2710.99
1895.224	2765.63
1898.429	2753.24
1901.634	2730.79
1904.838	2710.7
1908.042	2765.89
1911.246	2768.29
1914.449	2694.13
1917.652	2700.6
1920.855	2680.75
1924.058	2735.87
1927.26	2773.8
1930.462	2801.11
1933.664	2825.92
1936.865	2758.76
1940.066	2764.82
1943.267	2710.63
1946.467	2729.12
1949.668	2757.8
1952.868	2824.38
1956.067	2800.63
1959.267	2726.98
1962.466	2754.99
1965.665	2740.42
1968.863	2738.5
1972.061	2756.2
1975.259	2754.74
1978.457	2833.98
1981.654	2792.74
1984.852	2793.22
1988.048	2717.65
1991.245	2723.12
1994.441	2810.52
1997.637	2798.54
2000.833	2781.28
2004.028	2819.17
2007.223	2871.47
2010.418	2847.01
2013.613	2811.02
2016.807	2775.5
2020.001	2787.12
2023.194	2832.49
2026.388	2808.9
2029.581	2752.01
2032.774	2799.03
2035.966	2803.71
2039.158	2730.36
2042.35	2763.16
2045.542	2687.21
2048.733	2790.89
2051.924	2819.19
2055.115	2846.5
2058.306	2787.8
2061.496	2847.18
2064.686	2918.18
2067.875	2829.97
2071.065	2846.68
2074.254	2877.85
2077.442	2826.55
2080.631	2920.38
2083.819	2802.82
2087.007	2782.38
2090.195	2751.68
2093.382	2788.85
2096.569	2766.88
2099.756	2715.33
2102.942	2740.14
2106.128	2745.07
2109.314	2735.06
2112.5	2693.68
2115.685	2670.87
2118.87	2681.3
2122.055	2746.95
2125.239	2709.91
2128.424	2679.89
2131.608	2794.04
2134.791	2775.8
2137.974	2838.42
2141.157	2820.03
2144.34	2768.97
2147.523	2787.75
2150.705	2799.21
2153.887	2780.33
2157.068	2726.2
2160.25	2732.24
2163.431	2776.08
2166.611	2714.8
2169.792	2731.3
2172.972	2618.1
2176.152	2705.18
2179.331	2741.31
2182.511	2722.66
2185.69	2754.2
2188.868	2745.61
2192.047	2809.86
2195.225	2795.48
2198.403	2743.33
2201.58	2738.34
2204.758	2732.89
2207.935	2821.32
2211.111	2704
2214.288	2689
2217.464	2728.2
2220.64	2701.67
2223.815	2759.95
2226.991	2676.64
2230.166	2696.39
2233.34	2724.2
2236.515	2750.72
2239.689	2828.25
2242.863	2771.62
2246.036	2827.29
2249.209	2830.1
2252.382	2866.55
2255.555	2849.94
2258.727	2785.02
2261.9	2824.15
2265.071	2817.4
2268.243	2823.62
2271.414	2751.41
2274.585	2707.7
2277.756	2776.22
2280.926	2732.59
2284.096	2774.63
2287.266	2678.56
2290.436	2737.06
2293.605	2768.49
2296.774	2800.46
2299.942	2824.77
2303.111	2841.39
2306.279	2890.33
2309.447	2876.6
2312.614	2854.67
2315.781	2871.06
2318.948	2840.87
2322.115	2880.15
2325.281	2781.41
2328.447	2802.53
2331.613	2777.18
2334.779	2746.85
2337.944	2751.8
2341.109	2750.06
2344.274	2733.12
2347.438	2695.24
2350.602	2721.35
2353.766	2739.16
2356.929	2724.48
2360.092	2768.85
2363.255	2717.87
2366.418	2644.25
2369.58	2767.52
2372.742	2532.82
2375.904	2551.43
2379.066	2525.29
2382.227	2567.05
2385.388	2530.42
2388.548	2449.13
2391.709	2509.62
2394.869	2486.46
2398.029	2593.63
2401.188	2612.97
2404.347	2539.87
2407.506	2699
2410.665	2723.95
2413.823	2735.83
2416.981	2685.04
2420.139	2719.55
2423.296	2773.08
2426.453	2745.98
2429.61	2770.27
2432.767	2696.78
2435.923	2733.08
2439.079	2691.33
2442.235	2743.01
2445.391	2668.47
2448.546	2691.83
2451.701	2746.35
2454.855	2715.61
2458.009	2772.09
2461.163	2777.58
2464.317	2731.76
2467.471	2768.73
2470.624	2811.7
2473.777	2787.2
2476.929	2799.23
2480.082	2827.44
2483.234	2791.05
2486.385	2744.17
2489.537	2736.8
2492.688	2693.14
2495.839	2709.42
2498.989	2721.11
2502.14	2704.56
2505.29	2682.36
2508.439	2709.39
2511.589	2628.41
2514.738	2641.4
2517.887	2675.53
2521.035	2738.2
2524.183	2724.52
2527.331	2703.48
2530.479	2672.27
2533.627	2685.12
