Data from C_3_DEC_NC_4N_Splice17_13-05-40-368.txt Node
Date: Sat Mar 14 13:05:40 EDT 2020
User: sa697716
Spectrometer: FLMS03696
Trigger mode: 0
Integration Time (sec): 3.180400E-1
Scans to average: 20
Electric dark correction enabled: true
Nonlinearity correction enabled: true
Boxcar width: 5
XAxis mode: Wavelengths
Number of Pixels in Spectrum: 2048
>>>>>Begin Spectral Data<<<<<
187.83	-212368.71
188.298	1608.7
188.766	898.23
189.233	768.92
189.701	1123.47
190.169	1607.98
190.636	590.75
191.104	467.14
191.571	67.94
192.039	-101.27
192.506	-86.44
192.974	501.07
193.441	-934.9
193.908	-486.05
194.375	-159.14
194.842	-24.22
195.31	34.43
195.777	165.63
196.244	376.21
196.711	465.54
197.177	585.48
197.644	848.24
198.111	1473.83
198.578	2066.54
199.045	1691.27
199.511	2730.28
199.978	3131.95
200.445	2661.81
200.911	2917.32
201.378	3244.94
201.844	2943.57
202.31	5033.27
202.777	5226.65
203.243	2903.78
203.709	2765.89
204.176	3252.76
204.642	2673.56
205.108	2499.47
205.574	2024.03
206.04	1832.16
206.506	1721.32
206.972	1611.54
207.438	1544.05
207.903	1747.79
208.369	1521.16
208.835	1532.18
209.301	1612.23
209.766	1648.73
210.232	1625.32
210.697	2016.73
211.163	2485.09
211.628	3733.54
212.094	3177.23
212.559	3925.79
213.024	2446.35
213.49	2995.67
213.955	2914.57
214.42	2836.75
214.885	2650.41
215.35	2541.41
215.815	2450.32
216.28	2599.63
216.745	2104.86
217.21	2275.24
217.675	2073.03
218.14	2318.04
218.604	2564.12
219.069	2901.28
219.534	3040.58
219.998	3501.76
220.463	4233.32
220.927	5182.82
221.392	4874.13
221.856	4933.87
222.32	6173.12
222.785	7611.53
223.249	9551.29
223.713	10640.34
224.177	10629.04
224.642	13616.08
225.106	16775.41
225.57	18312.99
226.034	13608.89
226.497	20688.86
226.961	18706.8
227.425	21780.35
227.889	24127.19
228.353	24171.41
228.816	49882.36
229.28	47581.91
229.744	40063.06
230.207	24361.33
230.671	23935.55
231.134	39569.16
231.597	45730.3
232.061	45664.54
232.524	44558.01
232.987	30681.71
233.45	27556.77
233.914	24729.99
234.377	25398.16
234.84	23239.45
235.303	27384.09
235.766	30590.52
236.229	31599.51
236.691	19838.37
237.154	22291.18
237.617	16750.15
238.08	17135.98
238.542	20045.56
239.005	14332.46
239.468	14213.18
239.93	13399.83
240.393	12173.78
240.855	10676.82
241.317	10925.09
241.78	13297.76
242.242	13722.15
242.704	14817.2
243.166	12899.8
243.629	11730.69
244.091	13508.9
244.553	14773.91
245.015	15854.87
245.477	20488.52
245.939	29988.89
246.4	31845.55
246.862	30928.44
247.324	29201.73
247.786	32651.04
248.247	42829.42
248.709	44143.54
249.17	33014.28
249.632	31176.7
250.093	36174.99
250.555	31244.75
251.016	19095.1
251.477	18106.65
251.939	19565.07
252.4	20495.93
252.861	24375.39
253.322	22672.62
253.783	27008.09
254.244	35014.55
254.705	27583.98
255.166	24562.95
255.627	24207.47
256.088	34137.65
256.549	36317.77
257.009	31283.21
257.47	38000.99
257.931	30961.42
258.391	23229.54
258.852	23943.89
259.312	25103.98
259.773	31048.25
260.233	26202.91
260.694	22120.31
261.154	25072.94
261.614	20116.61
262.074	17980.38
262.534	18671.62
262.994	17597.91
263.455	23427.67
263.915	19727.32
264.374	18583.47
264.834	20278.62
265.294	22478.92
265.754	23247.88
266.214	22007.46
266.673	20606.5
267.133	25998.06
267.593	25784.99
268.052	31540.38
268.512	27411.97
268.971	33066.8
269.431	36236.14
269.89	32439.4
270.349	48602.24
270.809	54197.68
271.268	48709.16
271.727	109136.53
272.186	70676.96
272.645	52992.29
273.104	38184.08
273.563	55312.79
274.022	43476.15
274.481	37012.93
274.94	28500.78
275.399	21172.59
275.857	24653.96
276.316	33337.63
276.775	29648.24
277.233	29177.94
277.692	27319.63
278.15	30974.49
278.609	31847.39
279.067	29462.24
279.525	27331.74
279.984	35259.34
280.442	42389.68
280.9	41818.4
281.358	27504.69
281.816	25652.37
282.274	25120.43
282.732	25961.97
283.19	26055.64
283.648	22480.1
284.106	23917.48
284.564	24341.75
285.021	22587.08
285.479	16827.08
285.937	15266.43
286.394	13407.08
286.852	13809.3
287.309	14509.8
287.767	14009.27
288.224	13339.53
288.682	14644.34
289.139	16084.15
289.596	14703.63
290.053	15269.24
290.511	19251.28
290.968	23392.21
291.425	31714.29
291.882	26368.42
292.339	22931.07
292.796	22742.32
293.252	21382.8
293.709	16996.26
294.166	15247.23
294.623	16859.66
295.079	16180.07
295.536	16244.55
295.992	14707.09
296.449	14533.08
296.905	15109.69
297.362	14484.9
297.818	15218.53
298.274	15793.88
298.731	16066.97
299.187	15879.92
299.643	17036.21
300.099	20582.88
300.555	22604.1
301.011	18909.05
301.467	18264.55
301.923	21373.19
302.379	20878.46
302.835	20515.98
303.291	20537.61
303.746	23362.18
304.202	29529.1
304.658	29672.1
305.113	19996.74
305.569	19578.2
306.024	20868.69
306.479	19819
306.935	16695.72
307.39	18248.51
307.845	16872.93
308.301	16991.66
308.756	16564.98
309.211	15963.37
309.666	16355.37
310.121	20322.89
310.576	20628.7
311.031	20477.07
311.486	23469.39
311.94	23487.29
312.395	31429.06
312.85	59087.01
313.305	289610.86
313.759	1501175.2
314.214	108915.6
314.668	86353.78
315.123	72486.78
315.577	26062.01
316.032	23207
316.486	29041.44
316.94	22901.15
317.394	15941.91
317.849	12381.01
318.303	11741.69
318.757	11075.68
319.211	12218.68
319.665	10675.45
320.119	10824.2
320.572	15494.94
321.026	14469.04
321.48	12052.53
321.934	13138.34
322.387	13139.49
322.841	14195.29
323.295	12759.25
323.748	14687.99
324.202	14924.58
324.655	17940.35
325.108	25061.75
325.562	17689.57
326.015	21024.95
326.468	15906.86
326.921	17803.36
327.374	16630.8
327.827	17309.29
328.28	19586.47
328.733	13131.06
329.186	11548.4
329.639	11022.64
330.092	9275.28
330.545	8843.56
330.997	8921.1
331.45	9763.24
331.903	11425.25
332.355	19642.67
332.808	19093.69
333.26	15774.92
333.713	17090.78
334.165	17216.8
334.617	22959.59
335.069	18549.3
335.522	33547.16
335.974	37196.52
336.426	33939.04
336.878	23535.23
337.33	11959.34
337.782	11674.8
338.234	14660.51
338.686	17569.5
339.137	20796.97
339.589	19589.98
340.041	15383.53
340.493	13244.02
340.944	13542.39
341.396	14614.7
341.847	12295.68
342.299	14507.87
342.75	17761.44
343.201	15470.84
343.653	17781.24
344.104	21847.21
344.555	17209.44
345.006	26749.27
345.457	20447.32
345.908	16274.93
346.359	15303.72
346.81	12442.34
347.261	13107.46
347.712	12899.83
348.163	13853.73
348.613	14042.9
349.064	13100.44
349.515	11455.73
349.965	11755.4
350.416	14175.33
350.866	15516.42
351.317	17526.9
351.767	29049
352.217	36644.64
352.668	30424.64
353.118	27892.34
353.568	26895.95
354.018	21318.7
354.468	22523.8
354.918	16163.41
355.368	14143.8
355.818	20054.41
356.268	57753.09
356.718	242229.76
357.168	60398.37
357.617	30309.2
358.067	33660.19
358.517	31594.12
358.966	37083.33
359.416	41672.38
359.865	45020.2
360.315	53623.14
360.764	24986.17
361.213	13987.36
361.663	13236.01
362.112	16373.06
362.561	26403.69
363.01	19952.22
363.459	16797.78
363.908	18225.13
364.357	15465.1
364.806	26135.97
365.255	17948.85
365.703	16498.9
366.152	16533.07
366.601	13429.29
367.05	10891.73
367.498	9933.78
367.947	10360.07
368.395	10754.55
368.844	9487.48
369.292	11415.7
369.74	7897.51
370.189	12109.53
370.637	14145.94
371.085	12199.6
371.533	14848.48
371.981	14332.79
372.429	13634.58
372.877	14222.83
373.325	11913.75
373.773	12138.39
374.221	10824.96
374.669	13401.85
375.116	11581.51
375.564	11693.15
376.012	13102.99
376.459	10788.09
376.907	12848.85
377.354	15523.75
377.801	14461.86
378.249	16655.86
378.696	21311.29
379.143	25829.45
379.591	27563.95
380.038	46648.88
380.485	33710.46
380.932	36402.33
381.379	33330.83
381.826	24522.7
382.273	17431.69
382.72	15209.34
383.166	14778.21
383.613	9564.82
384.06	8590.14
384.506	9937.56
384.953	7285.91
385.4	7316.38
385.846	6393.58
386.292	6221.2
386.739	6087.85
387.185	5995.43
387.631	6005.81
388.078	5841.73
388.524	6242.31
388.97	5760.54
389.416	4803.5
389.862	5110.69
390.308	4831.6
390.754	4890.74
391.2	5300.51
391.645	5421.89
392.091	5202.62
392.537	5019.17
392.983	5014.56
393.428	4947.67
393.874	5304.84
394.319	5315.35
394.765	5034.19
395.21	5176.17
395.655	4854.87
396.101	4554.36
396.546	4107.66
396.991	4140.81
397.436	3846.44
397.881	3713.38
398.326	3501.41
398.771	3312.6
399.216	2897.65
399.661	2607.92
400.106	2602.22
400.551	2666.38
400.995	2386.87
401.44	2359.83
401.885	2212.53
402.329	2234.58
402.774	2138.81
403.218	2077.45
403.663	2001.06
404.107	2051.79
404.551	2069.02
404.995	1893.92
405.44	1823.14
405.884	1848.87
406.328	1788.1
406.772	1784.2
407.216	1625.27
407.66	1573.16
408.104	1488.3
408.547	1392.52
408.991	1348.76
409.435	1293.16
409.879	1275.75
410.322	1258.45
410.766	1214.9
411.209	1153.33
411.653	1105.21
412.096	1084.67
412.54	1082.03
412.983	1077.39
413.426	1079.41
413.869	1078.62
414.312	1059.55
414.756	1022.74
415.199	975.6
415.642	948.88
416.085	953.76
416.527	948.98
416.97	960.26
417.413	911.71
417.856	900.2
418.298	890.2
418.741	883.5
419.184	882.42
419.626	914.03
420.069	913.19
420.511	917.54
420.953	897.78
421.396	888.43
421.838	867.08
422.28	887.93
422.722	893.68
423.164	907.28
423.606	890.7
424.048	888.05
424.49	846.06
424.932	842.79
425.374	831.04
425.816	841.8
426.258	858.37
426.699	865.89
427.141	853.61
427.582	866.11
428.024	858.55
428.465	852.65
428.907	832.88
429.348	824.34
429.789	824.82
430.231	808.18
430.672	821.97
431.113	804.52
431.554	794.39
431.995	772.39
432.436	746.35
432.877	732.47
433.318	722.04
433.759	716.26
434.2	715.4
434.64	709.01
435.081	711.03
435.522	672.84
435.962	647.52
436.403	634.79
436.843	643.36
437.284	628.95
437.724	611.33
438.164	610.97
438.604	598.54
439.045	576.14
439.485	553.48
439.925	542.22
440.365	529.08
440.805	521.57
441.245	515.46
441.685	498.69
442.125	495.14
442.564	498.68
443.004	489.81
443.444	489.16
443.883	491.04
444.323	484.6
444.762	482.61
445.202	488.73
445.641	499.17
446.081	495.39
446.52	497.8
446.959	492.02
447.398	480.25
447.837	475.39
448.276	466.64
448.716	470.2
449.154	474
449.593	465.17
450.032	464.39
450.471	453.9
450.91	452.96
451.349	452.23
451.787	449.72
452.226	456.33
452.664	454.84
453.103	456.34
453.541	454.68
453.98	456.06
454.418	459.45
454.856	451.7
455.295	450.12
455.733	454.27
456.171	456.71
456.609	456.8
457.047	456.75
457.485	463.47
457.923	463.97
458.361	458.55
458.798	458.68
459.236	456.55
459.674	459.45
460.111	463.08
460.549	457.77
460.987	456.21
461.424	455.12
461.862	451.28
462.299	443.54
462.736	443.48
463.173	443.46
463.611	440.57
464.048	440.63
464.485	443.83
464.922	439.21
465.359	437.95
465.796	437.24
466.233	433.94
466.67	433.14
467.106	434.25
467.543	430.78
467.98	426.15
468.416	415.24
468.853	411.17
469.29	399.62
469.726	395.36
470.162	384.74
470.599	376.48
471.035	373.6
471.471	363.55
471.907	359.58
472.344	356.34
472.78	357.81
473.216	360.57
473.652	357.08
474.088	355.28
474.523	355.2
474.959	358.97
475.395	354.47
475.831	353.75
476.266	355.45
476.702	354.89
477.138	351.08
477.573	349.93
478.008	349.28
478.444	351.14
478.879	355.65
479.314	356.83
479.75	356.48
480.185	359.32
480.62	362.2
481.055	364.27
481.49	366.92
481.925	372.61
482.36	379.76
482.795	390
483.229	400.1
483.664	408.21
484.099	409.65
484.534	416.53
484.968	419.92
485.403	420.17
485.837	419.66
486.271	419.53
486.706	420.09
487.14	413.97
487.574	407.82
488.009	404.08
488.443	400.52
488.877	405.35
489.311	406.84
489.745	412.14
490.179	416.87
490.613	426.39
491.046	430.01
491.48	433
491.914	434.94
492.348	439.32
492.781	443.7
493.215	445.53
493.648	446.67
494.082	450.72
494.515	452.27
494.948	458.62
495.382	461.86
495.815	466.04
496.248	471.93
496.681	482.28
497.114	490.76
497.547	498.87
497.98	510.58
498.413	517.14
498.846	525.91
499.279	533.82
499.711	538.89
500.144	543.07
500.577	553.45
501.009	563.68
501.442	574.28
501.874	578.36
502.306	583.23
502.739	591.83
503.171	605.38
503.603	611.48
504.036	622.13
504.468	630.85
504.9	642.59
505.332	651.09
505.764	658.44
506.196	666.94
506.627	682.79
507.059	696.23
507.491	706.6
507.923	709.63
508.354	725.02
508.786	737.11
509.217	754.34
509.649	770.12
510.08	788.77
510.512	806.77
510.943	822.79
511.374	836.13
511.805	857.06
512.237	877.09
512.668	907.34
513.099	934.04
513.53	961.19
513.961	982.9
514.391	1013.73
514.822	1047.31
515.253	1081.21
515.684	1106.88
516.114	1136.08
516.545	1158.73
516.975	1185.62
517.406	1205.52
517.836	1213.12
518.267	1223.43
518.697	1243.69
519.127	1252.57
519.558	1262.86
519.988	1270.37
520.418	1284.06
520.848	1303.35
521.278	1314.52
521.708	1342.57
522.138	1357.82
522.567	1387.02
522.997	1413.23
523.427	1429.79
523.857	1447.3
524.286	1459.23
524.716	1475.91
525.145	1495.43
525.575	1507.66
526.004	1523.62
526.433	1512.97
526.863	1515.43
527.292	1510.56
527.721	1517.48
528.15	1525.84
528.579	1529.06
529.008	1541.34
529.437	1564.01
529.866	1578.77
530.295	1595.9
530.724	1609.06
531.152	1634.58
531.581	1649.64
532.01	1666.64
532.438	1676.26
532.867	1690.03
533.295	1708.03
533.723	1713.81
534.152	1712.5
534.58	1712.72
535.008	1698.49
535.436	1700.58
535.865	1708.79
536.293	1722.3
536.721	1737.86
537.149	1761.25
537.576	1763.07
538.004	1775.96
538.432	1783.52
538.86	1782.43
539.287	1789.2
539.715	1802.96
540.143	1805.5
540.57	1800.99
540.998	1796.58
541.425	1774.5
541.852	1754.54
542.28	1753.92
542.707	1737.73
543.134	1725.04
543.561	1721.34
543.988	1714.21
544.415	1713.91
544.842	1706.98
545.269	1700.83
545.696	1702.58
546.123	1714.7
546.549	1705.7
546.976	1695.07
547.403	1695.75
547.829	1697.68
548.256	1699.03
548.682	1695.69
549.108	1689.09
549.535	1690.95
549.961	1692.58
550.387	1681.13
550.813	1676.68
551.24	1682.73
551.666	1683.19
552.092	1674.06
552.518	1668.61
552.943	1663.56
553.369	1671.54
553.795	1676.51
554.221	1678.43
554.646	1676.75
555.072	1687.85
555.498	1692.48
555.923	1700.05
556.349	1713.14
556.774	1720.73
557.199	1721.43
557.625	1726.14
558.05	1719.02
558.475	1728.59
558.9	1726.69
559.325	1717.52
559.75	1710.29
560.175	1702.93
560.6	1696.39
561.025	1693.75
561.449	1694.01
561.874	1697.95
562.299	1701.5
562.723	1707.51
563.148	1696.43
563.572	1698.21
563.997	1706.76
564.421	1710.61
564.846	1709.68
565.27	1712.24
565.694	1707.9
566.118	1715.91
566.542	1721.79
566.966	1713.93
567.39	1708.44
567.814	1695.91
568.238	1692.83
568.662	1694.26
569.086	1694.12
569.509	1698
569.933	1681.33
570.357	1672.65
570.78	1651.51
571.204	1636.97
571.627	1623.75
572.05	1619.81
572.474	1617.53
572.897	1604.33
573.32	1595.6
573.743	1584.66
574.166	1567.11
574.589	1565.28
575.012	1556.84
575.435	1553.89
575.858	1543.37
576.281	1532.65
576.704	1516.28
577.126	1504.34
577.549	1493.14
577.972	1483.28
578.394	1472.87
578.817	1465.44
579.239	1447.92
579.661	1434.85
580.084	1419.55
580.506	1406.63
580.928	1402.71
581.35	1391.01
581.772	1385.7
582.194	1373.17
582.616	1361.07
583.038	1345.94
583.46	1333.54
583.882	1328.51
584.303	1330.34
584.725	1325.67
585.147	1328.16
585.568	1335.78
585.99	1345.71
586.411	1349.44
586.833	1361.17
587.254	1360.21
587.675	1371.95
588.096	1382.49
588.518	1376.54
588.939	1361.02
589.36	1358.02
589.781	1345.01
590.202	1319.67
590.623	1311.1
591.043	1307.91
591.464	1295.98
591.885	1292.72
592.305	1287.02
592.726	1274.61
593.147	1276.37
593.567	1271.48
593.987	1264.4
594.408	1259.61
594.828	1257.35
595.248	1251.13
595.669	1236.22
596.089	1229.39
596.509	1222.49
596.929	1210.76
597.349	1210.86
597.769	1201.04
598.189	1195.06
598.608	1195.73
599.028	1197.03
599.448	1195.22
599.867	1183.7
600.287	1178.16
600.706	1174.51
601.126	1165.96
601.545	1163.69
601.965	1161.57
602.384	1156.34
602.803	1157.55
603.222	1152.56
603.641	1146
604.061	1142.99
604.48	1138.85
604.898	1145.14
605.317	1147.41
605.736	1148.32
606.155	1145.65
606.574	1137.36
606.992	1140.03
607.411	1134.89
607.829	1126.91
608.248	1123.34
608.666	1119.08
609.085	1118.44
609.503	1109.85
609.921	1104.94
610.339	1105.59
610.758	1103.41
611.176	1098.67
611.594	1091.55
612.012	1087.87
612.43	1089.8
612.847	1093.68
613.265	1094.64
613.683	1095.89
614.101	1096.99
614.518	1091.01
614.936	1081.87
615.353	1069.43
615.771	1065.8
616.188	1063.85
616.606	1059.46
617.023	1051.95
617.44	1039.95
617.857	1033.16
618.274	1025.38
618.691	1019.17
619.108	1010.64
619.525	1004.32
619.942	1008.83
620.359	1010.34
620.776	1006.05
621.192	1002.22
621.609	1000.23
622.026	1004.86
622.442	1008.46
622.859	1011.67
623.275	1004.76
623.691	1009.28
624.108	1018.31
624.524	1028.7
624.94	1028.25
625.356	1035.42
625.772	1046.53
626.188	1055.4
626.604	1055.74
627.02	1052.11
627.436	1049.22
627.852	1054.3
628.268	1063.53
628.683	1055.34
629.099	1047.49
629.514	1042.43
629.93	1044.57
630.345	1047.65
630.761	1043.89
631.176	1046.03
631.591	1040.25
632.007	1035.05
632.422	1032.92
632.837	1022.31
633.252	1019.36
633.667	1009.64
634.082	1000.43
634.497	988.8
634.911	971.19
635.326	966.13
635.741	949.75
636.155	938.85
636.57	936.53
636.984	932.82
637.399	930.94
637.813	927.05
638.228	922.68
638.642	921.47
639.056	909.18
639.47	904.32
639.884	893.58
640.298	885.15
640.712	881.58
641.126	868.25
641.54	857.2
641.954	847.6
642.368	834.21
642.781	825.48
643.195	809.59
643.609	806.68
644.022	798.83
644.436	792.15
644.849	780.51
645.262	767.52
645.676	764.6
646.089	758.86
646.502	747.28
646.915	740.83
647.328	725.5
647.741	722.24
648.154	710.87
648.567	707.4
648.98	697.26
649.393	695.33
649.805	692.44
650.218	686.19
650.631	674.13
651.043	669.16
651.456	665.04
651.868	665.18
652.28	675.5
652.693	683.49
653.105	687.36
653.517	692.97
653.929	693.1
654.341	695.91
654.753	687.94
655.165	691.84
655.577	690.56
655.989	686.2
656.401	679.72
656.813	655.95
657.224	642.61
657.636	621.9
658.047	608.73
658.459	594.96
658.87	586.71
659.282	578.34
659.693	563.95
660.104	552.44
660.515	542.62
660.926	541.07
661.338	537.65
661.749	531.91
662.159	526.16
662.57	521.56
662.981	517.66
663.392	511.81
663.803	512.84
664.213	510.86
664.624	507.71
665.035	507.71
665.445	495.75
665.855	490.97
666.266	485.2
666.676	482.58
667.086	476.81
667.497	475.69
667.907	472.75
668.317	466.1
668.727	465.24
669.137	464.59
669.547	464.2
669.956	466.68
670.366	467.44
670.776	469.92
671.186	472.99
671.595	477.05
672.005	479.57
672.414	480.26
672.824	480.78
673.233	482.08
673.642	484.98
674.052	488.39
674.461	492.78
674.87	496.63
675.279	496.7
675.688	498.6
676.097	501.34
676.506	501.59
676.915	512.62
677.323	517.66
677.732	519.29
678.141	521.36
678.549	515.51
678.958	516.54
679.366	517.57
679.775	522.54
680.183	533
680.592	538.53
681	545.32
681.408	543.71
681.816	551.05
682.224	559.2
682.632	569.06
683.04	594.7
683.448	615.6
683.856	642.04
684.264	670.16
684.671	696.07
685.079	728.75
685.487	765.16
685.894	814.4
686.302	857.57
686.709	895.46
687.116	940.02
687.524	977.75
687.931	1012.7
688.338	1044.57
688.745	1072.72
689.152	1104.47
689.559	1146.02
689.966	1187.72
690.373	1211.76
690.78	1252.78
691.187	1310.85
691.593	1358.37
692	1400.55
692.407	1459.91
692.813	1532.89
693.22	1592.95
693.626	1655.06
694.032	1709.38
694.439	1784.49
694.845	1846.06
695.251	1920.55
695.657	1989.97
696.063	2086.52
696.469	2163.81
696.875	2234.73
697.281	2277.08
697.687	2329.73
698.093	2374.02
698.498	2450.84
698.904	2512.71
699.31	2603.3
699.715	2668.35
700.12	2761.47
700.526	2786.34
700.931	2856.96
701.337	2912.12
701.742	2950
702.147	3037.1
702.552	3071.95
702.957	3134.08
703.362	3157.94
703.767	3190.95
704.172	3236.27
704.577	3195.11
704.981	3246.58
705.386	3266.2
705.791	3264.41
706.195	3344.11
706.6	3357.07
707.004	3440.6
707.408	3416.63
707.813	3449.19
708.217	3440.2
708.621	3445.36
709.025	3545.93
709.43	3551.04
709.834	3616.2
710.237	3687.42
710.641	3673.92
711.045	3698.01
711.449	3695.25
711.853	3725.7
712.256	3769.85
712.66	3811.55
713.064	3888.68
713.467	3930.95
713.87	4044.58
714.274	4091.83
714.677	4205.27
715.08	4369.29
715.484	4539.43
715.887	4743.32
716.29	4944.95
716.693	5154.89
717.096	5396.19
717.499	5530.97
717.901	5559.42
718.304	5588.85
718.707	5616.01
719.109	5516.08
719.512	5487.25
719.915	5356.53
720.317	5305.45
720.719	5351.18
721.122	5324.29
721.524	5277.07
721.926	5238.05
722.328	5342.14
722.731	5334.31
723.133	5363.95
723.535	5556.93
723.937	5578.74
724.338	5632.02
724.74	5674.02
725.142	5610
725.544	5609.14
725.945	5638.1
726.347	5635.8
726.748	5630.92
727.15	5647.65
727.551	5611.65
727.952	5587.59
728.354	5558.83
728.755	5559.97
729.156	5518.5
729.557	5507.32
729.958	5385.94
730.359	5328.35
730.76	5310.6
731.161	5250.29
731.562	5223.18
731.962	5228.85
732.363	5163.58
732.763	5102.43
733.164	5140.93
733.564	5072.37
733.965	4978.01
734.365	4944.39
734.766	4975.59
735.166	4937.1
735.566	4883.16
735.966	4857.21
736.366	4848.03
736.766	4786.2
737.166	4816.48
737.566	4771.95
737.966	4747.83
738.365	4786.19
738.765	4780.84
739.165	4705.37
739.564	4677.77
739.964	4722.91
740.363	4677.3
740.763	4674.89
741.162	4663.54
741.561	4632.39
741.96	4587.17
742.36	4605.16
742.759	4610.38
743.158	4647.1
743.557	4660.57
743.955	4701.96
744.354	4656.59
744.753	4714.31
745.152	4674.73
745.55	4728.44
745.949	4719.87
746.348	4721.19
746.746	4737.61
747.144	4699.95
747.543	4678.05
747.941	4726.57
748.339	4656.21
748.737	4649.27
749.136	4640.81
749.534	4707.05
749.932	4680.26
750.33	4705.88
750.727	4763.12
751.125	4739.52
751.523	4723.6
751.921	4765.77
752.318	4732.26
752.716	4791.64
753.113	4802.66
753.511	4825.3
753.908	4825.58
754.305	4809.89
754.703	4872.73
755.1	4931.88
755.497	4992.89
755.894	5181.99
756.291	5361.65
756.688	5690.23
757.085	6126.55
757.482	6742.34
757.878	7417.48
758.275	8018.9
758.672	8853.3
759.068	9527.7
759.465	10494.5
759.861	11739.2
760.258	13187.69
760.654	13931.09
761.05	13819.36
761.447	13185.67
761.843	12278.58
762.239	11333.79
762.635	10914.95
763.031	10500.4
763.427	9914.13
763.822	9296.28
764.218	8689.15
764.614	7896.99
765.01	7365.15
765.405	7019.98
765.801	6757.65
766.196	6422.41
766.592	6237.08
766.987	5924.57
767.382	5714.89
767.778	5625.01
768.173	5494.93
768.568	5422.39
768.963	5297.97
769.358	5315.87
769.753	5271.67
770.148	5189.09
770.542	5189.08
770.937	5160.73
771.332	5249.15
771.726	5266.86
772.121	5205.04
772.515	5260.68
772.91	5244.14
773.304	5312.1
773.699	5246.1
774.093	5296.61
774.487	5350.06
774.881	5389.77
775.275	5380.69
775.669	5339.81
776.063	5382.5
776.457	5416.78
776.851	5341.14
777.245	5335.93
777.638	5368.4
778.032	5482.87
778.425	5449.03
778.819	5492.28
779.212	5451.79
779.606	5413.47
779.999	5432.59
780.392	5420.18
780.786	5502.33
781.179	5524.89
781.572	5566.78
781.965	5581.51
782.358	5524.39
782.751	5577.49
783.143	5528.63
783.536	5600.57
783.929	5641.49
784.322	5754.33
784.714	5781.52
785.107	5778.77
785.499	5848.57
785.891	5826.56
786.284	5807.04
786.676	5949.48
787.068	5932.75
787.46	5982.41
787.852	6005.83
788.245	6090.99
788.636	6120.53
789.028	6187.93
789.42	6227.14
789.812	6234.4
790.204	6330.84
790.595	6426.53
790.987	6231.02
791.378	6253.79
791.77	6384.86
792.161	6516.83
792.553	6573.67
792.944	6465.35
793.335	6396.48
793.726	6471.79
794.117	6563.77
794.508	6695.61
794.899	6667.71
795.29	6807.47
795.681	6861.76
796.072	6718.73
796.463	6535.39
796.853	6546.75
797.244	6703.43
797.634	6740.13
798.025	6735.73
798.415	6745.76
798.806	6837.71
799.196	6923.7
799.586	6974.82
799.976	6939.58
800.366	7170.83
800.756	7412.15
801.146	7370.3
801.536	7399.6
801.926	7475.56
802.316	7501.36
802.706	7579.26
803.095	7458.48
803.485	7560.08
803.874	7604.73
804.264	7862.72
804.653	7836.22
805.043	7980.25
805.432	8092.51
805.821	8091.03
806.21	8107.72
806.599	8223.83
806.988	8267.77
807.377	8374.53
807.766	8502.65
808.155	8786.17
808.544	8529.42
808.933	8547.47
809.321	8526.87
809.71	8823.13
810.098	8981.5
810.487	9441.43
810.875	9921.85
811.264	9941.96
811.652	10226.69
812.04	10371.63
812.428	10530.32
812.816	11284.83
813.204	11695.05
813.592	12243.1
813.98	12571
814.368	12483.21
814.756	12962.72
815.144	12886.41
815.531	13349.38
815.919	13284.56
816.306	13594.59
816.694	13290.56
817.081	13345.62
817.469	13691.6
817.856	13688.78
818.243	13965.49
818.63	14354.99
819.017	13938.64
819.404	13999.3
819.791	14385.98
820.178	14994.18
820.565	15240.03
820.952	16163.41
821.339	15668.88
821.725	15864.69
822.112	15126.25
822.498	15076.94
822.885	15207.03
823.271	15114.33
823.657	15531.97
824.044	15532.06
824.43	15603.21
824.816	15575.77
825.202	15146.32
825.588	16167.59
825.974	16172.87
826.36	16687.25
826.746	16727.57
827.132	17080.91
827.517	17053.67
827.903	16274.68
828.289	16315.55
828.674	15545.33
829.06	15438.04
829.445	15834.74
829.83	16184.95
830.216	16662.37
830.601	17024.02
830.986	16610.77
831.371	16475.22
831.756	17029.92
832.141	16601.51
832.526	16596.17
832.911	16877.74
833.295	16762.72
833.68	17222.39
834.065	16602.21
834.449	15691.42
834.834	15618.21
835.218	15616.76
835.603	15951.73
835.987	15737.29
836.371	16555.96
836.755	16449.42
837.139	16844.05
837.524	17077.88
837.908	16896.94
838.291	16953.28
838.675	17017.71
839.059	17217.45
839.443	17203.71
839.827	16966.76
840.21	17440.92
840.594	17296.52
840.977	17499.11
841.361	17470.54
841.744	17842.67
842.127	17681.55
842.511	17920.51
842.894	18503.2
843.277	18873.84
843.66	19411.17
844.043	19497.18
844.426	18697.23
844.809	18388.35
845.191	18406.86
845.574	17949.32
845.957	17586.84
846.339	17479.05
846.722	16960.88
847.104	17028.44
847.487	16863.58
847.869	16873.15
848.252	17144.88
848.634	17470.04
849.016	17724.75
849.398	17850.58
849.78	18685.43
850.162	18694.86
850.544	19108
850.926	19730.1
851.307	19645.33
851.689	19918.12
852.071	20360.54
852.452	20678.54
852.834	20660.19
853.215	21050.59
853.597	21202.76
853.978	21495.96
854.359	21942.59
854.741	20957.2
855.122	20851.77
855.503	20563.03
855.884	20695.33
856.265	20624.87
856.646	20735.79
857.026	20343.59
857.407	20282.32
857.788	20441.81
858.169	20728.37
858.549	19895.28
858.93	20513.96
859.31	20561.31
859.69	20766.21
860.071	20367.02
860.451	20157.94
860.831	19430.35
861.211	20571.67
861.591	21109.92
861.971	21078.92
862.351	21267.27
862.731	21640.07
863.111	21901.37
863.491	22234.27
863.87	23102.91
864.25	23443.3
864.629	23046.66
865.009	23547.2
865.388	24391.46
865.768	26140.62
866.147	26032.33
866.526	24585.25
866.905	24892.75
867.284	26291.31
867.663	24958.46
868.042	23919.25
868.421	23840.15
868.8	24243.82
869.179	24485.61
869.558	23057.37
869.936	21257.09
870.315	21647.1
870.693	22179.35
871.072	23911.62
871.45	22768.73
871.828	23066.1
872.207	24250.05
872.585	23890.53
872.963	24546.91
873.341	23707.77
873.719	23419.83
874.097	23130.3
874.475	23561.26
874.853	24103.93
875.23	23090.8
875.608	24063.35
875.986	26015.59
876.363	24875.63
876.741	25625.37
877.118	24973.54
877.495	26198.69
877.873	26647.42
878.25	28052.73
878.627	26915.22
879.004	27284.77
879.381	27164.26
879.758	26447.43
880.135	24632.56
880.512	26041.39
880.889	25356.39
881.265	25092
881.642	24882.29
882.019	25293.79
882.395	24784.49
882.772	25770.85
883.148	24660.76
883.524	24555.08
883.901	24413.26
884.277	24778.59
884.653	24612.5
885.029	25314.17
885.405	28041.82
885.781	27818.6
886.157	26675.47
886.532	26974.04
886.908	26953.66
887.284	29958.74
887.659	30930.84
888.035	31889.94
888.411	32698.73
888.786	33138.95
889.161	34277.58
889.537	33637.47
889.912	34719.09
890.287	34667.84
890.662	35558.08
891.037	34897.9
891.412	32543.9
891.787	32214.34
892.162	31072.77
892.536	31799.93
892.911	30599.39
893.286	29951.32
893.66	28746.83
894.035	29477.8
894.409	32101.72
894.784	30811.52
895.158	31318.7
895.532	33161.39
895.906	34053.04
896.281	34859.42
896.655	34296.17
897.029	39190.57
897.402	40815.93
897.776	45394.78
898.15	45208.82
898.524	44717.5
898.898	45298.07
899.271	50715.69
899.645	43931.29
900.018	42209.34
900.392	43773.84
900.765	44133.09
901.138	40834.96
901.511	40236.66
901.884	36965.24
902.258	34110.66
902.631	35240.43
903.003	40579.81
903.376	36632.05
903.749	41073.2
904.122	43973.32
904.495	48427.67
904.867	49036.33
905.24	42587.17
905.612	39615.52
905.985	40506.05
906.357	42353.83
906.729	40440.2
907.102	34536.69
907.474	33206.69
907.846	33415.53
908.218	32971.62
908.59	29123.77
908.962	28169.67
909.334	30335.25
909.705	31879.4
910.077	30952.5
910.449	32214.63
910.82	33128.74
911.192	36445.89
911.563	37871.37
911.935	40539.91
912.306	40591.71
912.677	41928.75
913.048	41511.09
913.419	45063.32
913.79	45312.76
914.161	48587.59
914.532	46429.43
914.903	42633.79
915.274	40481.34
915.645	39890.84
916.015	35110.5
916.386	33485.14
916.756	35651.42
917.127	36783.11
917.497	32858.43
917.868	35776.55
918.238	34005.74
918.608	34997.67
918.978	35730.79
919.348	37845.68
919.718	39097.17
920.088	37669.88
920.458	39120.8
920.828	41136.16
921.198	39008.73
921.567	41648.86
921.937	32255.33
922.306	32563.7
922.676	35128.82
923.045	29309.11
923.415	27856.68
923.784	25362.16
924.153	26066.67
924.522	26052.62
924.891	24503.58
925.26	26243.38
925.629	25630.57
925.998	29462.54
926.367	28763.62
926.736	27390.32
927.104	32634.8
927.473	35075.07
927.842	42385.05
928.21	41994.14
928.578	44143.28
928.947	41743.98
929.315	41976.57
929.683	49236.25
930.051	49632.58
930.42	57616.68
930.788	49235.98
931.156	48869.8
931.523	45836.09
931.891	42372.38
932.259	40700.44
932.627	47137.86
932.994	66703.32
933.362	55151.9
933.729	47887.33
934.097	45813.68
934.464	38788.58
934.831	44767.44
935.199	44087.16
935.566	42744.09
935.933	43265.23
936.3	52377.95
936.667	40805.08
937.034	36813.83
937.401	36385.96
937.767	31421.97
938.134	27988.27
938.501	39453.22
938.867	42043.34
939.234	71178.8
939.6	60722.6
939.967	67013.24
940.333	44873.06
940.699	38195.98
941.065	30655.12
941.431	40223.27
941.798	38761.67
942.163	50895.21
942.529	31803.14
942.895	29306.14
943.261	18965.43
943.627	24904.94
943.992	21793.22
944.358	21838.02
944.723	21955.65
945.089	21413.16
945.454	19799.48
945.82	21143.34
946.185	20340.53
946.55	23574.45
946.915	21146.16
947.28	24818.64
947.645	21863.04
948.01	20200.28
948.375	21077.87
948.74	25233.71
949.104	29421.75
949.469	42513.07
949.834	75211.62
950.198	71296.85
950.562	42701.35
950.927	35550.01
951.291	42737.55
951.655	36381.83
952.02	34131.34
952.384	25772.18
952.748	22452.34
953.112	21894.75
953.476	19025.64
953.839	17581.69
954.203	17415.33
954.567	21791.73
954.931	34338.2
955.294	29393.35
955.658	29553.73
956.021	50317.22
956.385	85381.12
956.748	125756.97
957.111	194986.17
957.474	218951.07
957.837	246424.31
958.2	186207.99
958.563	66974.7
958.926	45243.9
959.289	68586.77
959.652	76558.49
960.015	57424.13
960.377	82316.25
960.74	94109.26
961.102	162450.66
961.465	174500.04
961.827	93502.41
962.189	179475.48
962.552	124551.05
962.914	99929.94
963.276	64878.69
963.638	53677.75
964	53118.72
964.362	35925.12
964.724	34728.41
965.085	24790.23
965.447	20307.77
965.809	23143.8
966.17	23160.83
966.532	25029.84
966.893	22958.63
967.255	20909.17
967.616	24678.85
967.977	19782.23
968.338	21604.06
968.699	17736.62
969.061	17721
969.421	17846.54
969.782	20021.97
970.143	16930.01
970.504	17535.82
970.865	19915
971.225	20352.82
971.586	19899.77
971.946	28329.37
972.307	24596.24
972.667	32163.73
973.027	33152.31
973.388	40172.1
973.748	27327.89
974.108	29750.21
974.468	40243.25
974.828	31062.43
975.188	23887.42
975.548	21959.17
975.907	18436.17
976.267	20682.11
976.627	17350.26
976.986	17963.46
977.346	17153.58
977.705	16488.21
978.064	14995.28
978.424	12495
978.783	12924.19
979.142	14753.04
979.501	14110.47
979.86	14920.24
980.219	14370.88
980.578	18572.89
980.937	20805.52
981.296	18512.42
981.654	19043.59
982.013	29680.3
982.371	38449.65
982.73	35861.5
983.088	40572.92
983.447	43357.66
983.805	61979.12
984.163	129432.09
984.521	143625.73
984.879	210475.74
985.237	-342301.48
985.595	330330.36
985.953	82080.68
986.311	47485.93
986.669	27605.32
987.026	23856.05
987.384	32082.79
987.741	33162.9
988.099	23708.98
988.456	18885.57
988.814	17697.29
989.171	15391.07
989.528	15187.33
989.885	16012.66
990.242	12666.6
990.599	15766.1
990.956	12896.08
991.313	9022.2
991.67	7400.74
992.027	7836.08
992.383	6972.2
992.74	6111.59
993.096	6411.45
993.453	6648.04
993.809	6900.13
994.165	9197.4
994.522	8432.16
994.878	9275.08
995.234	11613.36
995.59	11468.53
995.946	10884.06
996.302	12400.34
996.658	14348.68
997.013	15801.13
997.369	18740.97
997.725	23976.18
998.08	15506.68
998.436	23900
998.791	33029.87
999.147	33041.75
999.502	36051.63
999.857	26186.91
1000.212	42728.31
1000.567	60638.71
1000.922	34978.61
1001.277	22291.54
1001.632	16559
1001.987	21399.32
1002.342	15361.15
1002.696	12269.79
1003.051	9776.83
1003.406	11841.61
1003.76	11773.65
1004.114	11600.65
1004.469	9795.31
1004.823	8110.71
1005.177	8725.83
1005.531	6906.29
1005.885	6106.13
1006.239	6892.27
1006.593	8652.6
1006.947	11599.76
1007.301	8700.97
1007.655	9507.85
1008.008	6963.37
1008.362	7817.32
1008.715	11176.98
1009.069	10142.67
1009.422	15278.85
1009.776	30681.49
1010.129	20364.97
1010.482	17009.45
1010.835	14364.93
1011.188	29925.95
1011.541	28152.76
1011.894	-172480.39
1012.247	507839.48
1012.6	34476.36
1012.952	21717.81
1013.305	11191.67
1013.657	8076.83
1014.01	7646.89
1014.362	6297.63
1014.715	5585.67
1015.067	4852.27
1015.419	4737.24
1015.771	4206.47
1016.123	3731.88
1016.475	3841.14
1016.827	4093.45
1017.179	4392.15
1017.531	4421.1
1017.883	4511.05
1018.234	4370.08
1018.586	5530.06
1018.938	5876.43
1019.289	8120.63
1019.64	9271.6
1019.992	8648.62
1020.343	7913.93
1020.694	6255.17
1021.045	5521.27
1021.396	6310.58
1021.747	6756.94
1022.098	8066.31
1022.449	5845.23
1022.8	5410.46
1023.151	3776.6
1023.501	3347.86
1023.852	3632.08
1024.202	3783.92
1024.553	4152.61
1024.903	4059.44
1025.253	3478.43
1025.604	3148.89
1025.954	3916.06
1026.304	4791.52
1026.654	5592.63
1027.004	8142.98
1027.354	13184.35
1027.703	12413.32
1028.053	16231.19
1028.403	23577.16
1028.753	34195.18
1029.102	46293.29
1029.452	236518.23
1029.801	10232.91
1030.15	6570.45
1030.499	5549.32
897.758	2683.5
901.051	2637.69
904.343	2671.69
907.636	2673.14
910.928	2737.63
914.22	2648.68
917.511	2654.11
920.803	2716.48
924.094	2737
927.384	2717.61
930.675	2681.14
933.965	2632.07
937.255	2641.26
940.544	2609.15
943.834	2547.96
947.123	2492.81
950.411	2587.87
953.7	2564
956.988	2532.44
960.276	2472.22
963.563	2553.77
966.851	2550.02
970.138	2606.17
973.424	2601.42
976.711	2549.51
979.997	2685.24
983.283	2719.26
986.568	2625.2
989.853	2636.93
993.138	2667.07
996.423	2750.52
999.708	2684.95
1002.992	2750.73
1006.275	2586.56
1009.559	2632.78
1012.842	2751.14
1016.125	2680.51
1019.408	2659.69
1022.69	2746.02
1025.972	2768.47
1029.254	2742.24
1032.536	2673.08
1035.817	2702.42
1039.098	2644.97
1042.379	2791.69
1045.659	2786.83
1048.939	2720.79
1052.219	2744.7
1055.498	2753.7
1058.778	2739.59
1062.057	2724.52
1065.335	2743.02
1068.614	2765.61
1071.892	2746.52
1075.17	2820.94
1078.447	2812.73
1081.724	2804.32
1085.001	2841.43
1088.278	2810.28
1091.554	2826.61
1094.83	2822.38
1098.106	2852
1101.382	2897.74
1104.657	2895.02
1107.932	2891.98
1111.206	2858.42
1114.481	2813.35
1117.755	2816.5
1121.029	2795.95
1124.302	2850.31
1127.575	2802.64
1130.848	2789.17
1134.121	2747.81
1137.393	2697.87
1140.665	2767.5
1143.937	2741.14
1147.208	2700.15
1150.48	2739.74
1153.75	2727.73
1157.021	2757.05
1160.291	2728.74
1163.561	2771.99
1166.831	2762.47
1170.101	2795.81
1173.37	2769.52
1176.639	2711.35
1179.907	2772
1183.176	2778.34
1186.444	2786.24
1189.711	2813.16
1192.979	2825.36
1196.246	2782.24
1199.513	2799.49
1202.78	2796.4
1206.046	2805.3
1209.312	2832.31
1212.578	2860.09
1215.843	2811.38
1219.108	2783.69
1222.373	2807.72
1225.638	2770.58
1228.902	2755.33
1232.166	2718.88
1235.43	2702.28
1238.693	2726.1
1241.956	2724.3
1245.219	2761.91
1248.482	2751.34
1251.744	2746.38
1255.006	2900.07
1258.268	2853.69
1261.529	2797.34
1264.79	2803.87
1268.051	2906.33
1271.312	2925.02
1274.572	2887.85
1277.832	2874.65
1281.092	2865.38
1284.351	2839.19
1287.61	2816.35
1290.869	2730.36
1294.128	2706.7
1297.386	2796.86
1300.644	2783.89
1303.902	2799.69
1307.159	2654.35
1310.416	2711.14
1313.673	2738.88
1316.93	2723.67
1320.186	2769.75
1323.442	2814.7
1326.697	2802.46
1329.953	2791.74
1333.208	2819.25
1336.463	2799.63
1339.717	2737.74
1342.972	2874.23
1346.226	2849.65
1349.479	2780.5
1352.733	2752.26
1355.986	2774.41
1359.238	2751.16
1362.491	2755.83
1365.743	2759.12
1368.995	2750.53
1372.247	2761.32
1375.498	2786.11
1378.749	2801.67
1382	2754.52
1385.251	2809.09
1388.501	2769.22
1391.751	2752.19
1395	2725.48
1398.25	2756.97
1401.499	2763.51
1404.748	2689.63
1407.996	2682.89
1411.244	2666.91
1414.492	2649.03
1417.74	2626.63
1420.987	2634.18
1424.234	2694.73
1427.481	2674
1430.728	2732.58
1433.974	2705.4
1437.22	2721.44
1440.465	2722.27
1443.711	2685.79
1446.956	2724.33
1450.201	2708.25
1453.445	2755.39
1456.689	2735.6
1459.933	2747.3
1463.177	2780.5
1466.42	2750.21
1469.663	2731.34
1472.906	2726.29
1476.148	2802.66
1479.391	2762.21
1482.633	2729.38
1485.874	2742.8
1489.115	2729.12
1492.356	2733.96
1495.597	2706.88
1498.838	2712.3
1502.078	2680.27
1505.318	2629.79
1508.557	2672.05
1511.797	2650.78
1515.036	2719.22
1518.274	2710.03
1521.513	2682.01
1524.751	2702.68
1527.989	2716.29
1531.227	2731.38
1534.464	2723.62
1537.701	2745.61
1540.938	2765.28
1544.174	2716.86
1547.41	2714.56
1550.646	2757.89
1553.882	2790.41
1557.117	2846.34
1560.352	2863.5
1563.587	2819.27
1566.821	2778.08
1570.055	2814.56
1573.289	2781.42
1576.523	2859.1
1579.756	2866.32
1582.989	2885.05
1586.222	2842.15
1589.454	2887.49
1592.686	2857.28
1595.918	2884.22
1599.15	2873.26
1602.381	2949.14
1605.612	2903.65
1608.843	3004.83
1612.073	2914.4
1615.303	2898.61
1618.533	2889.95
1621.762	2893.32
1624.992	2876.67
1628.221	2863.33
1631.449	2847.89
1634.678	2903.86
1637.906	2857.15
1641.134	2895.07
1644.361	2850.7
1647.588	2839.69
1650.815	2856.41
1654.042	2835.1
1657.269	2866.86
1660.495	2817.35
1663.72	2840.22
1666.946	2804.24
1670.171	2749.09
1673.396	2723.01
1676.621	2712.88
1679.845	2732.16
1683.069	2752.49
1686.293	2798.23
1689.517	2765.03
1692.74	2693.94
1695.963	2728.11
1699.185	2743.54
1702.408	2714.2
1705.63	2758.55
1708.852	2770.54
1712.073	2740.3
1715.294	2726.01
1718.515	2785.44
1721.736	2731.43
1724.956	2729.03
1728.176	2755.88
1731.396	2776.23
1734.616	2762.63
1737.835	2792.56
1741.054	2771.11
1744.272	2763.75
1747.491	2796.6
1750.709	2851.87
1753.927	2757.84
1757.144	2801.75
1760.361	2844.07
1763.578	2835.56
1766.795	2773.78
1770.011	2781.92
1773.227	2823.35
1776.443	2857.95
1779.658	2903.26
1782.874	2844.6
1786.089	2821.48
1789.303	2824.24
1792.518	2829.82
1795.732	2816.77
1798.945	2827.57
1802.159	2877.57
1805.372	2779.16
1808.585	2764.25
1811.797	2763.6
1815.01	2815.57
1818.222	2818.14
1821.434	2790.59
1824.645	2851.46
1827.856	2835.08
1831.067	2871.81
1834.278	2825.82
1837.488	2812.6
1840.698	2963.42
1843.908	2886.26
1847.117	2847.87
1850.326	2727.8
1853.535	2836.34
1856.744	2860.14
1859.952	2771.34
1863.16	2774.54
1866.368	2797.27
1869.575	2904.31
1872.782	2784.85
1875.989	2720.59
1879.196	2807.6
1882.402	2802.11
1885.608	2843.45
1888.814	2740.47
1892.019	2635.16
1895.224	2688.29
1898.429	2669
1901.634	2646.74
1904.838	2623.67
1908.042	2674.02
1911.246	2683.31
1914.449	2611.81
1917.652	2607.25
1920.855	2589.95
1924.058	2643.87
1927.26	2681.8
1930.462	2707.74
1933.664	2733.28
1936.865	2669.97
1940.066	2679.54
1943.267	2626.25
1946.467	2643.12
1949.668	2670.65
1952.868	2738.76
1956.067	2716.64
1959.267	2644.55
1962.466	2673.04
1965.665	2658.93
1968.863	2653.61
1972.061	2669.31
1975.259	2668.92
1978.457	2749.51
1981.654	2708.67
1984.852	2707.42
1988.048	2640.08
1991.245	2642.33
1994.441	2728.06
1997.637	2712.96
2000.833	2695.65
2004.028	2735.49
2007.223	2786.39
2010.418	2761.79
2013.613	2723.66
2016.807	2691.19
2020.001	2702.42
2023.194	2745.31
2026.388	2722.95
2029.581	2669.11
2032.774	2718.74
2035.966	2723.72
2039.158	2654.38
2042.35	2684.36
2045.542	2610.29
2048.733	2710.23
2051.924	2731.35
2055.115	2759.43
2058.306	2702.92
2061.496	2761.27
2064.686	2827.11
2067.875	2739.3
2071.065	2752.5
2074.254	2781.46
2077.442	2733.28
2080.631	2821.88
2083.819	2713.11
2087.007	2697.23
2090.195	2667.67
2093.382	2704.11
2096.569	2683.76
2099.756	2635.24
2102.942	2661.33
2106.128	2669.18
2109.314	2659.91
2112.5	2623.36
2115.685	2599.57
2118.87	2609.58
2122.055	2675.6
2125.239	2639.6
2128.424	2614.94
2131.608	2717.56
2134.791	2697.91
2137.974	2756.35
2141.157	2741.54
2144.34	2693.27
2147.523	2706.99
2150.705	2722.8
2153.887	2702.21
2157.068	2650.45
2160.25	2654.88
2163.431	2690.17
2166.611	2637.71
2169.792	2653.94
2172.972	2546.97
2176.152	2625.96
2179.331	2659.15
2182.511	2643.03
2185.69	2675.05
2188.868	2667.97
2192.047	2724.44
2195.225	2712.45
2198.403	2664.75
2201.58	2653.28
2204.758	2649.69
2207.935	2730.99
2211.111	2620.88
2214.288	2606.12
2217.464	2645.5
2220.64	2614
2223.815	2671.99
2226.991	2592.15
2230.166	2611.99
2233.34	2640
2236.515	2668.57
2239.689	2742.81
2242.863	2687.75
2246.036	2742.23
2249.209	2744.79
2252.382	2778.14
2255.555	2761.81
2258.727	2697.32
2261.9	2739.52
2265.071	2730.49
2268.243	2734.24
2271.414	2664.38
2274.585	2625.14
2277.756	2694.16
2280.926	2651.57
2284.096	2691.41
2287.266	2596.9
2290.436	2657.08
2293.605	2685.95
2296.774	2714.56
2299.942	2741.52
2303.111	2754.61
2306.279	2806.07
2309.447	2790.32
2312.614	2763.04
2315.781	2782.62
2318.948	2751.41
2322.115	2791.24
2325.281	2692.5
2328.447	2711.81
2331.613	2685.76
2334.779	2653.89
2337.944	2658.89
2341.109	2654.71
2344.274	2638.5
2347.438	2605.63
2350.602	2628.21
2353.766	2646.35
2356.929	2632.41
2360.092	2673.42
2363.255	2625.3
2366.418	2558.77
2369.58	2673.69
2372.742	2457.8
2375.904	2473.93
2379.066	2449.9
2382.227	2485.78
2385.388	2447.17
2388.548	2372.98
2391.709	2429.38
2394.869	2406.66
2398.029	2509.7
2401.188	2523.64
2404.347	2455.93
2407.506	2600.77
2410.665	2627.62
2413.823	2635.76
2416.981	2591.71
2420.139	2626.64
2423.296	2673.99
2426.453	2647.09
2429.61	2671.18
2432.767	2601.56
2435.923	2641.07
2439.079	2602.62
2442.235	2652.08
2445.391	2580.59
2448.546	2610.08
2451.701	2658.4
2454.855	2627.68
2458.009	2683.67
2461.163	2686.45
2464.317	2645.87
2467.471	2680.03
2470.624	2719.93
2473.777	2690.87
2476.929	2705.05
2480.082	2728.73
2483.234	2689.62
2486.385	2647.51
2489.537	2640.22
2492.688	2598.06
2495.839	2616.93
2498.989	2627.57
2502.14	2612.76
2505.29	2592.62
2508.439	2621.34
2511.589	2541.86
2514.738	2557.13
2517.887	2589.77
2521.035	2652.32
2524.183	2635.3
2527.331	2617.82
2530.479	2589.18
2533.627	2601.61
