Data from C_3_DEC_ON_6N_Splice17_13-35-56-820.txt Node
Date: Sat Mar 14 13:35:56 EDT 2020
User: sa697716
Spectrometer: FLMS03696
Trigger mode: 0
Integration Time (sec): 3.180400E-1
Scans to average: 20
Electric dark correction enabled: true
Nonlinearity correction enabled: true
Boxcar width: 5
XAxis mode: Wavelengths
Number of Pixels in Spectrum: 2048
>>>>>Begin Spectral Data<<<<<
187.83	-494624.44
188.298	3427.39
188.766	1756.8
189.233	1579.06
189.701	2247.6
190.169	3098.63
190.636	1130.34
191.104	836.67
191.571	56.7
192.039	-141.98
192.506	-112.89
192.974	520.55
193.441	-827.31
193.908	-359.95
194.375	-88.32
194.842	-51.53
195.31	49.07
195.777	187.57
196.244	537.34
196.711	811.67
197.177	1068.6
197.644	1595.02
198.111	2784.97
198.578	3902.81
199.045	3154.37
199.511	5141.19
199.978	6064.09
200.445	5073.85
200.911	5595.39
201.378	6261.45
201.844	5545.25
202.31	9401.58
202.777	9679.37
203.243	5311.86
203.709	5017.21
204.176	5906.54
204.642	4838.5
205.108	4483.98
205.574	3657.14
206.04	3342.09
206.506	3126.6
206.972	2957.99
207.438	2847.93
207.903	3218.97
208.369	2799.33
208.835	2757.66
209.301	2865.51
209.766	2927.7
210.232	2858.54
210.697	3497.77
211.163	4248.53
211.628	6289.54
212.094	5177.18
212.559	6217.68
213.024	3828.09
213.49	4611.67
213.955	4440.61
214.42	4297.88
214.885	3920.85
215.35	3704.88
215.815	3498.32
216.28	3628.43
216.745	2875.17
217.21	3005.48
217.675	2622.27
218.14	2750.33
218.604	2830.12
219.069	2966.15
219.534	2871.67
219.998	3032.16
220.463	3342.14
220.927	3668.45
221.392	3165.35
221.856	2970.72
222.32	3411.73
222.785	3933.99
223.249	4632.46
223.713	4850.13
224.177	4595.56
224.642	5477.48
225.106	6421.58
225.57	6691.23
226.034	4879.63
226.497	7133.31
226.961	6231.3
227.425	7105.35
227.889	7558.69
228.353	7314.46
228.816	14562.62
229.28	13626.18
229.744	11210.5
230.207	6716.82
230.671	6444.25
231.134	10187.59
231.597	11605.06
232.061	11226.48
232.524	10561.55
232.987	7169.16
233.45	6368.91
233.914	5600.4
234.377	5532.35
234.84	4995.26
235.303	5753.78
235.766	6319.74
236.229	6446.86
236.691	3952.24
237.154	4369.75
237.617	3273.97
238.08	3299.43
238.542	3791.77
239.005	2727.12
239.468	2723.24
239.93	2563.8
240.393	2334.02
240.855	2045.23
241.317	2072.61
241.78	2492.5
242.242	2590.86
242.704	2849.15
243.166	2491.59
243.629	2301.42
244.091	2628.2
244.553	2859.31
245.015	3060.97
245.477	3899.76
245.939	5673.15
246.4	6018.64
246.862	5819.09
247.324	5438.67
247.786	5963.67
248.247	7720.05
248.709	7708.99
249.17	5787.85
249.632	5530.78
250.093	6490.13
250.555	5613.47
251.016	3458.31
251.477	3278.01
251.939	3551.09
252.4	3718.7
252.861	4344.42
253.322	4065.95
253.783	4815.11
254.244	6153.58
254.705	4794.35
255.166	4190.12
255.627	4134.06
256.088	5857.72
256.549	6230.56
257.009	5362.2
257.47	6464.1
257.931	5287.42
258.391	3949.27
258.852	4076.19
259.312	4256.04
259.773	5208.74
260.233	4434.49
260.694	3734.27
261.154	4134
261.614	3357.27
262.074	2939.53
262.534	3057.21
262.994	2876.34
263.455	3756.24
263.915	3149.46
264.374	2921.22
264.834	3133.77
265.294	3363.28
265.754	3437.42
266.214	3223.4
266.673	2934.4
267.133	3667.99
267.593	3541.42
268.052	4269.52
268.512	3655.93
268.971	4450.18
269.431	4874.98
269.89	4331.41
270.349	6501.2
270.809	7212.96
271.268	6487.67
271.727	14342.52
272.186	9325.87
272.645	7043.69
273.104	5011.1
273.563	7247.33
274.022	5549.02
274.481	4797.04
274.94	3758.74
275.399	2784.2
275.857	3226.76
276.316	4351.79
276.775	3898.58
277.233	3850.97
277.692	3693.27
278.15	4271.97
278.609	4546.36
279.067	4256.61
279.525	4005.28
279.984	5158.76
280.442	6295.19
280.9	6427.96
281.358	4287.55
281.816	4082.74
282.274	4047.33
282.732	4134.44
283.19	4178.49
283.648	3607.51
284.106	3892.72
284.564	3984
285.021	3786.02
285.479	2843.23
285.937	2551.32
286.394	2287.91
286.852	2354.71
287.309	2506.17
287.767	2507.3
288.224	2427.47
288.682	2673.19
289.139	2976.6
289.596	2746.79
290.053	2825.01
290.511	3549.73
290.968	4328.22
291.425	5780.33
291.882	4906.09
292.339	4251.08
292.796	4144.21
293.252	3842.03
293.709	3093.91
294.166	2741.96
294.623	2992.3
295.079	2850.06
295.536	2882.35
295.992	2605.67
296.449	2587.08
296.905	2694.92
297.362	2636.36
297.818	2758.62
298.274	2909.21
298.731	2915.74
299.187	2884.46
299.643	3090.92
300.099	3754.79
300.555	4119.42
301.011	3456.18
301.467	3428.87
301.923	3936.19
302.379	3815.27
302.835	3776.49
303.291	3786.34
303.746	4333.92
304.202	5527.25
304.658	5615.52
305.113	3799.37
305.569	3767.84
306.024	4020.08
306.479	3759.72
306.935	3216.51
307.39	3501.48
307.845	3258.69
308.301	3333.07
308.756	3273.22
309.211	3192.04
309.666	3288.54
310.121	4200.16
310.576	4258.87
311.031	4281.84
311.486	4898.33
311.94	4928.97
312.395	6686.99
312.85	12658.99
313.305	61712.04
313.759	329975.59
314.214	24051.26
314.668	19430.66
315.123	16494.79
315.577	6028.61
316.032	5409.05
316.486	6853.14
316.94	5496.33
317.394	3870.88
317.849	3030.98
318.303	2851.62
318.757	2678.08
319.211	2953.7
319.665	2544.86
320.119	2546.47
320.572	3613.35
321.026	3383.06
321.48	2802.12
321.934	2988.24
322.387	2969.46
322.841	3205.8
323.295	2973.62
323.748	3359.16
324.202	3428.51
324.655	4180.42
325.108	5991.79
325.562	4245.25
326.015	5026.51
326.468	3832.63
326.921	4342.04
327.374	4108.37
327.827	4350.64
328.28	4905.24
328.733	3362.8
329.186	2969.11
329.639	2822.04
330.092	2370.88
330.545	2291.66
330.997	2353.25
331.45	2620.64
331.903	3138.14
332.355	5367.71
332.808	5185.89
333.26	4282.2
333.713	4683.23
334.165	4754.2
334.617	6382.28
335.069	5079.3
335.522	9152.05
335.974	10161.72
336.426	9305.96
336.878	6361.95
337.33	3259.62
337.782	3211.94
338.234	4089.32
338.686	4843.11
339.137	5782.77
339.589	5464.14
340.041	4365.37
340.493	3747.6
340.944	3820.14
341.396	4107.09
341.847	3513.58
342.299	4190.06
342.75	5155.24
343.201	4423.86
343.653	5070.13
344.104	6144.7
344.555	4837.05
345.006	7398.25
345.457	5785.95
345.908	4567.56
346.359	4321.1
346.81	3467.48
347.261	3597.59
347.712	3503.11
348.163	3735.8
348.613	3866.84
349.064	3625.97
349.515	3164.11
349.965	3291.9
350.416	3910.54
350.866	4306.14
351.317	4800.69
351.767	7986.65
352.217	10137.55
352.668	8464.28
353.118	7869.41
353.568	7475.4
354.018	5992
354.468	6426.18
354.918	4631.19
355.368	4080.83
355.818	5781.16
356.268	16644.46
356.718	70742.34
357.168	17845.29
357.617	8995.83
358.067	9978.62
358.517	9420.19
358.966	11136.15
359.416	12586.31
359.865	13498.29
360.315	16072.19
360.764	7552.95
361.213	4303.89
361.663	4037.06
362.112	4967.07
362.561	8036.6
363.01	6103.04
363.459	5133.54
363.908	5543.63
364.357	4755.27
364.806	8060.87
365.255	5581.92
365.703	5213.95
366.152	5265.06
366.601	4316
367.05	3545.93
367.498	3252.46
367.947	3391.3
368.395	3538.72
368.844	3160.74
369.292	3747.77
369.74	2615.7
370.189	4012.86
370.637	4697.37
371.085	4016.56
371.533	4897.83
371.981	4693.85
372.429	4498.77
372.877	4717.56
373.325	3963.54
373.773	4027.67
374.221	3606.04
374.669	4472.08
375.116	3842.82
375.564	3862.46
376.012	4338.28
376.459	3589.56
376.907	4298.4
377.354	5160.15
377.801	4886.22
378.249	5713.13
378.696	7311.02
379.143	8930.72
379.591	9540.57
380.038	16325.64
380.485	11996.63
380.932	13118.63
381.379	12384.32
381.826	9387.35
382.273	6866.15
382.72	6119.93
383.166	6127.24
383.613	4146.55
384.06	3874.85
384.506	4699.96
384.953	3618.82
385.4	3818.64
385.846	3554.49
386.292	3679.58
386.739	3872.76
387.185	4140.09
387.631	4506.88
388.078	4815.95
388.524	5588.48
388.97	5555.06
389.416	4913.99
389.862	5454.59
390.308	5386.83
390.754	5753.91
391.2	6662.74
391.645	7373.31
392.091	7653.28
392.537	7945.87
392.983	8402.43
393.428	8625.59
393.874	9687.5
394.319	10407.15
394.765	10866.8
395.21	12441.9
395.655	12978.83
396.101	13384.87
396.546	13187.31
396.991	14513.68
397.436	14664.26
397.881	15485.72
398.326	16140.1
398.771	16692.18
399.216	15888.22
399.661	15374.76
400.106	16268.47
400.551	17566.61
400.995	16527.87
401.44	17063.08
401.885	16623.97
402.329	17364.35
402.774	17124.92
403.218	16967.62
403.663	16827.49
404.107	17782.23
404.551	18462.65
404.995	17541.77
405.44	17573.93
405.884	18537.96
406.328	18581.46
406.772	19103.14
407.216	17938.64
407.66	17986.8
408.104	17858.7
408.547	17383.12
408.991	17422.76
409.435	17316.22
409.879	17476.41
410.322	17638.19
410.766	17406.84
411.209	16961.8
411.653	16781.6
412.096	16893.39
412.54	17360.82
412.983	17622.8
413.426	17982.91
413.869	18359.22
414.312	18317.09
414.756	18035.83
415.199	17550.39
415.642	17346.09
416.085	17643.55
416.527	17782.25
416.97	18336.68
417.413	17572.48
417.856	17596.27
418.298	17575.25
418.741	17547.7
419.184	17610.62
419.626	18457.51
420.069	18531.09
420.511	18720.24
420.953	18435.9
421.396	18409.88
421.838	18123
422.28	18697.49
422.722	18930.53
423.164	19495.24
423.606	19437.33
424.048	19739.94
424.49	18974.53
424.932	19150.76
425.374	19134.94
425.816	19616.32
426.258	19939.95
426.699	19916.6
427.141	19198.44
427.582	19164.39
428.024	18843.15
428.465	18779.24
428.907	18525.69
429.348	18662.39
429.789	18941.97
430.231	18753.73
430.672	19256.14
431.113	19164.78
431.554	19496.34
431.995	19896.44
432.436	19969.13
432.877	20240.35
433.318	20377.32
433.759	20712.52
434.2	21014.27
434.64	21079.03
435.081	21429.01
435.522	20627.31
435.962	20277.39
436.403	20141.77
436.843	20765.21
437.284	20651.97
437.724	20366.2
438.164	20723.85
438.604	20452.94
439.045	19835.3
439.485	19218.06
439.925	19140.86
440.365	18978.48
440.805	18970.91
441.245	18923.48
441.685	18354.62
442.125	18362.01
442.564	18559.76
443.004	18151.19
443.444	18184.08
443.883	18306.81
444.323	18384.87
444.762	18637.72
445.202	19024.05
445.641	19415.45
446.081	19493.63
446.52	19769.88
446.959	19697.73
447.398	19366.85
447.837	19365
448.276	19229.76
448.716	19541.11
449.154	19781.45
449.593	19219.42
450.032	19104.09
450.471	18801.38
450.91	18798.84
451.349	18660.75
451.787	18540.94
452.226	18746.41
452.664	18652.04
453.103	18580.82
453.541	18533.38
453.98	18364.86
454.418	18494.43
454.856	18119.95
455.295	18029.08
455.733	18055.65
456.171	18103.77
456.609	18007.37
457.047	17934.61
457.485	18070.26
457.923	18015.88
458.361	17739.93
458.798	17811.25
459.236	17767.59
459.674	17983.33
460.111	18113.64
460.549	17988.98
460.987	18023.42
461.424	18067.95
461.862	18043
462.299	17855.1
462.736	17882.59
463.173	18000.96
463.611	17757.13
464.048	17743.09
464.485	17936.44
464.922	17889.02
465.359	17958.74
465.796	17580.9
466.233	17570.64
466.67	17484.56
467.106	17539.49
467.543	17553.78
467.98	17499.27
468.416	17327.16
468.853	17432.46
469.29	17116.76
469.726	17086.79
470.162	16771.07
470.599	16937.64
471.035	16962.38
471.471	16739.65
471.907	16856.9
472.344	16871.43
472.78	16956.77
473.216	17230.39
473.652	17021.08
474.088	17013.09
474.523	16948.22
474.959	17125.68
475.395	16962.32
475.831	16805.51
476.266	16866.97
476.702	16781.62
477.138	16542.32
477.573	16452.39
478.008	16327.21
478.444	16314.25
478.879	16330.79
479.314	16304.4
479.75	16180.54
480.185	16161.39
480.62	16195.55
481.055	16141.25
481.49	16080.87
481.925	16124.98
482.36	16085.57
482.795	16241.77
483.229	16364.21
483.664	16389.51
484.099	16179.32
484.534	16168.64
484.968	16095.52
485.403	15962.91
485.837	15802.47
486.271	15644.04
486.706	15577.19
487.14	15435.1
487.574	15207.98
488.009	15110.51
488.443	14996.83
488.877	15080.69
489.311	15077.71
489.745	15175.59
490.179	15226.28
490.613	15371.75
491.046	15430.59
491.48	15464.4
491.914	15396.71
492.348	15428.7
492.781	15440.42
493.215	15431.6
493.648	15464.9
494.082	15553.49
494.515	15506.12
494.948	15587.64
495.382	15644.92
495.815	15644.95
496.248	15648.09
496.681	15816.59
497.114	15956.13
497.547	16027.19
497.98	16113.76
498.413	16034.1
498.846	16046.05
499.279	16083.78
499.711	16065.17
500.144	15997.84
500.577	16047.03
501.009	16130.27
501.442	16157.21
501.874	16040.19
502.306	16008.87
502.739	16037.47
503.171	16281.52
503.603	16275.72
504.036	16352.85
504.468	16324.84
504.9	16394.39
505.332	16398.94
505.764	16340.74
506.196	16343.63
506.627	16445.97
507.059	16493.43
507.491	16508.93
507.923	16246.12
508.354	16288.7
508.786	16266.72
509.217	16357.9
509.649	16394.81
510.08	16489.48
510.512	16503.92
510.943	16498.65
511.374	16432.49
511.805	16501.54
512.237	16560.66
512.668	16815.01
513.099	16955.08
513.53	17033.8
513.961	16991.28
514.391	17100.84
514.822	17191.46
515.253	17360.43
515.684	17386.52
516.114	17478.63
516.545	17455.22
516.975	17504.79
517.406	17455.21
517.836	17250.39
518.267	17132.68
518.697	17168.77
519.127	17054.45
519.558	16983.43
519.988	16855.19
520.418	16813.01
520.848	16844.18
521.278	16773.87
521.708	16344.49
522.138	16319.29
522.567	16484.53
522.997	16562.43
523.427	16526.12
523.857	16489.33
524.286	16406.43
524.716	16386.5
525.145	16404.46
525.575	16357.45
526.004	16366.4
526.433	16555.48
526.863	16429.6
527.292	16200.62
527.721	16162.68
528.15	16164.85
528.579	16121.25
529.008	16169.7
529.437	16320.09
529.866	16365.34
530.295	16433.5
530.724	16433.15
531.152	16581.61
531.581	16611.71
532.01	16698.73
532.438	16703.1
532.867	16764.46
533.295	16858.22
533.723	16842.88
534.152	16761.75
534.58	16707.74
535.008	16525.12
535.436	16498.75
535.865	16534.13
536.293	16626.25
536.721	16715.45
537.149	16869.51
537.576	16820.04
538.004	16883.97
538.432	16925.9
538.86	16885.53
539.287	16936.82
539.715	17039.24
540.143	17073.33
540.57	17043.36
540.998	17029.06
541.425	16829.99
541.852	16695.23
542.28	16733.29
542.707	16645.23
543.134	16559.71
543.561	16562.02
543.988	16530.89
544.415	16570.34
544.842	16554.31
545.269	16518.41
545.696	16559.42
546.123	16731.92
546.549	16670.96
546.976	16581.77
547.403	16601.57
547.829	16654.72
548.256	16713.83
548.682	16712.84
549.108	16671.17
549.535	16706.7
549.961	16759.56
550.387	16667.78
550.813	16628.14
551.24	16713.77
551.666	16757.51
552.092	16698.07
552.518	16669.73
552.943	16626.38
553.369	16722.28
553.795	16791.91
554.221	16807.37
554.646	16792.73
555.072	16878.79
555.498	16937.36
555.923	17011.41
556.349	17131.16
556.774	17199.7
557.199	17196.55
557.625	17269.3
558.05	17210.05
558.475	17316.04
558.9	17305.47
559.325	17226.22
559.75	17187.89
560.175	17146.21
560.6	17115.47
561.025	17118.07
561.449	17143.97
561.874	17207.62
562.299	17229.55
562.723	17295.57
563.148	17186.43
563.572	17223.59
563.997	17316.96
564.421	17372.77
564.846	17370.06
565.27	17377.23
565.694	17340.32
566.118	17421.28
566.542	17464.09
566.966	17389.14
567.39	17319.9
567.814	17196.66
568.238	17179.1
568.662	17227.39
569.086	17253.6
569.509	17352.85
569.933	17239.87
570.357	17230.57
570.78	17100
571.204	17040.53
571.627	17027.2
572.05	17107.08
572.474	17204.02
572.897	17200.76
573.32	17230.48
573.743	17261.23
574.166	17181.96
574.589	17311.68
575.012	17344.74
575.435	17456.02
575.858	17485.37
576.281	17502.91
576.704	17482.49
577.126	17510.08
577.549	17528.81
577.972	17574.97
578.394	17589.96
578.817	17622.5
579.239	17556.63
579.661	17541.85
580.084	17478.89
580.506	17476.26
580.928	17562.47
581.35	17564.07
581.772	17621.44
582.194	17571.67
582.616	17511.97
583.038	17446.58
583.46	17433.13
583.882	17466.99
584.303	17596.92
584.725	17633.11
585.147	17625.74
585.568	17749.3
585.99	17849.88
586.411	17883.35
586.833	18016.45
587.254	18012.69
587.675	18173.32
588.096	18318.89
588.518	18259.21
588.939	18060.3
589.36	18034.01
589.781	18015.88
590.202	17689.1
590.623	17664.58
591.043	17719.07
591.464	17624.98
591.885	17614.83
592.305	17566.83
592.726	17416.81
593.147	17429.48
593.567	17367.54
593.987	17269.95
594.408	17187.68
594.828	17181.11
595.248	17060.95
595.669	16788.01
596.089	16669.75
596.509	16567.21
596.929	16359.17
597.349	16307.54
597.769	16133.02
598.189	15987.58
598.608	15934.75
599.028	15882.41
599.448	15824.87
599.867	15638.85
600.287	15562.41
600.706	15466.8
601.126	15313.51
601.545	15261.94
601.965	15229.81
602.384	15158.5
602.803	15184.25
603.222	15120.77
603.641	15054.4
604.061	15007.61
604.48	14974.76
604.898	15070.53
605.317	15144.56
605.736	15181.82
606.155	15161.31
606.574	15075.01
606.992	15149.42
607.411	15112.41
607.829	15063.72
608.248	15065.03
608.666	15083.26
609.085	15106.78
609.503	15046.33
609.921	15009.42
610.339	15072.48
610.758	15117.5
611.176	15111.53
611.594	15054.92
612.012	15071.85
612.43	15141.15
612.847	15259.04
613.265	15290.08
613.683	15381.3
614.101	15439.77
614.518	15455.66
614.936	15396.38
615.353	15279.27
615.771	15295.58
616.188	15354.1
616.606	15365.68
617.023	15347.04
617.44	15238.16
617.857	15240.11
618.274	15204.71
618.691	15173.89
619.108	15106.18
619.525	15067.96
619.942	15165.82
620.359	15212.71
620.776	15165.9
621.192	15108.18
621.609	15067.31
622.026	15116.48
622.442	15158.3
622.859	15180.35
623.275	15085.4
623.691	15132.55
624.108	15249.71
624.524	15405.49
624.94	15379.57
625.356	15471.58
625.772	15619.69
626.188	15752.21
626.604	15759.52
627.02	15697.45
627.436	15648.48
627.852	15699.78
628.268	15815.5
628.683	15694.42
629.099	15583.31
629.514	15540.04
629.93	15594.12
630.345	15653.41
630.761	15622.03
631.176	15682.66
631.591	15614.5
632.007	15567.63
632.422	15593.37
632.837	15498.56
633.252	15492.98
633.667	15413.33
634.082	15343.41
634.497	15226.64
634.911	15024.36
635.326	15034.9
635.741	14884.78
636.155	14843.92
636.57	14904.4
636.984	14952.22
637.399	15011.54
637.813	15083.3
638.228	15130.39
638.642	15247.52
639.056	15192.26
639.47	15274.14
639.884	15233.4
640.298	15226.77
640.712	15273.01
641.126	15201.6
641.54	15181.61
641.954	15238.57
642.368	15151.97
642.781	15090.35
643.195	14932.24
643.609	14995.44
644.022	14975.43
644.436	14970.32
644.849	14853.66
645.262	14741.49
645.676	14804.48
646.089	14750.48
646.502	14528.78
646.915	14485.82
647.328	14317.9
647.741	14328.41
648.154	14192.96
648.567	14151.63
648.98	13997.24
649.393	14048.23
649.805	14041.93
650.218	13987.39
650.631	13818.88
651.043	13797.21
651.456	13748.52
651.868	13781.38
652.28	14010.57
652.693	14139.9
653.105	14144.87
653.517	14148.98
653.929	14024.96
654.341	14009.36
654.753	13781.13
655.165	13846.39
655.577	13812.05
655.989	13777.61
656.401	13731.2
656.813	13302.27
657.224	13173.99
657.636	12996.85
658.047	12954.9
658.459	12892.74
658.87	12966.52
659.282	12960.39
659.693	12767.95
660.104	12651.63
660.515	12545.61
660.926	12595.99
661.338	12648.51
661.749	12635.78
662.159	12547.77
662.57	12572.83
662.981	12562.69
663.392	12490.24
663.803	12595.07
664.213	12617.62
664.624	12607.45
665.035	12702.01
665.445	12539.32
665.855	12449.88
666.266	12336.54
666.676	12334.63
667.086	12208.34
667.497	12195.88
667.907	12105.82
668.317	11962.36
668.727	11842.01
669.137	11853.82
669.547	11796.35
669.956	11824.92
670.366	11835.81
670.776	11832.26
671.186	11867.5
671.595	11879.11
672.005	11916.2
672.414	11856.5
672.824	11785.04
673.233	11879.09
673.642	11867.71
674.052	11857.43
674.461	11818.57
674.87	11850.4
675.279	11750.63
675.688	11743.48
676.097	11695.07
676.506	11592.34
676.915	11766.13
677.323	11751.42
677.732	11667.65
678.141	11603.86
678.549	11409.08
678.958	11358.72
679.366	11295.27
679.775	11332.96
680.183	11367.21
680.592	11392.78
681	11390.06
681.408	11201.49
681.816	11227.23
682.224	11259.03
682.632	11263.96
683.04	11531.02
683.448	11664.32
683.856	11783.34
684.264	11883.37
684.671	11954.8
685.079	12086.72
685.487	12259.3
685.894	12614.81
686.302	12809.84
686.709	12859.22
687.116	12994.91
687.524	13019.8
687.931	13042.12
688.338	13103.07
688.745	13181.11
689.152	13282.6
689.559	13447.93
689.966	13559.03
690.373	13446.39
690.78	13486.61
691.187	13712.64
691.593	13773.86
692	13790.17
692.407	13953.44
692.813	14188.5
693.22	14327.24
693.626	14510
694.032	14600.08
694.439	14892.58
694.845	15074.73
695.251	15367.78
695.657	15587.67
696.063	16033.89
696.469	16272.52
696.875	16455.63
697.281	16435.45
697.687	16439.94
698.093	16365.48
698.498	16510.85
698.904	16546.17
699.31	16760.55
699.715	16812.8
700.12	17073.31
700.526	16926.48
700.931	17102.12
701.337	17187.53
701.742	17187.15
702.147	17481.82
702.552	17478.06
702.957	17653.1
703.362	17615.26
703.767	17635.58
704.172	17725.6
704.577	17350.8
704.981	17466.01
705.386	17403.59
705.791	17226.38
706.195	17473.85
706.6	17381.06
707.004	17668.77
707.408	17393.12
707.813	17401.99
708.217	17214.37
708.621	17103.97
709.025	17452.33
709.43	17327.85
709.834	17492.85
710.237	17709.2
710.641	17520.44
711.045	17509.01
711.449	17352.23
711.853	17344.02
712.256	17414.27
712.66	17458.73
713.064	17656.46
713.467	17651.97
713.87	17910.37
714.274	17821.6
714.677	17948.89
715.08	18238.57
715.484	18507.91
715.887	18853.31
716.29	19183.12
716.693	19485.17
717.096	19887.87
717.499	19923.34
717.901	19708.76
718.304	19663.61
718.707	19750.58
719.109	19482.66
719.512	19529.15
719.915	19190.59
720.317	19147.47
720.719	19419.67
721.122	19414.75
721.524	19316
721.926	19186.77
722.328	19524.05
722.731	19379.78
723.133	19321.01
723.535	19834.64
723.937	19710.68
724.338	19720.14
724.74	19712.17
725.142	19221.4
725.544	19163.91
725.945	19169.45
726.347	19138.43
726.748	19084.82
727.15	19115.26
727.551	18946.43
727.952	18821.96
728.354	18700.64
728.755	18718.97
729.156	18630.97
729.557	18832.42
729.958	18500.38
730.359	18457.65
730.76	18521.63
731.161	18453.09
731.562	18503.42
731.962	18669.27
732.363	18562.84
732.763	18445.94
733.164	18674.7
733.564	18491.76
733.965	18181.56
734.365	18084.47
734.766	18213.33
735.166	18071.71
735.566	17846.74
735.966	17723.23
736.366	17670.21
736.766	17433.84
737.166	17555.23
737.566	17408.42
737.966	17315.79
738.365	17454.03
738.765	17420.2
739.165	17134.09
739.564	17035.55
739.964	17219.29
740.363	17074.54
740.763	17096.67
741.162	17065.29
741.561	16955.19
741.96	16795.21
742.36	16889.46
742.759	16930.84
743.158	17100.79
743.557	17174.79
743.955	17332.04
744.354	17165.38
744.753	17380.24
745.152	17217.34
745.55	17423.71
745.949	17392.11
746.348	17380.7
746.746	17420.51
747.144	17231.42
747.543	17119.09
747.941	17258.79
748.339	16965.05
748.737	16898.24
749.136	16814.59
749.534	17009.51
749.932	16854.5
750.33	16894.78
750.727	17055.12
751.125	16925.16
751.523	16843.44
751.921	16944.85
752.318	16782.65
752.716	16945.7
753.113	16950.13
753.511	16993.3
753.908	16946.82
754.305	16828.42
754.703	17001.47
755.1	17159.8
755.497	17315.23
755.894	17868.99
756.291	18257.87
756.688	18905.38
757.085	19538.93
757.482	20326.85
757.878	20934.41
758.275	21201.12
758.672	22003.64
759.068	22302.27
759.465	23075.61
759.861	24089.57
760.258	25193.42
760.654	25022.35
761.05	23912.14
761.447	22815.91
761.843	21892.54
762.239	21162.74
762.635	21326.35
763.031	21373.12
763.427	20936.13
763.822	20437.64
764.218	20019.97
764.614	19136.46
765.01	18768.16
765.405	18746.07
765.801	18828.4
766.196	18586.41
766.592	18653.67
766.987	18227.94
767.382	18011.36
767.778	18096.64
768.173	17969.37
768.568	17952.73
768.963	17699.39
769.358	17882.1
769.753	17825.54
770.148	17619.39
770.542	17682.33
770.937	17627.58
771.332	17961.8
771.726	18041.27
772.121	17817.63
772.515	18005.02
772.91	17958.67
773.304	18210.81
773.699	17991.39
774.093	18170.12
774.487	18344.21
774.881	18464.13
775.275	18422.35
775.669	18263.43
776.063	18393.62
776.457	18502.85
776.851	18223.59
777.245	18161.67
777.638	18231.51
778.032	18570.83
778.425	18401.44
778.819	18493.23
779.212	18311.76
779.606	18137.84
779.999	18163.03
780.392	18055.91
780.786	18277.16
781.179	18290.6
781.572	18376.96
781.965	18361.51
782.358	18118.63
782.751	18247.76
783.143	18037.03
783.536	18203.53
783.929	18262.66
784.322	18539.06
784.714	18548.22
785.107	18443.99
785.499	18570.63
785.891	18378.69
786.284	18194.21
786.676	18491.64
787.068	18285.4
787.46	18302.45
787.852	18227.47
788.245	18346.7
788.636	18303.08
789.028	18366.99
789.42	18341.81
789.812	18237.53
790.204	18412.08
790.595	18588.57
790.987	17942.54
791.378	17929.75
791.77	18216.3
792.161	18514.48
792.553	18591.47
792.944	18184.38
793.335	17897.5
793.726	18000.09
794.117	18158.08
794.508	18458.4
794.899	18311.82
795.29	18623.64
795.681	18696.62
796.072	18227.04
796.463	17592.86
796.853	17505.44
797.244	17818.88
797.634	17812.95
798.025	17716.6
798.415	17646.29
798.806	17741.65
799.196	17818.5
799.586	17791.63
799.976	17543.66
800.366	17969.6
800.756	18463.02
801.146	18239.13
801.536	18193.59
801.926	18248.27
802.316	18200.12
802.706	18267.88
803.095	17882.59
803.485	18033.41
803.874	18042.33
804.264	18564.16
804.653	18407.39
805.043	18638.62
805.432	18772.04
805.821	18646.26
806.21	18556.62
806.599	18668.24
806.988	18588.21
807.377	18624.05
807.766	18692.3
808.155	19076.87
808.544	18265.81
808.933	18043.42
809.321	17731.61
809.71	18055.25
810.098	18049.43
810.487	18598.99
810.875	19121.65
811.264	18721.79
811.652	18776.18
812.04	18531.12
812.428	18292.87
812.816	19038.13
813.204	19127.58
813.592	19398.53
813.98	19339.7
814.368	18680.06
814.756	18913.77
815.144	18369.68
815.531	18651.98
815.919	18249.01
816.306	18419.34
816.694	17798.27
817.081	17750.1
817.469	18194.29
817.856	18263.39
818.243	18695.98
818.63	19282.66
819.017	18726.15
819.404	18703.47
819.791	18980.87
820.178	19487.63
820.565	19545.03
820.952	20540.97
821.339	19764.22
821.725	19831.93
822.112	18724.33
822.498	18466.68
822.885	18424.82
823.271	18193.34
823.657	18711.71
824.044	18843.09
824.43	19054.21
824.816	19050.3
825.202	18459.78
825.588	19548.54
825.974	19364.08
826.36	19728.36
826.746	19530.8
827.132	19716.5
827.517	19451.39
827.903	18331.11
828.289	18142.14
828.674	17094.92
829.06	16839.19
829.445	17140.51
829.83	17405.19
830.216	17784.5
830.601	18056.08
830.986	17522.48
831.371	17288.69
831.756	17802.2
832.141	17296.65
832.526	17244.77
832.911	17499.91
833.295	17349.77
833.68	17814.34
834.065	17162.05
834.449	16222.63
834.834	16144.14
835.218	16126.63
835.603	16455.37
835.987	16195.63
836.371	16997.24
836.755	16841.32
837.139	17209.08
837.524	17403.78
837.908	17165.59
838.291	17163.61
838.675	17162.38
839.059	17300.8
839.443	17221.19
839.827	16920.56
840.21	17312.7
840.594	17078.19
840.977	17191.91
841.361	17067.72
841.744	17329.38
842.127	17095.91
842.511	17246.1
842.894	17727.18
843.277	17997.24
843.66	18410.94
844.043	18388.49
844.426	17553.03
844.809	17185.28
845.191	17131.86
845.574	16634.6
845.957	16216.04
846.339	15989.87
846.722	15363.92
847.104	15259.71
847.487	14963.02
847.869	14836.74
848.252	14944.56
848.634	15093.08
849.016	15191.88
849.398	15166.71
849.78	15738.66
850.162	15601.13
850.544	15790.64
850.926	16121.49
851.307	15859
851.689	15865.21
852.071	16021.24
852.452	16107.05
852.834	15940.86
853.215	16098.95
853.597	16089.36
853.978	16210.7
854.359	16460.3
854.741	15691.11
855.122	15646.83
855.503	15503.06
855.884	15679.29
856.265	15679.52
856.646	15775.04
857.026	15481.73
857.407	15402.77
857.788	15466.05
858.169	15609.65
858.549	14923.21
858.93	15311.18
859.31	15271.01
859.69	15346.29
860.071	14966.41
860.451	14732.6
860.831	14129.28
861.211	14868.59
861.591	15167.82
861.971	15061.87
862.351	15084.18
862.731	15197.57
863.111	15190.47
863.491	15204.34
863.87	15576.29
864.25	15605.35
864.629	15170.92
865.009	15318.83
865.388	15696.44
865.768	16657.9
866.147	16441.94
866.526	15422.17
866.905	15552.15
867.284	16405.27
867.663	15586.6
868.042	14948.21
868.421	14901.33
868.8	15128.01
869.179	15262.54
869.558	14337.72
869.936	13182.94
870.315	13383.95
870.693	13682.12
871.072	14697.15
871.45	13947.43
871.828	14077.79
872.207	14735.59
872.585	14438.55
872.963	14752.65
873.341	14177.37
873.719	13951.29
874.097	13718.69
874.475	13907.83
874.853	14149.3
875.23	13500.08
875.608	14012.57
875.986	15079.78
876.363	14357.6
876.741	14749.61
877.118	14319.87
877.495	14944.03
877.873	15103.36
878.25	15801.53
878.627	15072.9
879.004	15207.02
879.381	15056.97
879.758	14580.69
880.135	13497.9
880.512	14210.77
880.889	13752.41
881.265	13548.34
881.642	13371.73
882.019	13536.49
882.395	13219.44
882.772	13694.84
883.148	13027.17
883.524	12911.73
883.901	12768.71
884.277	12891.57
884.653	12735.18
885.029	13031.58
885.405	14350.29
885.781	14166.12
886.157	13520.17
886.532	13616.42
886.908	13542.08
887.284	14998.35
887.659	15421.49
888.035	15836.33
888.411	16178.41
888.786	16318.67
889.161	16799.62
889.537	16387.83
889.912	16800.5
890.287	16648.94
890.662	16921.97
891.037	16461.49
891.412	15190.87
891.787	14845.93
892.162	14136.76
892.536	14241.79
892.911	13469.9
893.286	12934.79
893.66	12162.48
894.035	12205.62
894.409	12983.21
894.784	12189.56
895.158	12097.46
895.532	12500.06
895.906	12518.85
896.281	12471.87
896.655	11974.85
897.029	13351.59
897.402	13603.76
897.776	14843.34
898.15	14520.65
898.524	14157.95
898.898	14109.08
899.271	15585.19
899.645	13353.14
900.018	12757.36
900.392	13232.24
900.765	13375.85
901.138	12502.06
901.511	12452.05
901.884	11598.51
902.258	10851.66
902.631	11381.04
903.003	13293.13
903.376	12163.12
903.749	13794.71
904.122	14881.02
904.495	16438.53
904.867	16626.1
905.24	14315.48
905.612	13177.27
905.985	13267.22
906.357	13651.62
906.729	12787.63
907.102	10712.19
907.474	10093.46
907.846	9978.67
908.218	9688.27
908.59	8461.05
908.962	8098.21
909.334	8656.56
909.705	9048.01
910.077	8739.27
910.449	9041.29
910.82	9239.26
911.192	10109.28
911.563	10473.72
911.935	11153.36
912.306	11128.48
912.677	11413.74
913.048	11225.75
913.419	12070.48
913.79	12023.46
914.161	12805.68
914.532	12207.76
914.903	11163.75
915.274	10578.32
915.645	10375.91
916.015	9113.86
916.386	8681.58
916.756	9266.09
917.127	9612.14
917.497	8684.24
917.868	9570.05
918.238	9195.54
918.608	9533.86
918.978	9855.08
919.348	10554.51
919.718	11055.78
920.088	10776.69
920.458	11333.25
920.828	11974.96
921.198	11403.41
921.567	12170.66
921.937	9392.49
922.306	9435.7
922.676	10142.76
923.045	8444.21
923.415	8000.03
923.784	7226.55
924.153	7394.81
924.522	7333.32
924.891	6854.68
925.26	7279.25
925.629	7020.36
925.998	7972.46
926.367	7688.09
926.736	7234.17
927.104	8429.05
927.473	8833.3
927.842	10386.98
928.21	9927.88
928.578	10007.97
928.947	9096.81
929.315	8766.43
929.683	9858.83
930.051	9450.87
930.42	10405.84
930.788	8383.32
931.156	7856.45
931.523	6969.23
931.891	6066.99
932.259	5506.37
932.627	6077.72
932.994	8150.09
933.362	6472.5
933.729	5386.41
934.097	4983.78
934.464	4109.89
934.831	4598.64
935.199	4443.68
935.566	4271.38
935.933	4322.06
936.3	5310.15
936.667	4196.31
937.034	4034.35
937.401	4090.63
937.767	3662.24
938.134	3421.99
938.501	5015.61
938.867	5660.34
939.234	10053.71
939.6	8947.53
939.967	10391.84
940.333	7236.61
940.699	6352.2
941.065	5079.74
941.431	6821.41
941.798	6755.25
942.163	8959.32
942.529	5620.48
942.895	5153.72
943.261	3347.87
943.627	4402.31
943.992	3827.4
944.358	3801
944.723	3828.95
945.089	3681.27
945.454	3368.57
945.82	3536.68
946.185	3357.31
946.55	3892.29
946.915	3495.55
947.28	4103.33
947.645	3597.79
948.01	3356.29
948.375	3500.79
948.74	4162.6
949.104	4902.92
949.469	7033.74
949.834	12400.69
950.198	11954.08
950.562	7204.03
950.927	6001.37
951.291	7115.06
951.655	6000.43
952.02	5556.43
952.384	4213.12
952.748	3704.46
953.112	3650.96
953.476	3166.52
953.839	2900.41
954.203	2869.9
954.567	3546.56
954.931	5515.36
955.294	4764.71
955.658	4820.24
956.021	8193.63
956.385	13813.21
956.748	20292.79
957.111	30885.02
957.474	34649.33
957.837	39075.98
958.2	29115.67
958.563	10495.97
958.926	7197.07
959.289	10909.74
959.652	12258.66
960.015	9257.24
960.377	13322.25
960.74	15178.72
961.102	26239.13
961.465	28641.38
961.827	16152.71
962.189	31425.41
962.552	22166.2
962.914	17902.1
963.276	11714.95
963.638	9746.95
964	9698.81
964.362	6662.12
964.724	6479.5
965.085	4695.31
965.447	3880.7
965.809	4301.67
966.17	4313.63
966.532	4707.04
966.893	4375.1
967.255	4048.09
967.616	4851.94
967.977	3982.02
968.338	4411.85
968.699	3726.66
969.061	3805.22
969.421	3921.04
969.782	4498.31
970.143	3916.9
970.504	4171.54
970.865	4841.68
971.225	5042.7
971.586	4982.18
971.946	7101.88
972.307	6189.12
972.667	8073.59
973.027	8330.1
973.388	10016.12
973.748	6798.94
974.108	7355.47
974.468	9759.18
974.828	7534.57
975.188	5721.2
975.548	5203.94
975.907	4348.91
976.267	4851.16
976.627	4107.69
976.986	4226.37
977.346	4037.42
977.705	3906.67
978.064	3555.02
978.424	2995.88
978.783	3052.47
979.142	3509.93
979.501	3412.03
979.86	3655.76
980.219	3529.11
980.578	4534.85
980.937	5118.91
981.296	4610.96
981.654	4788.33
982.013	7493.85
982.371	9788.96
982.73	9298.13
983.088	10601.92
983.447	11425.8
983.805	16491.21
984.163	34952.42
984.521	39215.25
984.879	57812.19
985.237	-94867.53
985.595	92325.56
985.953	23125.56
986.311	13392.76
986.669	7819.11
987.026	6813.22
987.384	9179.17
987.741	9562.49
988.099	6982.64
988.456	5600.3
988.814	5317.35
989.171	4638.85
989.528	4551.08
989.885	4831.6
990.242	3865.85
990.599	4797.07
990.956	3926.35
991.313	2759.84
991.67	2272.96
992.027	2457.6
992.383	2203.53
992.74	1946.17
993.096	2067.04
993.453	2153.59
993.809	2239.92
994.165	3007.04
994.522	2852.05
994.878	3166.2
995.234	4000.3
995.59	3949.93
995.946	3657.83
996.302	4174.79
996.658	4798.95
997.013	5283.28
997.369	6369.65
997.725	8217.7
998.08	5328.37
998.436	7987.96
998.791	11057.56
999.147	11102.37
999.502	12201.81
999.857	8872.33
1000.212	14495.56
1000.567	20896.51
1000.922	12019.82
1001.277	7630.24
1001.632	5669.64
1001.987	7324.01
1002.342	5286.97
1002.696	4257.85
1003.051	3424.07
1003.406	4156.68
1003.76	4157.23
1004.114	4131.83
1004.469	3498.1
1004.823	2930.03
1005.177	3154.59
1005.531	2509.29
1005.885	2239.68
1006.239	2553.86
1006.593	3213.42
1006.947	4308.51
1007.301	3225.13
1007.655	3529.51
1008.008	2617.83
1008.362	2955.41
1008.715	4229.53
1009.069	3877.31
1009.422	5981.05
1009.776	11963.43
1010.129	8019.01
1010.482	6704
1010.835	5642.42
1011.188	11848.81
1011.541	11209.49
1011.894	-68469.92
1012.247	203576.56
1012.6	13891.8
1012.952	8889.72
1013.305	4485.95
1013.657	3304.69
1014.01	3132.23
1014.362	2598.66
1014.715	2397.27
1015.067	2123.59
1015.419	2097.85
1015.771	1891.4
1016.123	1696.8
1016.475	1761.64
1016.827	1877.71
1017.179	2067.6
1017.531	2066.83
1017.883	2114.35
1018.234	2116.66
1018.586	2676.27
1018.938	2913.59
1019.289	4081.26
1019.64	4664.41
1019.992	4356.12
1020.343	4018.52
1020.694	3243.29
1021.045	2892.66
1021.396	3304.41
1021.747	3626.15
1022.098	4294.25
1022.449	3126.2
1022.8	2883.27
1023.151	2018.07
1023.501	1820.61
1023.852	1979.45
1024.202	2101.62
1024.553	2303.19
1024.903	2301.87
1025.253	2035.44
1025.604	1836.35
1025.954	2294.16
1026.304	2816.96
1026.654	3315.06
1027.004	4896.27
1027.354	7846.14
1027.703	7502.47
1028.053	9798.97
1028.403	14638.4
1028.753	21019.31
1029.102	28362.6
1029.452	145449.62
1029.801	6297.03
1030.15	4047.28
1030.499	3390.52
897.758	3311.9
901.051	3301.6
904.343	3336.78
907.636	3330.4
910.928	3399.42
914.22	3297.76
917.511	3314.04
920.803	3400.74
924.094	3452
927.384	3397.74
930.675	3361.1
933.965	3303.25
937.255	3291.51
940.544	3258.77
943.834	3105.52
947.123	3064.86
950.411	3174.23
953.7	3135.14
956.988	3079.62
960.276	3024.02
963.563	3151.01
966.851	3127.15
970.138	3206.92
973.424	3183.11
976.711	3132.15
979.997	3394.64
983.283	3409.85
986.568	3276.12
989.853	3325.26
993.138	3358.14
996.423	3439.98
999.708	3349.07
1002.992	3471.19
1006.275	3191.56
1009.559	3302.71
1012.842	3443.97
1016.125	3347.36
1019.408	3321.7
1022.69	3449.85
1025.972	3453.86
1029.254	3421.62
1032.536	3312.16
1035.817	3359.83
1039.098	3258.18
1042.379	3535.77
1045.659	3483.7
1048.939	3391.74
1052.219	3435.88
1055.498	3467.34
1058.778	3439.76
1062.057	3429.41
1065.335	3446.15
1068.614	3480.99
1071.892	3441.14
1075.17	3548.07
1078.447	3519.91
1081.724	3504.79
1085.001	3559.36
1088.278	3518.97
1091.554	3548.58
1094.83	3544.12
1098.106	3566.41
1101.382	3632.52
1104.657	3630.33
1107.932	3629.64
1111.206	3571.72
1114.481	3531.09
1117.755	3541.81
1121.029	3500.07
1124.302	3548.31
1127.575	3472.63
1130.848	3450.08
1134.121	3400.05
1137.393	3329.42
1140.665	3414.14
1143.937	3392.83
1147.208	3292.9
1150.48	3319.57
1153.75	3297.44
1157.021	3373.71
1160.291	3328.4
1163.561	3366.46
1166.831	3388.03
1170.101	3425.25
1173.37	3409.39
1176.639	3326.81
1179.907	3401.33
1183.176	3458.3
1186.444	3464.31
1189.711	3499.54
1192.979	3495.73
1196.246	3458.8
1199.513	3484.4
1202.78	3478.13
1206.046	3482.74
1209.312	3525.44
1212.578	3563.21
1215.843	3491.92
1219.108	3473.29
1222.373	3496.22
1225.638	3441.44
1228.902	3415.39
1232.166	3377.21
1235.43	3352.75
1238.693	3367.02
1241.956	3375.44
1245.219	3402.17
1248.482	3407.89
1251.744	3395.78
1255.006	3587.41
1258.268	3550.5
1261.529	3477.4
1264.79	3496.78
1268.051	3628.93
1271.312	3649.51
1274.572	3603.44
1277.832	3594.58
1281.092	3595.82
1284.351	3541.49
1287.61	3510.39
1290.869	3394.91
1294.128	3341.97
1297.386	3488.12
1300.644	3468.99
1303.902	3481.79
1307.159	3320.96
1310.416	3382.66
1313.673	3399.89
1316.93	3371.85
1320.186	3439.34
1323.442	3499.74
1326.697	3470.61
1329.953	3485.42
1333.208	3494.58
1336.463	3481.81
1339.717	3404.71
1342.972	3494.43
1346.226	3506.04
1349.479	3413.14
1352.733	3361.23
1355.986	3411.65
1359.238	3378.78
1362.491	3379.61
1365.743	3386.65
1368.995	3387.17
1372.247	3402.29
1375.498	3415.42
1378.749	3483.25
1382	3417.54
1385.251	3496.72
1388.501	3471.14
1391.751	3432.87
1395	3413.41
1398.25	3453.89
1401.499	3445.14
1404.748	3352.97
1407.996	3259.35
1411.244	3255.86
1414.492	3229.69
1417.74	3199.87
1420.987	3222.96
1424.234	3272.62
1427.481	3279.16
1430.728	3333.34
1433.974	3306.85
1437.22	3340.22
1440.465	3344.36
1443.711	3351.67
1446.956	3383.4
1450.201	3397.87
1453.445	3442.65
1456.689	3404.8
1459.933	3424.69
1463.177	3446.4
1466.42	3417.69
1469.663	3393.87
1472.906	3359.1
1476.148	3509.56
1479.391	3384.51
1482.633	3375.86
1485.874	3368.56
1489.115	3331.21
1492.356	3362.1
1495.597	3330.74
1498.838	3349.65
1502.078	3292.55
1505.318	3211.93
1508.557	3269.59
1511.797	3174.61
1515.036	3359.93
1518.274	3340.59
1521.513	3328.37
1524.751	3364.83
1527.989	3367.01
1531.227	3368.9
1534.464	3330.2
1537.701	3389.18
1540.938	3419.57
1544.174	3377.92
1547.41	3393.58
1550.646	3429.79
1553.882	3450.5
1557.117	3504.02
1560.352	3528.27
1563.587	3476.29
1566.821	3424.41
1570.055	3489.68
1573.289	3445.99
1576.523	3549.2
1579.756	3546.21
1582.989	3561.4
1586.222	3519
1589.454	3574.69
1592.686	3532.49
1595.918	3555.24
1599.15	3531.44
1602.381	3652.37
1605.612	3570.45
1608.843	3673.11
1612.073	3567.35
1615.303	3546.46
1618.533	3522.76
1621.762	3539.21
1624.992	3539.13
1628.221	3504.19
1631.449	3485.14
1634.678	3583.43
1637.906	3519.38
1641.134	3576.47
1644.361	3520.31
1647.588	3506.7
1650.815	3513.8
1654.042	3513.69
1657.269	3548.2
1660.495	3497.51
1663.72	3433.45
1666.946	3424.96
1670.171	3320.73
1673.396	3297.8
1676.621	3300.97
1679.845	3354.75
1683.069	3396
1686.293	3459.78
1689.517	3406.59
1692.74	3297.79
1695.963	3311.46
1699.185	3416.08
1702.408	3362.86
1705.63	3420.25
1708.852	3425.05
1712.073	3394.55
1715.294	3353.47
1718.515	3374.92
1721.736	3322.01
1724.956	3280.26
1728.176	3317.61
1731.396	3337.08
1734.616	3337.91
1737.835	3339.44
1741.054	3339.84
1744.272	3338.26
1747.491	3348.05
1750.709	3441.81
1753.927	3341.51
1757.144	3398.5
1760.361	3475.89
1763.578	3487.37
1766.795	3414.94
1770.011	3440.37
1773.227	3509.45
1776.443	3534.93
1779.658	3578.92
1782.874	3524.13
1786.089	3485.32
1789.303	3490.28
1792.518	3504.06
1795.732	3493.32
1798.945	3496.05
1802.159	3557.26
1805.372	3406.31
1808.585	3375.38
1811.797	3377.26
1815.01	3466.82
1818.222	3471.54
1821.434	3333.2
1824.645	3449.17
1827.856	3402.68
1831.067	3456.29
1834.278	3371.15
1837.488	3364.51
1840.698	3555.31
1843.908	3448.2
1847.117	3410.64
1850.326	3223.54
1853.535	3370.75
1856.744	3509.47
1859.952	3380.5
1863.16	3375.53
1866.368	3402.35
1869.575	3564.69
1872.782	3438.85
1875.989	3383.31
1879.196	3518.5
1882.402	3512.47
1885.608	3566.16
1888.814	3417.46
1892.019	3287.1
1895.224	3339.94
1898.429	3340.54
1901.634	3304.21
1904.838	3291.4
1908.042	3335.67
1911.246	3332.66
1914.449	3218.59
1917.652	3238.02
1920.855	3224.7
1924.058	3303.98
1927.26	3331.6
1930.462	3370.04
1933.664	3383.11
1936.865	3314.87
1940.066	3306.49
1943.267	3254.75
1946.467	3283.84
1949.668	3322.37
1952.868	3386.32
1956.067	3341.82
1959.267	3264.35
1962.466	3298.63
1965.665	3286.86
1968.863	3282.78
1972.061	3318.84
1975.259	3326.5
1978.457	3413.95
1981.654	3362.12
1984.852	3361.81
1988.048	3264.23
1991.245	3288.69
1994.441	3372.22
1997.637	3391.1
2000.833	3373.09
2004.028	3421.62
2007.223	3461.98
2010.418	3422.37
2013.613	3394.79
2016.807	3331.31
2020.001	3358
2023.194	3435.8
2026.388	3397.97
2029.581	3345.4
2032.774	3375.5
2035.966	3370.71
2039.158	3277.24
2042.35	3314.08
2045.542	3239.79
2048.733	3372.81
2051.924	3439.3
2055.115	3481.47
2058.306	3388.34
2061.496	3456.97
2064.686	3544.04
2067.875	3467.03
2071.065	3501.68
2074.254	3542.3
2077.442	3489.74
2080.631	3596.32
2083.819	3424.19
2087.007	3389.05
2090.195	3342.23
2093.382	3405.42
2096.569	3378.79
2099.756	3317.03
2102.942	3313.79
2106.128	3300.82
2109.314	3298.66
2112.5	3230.72
2115.685	3214.56
2118.87	3230.43
2122.055	3303.47
2125.239	3249.05
2128.424	3201.19
2131.608	3368.61
2134.791	3346.78
2137.974	3436.25
2141.157	3413.01
2144.34	3335.95
2147.523	3351.99
2150.705	3344.62
2153.887	3343.58
2157.068	3259.82
2160.25	3292.92
2163.431	3357.6
2166.611	3264.83
2169.792	3278.22
2172.972	3145.62
2176.152	3270.2
2179.331	3317.86
2182.511	3301.81
2185.69	3338.64
2188.868	3321.07
2192.047	3408.98
2195.225	3363.96
2198.403	3309.01
2201.58	3312.85
2204.758	3314.2
2207.935	3413.95
2211.111	3257.22
2214.288	3233.45
2217.464	3285.64
2220.64	3275.22
2223.815	3341.74
2226.991	3243.5
2230.166	3269.67
2233.34	3282.29
2236.515	3323.14
2239.689	3416.1
2242.863	3346.86
2246.036	3414.94
2249.209	3440.9
2252.382	3495.22
2255.555	3460.06
2258.727	3373.26
2261.9	3428.68
2265.071	3419.46
2268.243	3431.95
2271.414	3340.76
2274.585	3266.19
2277.756	3345.48
2280.926	3299.29
2284.096	3354.27
2287.266	3227.34
2290.436	3299.53
2293.605	3340.84
2296.774	3359.49
2299.942	3406.83
2303.111	3424.13
2306.279	3464.53
2309.447	3456.69
2312.614	3437.49
2315.781	3451.95
2318.948	3405.6
2322.115	3449.36
2325.281	3348.27
2328.447	3389.69
2331.613	3369.48
2334.779	3313.13
2337.944	3328.87
2341.109	3319.85
2344.274	3294.89
2347.438	3254.81
2350.602	3288.94
2353.766	3315.13
2356.929	3295.64
2360.092	3340.41
2363.255	3261.86
2366.418	3148.19
2369.58	3328.82
2372.742	2986.16
2375.904	3029.21
2379.066	2987.19
2382.227	3038.67
2385.388	2996.38
2388.548	2891.23
2391.709	2967.49
2394.869	2936.92
2398.029	3101.15
2401.188	3140.79
2404.347	3033.82
2407.506	3262.43
2410.665	3284.35
2413.823	3318.43
2416.981	3244.34
2420.139	3296.66
2423.296	3360.3
2426.453	3336.57
2429.61	3361.25
2432.767	3242.66
2435.923	3297.75
2439.079	3165.08
2442.235	3263.03
2445.391	3162.98
2448.546	3165.22
2451.701	3240.63
2454.855	3174.76
2458.009	3261.7
2461.163	3280.59
2464.317	3222.63
2467.471	3268.44
2470.624	3305.2
2473.777	3369.26
2476.929	3354.65
2480.082	3389.02
2483.234	3358.06
2486.385	3217.7
2489.537	3221.05
2492.688	3142.59
2495.839	3163.18
2498.989	3164.11
2502.14	3141.76
2505.29	3107.31
2508.439	3138.03
2511.589	3035.83
2514.738	3063.1
2517.887	3091.52
2521.035	3260.38
2524.183	3255.67
2527.331	3221.97
2530.479	3165.06
2533.627	3189.04
