Data from C_3_DIV_IL_4N_Splice17_13-19-37-348.txt Node
Date: Sat Mar 14 13:19:37 EDT 2020
User: sa697716
Spectrometer: FLMS03696
Trigger mode: 0
Integration Time (sec): 3.180400E-1
Scans to average: 20
Electric dark correction enabled: true
Nonlinearity correction enabled: true
Boxcar width: 5
XAxis mode: Wavelengths
Number of Pixels in Spectrum: 2048
>>>>>Begin Spectral Data<<<<<
187.83	-289249.92
188.298	2107.51
188.766	1149.25
189.233	1006.02
189.701	1438.55
190.169	2081.92
190.636	792.68
191.104	588.9
191.571	55.76
192.039	-77.78
192.506	-65.73
192.974	432.66
193.441	-800.04
193.908	-219.96
194.375	-66.09
194.842	30.47
195.31	196.81
195.777	222.08
196.244	412.83
196.711	448.18
197.177	566.2
197.644	776.66
198.111	1359.16
198.578	1893.1
199.045	1491.42
199.511	2427.67
199.978	2788.13
200.445	2323.79
200.911	2561.74
201.378	2826.22
201.844	2552.45
202.31	4353.22
202.777	4562.36
203.243	2507.48
203.709	2382.68
204.176	2848.57
204.642	2335.37
205.108	2203.03
205.574	1803.55
206.04	1613.95
206.506	1515.64
206.972	1452.57
207.438	1393.49
207.903	1579.83
208.369	1394.29
208.835	1386.31
209.301	1448.82
209.766	1472.4
210.232	1441.37
210.697	1777.12
211.163	2196.22
211.628	3299.85
212.094	2729.52
212.559	3396.77
213.024	2117.17
213.49	2580.83
213.955	2506.42
214.42	2426.38
214.885	2246.41
215.35	2155.07
215.815	2090.04
216.28	2207.92
216.745	1766.54
217.21	1865.73
217.675	1650.34
218.14	1792.86
218.604	1914.43
219.069	2115.92
219.534	2166.66
219.998	2437.09
220.463	2854.62
220.927	3364.79
221.392	3070.37
221.856	3055.83
222.32	3768.59
222.785	4590.66
223.249	5679.89
223.713	6282.93
224.177	6218.32
224.642	7854.06
225.106	9568.97
225.57	10362.86
226.034	7716.04
226.497	11700.41
226.961	10522.74
227.425	12194.35
227.889	13407.66
228.353	13341.45
228.816	27445.43
229.28	26211.15
229.744	21983.68
230.207	13405.47
230.671	13156.8
231.134	21543.08
231.597	24826.2
232.061	24636.9
232.524	23895.61
232.987	16437.56
233.45	14800.72
233.914	13197.07
234.377	13421.88
234.84	12262.96
235.303	14336.37
235.766	15938.43
236.229	16444.78
236.691	10306.02
237.154	11559.15
237.617	8699.21
238.08	8882.21
238.542	10345.72
239.005	7410.48
239.468	7367.96
239.93	6949.42
240.393	6321.77
240.855	5556.03
241.317	5657.02
241.78	6867.13
242.242	7103.79
242.704	7694.33
243.166	6705.97
243.629	6116.86
244.091	7024.09
244.553	7680.2
245.015	8243.81
245.477	10613.62
245.939	15486.66
246.4	16469.83
246.862	15941.61
247.324	14994.9
247.786	16717.12
248.247	21820
248.709	22346.38
249.17	16713.84
249.632	15790.97
250.093	18359.12
250.555	15861.7
251.016	9675.66
251.477	9182.65
251.939	9917.2
252.4	10369.07
252.861	12258.64
253.322	11437.55
253.783	13594.88
254.244	17548.05
254.705	13776.86
255.166	12174.29
255.627	11984.29
256.088	16932.92
256.549	17949
257.009	15445.61
257.47	18741.8
257.931	15240.33
258.391	11406.27
258.852	11773.07
259.312	12339.4
259.773	15192.4
260.233	12863.76
260.694	10853.27
261.154	12258.8
261.614	9851.79
262.074	8802.86
262.534	9163.43
262.994	8633.33
263.455	11450.49
263.915	9635.88
264.374	9061.28
264.834	9880.72
265.294	10896.04
265.754	11288.25
266.214	10673.44
266.673	9975.71
267.133	12534.34
267.593	12382.3
268.052	15139.13
268.512	13137.64
268.971	15839.22
269.431	17335.2
269.89	15490.09
270.349	23197.05
270.809	25784.65
271.268	23152.25
271.727	51733.79
272.186	33510.23
272.645	25088.37
273.104	18060.5
273.563	26148.66
274.022	20466
274.481	17449.67
274.94	13450.53
275.399	9988.81
275.857	11593.55
276.316	15665.47
276.775	13942.48
277.233	13736.7
277.692	12903.79
278.15	14620.62
278.609	15054.24
279.067	13966.62
279.525	12983.25
279.984	16765.39
280.442	20179.42
280.9	20015.96
281.358	13179.8
281.816	12302.33
282.274	12034.23
282.732	12411.55
283.19	12445.44
283.648	10742.43
284.106	11436
284.564	11601.51
285.021	10781.67
285.479	8026.42
285.937	7254.61
286.394	6392.47
286.852	6569.73
287.309	6915.22
287.767	6706.44
288.224	6414.53
288.682	7051.02
289.139	7749.02
289.596	7127.78
290.053	7391.61
290.511	9320.95
290.968	11324.53
291.425	15288.69
291.882	12780.29
292.339	11123.16
292.796	10992.34
293.252	10322.68
293.709	8196.89
294.166	7347.09
294.623	8070.2
295.079	7706.69
295.536	7754.27
295.992	7034.64
296.449	6959.38
296.905	7227.9
297.362	6922.67
297.818	7283.64
298.274	7573.46
298.731	7702.23
299.187	7601.36
299.643	8156.81
300.099	9888.19
300.555	10810.91
301.011	9032.59
301.467	8763.01
301.923	10188.6
302.379	9976.56
302.835	9789.92
303.291	9777.35
303.746	11120.53
304.202	14030.7
304.658	14116.34
305.113	9521.95
305.569	9352.86
306.024	9962.27
306.479	9427.62
306.935	7985.13
307.39	8701.41
307.845	8054.07
308.301	8123.54
308.756	7911.29
309.211	7633.96
309.666	7818.88
310.121	9715.27
310.576	9862.31
311.031	9811.88
311.486	11215.52
311.94	11186.29
312.395	14979.77
312.85	28151.47
313.305	137485.87
313.759	717642.89
314.214	52166.16
314.668	41501.05
315.123	35003.87
315.577	12625.3
316.032	11234.53
316.486	14067.88
316.94	11157.49
317.394	7791.8
317.849	6051.84
318.303	5727.36
318.757	5399.41
319.211	5968.81
319.665	5221.04
320.119	5294.03
320.572	7539.2
321.026	7057.05
321.48	5897.25
321.934	6384.67
322.387	6386.58
322.841	6903.47
323.295	6274.24
323.748	7194.27
324.202	7312.93
324.655	8776.9
325.108	12325.15
325.562	8735.14
326.015	10382.94
326.468	7826.87
326.921	8787.83
327.374	8208.82
327.827	8571.22
328.28	9689.36
328.733	6521.77
329.186	5730.76
329.639	5464.8
330.092	4587.35
330.545	4380.99
330.997	4426.48
331.45	4873.88
331.903	5728.77
332.355	9813.13
332.808	9508.58
333.26	7843.06
333.713	8509.74
334.165	8559.21
334.617	11447.32
335.069	9173.83
335.522	16508.84
335.974	18303.95
336.426	16695.81
336.878	11513.11
337.33	5883.49
337.782	5761.21
338.234	7256.76
338.686	8668.16
339.137	10272.09
339.589	9663.71
340.041	7635.3
340.493	6596.79
340.944	6746.44
341.396	7279.53
341.847	6172.24
342.299	7320.93
342.75	8988.3
343.201	7802.58
343.653	8951.42
344.104	10972.72
344.555	8638.13
345.006	13360.06
345.457	10281.36
345.908	8124.34
346.359	7653.26
346.81	6217.33
347.261	6513.77
347.712	6377.75
348.163	6828.11
348.613	6975.47
349.064	6532.26
349.515	5721.66
349.965	5893.18
350.416	7051.37
350.866	7751.22
351.317	8702.09
351.767	14376.05
352.217	18147.89
352.668	15080.81
353.118	13866.91
353.568	13257.78
354.018	10522.54
354.468	11146
354.918	7988.58
355.368	7034.65
355.818	9939.1
356.268	28587.23
356.718	120773.92
357.168	30226.44
357.617	15208.18
358.067	16823.44
358.517	15846.87
358.966	18637.54
359.416	20952.5
359.865	22666.5
360.315	26942.93
360.764	12634.82
361.213	7108.43
361.663	6680.09
362.112	8190.27
362.561	13157.57
363.01	9967.72
363.459	8360.07
363.908	9019.26
364.357	7688.9
364.806	12996.38
365.255	8875.56
365.703	8187.83
366.152	8185.56
366.601	6667.32
367.05	5458.74
367.498	4988.8
367.947	5199.02
368.395	5409.22
368.844	4793.38
369.292	5725.11
369.74	3966.56
370.189	6093.55
370.637	7068.26
371.085	6093.9
371.533	7378.47
371.981	7068.63
372.429	6774.71
372.877	7059.76
373.325	5926.05
373.773	6040.95
374.221	5358.54
374.669	6624.18
375.116	5723.98
375.564	5769.95
376.012	6455.45
376.459	5338.93
376.907	6370
377.354	7621.84
377.801	7160.69
378.249	8223.73
378.696	10447.65
379.143	12699.96
379.591	13520.15
380.038	22963.58
380.485	16683.17
380.932	18021.95
381.379	16608.9
381.826	12304.31
382.273	8780.87
382.72	7599.73
383.166	7421.23
383.613	4843.82
384.06	4360.29
384.506	5075.01
384.953	3712.97
385.4	3714.55
385.846	3242.92
386.292	3126.85
386.739	3041.84
387.185	2998.91
387.631	3004.66
388.078	2928.43
388.524	3120.74
388.97	2874.59
389.416	2395.06
389.862	2554.22
390.308	2432.74
390.754	2478.45
391.2	2692.32
391.645	2755.5
392.091	2673.32
392.537	2598.41
392.983	2586.78
393.428	2581.09
393.874	2780.06
394.319	2811.64
394.765	2679.13
395.21	2751.8
395.655	2591.93
396.101	2433.21
396.546	2200.21
396.991	2203.29
397.436	2042.03
397.881	1976.82
398.326	1852.44
398.771	1770.09
399.216	1539.25
399.661	1386.7
400.106	1393.36
400.551	1439.03
400.995	1301.37
401.44	1293.78
401.885	1217.43
402.329	1237.58
402.774	1199.63
403.218	1180.1
403.663	1133.7
404.107	1174.57
404.551	1192.12
404.995	1096.23
405.44	1052.45
405.884	1068.87
406.328	1033.8
406.772	1036.22
407.216	949.93
407.66	913.23
408.104	860.12
408.547	808.59
408.991	782.89
409.435	751.64
409.879	745.52
410.322	741.01
410.766	722.29
411.209	693.36
411.653	666.98
412.096	658.66
412.54	661.64
412.983	662.54
413.426	671.37
413.869	672.3
414.312	665.52
414.756	642.99
415.199	614.24
415.642	597.84
416.085	602.21
416.527	600.18
416.97	609.35
417.413	585.27
417.856	579.18
418.298	572.08
418.741	567.35
419.184	565.13
419.626	585.03
420.069	584.05
420.511	589.85
420.953	579.47
421.396	577.4
421.838	562.25
422.28	573.82
422.722	580.69
423.164	587.31
423.606	582.48
424.048	580.85
424.49	556.49
424.932	555.69
425.374	545.35
425.816	552.89
426.258	560.16
426.699	566.18
427.141	560.3
427.582	567.57
428.024	564.52
428.465	557.98
428.907	545.26
429.348	540.03
429.789	544.39
430.231	538.45
430.672	546.65
431.113	535.01
431.554	529.71
431.995	513.32
432.436	500.05
432.877	490.94
433.318	487.93
433.759	486.99
434.2	487.6
434.64	481.98
435.081	483.86
435.522	459.59
435.962	443.83
436.403	436.55
436.843	443.26
437.284	430.44
437.724	420.86
438.164	419.51
438.604	411.32
439.045	397.15
439.485	383.8
439.925	375.4
440.365	368.38
440.805	365.95
441.245	360.96
441.685	351.09
442.125	350.07
442.564	352.27
443.004	347.04
443.444	349.13
443.883	351.78
444.323	348.76
444.762	348.52
445.202	352.95
445.641	361.43
446.081	360.43
446.52	365.26
446.959	364.47
447.398	359.92
447.837	358.33
448.276	353.34
448.716	358.76
449.154	362.46
449.593	356.75
450.032	357.19
450.471	349.98
450.91	353.26
451.349	353.95
451.787	352.77
452.226	357.48
452.664	357.14
453.103	357.12
453.541	355.73
453.98	359.48
454.418	363.51
454.856	359.52
455.295	361.56
455.733	363.91
456.171	365.43
456.609	365.99
457.047	366.64
457.485	373.31
457.923	375.59
458.361	370.87
458.798	370.26
459.236	369.16
459.674	372.19
460.111	373.46
460.549	371.32
460.987	369.3
461.424	369.2
461.862	366.31
462.299	360.44
462.736	360.22
463.173	361.76
463.611	360.7
464.048	360.26
464.485	363.72
464.922	360.34
465.359	357.09
465.796	360.35
466.233	357.9
466.67	358.1
467.106	358.93
467.543	354.19
467.98	348.84
468.416	337.85
468.853	334.6
469.29	322.85
469.726	319.5
470.162	311.8
470.599	301.76
471.035	298.08
471.471	289.58
471.907	286.54
472.344	284.82
472.78	287.1
473.216	290.15
473.652	287.55
474.088	287.95
474.523	287.89
474.959	290.22
475.395	287.95
475.831	287.27
476.266	290.05
476.702	289.71
477.138	287.53
477.573	286.8
478.008	287.27
478.444	289.44
478.879	293.59
479.314	295.62
479.75	296.34
480.185	297.95
480.62	300.82
481.055	302.26
481.49	304.53
481.925	310.03
482.36	317.4
482.795	325.57
483.229	334.42
483.664	341.22
484.099	342.45
484.534	348.39
484.968	353.48
485.403	355.01
485.837	353.94
486.271	354.64
486.706	355.87
487.14	350.9
487.574	347.05
488.009	344.11
488.443	341.48
488.877	347.07
489.311	348.18
489.745	352.47
490.179	357.64
490.613	368.22
491.046	372.32
491.48	376.05
491.914	379.02
492.348	383.61
492.781	388.29
493.215	391.7
493.648	393.83
494.082	399.83
494.515	403.56
494.948	410.48
495.382	414.82
495.815	420.66
496.248	427.21
496.681	437.5
497.114	447.01
497.547	457.46
497.98	470.45
498.413	478.86
498.846	489.4
499.279	498.98
499.711	506.07
500.144	511.65
500.577	524.09
501.009	536.87
501.442	548.75
501.874	555.78
502.306	561.8
502.739	573.14
503.171	588.72
503.603	597.32
504.036	609.37
504.468	619.38
504.9	633.27
505.332	643.62
505.764	652.26
506.196	662.14
506.627	677.75
507.059	693.32
507.491	704.1
507.923	708.17
508.354	724.65
508.786	738.87
509.217	758.12
509.649	775.7
510.08	795.74
510.512	814.54
510.943	834.18
511.374	849.57
511.805	871.69
512.237	893.09
512.668	924.08
513.099	952.1
513.53	979.96
513.961	1002.68
514.391	1034.4
514.822	1067.86
515.253	1103.15
515.684	1129.67
516.114	1160.4
516.545	1183.58
516.975	1211.04
517.406	1232.09
517.836	1238.4
518.267	1248.27
518.697	1269.44
519.127	1277.53
519.558	1287.31
519.988	1293.44
520.418	1305.68
520.848	1324.47
521.278	1334.46
521.708	1365.47
522.138	1380.06
522.567	1411.79
522.997	1437.12
523.427	1453.15
523.857	1471.06
524.286	1483.46
524.716	1499.79
525.145	1518.84
525.575	1530.31
526.004	1546.8
526.433	1531.39
526.863	1532.98
527.292	1525.35
527.721	1533.25
528.15	1539.75
528.579	1541.55
529.008	1552.87
529.437	1575.77
529.866	1589.54
530.295	1606.88
530.724	1619.52
531.152	1645.85
531.581	1660.93
532.01	1678.26
532.438	1686.52
532.867	1701.15
533.295	1720.18
533.723	1726.12
534.152	1725.13
534.58	1725.19
535.008	1711.02
535.436	1713.55
535.865	1720.72
536.293	1733.88
536.721	1748.27
537.149	1771.18
537.576	1773.83
538.004	1784.42
538.432	1791.85
538.86	1789.31
539.287	1795.31
539.715	1807.99
540.143	1809.89
540.57	1806.51
540.998	1802.38
541.425	1781.56
541.852	1762.45
542.28	1760.87
542.707	1746.31
543.134	1733.47
543.561	1729.86
543.988	1724.54
544.415	1724.36
544.842	1718.99
545.269	1711.9
545.696	1714.48
546.123	1725.6
546.549	1716.33
546.976	1704.12
547.403	1703.97
547.829	1706.03
548.256	1708.84
548.682	1705.65
549.108	1698.97
549.535	1700
549.961	1703.19
550.387	1691.76
550.813	1689.73
551.24	1696.29
551.666	1698.41
552.092	1690.74
552.518	1685.17
552.943	1680.64
553.369	1688.24
553.795	1695.48
554.221	1697.55
554.646	1695.06
555.072	1705.83
555.498	1710.15
555.923	1719.01
556.349	1734.28
556.774	1742.06
557.199	1743.43
557.625	1748.95
558.05	1743.97
558.475	1753.13
558.9	1751.64
559.325	1744.75
559.75	1740.48
560.175	1734.57
560.6	1729.46
561.025	1727.27
561.449	1728.11
561.874	1734.75
562.299	1739.88
562.723	1746.77
563.148	1737.29
563.572	1740.64
563.997	1748.99
564.421	1752.16
564.846	1752.04
565.27	1755.38
565.694	1753.29
566.118	1764.17
566.542	1770.69
566.966	1763.59
567.39	1757.84
567.814	1746.52
568.238	1746.38
568.662	1750.91
569.086	1752.32
569.509	1757.29
569.933	1741.53
570.357	1732.26
570.78	1712.55
571.204	1699.07
571.627	1687.66
572.05	1686.2
572.474	1685.04
572.897	1671.92
573.32	1663.73
573.743	1654.14
574.166	1637.35
574.589	1637.56
575.012	1630.42
575.435	1628.14
575.858	1619.75
576.281	1608.98
576.704	1592.17
577.126	1580.56
577.549	1569.64
577.972	1559.71
578.394	1549.22
578.817	1542.98
579.239	1524.12
579.661	1511.03
580.084	1496
580.506	1482.84
580.928	1478.91
581.35	1469.98
581.772	1465.9
582.194	1455.11
582.616	1443.94
583.038	1430.89
583.46	1419.58
583.882	1416.48
584.303	1420.38
584.725	1416.86
585.147	1419.91
585.568	1429.74
585.99	1441.28
586.411	1446.84
586.833	1459.06
587.254	1459.69
587.675	1471.69
588.096	1483.97
588.518	1478.53
588.939	1463.59
589.36	1460.86
589.781	1449.25
590.202	1423.59
590.623	1413.66
591.043	1411.42
591.464	1398.64
591.885	1394.97
592.305	1389.62
592.726	1376.24
593.147	1377.9
593.567	1371.71
593.987	1363.72
594.408	1359.19
594.828	1356.22
595.248	1351.35
595.669	1334.53
596.089	1328.39
596.509	1322.3
596.929	1309.6
597.349	1309.79
597.769	1299.47
598.189	1292.38
598.608	1293.17
599.028	1293.58
599.448	1293.72
599.867	1281.09
600.287	1276.41
600.706	1271.73
601.126	1262.28
601.545	1261.66
601.965	1260.09
602.384	1254.74
602.803	1257.31
603.222	1253.45
603.641	1247.77
604.061	1243.57
604.48	1239.41
604.898	1245.95
605.317	1249.93
605.736	1250.84
606.155	1247.32
606.574	1238.21
606.992	1242.46
607.411	1237.99
607.829	1228.57
608.248	1224.2
608.666	1220.25
609.085	1218.6
609.503	1210.28
609.921	1203.04
610.339	1204.11
610.758	1201.46
611.176	1195.57
611.594	1186.46
612.012	1182.68
612.43	1185.14
612.847	1189.03
613.265	1189.77
613.683	1192.76
614.101	1192.25
614.518	1187.71
614.936	1177.41
615.353	1163.82
615.771	1160.41
616.188	1159.11
616.606	1153.91
617.023	1146.11
617.44	1132.33
617.857	1124.1
618.274	1115.19
618.691	1109.24
619.108	1100.63
619.525	1094.46
619.942	1099.48
620.359	1101.12
620.776	1095.63
621.192	1091.01
621.609	1088.47
622.026	1094.09
622.442	1097.82
622.859	1099.75
623.275	1091.3
623.691	1095.01
624.108	1103.33
624.524	1114.43
624.94	1113.06
625.356	1120.27
625.772	1131.44
626.188	1140.82
626.604	1141.38
627.02	1138.03
627.436	1136.03
627.852	1143
628.268	1152.36
628.683	1144.71
629.099	1136.59
629.514	1132.47
629.93	1135.49
630.345	1138.98
630.761	1135.01
631.176	1136.49
631.591	1131.63
632.007	1125.14
632.422	1120.95
632.837	1109.69
633.252	1106.63
633.667	1096.73
634.082	1086.93
634.497	1075.22
634.911	1055.89
635.326	1050.55
635.741	1034.73
636.155	1022.88
636.57	1022.33
636.984	1021.06
637.399	1022.53
637.813	1019.12
638.228	1015.43
638.642	1016.86
639.056	1005.33
639.47	1004.21
639.884	994.94
640.298	987.26
640.712	983.84
641.126	970.19
641.54	959.04
641.954	949.45
642.368	936.55
642.781	928.43
643.195	909.58
643.609	907.29
644.022	898.29
644.436	890.9
644.849	877.73
645.262	865.35
645.676	863.06
646.089	856.9
646.502	842.97
646.915	836.1
647.328	818.43
647.741	815.3
648.154	802.09
648.567	798.68
648.98	786.38
649.393	783.99
649.805	779.19
650.218	771.78
650.631	758.05
651.043	750.92
651.456	744.38
651.868	743.31
652.28	753.1
652.693	759.3
653.105	760.58
653.517	765.3
653.929	762.76
654.341	763.58
654.753	751.36
655.165	751.57
655.577	747.56
655.989	740.46
656.401	730.74
656.813	703.17
657.224	686.8
657.636	662.44
658.047	646.42
658.459	629.02
658.87	617.31
659.282	604.67
659.693	586.85
660.104	571.84
660.515	558.6
660.926	550.76
661.338	542.82
661.749	533.55
662.159	523.15
662.57	514.75
662.981	506.91
663.392	498.88
663.803	497.57
664.213	490.63
664.624	482.95
665.035	479.44
665.445	469.71
665.855	462.06
666.266	453.65
666.676	448.02
667.086	438.68
667.497	434.96
667.907	428.34
668.317	419.38
668.727	417.84
669.137	414.59
669.547	411.33
669.956	409.33
670.366	407.92
670.776	406.88
671.186	407.54
671.595	408.32
672.005	408.2
672.414	406.39
672.824	404.83
673.233	402.93
673.642	403.73
674.052	405.05
674.461	406.88
674.87	408.29
675.279	407.71
675.688	407.83
676.097	409.7
676.506	408.86
676.915	417
677.323	419.66
677.732	419.47
678.141	421.22
678.549	416.57
678.958	416.81
679.366	418.18
679.775	421.78
680.183	432.15
680.592	437.63
681	444.71
681.408	444.84
681.816	452.28
682.224	461.59
682.632	473.14
683.04	496.57
683.448	517.11
683.856	543.65
684.264	574.72
684.671	600.53
685.079	635.9
685.487	674.44
685.894	725.05
686.302	770.86
686.709	812.26
687.116	859.33
687.524	901.53
687.931	941.77
688.338	977.52
688.745	1009.16
689.152	1047.06
689.559	1090.95
689.966	1135.99
690.373	1164.89
690.78	1209.21
691.187	1270.18
691.593	1319.45
692	1364.57
692.407	1425.22
692.813	1498.67
693.22	1558
693.626	1619.35
694.032	1668.45
694.439	1739.56
694.845	1796.92
695.251	1866.99
695.657	1930.24
696.063	2019.9
696.469	2088.02
696.875	2152.1
697.281	2189.03
697.687	2233.49
698.093	2269.69
698.498	2340.86
698.904	2394.24
699.31	2473.14
699.715	2533.14
700.12	2618.23
700.526	2637.58
700.931	2702.81
701.337	2750.64
701.742	2781.39
702.147	2858.89
702.552	2888.33
702.957	2942.82
703.362	2962.95
703.767	2990.39
704.172	3024.27
704.577	2980.19
704.981	3022.69
705.386	3037.9
705.791	3032.22
706.195	3100.18
706.6	3108.34
707.004	3180.24
707.408	3153.62
707.813	3178.84
708.217	3168.85
708.621	3171.51
709.025	3260.85
709.43	3262.75
709.834	3315.17
710.237	3376.51
710.641	3363.25
711.045	3380.46
711.449	3374.84
711.853	3400.21
712.256	3437.45
712.66	3471.21
713.064	3537.67
713.467	3573.99
713.87	3673.49
714.274	3715.3
714.677	3814.17
715.08	3955.45
715.484	4107.96
715.887	4291.38
716.29	4467.79
716.693	4650.01
717.096	4862.79
717.499	4978.96
717.901	4999.48
718.304	5021.92
718.707	5040.85
719.109	4944.67
719.512	4916.91
719.915	4795.19
720.317	4741.25
720.719	4779.82
721.122	4751.95
721.524	4704.99
721.926	4667.01
722.328	4754.08
722.731	4743.65
723.133	4767.39
723.535	4939.71
723.937	4957.78
724.338	5002.11
724.74	5037.42
725.142	4993.51
725.544	4994.47
725.945	5023.88
726.347	5018.46
726.748	5010.41
727.15	5021.72
727.551	4989.39
727.952	4963.26
728.354	4934.85
728.755	4936.04
729.156	4898.76
729.557	4872.43
729.958	4763.41
730.359	4711
730.76	4694.97
731.161	4642.94
731.562	4622.31
731.962	4622.37
732.363	4564.27
732.763	4508.26
733.164	4538.83
733.564	4476.93
733.965	4392.14
734.365	4360.1
734.766	4382.91
735.166	4347.11
735.566	4299.26
735.966	4273.09
736.366	4268.51
736.766	4214.43
737.166	4243.45
737.566	4206.17
737.966	4185.3
738.365	4221.6
738.765	4216.29
739.165	4149.72
739.564	4127.82
739.964	4166.47
740.363	4126.39
740.763	4125.25
741.162	4114.79
741.561	4084.96
741.96	4044.14
742.36	4059.11
742.759	4061.12
743.158	4095.37
743.557	4106.88
743.955	4141.07
744.354	4100.04
744.753	4151.34
745.152	4112.44
745.55	4160.9
745.949	4153.7
746.348	4155.07
746.746	4168.69
747.144	4136.36
747.543	4115.38
747.941	4160.95
748.339	4100.33
748.737	4095.8
749.136	4086.23
749.534	4145.35
749.932	4120.57
750.33	4140.13
750.727	4188.49
751.125	4169.77
751.523	4152.78
751.921	4192.09
752.318	4159.33
752.716	4209.81
753.113	4221.49
753.511	4242.45
753.908	4241
754.305	4227.43
754.703	4285.01
755.1	4339.4
755.497	4388.45
755.894	4557.64
756.291	4712.34
756.688	4999.79
757.085	5383.94
757.482	5921.1
757.878	6514.5
758.275	7048.13
758.672	7782.17
759.068	8379.09
759.465	9233.31
759.861	10339.42
760.258	11609.28
760.654	12272.88
761.05	12175.15
761.447	11620.19
761.843	10823.81
762.239	9992.81
762.635	9620.95
763.031	9263.95
763.427	8743.73
763.822	8197.45
764.218	7663.32
764.614	6964.51
765.01	6496.22
765.405	6197.71
765.801	5967.57
766.196	5675.42
766.592	5515.24
766.987	5238.19
767.382	5048.33
767.778	4968.21
768.173	4851.21
768.568	4785.18
768.963	4678.45
769.358	4695.19
769.753	4653.63
770.148	4581.07
770.542	4579.02
770.937	4549.12
771.332	4627.18
771.726	4645.31
772.121	4592.95
772.515	4643.02
772.91	4630.49
773.304	4690.87
773.699	4631.53
774.093	4678.03
774.487	4726.23
774.881	4762.61
775.275	4759.84
775.669	4722.42
776.063	4758.33
776.457	4788.54
776.851	4722.43
777.245	4716.35
777.638	4744.95
778.032	4843.92
778.425	4810.57
778.819	4845.97
779.212	4809.16
779.606	4771.89
779.999	4791.63
780.392	4778.85
780.786	4850.2
781.179	4868.84
781.572	4907.37
781.965	4920.99
782.358	4871.4
782.751	4922.64
783.143	4881.45
783.536	4946.09
783.929	4982.9
784.322	5081.72
784.714	5107.82
785.107	5105.4
785.499	5170.28
785.891	5151.57
786.284	5134.58
786.676	5261.57
787.068	5242.89
787.46	5289.74
787.852	5305.91
788.245	5383.36
788.636	5411.19
789.028	5473.57
789.42	5506.33
789.812	5512.56
790.204	5596.71
790.595	5685.31
790.987	5514.18
791.378	5539.58
791.77	5653.2
792.161	5777.8
792.553	5829.75
792.944	5732.28
793.335	5672.75
793.726	5739.77
794.117	5821.4
794.508	5939.68
794.899	5914.57
795.29	6040.5
795.681	6091.72
796.072	5968.62
796.463	5811.57
796.853	5820.94
797.244	5963.27
797.634	5993.42
798.025	5995.86
798.415	6005.01
798.806	6083.72
799.196	6157.54
799.586	6201.77
799.976	6165.11
800.366	6368.39
800.756	6572.76
801.146	6541.1
801.536	6563.65
801.926	6628.41
802.316	6652.61
802.706	6720.45
803.095	6615.81
803.485	6705.58
803.874	6742.55
804.264	6975.29
804.653	6952.97
805.043	7082.29
805.432	7177.55
805.821	7181.23
806.21	7204.94
806.599	7308.73
806.988	7350.71
807.377	7447.21
807.766	7564.4
808.155	7814.75
808.544	7583.63
808.933	7596.22
809.321	7576.92
809.71	7836.24
810.098	7981.59
810.487	8381.21
810.875	8800.07
811.264	8816.97
811.652	9077.77
812.04	9200.35
812.428	9345.62
812.816	10019.26
813.204	10386.31
813.592	10874.73
813.98	11172.05
814.368	11081.56
814.756	11514.29
815.144	11441.13
815.531	11847.88
815.919	11769.76
816.306	12040.87
816.694	11763.73
817.081	11807.72
817.469	12116.76
817.856	12115.22
818.243	12352.62
818.63	12698.63
819.017	12324.16
819.404	12388.43
819.791	12723.55
820.178	13269.06
820.565	13497.68
820.952	14330.01
821.339	13895.27
821.725	14064.08
822.112	13407.12
822.498	13375.5
822.885	13489.66
823.271	13399.58
823.657	13768.73
824.044	13778.15
824.43	13851.85
824.816	13821.75
825.202	13438.41
825.588	14342.75
825.974	14359.14
826.36	14818.93
826.746	14853.86
827.132	15174.44
827.517	15166.84
827.903	14472.47
828.289	14507.26
828.674	13820.2
829.06	13730.95
829.445	14073.76
829.83	14382.89
830.216	14794.31
830.601	15117.45
830.986	14751.56
831.371	14628.83
831.756	15110.41
832.141	14731.49
832.526	14730.52
832.911	14974.39
833.295	14865.49
833.68	15279.59
834.065	14729.94
834.449	13921.69
834.834	13856.78
835.218	13844.84
835.603	14143.41
835.987	13951.02
836.371	14678.52
836.755	14579.93
837.139	14924.26
837.524	15134.63
837.908	14971.19
838.291	15024.43
838.675	15081.71
839.059	15256.64
839.443	15244.56
839.827	15031.87
840.21	15451.43
840.594	15316.24
840.977	15493.24
841.361	15465.17
841.744	15790.27
842.127	15648.3
842.511	15856.33
842.894	16371.7
843.277	16701.58
843.66	17166.93
844.043	17238.11
844.426	16535.33
844.809	16265.82
845.191	16289.23
845.574	15885.09
845.957	15563.13
846.339	15475.08
846.722	15016.54
847.104	15074.09
847.487	14921.61
847.869	14939.66
848.252	15183.57
848.634	15468.52
849.016	15696.53
849.398	15805.68
849.78	16555.8
850.162	16573.73
850.544	16927.3
850.926	17471.07
851.307	17397.04
851.689	17642.01
852.071	18034.84
852.452	18316.01
852.834	18293.68
853.215	18638.06
853.597	18768.37
853.978	19021
854.359	19402.38
854.741	18543.27
855.122	18456.18
855.503	18204.25
855.884	18311.83
856.265	18259.82
856.646	18357.32
857.026	18019.47
857.407	17965.68
857.788	18101.86
858.169	18343.92
858.549	17610.97
858.93	18149.05
859.31	18201.25
859.69	18391.19
860.071	18043.94
860.451	17854.25
860.831	17212.06
861.211	18228.68
861.591	18710.74
861.971	18688.56
862.351	18868.77
862.731	19208.73
863.111	19446.82
863.491	19730.32
863.87	20491.89
864.25	20798.21
864.629	20452.43
865.009	20899.9
865.388	21647.72
865.768	23203.67
866.147	23120.85
866.526	21845.22
866.905	22102.91
867.284	23340.49
867.663	22170.95
868.042	21246.83
868.421	21172.56
868.8	21526.36
869.179	21744.58
869.558	20481.74
869.936	18875.11
870.315	19211.82
870.693	19677.3
871.072	21223.54
871.45	20225.5
871.828	20483.29
872.207	21539.41
872.585	21229.15
872.963	21813.09
873.341	21071.58
873.719	20819.71
874.097	20565.16
874.475	20953.46
874.853	21431.91
875.23	20535.83
875.608	21382.94
875.986	23128.9
876.363	22112.19
876.741	22783.97
877.118	22214.38
877.495	23292.78
877.873	23676.62
878.25	24908.74
878.627	23887.15
879.004	24227.05
879.381	24107.95
879.758	23478.24
880.135	21854.32
880.512	23110.7
880.889	22490.11
881.265	22246.74
881.642	22059.36
882.019	22425.33
882.395	21975.11
882.772	22863.09
883.148	21867.97
883.524	21788.43
883.901	21668.34
884.277	21994.71
884.653	21853.45
885.029	22473.34
885.405	24881.6
885.781	24696
886.157	23673.16
886.532	23954.02
886.908	23922.78
887.284	26591.76
887.659	27443.49
888.035	28277.09
888.411	28990.7
888.786	29368.98
889.161	30388.26
889.537	29832.09
889.912	30781.02
890.287	30741.18
890.662	31527.17
891.037	30958.14
891.412	28871.6
891.787	28573.53
892.162	27581.41
892.536	28233.77
892.911	27162.32
893.286	26583.79
893.66	25493.12
894.035	26127.94
894.409	28460.71
894.784	27316.19
895.158	27761.34
895.532	29399.06
895.906	30198.02
896.281	30895.7
896.655	30382
897.029	34710
897.402	36145.76
897.776	40244.54
898.15	40118.92
898.524	39686.44
898.898	40226.66
899.271	45023.99
899.645	38975.3
900.018	37448.99
900.392	38837.01
900.765	39151.94
901.138	36255.45
901.511	35712.64
901.884	32802.92
902.258	30253.83
902.631	31253
903.003	35941.66
903.376	32457.23
903.749	36407.85
904.122	38973.1
904.495	42930.86
904.867	43498.54
905.24	37760.88
905.612	35155.73
905.985	35945.35
906.357	37591.32
906.729	35900.94
907.102	30687.72
907.474	29519.19
907.846	29720.14
908.218	29329.27
908.59	25925.91
908.962	25078.81
909.334	27010.52
909.705	28395.07
910.077	27581.56
910.449	28724.36
910.82	29542.83
911.192	32522.41
911.563	33794.48
911.935	36162.69
912.306	36227.34
912.677	37399.8
913.048	37019.2
913.419	40169.81
913.79	40387.27
914.161	43284.68
914.532	41370.31
914.903	37999.74
915.274	36079.41
915.645	35554.26
916.015	31288.33
916.386	29833.4
916.756	31771.25
917.127	32775.89
917.497	29287.36
917.868	31879.66
918.238	30296.88
918.608	31155.39
918.978	31809.79
919.348	33702.06
919.718	34816.47
920.088	33565.92
920.458	34872.46
920.828	36671.79
921.198	34782.05
921.567	37168.22
921.937	28792.31
922.306	29092.41
922.676	31388.21
923.045	26204.4
923.415	24899.81
923.784	22678.36
924.153	23318.24
924.522	23291.96
924.891	21905.71
925.26	23467.65
925.629	22903.43
925.998	26318.5
926.367	25687.2
926.736	24449.73
927.104	29100.08
927.473	31278.57
927.842	37790.83
928.21	37400.36
928.578	39322.61
928.947	37187.6
929.315	37402.51
929.683	43903.07
930.051	44234.92
930.42	51359.97
930.788	43933.43
931.156	43598.38
931.523	40838.75
931.891	37723.92
932.259	36261.04
932.627	41994.34
932.994	59422.25
933.362	49144.69
933.729	42647.59
934.097	40853.15
934.464	34561.79
934.831	39879.11
935.199	39286.36
935.566	38126.33
935.933	38584.39
936.3	46705.95
936.667	36361.38
937.034	32790.82
937.401	32398.33
937.767	27951.46
938.134	24872.99
938.501	35080.53
938.867	37371.04
939.234	63252.43
939.6	53935.57
939.967	59483.52
940.333	39827.49
940.699	33915.14
941.065	27216.37
941.431	35707.98
941.798	34480.22
942.163	45252.56
942.529	28262.58
942.895	26033.11
943.261	16824.1
943.627	22061.51
943.992	19335.84
944.358	19376.85
944.723	19457.86
945.089	18981.48
945.454	17543
945.82	18729.19
946.185	18028.01
946.55	20872.04
946.915	18712.51
947.28	21969.49
947.645	19340.82
948.01	17858.11
948.375	18616.91
948.74	22321.8
949.104	26025.98
949.469	37610.84
949.834	66448.84
950.198	62925.35
950.562	37755.62
950.927	31418.09
951.291	37776.07
951.655	32264.37
952.02	30285.89
952.384	22912.12
952.748	19947.86
953.112	19441.61
953.476	16871.56
953.839	15601.87
954.203	15453.18
954.567	19333.14
954.931	30476.06
955.294	26098.02
955.658	26193.91
956.021	44535.79
956.385	75436.35
956.748	111453.71
957.111	172863.36
957.474	194301.27
957.837	218919.2
958.2	165763.25
958.563	59590.89
958.926	40279.58
959.289	61136.72
959.652	68304.08
960.015	51256.25
960.377	73555.15
960.74	83843.62
961.102	144773.78
961.465	155531.8
961.827	83405.37
962.189	159946.4
962.552	110877.38
962.914	88846.81
963.276	57633.14
963.638	47667.59
964	47244.96
964.362	31952.21
964.724	30874.96
965.085	22043.83
965.447	18079.21
965.809	20568.3
966.17	20624.72
966.532	22326.28
966.893	20521.05
967.255	18662.46
967.616	22012.28
967.977	17617.39
968.338	19252.29
968.699	15824.95
969.061	15798.34
969.421	15886.45
969.782	17822.79
970.143	15028.06
970.504	15571.79
970.865	17696.63
971.225	18103.25
971.586	17704.38
971.946	25244.64
972.307	21905.29
972.667	28655.58
973.027	29544.8
973.388	35833.47
973.748	24390.91
974.108	26578.53
974.468	35949.24
974.828	27730.87
975.188	21352.12
975.548	19628.7
975.907	16474.68
976.267	18480.23
976.627	15529.63
976.986	16082.85
977.346	15336.57
977.705	14738.48
978.064	13409.05
978.424	11168.11
978.783	11531.57
979.142	13150.09
979.501	12583.62
979.86	13305.6
980.219	12826.23
980.578	16556.83
980.937	18536.27
981.296	16515.22
981.654	16999.02
982.013	26484.01
982.371	34341.12
982.73	32095.05
983.088	36320.25
983.447	38800.51
983.805	55409.89
984.163	115775.82
984.521	128468.09
984.879	188501.94
985.237	-306806.05
985.595	295791.15
985.953	73374.99
986.311	42394.01
986.669	24630.67
987.026	21279.65
987.384	28632.43
987.741	29622.07
988.099	21185.02
988.456	16877.18
988.814	15810.91
989.171	13740
989.528	13571.53
989.885	14356.18
990.242	11376.18
990.599	14135.19
990.956	11566.43
991.313	8092.55
991.67	6647.68
992.027	7052.94
992.383	6265.39
992.74	5499.82
993.096	5772.23
993.453	5982.06
993.809	6201.07
994.165	8249.41
994.522	7582.8
994.878	8364.87
995.234	10477.89
995.59	10342.44
995.946	9779.11
996.302	11150.27
996.658	12876.24
997.013	14166.27
997.369	16801.81
997.725	21500.87
998.08	13933.6
998.436	21432.39
998.791	29563.09
999.147	29518.72
999.502	32200.64
999.857	23412.23
1000.212	38194.27
1000.567	54339.74
1000.922	31411.19
1001.277	19974.06
1001.632	14828.31
1001.987	19118.47
1002.342	13746.18
1002.696	10981.29
1003.051	8779.57
1003.406	10626.85
1003.76	10554.55
1004.114	10392.7
1004.469	8758.25
1004.823	7242.93
1005.177	7811.07
1005.531	6189.49
1005.885	5488.48
1006.239	6190.43
1006.593	7773.6
1006.947	10410.23
1007.301	7821.47
1007.655	8537.06
1008.008	6276.09
1008.362	7058.84
1008.715	10081.82
1009.069	9145.4
1009.422	13757.53
1009.776	27591.19
1010.129	18289.07
1010.482	15279.79
1010.835	12897.19
1011.188	26798.37
1011.541	25227.44
1011.894	-154068.15
1012.247	451984.61
1012.6	30839.22
1012.952	19507.04
1013.305	10031.9
1013.657	7213.79
1014.01	6833.15
1014.362	5647.64
1014.715	5022.25
1015.067	4373.86
1015.419	4288.07
1015.771	3818.45
1016.123	3404.26
1016.475	3496.82
1016.827	3724.91
1017.179	4013.97
1017.531	4049.09
1017.883	4135.38
1018.234	3983.12
1018.586	5038.2
1018.938	5358.44
1019.289	7391.11
1019.64	8437.93
1019.992	7877.64
1020.343	7188.53
1020.694	5698.46
1021.045	5023.84
1021.396	5740.71
1021.747	6165.43
1022.098	7406.72
1022.449	5373.13
1022.8	4979.76
1023.151	3462.91
1023.501	3066.53
1023.852	3310.98
1024.202	3439.9
1024.553	3749.78
1024.903	3677.28
1025.253	3159.72
1025.604	2852.42
1025.954	3530.3
1026.304	4311.99
1026.654	5027.14
1027.004	7387.92
1027.354	11946.76
1027.703	11321.66
1028.053	14871.07
1028.403	21852.8
1028.753	31807.87
1029.102	43231.43
1029.452	221845.91
1029.801	9602.31
1030.15	6180.91
1030.499	5230.35
897.758	2841.71
901.051	2806.35
904.343	2840.04
907.636	2840.48
910.928	2906.46
914.22	2813.28
917.511	2821.84
920.803	2892.32
924.094	2918.3
927.384	2887.41
930.675	2855.05
933.965	2803.3
937.255	2807.24
940.544	2777.3
943.834	2691.76
947.123	2640.19
950.411	2739.64
953.7	2708.82
956.988	2672.09
960.276	2613.09
963.563	2703.68
966.851	2693.92
970.138	2758.73
973.424	2745.99
976.711	2694.7
979.997	2858.3
983.283	2886.14
986.568	2780.33
989.853	2808.92
993.138	2833.83
996.423	2917.68
999.708	2847.54
1002.992	2927.58
1006.275	2733.49
1009.559	2798.58
1012.842	2919.13
1016.125	2843.29
1019.408	2823.99
1022.69	2921.1
1025.972	2936.13
1029.254	2908.44
1032.536	2828.7
1035.817	2862.92
1039.098	2791.39
1042.379	2972.3
1045.659	2955.54
1048.939	2882.62
1052.219	2907.87
1055.498	2926.98
1058.778	2906.1
1062.057	2894.65
1065.335	2914.97
1068.614	2938.74
1071.892	2915.56
1075.17	3000.96
1078.447	2982.39
1081.724	2973.71
1085.001	3013.95
1088.278	2987.36
1091.554	3001.26
1094.83	3000.47
1098.106	3022.66
1101.382	3075.11
1104.657	3073.22
1107.932	3066.99
1111.206	3026.04
1114.481	2985.55
1117.755	2988.2
1121.029	2963.06
1124.302	3014.27
1127.575	2959.13
1130.848	2944.19
1134.121	2899.14
1137.393	2841
1140.665	2917.53
1143.937	2888.08
1147.208	2853.78
1150.48	2886.34
1153.75	2874.54
1157.021	2913.77
1160.291	2880.44
1163.561	2925.69
1166.831	2923.35
1170.101	2959.62
1173.37	2939.34
1176.639	2872.61
1179.907	2941.85
1183.176	2939.31
1186.444	2952.54
1189.711	2977.08
1192.979	2987
1196.246	2946.43
1199.513	2962.74
1202.78	2955.75
1206.046	2963.91
1209.312	2989.38
1212.578	3019.78
1215.843	2963.32
1219.108	2943.72
1222.373	2960.91
1225.638	2922.53
1228.902	2905.59
1232.166	2874.19
1235.43	2854.53
1238.693	2877.51
1241.956	2878.91
1245.219	2915.12
1248.482	2911.01
1251.744	2906.19
1255.006	3062.42
1258.268	3027.04
1261.529	2965.89
1264.79	2973.57
1268.051	3080.34
1271.312	3098.06
1274.572	3056.35
1277.832	3045.37
1281.092	3039.55
1284.351	3003.71
1287.61	2979.29
1290.869	2889.52
1294.128	2853.73
1297.386	2958.45
1300.644	2947.46
1303.902	2957.04
1307.159	2812.78
1310.416	2871.11
1313.673	2893.95
1316.93	2874.78
1320.186	2927.84
1323.442	2974.8
1326.697	2955.51
1329.953	2955.41
1333.208	2973.78
1336.463	2953.22
1339.717	2885.69
1342.972	3032.45
1346.226	3011.75
1349.479	2937.6
1352.733	2902.2
1355.986	2933.25
1359.238	2907.77
1362.491	2911.35
1365.743	2913.51
1368.995	2912.08
1372.247	2922.72
1375.498	2946.88
1378.749	2952.48
1382	2909.57
1385.251	2969.25
1388.501	2935.36
1391.751	2911.63
1395	2886.31
1398.25	2920.31
1401.499	2923.62
1404.748	2841.4
1407.996	2838.67
1411.244	2824.68
1414.492	2800.54
1417.74	2776.85
1420.987	2790.59
1424.234	2846.67
1427.481	2833.11
1430.728	2890.66
1433.974	2867.69
1437.22	2885.08
1440.465	2889.43
1443.711	2841.08
1446.956	2879.83
1450.201	2875.33
1453.445	2917.4
1456.689	2891.64
1459.933	2905.55
1463.177	2933.4
1466.42	2905.99
1469.663	2883.56
1472.906	2870.74
1476.148	2964.11
1479.391	2905.03
1482.633	2880.28
1485.874	2884.69
1489.115	2867.11
1492.356	2876.83
1495.597	2851.23
1498.838	2856.2
1502.078	2818.8
1505.318	2759.59
1508.557	2807.9
1511.797	2765.49
1515.036	2861.16
1518.274	2851.17
1521.513	2829.48
1524.751	2853.38
1527.989	2864.85
1531.227	2874.37
1534.464	2862.53
1537.701	2892.06
1540.938	2914.07
1544.174	2867.47
1547.41	2870.95
1550.646	2910.73
1553.882	2939.83
1557.117	2995.55
1560.352	3013.83
1563.587	2969.41
1566.821	2927.45
1570.055	2966.62
1573.289	2933.56
1576.523	3016.45
1579.756	3019.5
1582.989	3036.28
1586.222	2997.42
1589.454	3040.84
1592.686	3009.3
1595.918	3032.06
1599.15	3015.74
1602.381	3102.86
1605.612	3050.49
1608.843	3148.95
1612.073	3056.31
1615.303	3039.94
1618.533	3027.42
1621.762	3032.35
1624.992	3022.8
1628.221	3001.7
1631.449	2987.19
1634.678	3055.45
1637.906	3005.22
1641.134	3048.63
1644.361	2999.57
1647.588	2989.7
1650.815	3002.68
1654.042	2986.24
1657.269	3017.77
1660.495	2962.08
1663.72	2965.62
1666.946	2932.78
1670.171	2862.01
1673.396	2837.97
1676.621	2829.84
1679.845	2861.77
1683.069	2885
1686.293	2935.98
1689.517	2898.02
1692.74	2816.18
1695.963	2849.37
1699.185	2883.55
1702.408	2856.16
1705.63	2904.31
1708.852	2913.98
1712.073	2883.99
1715.294	2859.23
1718.515	2929.9
1721.736	2869.2
1724.956	2872.47
1728.176	2901.34
1731.396	2922.92
1734.616	2913.25
1737.835	2938.64
1741.054	2917.36
1744.272	2910.36
1747.491	2938.89
1750.709	3006.25
1753.927	2890.7
1757.144	2945.86
1760.361	2978.81
1763.578	2979.42
1766.795	2915.32
1770.011	2928.1
1773.227	2974.29
1776.443	3011.55
1779.658	3055.4
1782.874	2999.98
1786.089	2968.94
1789.303	2973.25
1792.518	2981.74
1795.732	2972.71
1798.945	2976.97
1802.159	3031.4
1805.372	2916.4
1808.585	2898.3
1811.797	2897.31
1815.01	2957.05
1818.222	2956.19
1821.434	2906.07
1824.645	2975.95
1827.856	2949.83
1831.067	2983.33
1834.278	2951.39
1837.488	2935.84
1840.698	3097.95
1843.908	3013.72
1847.117	2975.66
1850.326	2842.38
1853.535	2964.29
1856.744	3012.84
1859.952	2921.19
1863.16	2919.59
1866.368	2948.9
1869.575	3050.07
1872.782	2933.7
1875.989	2874.88
1879.196	2974.54
1882.402	2966.61
1885.608	3012.38
1888.814	2896.46
1892.019	2790.12
1895.224	2840.25
1898.429	2828.12
1901.634	2803.44
1904.838	2784.53
1908.042	2830.93
1911.246	2837.82
1914.449	2755.51
1917.652	2764.12
1920.855	2746.47
1924.058	2807.11
1927.26	2841.38
1930.462	2870.35
1933.664	2894.86
1936.865	2827.37
1940.066	2829.09
1943.267	2779.82
1946.467	2797.07
1949.668	2828.5
1952.868	2893.05
1956.067	2864.98
1959.267	2791.92
1962.466	2820.92
1965.665	2808.8
1968.863	2804.36
1972.061	2825.42
1975.259	2827.72
1978.457	2910.2
1981.654	2865.57
1984.852	2863.73
1988.048	2786.91
1991.245	2794.58
1994.441	2880.1
1997.637	2876.67
2000.833	2859.6
2004.028	2900.61
2007.223	2949.55
2010.418	2923.02
2013.613	2888.38
2016.807	2848.86
2020.001	2860.12
2023.194	2912.56
2026.388	2890.68
2029.581	2835.4
2032.774	2878.01
2035.966	2879.6
2039.158	2803.17
2042.35	2837.66
2045.542	2763.54
2048.733	2871.17
2051.924	2906.88
2055.115	2941.84
2058.306	2876.77
2061.496	2937.12
2064.686	3007.05
2067.875	2923.31
2071.065	2942.83
2074.254	2976.36
2077.442	2926.02
2080.631	3019.02
2083.819	2893.03
2087.007	2872.11
2090.195	2835.86
2093.382	2880.47
2096.569	2856.76
2099.756	2806.03
2102.942	2822.79
2106.128	2825.03
2109.314	2815.47
2112.5	2768.11
2115.685	2751.25
2118.87	2762.18
2122.055	2827.67
2125.239	2789.05
2128.424	2754.67
2131.608	2875.13
2134.791	2855.65
2137.974	2922.45
2141.157	2907.7
2144.34	2852.17
2147.523	2876.65
2150.705	2882.25
2153.887	2866.71
2157.068	2806.9
2160.25	2821.97
2163.431	2863.22
2166.611	2800.61
2169.792	2815.6
2172.972	2702.48
2176.152	2790.98
2179.331	2828.24
2182.511	2805.15
2185.69	2838.91
2188.868	2824.74
2192.047	2891.31
2195.225	2867.01
2198.403	2822.36
2201.58	2814.51
2204.758	2815.04
2207.935	2900.97
2211.111	2778.39
2214.288	2761.03
2217.464	2803.36
2220.64	2777.24
2223.815	2841.19
2226.991	2756.23
2230.166	2776.38
2233.34	2799.33
2236.515	2831.07
2239.689	2907.59
2242.863	2849.86
2246.036	2905.04
2249.209	2916.53
2252.382	2954.62
2255.555	2933.75
2258.727	2864.14
2261.9	2910.85
2265.071	2902.34
2268.243	2908.98
2271.414	2833.32
2274.585	2783.81
2277.756	2852.7
2280.926	2811.85
2284.096	2855.09
2287.266	2751.79
2290.436	2813.26
2293.605	2845.85
2296.774	2870
2299.942	2902.86
2303.111	2915.57
2306.279	2964.33
2309.447	2948.61
2312.614	2928.14
2315.781	2946.9
2318.948	2909.69
2322.115	2952.38
2325.281	2853.05
2328.447	2881.11
2331.613	2857.71
2334.779	2818.92
2337.944	2830.02
2341.109	2824.49
2344.274	2809.24
2347.438	2770.61
2350.602	2798.26
2353.766	2818.87
2356.929	2800.37
2360.092	2850.66
2363.255	2792.14
2366.418	2712.15
2369.58	2845.64
2372.742	2595.09
2375.904	2618.6
2379.066	2590.62
2382.227	2630.74
2385.388	2592.9
2388.548	2509.16
2391.709	2571.98
2394.869	2541.94
2398.029	2659.79
2401.188	2681.41
2404.347	2601.52
2407.506	2767.71
2410.665	2794.1
2413.823	2809.36
2416.981	2758.03
2420.139	2794.91
2423.296	2848.68
2426.453	2822.32
2429.61	2850.47
2432.767	2768.91
2435.923	2804.84
2439.079	2752.84
2442.235	2810.26
2445.391	2731.4
2448.546	2750.92
2451.701	2809.12
2454.855	2769.27
2458.009	2835.69
2461.163	2843.09
2464.317	2791.53
2467.471	2830.14
2470.624	2876.43
2473.777	2859.86
2476.929	2872.55
2480.082	2893.89
2483.234	2857.86
2486.385	2804.27
2489.537	2795.13
2492.688	2740.43
2495.839	2757.99
2498.989	2770.09
2502.14	2750.89
2505.29	2726.55
2508.439	2759.03
2511.589	2672.24
2514.738	2693.66
2517.887	2727.6
2521.035	2798.28
2524.183	2790.78
2527.331	2771.07
2530.479	2736.98
2533.627	2750.12
