Data from C_3_DEC_OH_4N_Splice17_13-25-53-003.txt Node
Date: Sat Mar 14 13:25:53 EDT 2020
User: sa697716
Spectrometer: FLMS03696
Trigger mode: 0
Integration Time (sec): 3.180400E-1
Scans to average: 20
Electric dark correction enabled: true
Nonlinearity correction enabled: true
Boxcar width: 5
XAxis mode: Wavelengths
Number of Pixels in Spectrum: 2048
>>>>>Begin Spectral Data<<<<<
187.83	-394121.02
188.298	2860.41
188.766	1511.99
189.233	1411.43
189.701	2045.56
190.169	2823.42
190.636	1063.7
191.104	822.19
191.571	129.8
192.039	-85.03
192.506	-90.63
192.974	519.34
193.441	-790.19
193.908	-163.19
194.375	1.75
194.842	109.08
195.31	259.38
195.777	258.44
196.244	439.71
196.711	424.88
197.177	497.02
197.644	663.03
198.111	1154.74
198.578	1563.93
199.045	1234.87
199.511	1984.62
199.978	2281.37
200.445	1936.29
200.911	2112.08
201.378	2317.35
201.844	2108.64
202.31	3591.89
202.777	3763.99
203.243	2071.02
203.709	1992.93
204.176	2378.64
204.642	1966.69
205.108	1849.3
205.574	1493.9
206.04	1322.38
206.506	1258.07
206.972	1165.58
207.438	1119.23
207.903	1275.38
208.369	1138.11
208.835	1135.86
209.301	1190.04
209.766	1196.63
210.232	1172.15
210.697	1435.08
211.163	1766.58
211.628	2615.17
212.094	2212.29
212.559	2760.78
213.024	1698.44
213.49	2066.94
213.955	1995.81
214.42	1895.85
214.885	1787.56
215.35	1732.02
215.815	1745.46
216.28	1864.86
216.745	1495.81
217.21	1610.33
217.675	1417.68
218.14	1580.26
218.604	1711.37
219.069	1916.34
219.534	2011.99
219.998	2271.52
220.463	2686.92
220.927	3163.64
221.392	2923.68
221.856	2935.38
222.32	3632.34
222.785	4483.53
223.249	5571.09
223.713	6173.69
224.177	6166.71
224.642	7788.41
225.106	9550.67
225.57	10368.38
226.034	7722.95
226.497	11745.7
226.961	10625.96
227.425	12343.77
227.889	13626.63
228.353	13586.77
228.816	27855.29
229.28	26542.99
229.744	22354.05
230.207	13597.27
230.671	13378.86
231.134	21927.42
231.597	25252.11
232.061	25188.16
232.524	24519.51
232.987	16880.1
233.45	15223.66
233.914	13676.52
234.377	13948.92
234.84	12766.44
235.303	14978.69
235.766	16701.55
236.229	17245
236.691	10834.05
237.154	12147.8
237.617	9169.22
238.08	9377.64
238.542	10964.53
239.005	7841.78
239.468	7819.47
239.93	7388.81
240.393	6730.75
240.855	5919.96
241.317	6075.24
241.78	7387.7
242.242	7664.67
242.704	8306.36
243.166	7255.94
243.629	6631.17
244.091	7659.8
244.553	8376.4
245.015	9002.42
245.477	11652.41
245.939	17060.64
246.4	18116.24
246.862	17612.49
247.324	16624.25
247.786	18567.83
248.247	24302.82
248.709	24949.5
249.17	18677.32
249.632	17714.6
250.093	20613.63
250.555	17808.92
251.016	10905.63
251.477	10354.89
251.939	11198.71
252.4	11736.45
252.861	13916.64
253.322	12972.21
253.783	15416.84
254.244	19998.99
254.705	15733.55
255.166	13976.96
255.627	13797.26
256.088	19462.26
256.549	20680.88
257.009	17796.81
257.47	21563.89
257.931	17578.37
258.391	13180.45
258.852	13632.05
259.312	14276.75
259.773	17618.47
260.233	14914.2
260.694	12598.39
261.154	14274.41
261.614	11516.05
262.074	10296.31
262.534	10729
262.994	10117.37
263.455	13462.21
263.915	11331.93
264.374	10672.58
264.834	11632.48
265.294	12854.05
265.754	13302.81
266.214	12579.94
266.673	11774.79
267.133	14846.05
267.593	14693.53
268.052	17994.57
268.512	15629.61
268.971	18933.61
269.431	20777.7
269.89	18647.8
270.349	28002.87
270.809	31256.21
271.268	28092.07
271.727	62804.23
272.186	40727.15
272.645	30530.77
273.104	21979.39
273.563	31814.79
274.022	24900.51
274.481	21230.97
274.94	16346.64
275.399	12119.24
275.857	14091.99
276.316	19096.73
276.775	17021.77
277.233	16780.7
277.692	15771.15
278.15	17892.61
278.609	18493.85
279.067	17133
279.525	15946.66
279.984	20619.88
280.442	24866.3
280.9	24608.68
281.358	16200.23
281.816	15122.68
282.274	14829.72
282.732	15289.93
283.19	15361.8
283.648	13249.59
284.106	14129.92
284.564	14349.39
285.021	13334.64
285.479	9930.69
285.937	9005.93
286.394	7931.28
286.852	8177.15
287.309	8600.5
287.767	8367.88
288.224	7992.29
288.682	8791.01
289.139	9701.11
289.596	8901.04
290.053	9255.02
290.511	11706.99
290.968	14272.99
291.425	19369.63
291.882	16229.69
292.339	14172.23
292.796	14045.52
293.252	13243.73
293.709	10560.49
294.166	9461.74
294.623	10464.4
295.079	10047.69
295.536	10131.78
295.992	9213.74
296.449	9107.33
296.905	9453.54
297.362	9091.64
297.818	9560.23
298.274	9941.44
298.731	10120.19
299.187	10025.28
299.643	10766.91
300.099	13038.38
300.555	14291.57
301.011	11953.85
301.467	11618.54
301.923	13580.12
302.379	13289.57
302.835	13046.2
303.291	13075.48
303.746	14877.37
304.202	18814.49
304.658	18950.45
305.113	12761.77
305.569	12542.01
306.024	13355.88
306.479	12653.05
306.935	10703.91
307.39	11653.7
307.845	10813.24
308.301	10908.77
308.756	10646.56
309.211	10277.48
309.666	10543.33
310.121	13134.38
310.576	13319.41
311.031	13234.85
311.486	15165.45
311.94	15147.87
312.395	20296.48
312.85	38188.37
313.305	187252.27
313.759	974901.19
314.214	70757.25
314.668	56172.98
315.123	47381.76
315.577	17079.57
316.032	15197.76
316.486	19109.88
316.94	15136.32
317.394	10567.41
317.849	8230.99
318.303	7799.6
318.757	7374.08
319.211	8165.38
319.665	7138.98
320.119	7239.41
320.572	10359
321.026	9704.14
321.48	8058.33
321.934	8766.49
322.387	8783.47
322.841	9499.07
323.295	8604.2
323.748	9869.52
324.202	10045.08
324.655	12087.46
325.108	16939.29
325.562	11972.42
326.015	14228.02
326.468	10805.07
326.921	12106.52
327.374	11318.24
327.827	11786.06
328.28	13303.37
328.733	8967.15
329.186	7847.81
329.639	7493.82
330.092	6295.8
330.545	6002.62
330.997	6079.81
331.45	6661.11
331.903	7834.8
332.355	13483.04
332.808	13125.48
333.26	10831.3
333.713	11757.43
334.165	11919.35
334.617	15874.03
335.069	12818.62
335.522	23222.78
335.974	25704.07
336.426	23444.08
336.878	16162.43
337.33	8214.45
337.782	8014.83
338.234	10084.52
338.686	12028.31
339.137	14187.16
339.589	13403.21
340.041	10530.46
340.493	9050.04
340.944	9261.29
341.396	10017.42
341.847	8488.08
342.299	10033.26
342.75	12306.24
343.201	10711.58
343.653	12322.66
344.104	15184.42
344.555	11961.51
345.006	18620.57
345.457	14368.57
345.908	11432.36
346.359	10782.86
346.81	8778.92
347.261	9246.32
347.712	9079.15
348.163	9752.72
348.613	9955
349.064	9285.49
349.515	8128.51
349.965	8360.26
350.416	10023.05
350.866	10992.54
351.317	12365.23
351.767	20484.55
352.217	25932.65
352.668	21626.66
353.118	19865.3
353.568	19050.32
354.018	15145.81
354.468	16034.91
354.918	11513.2
355.368	10104.3
355.818	14326.76
356.268	41200.78
356.718	172759.17
357.168	42994.04
357.617	21540.81
358.067	23954.23
358.517	22516.68
358.966	26470.38
359.416	29763.61
359.865	32215.32
360.315	38257.6
360.764	17889.9
361.213	10067.86
361.663	9517.3
362.112	11760.82
362.561	19002.39
363.01	14369.52
363.459	12117.29
363.908	13085.5
364.357	11160.58
364.806	18809.44
365.255	12965.6
365.703	11926.73
366.152	11985.42
366.601	9787.83
367.05	7970.26
367.498	7258.94
367.947	7574.79
368.395	7875.32
368.844	6982.01
369.292	8389.42
369.74	5821.5
370.189	8945.89
370.637	10485.38
371.085	9017.98
371.533	10898.38
371.981	10493.09
372.429	10033.98
372.877	10449.59
373.325	8771.73
373.773	8968.18
374.221	7980
374.669	9907.03
375.116	8537.45
375.564	8588.84
376.012	9637.91
376.459	7981.25
376.907	9543.93
377.354	11529.71
377.801	10790.05
378.249	12404.14
378.696	15833.81
379.143	19166.82
379.591	20400.59
380.038	34770.3
380.485	25265.13
380.932	27262.21
381.379	25075.05
381.826	18537.87
382.273	13169.35
382.72	11493.53
383.166	11225.99
383.613	7315.58
384.06	6600.17
384.506	7660.44
384.953	5599.08
385.4	5610.38
385.846	4918.32
386.292	4771.4
386.739	4655.91
387.185	4607.91
387.631	4618.82
388.078	4497.11
388.524	4784.36
388.97	4428.71
389.416	3693.75
389.862	3934.76
390.308	3723.9
390.754	3779.39
391.2	4100.62
391.645	4190.97
392.091	4032.03
392.537	3888.97
392.983	3884.3
393.428	3855.99
393.874	4122.97
394.319	4154.47
394.765	3960.13
395.21	4081.95
395.655	3830.05
396.101	3589.34
396.546	3250.16
396.991	3272.57
397.436	3044.4
397.881	2934.55
398.326	2766.62
398.771	2634.18
399.216	2293.38
399.661	2053.44
400.106	2050.68
400.551	2107.68
400.995	1894.81
401.44	1874.63
401.885	1764.36
402.329	1789.55
402.774	1723.71
403.218	1685.58
403.663	1625.44
404.107	1679.69
404.551	1704.48
404.995	1564.9
405.44	1508.99
405.884	1536.34
406.328	1487.88
406.772	1481.19
407.216	1349.81
407.66	1307.18
408.104	1232.49
408.547	1149.79
408.991	1113.12
409.435	1073.08
409.879	1063.05
410.322	1051.63
410.766	1019.36
411.209	973.53
411.653	938.92
412.096	925.13
412.54	925.42
412.983	920.99
413.426	929.79
413.869	931.16
414.312	914.48
414.756	881.44
415.199	842.63
415.642	818.81
416.085	824.71
416.527	818.38
416.97	830.44
417.413	791.79
417.856	784.9
418.298	776.73
418.741	768.17
419.184	764.41
419.626	793.89
420.069	794.1
420.511	800.75
420.953	784.12
421.396	780.03
421.838	760.01
422.28	775.27
422.722	782.06
423.164	794.59
423.606	786.95
424.048	786.39
424.49	750.36
424.932	745.62
425.374	733.03
425.816	742.31
426.258	753.3
426.699	762.52
427.141	753.85
427.582	761.66
428.024	757.09
428.465	747.9
428.907	728.55
429.348	717.96
429.789	720.86
430.231	707.43
430.672	717.36
431.113	699.99
431.554	690.14
431.995	668.29
432.436	645.94
432.877	630.64
433.318	622.35
433.759	619.87
434.2	618.68
434.64	611.08
435.081	612.87
435.522	579.24
435.962	557.15
436.403	543.97
436.843	552.14
437.284	539.27
437.724	522.66
438.164	519.48
438.604	507.76
439.045	487.53
439.485	467.85
439.925	455.6
440.365	444.72
440.805	438.52
441.245	434.29
441.685	419.84
442.125	414.84
442.564	416.75
443.004	407.15
443.444	405.18
443.883	406.38
444.323	400.01
444.762	397.84
445.202	400.97
445.641	410.31
446.081	404.34
446.52	405.27
446.959	402.83
447.398	393.31
447.837	389.29
448.276	380.63
448.716	383.94
449.154	385.93
449.593	379.11
450.032	378.63
450.471	369.06
450.91	368.69
451.349	368.54
451.787	364.79
452.226	370.35
452.664	369.7
453.103	370.73
453.541	368.85
453.98	371.31
454.418	372.21
454.856	366.81
455.295	365.31
455.733	368.23
456.171	369.91
456.609	369.49
457.047	368.16
457.485	375.3
457.923	375.89
458.361	370.9
458.798	369.84
459.236	368.78
459.674	368.54
460.111	369.52
460.549	365.78
460.987	362.2
461.424	361.61
461.862	360.21
462.299	353.13
462.736	354.1
463.173	354.71
463.611	353.18
464.048	352.26
464.485	356.72
464.922	353.02
465.359	349.86
465.796	353.63
466.233	351.55
466.67	351.17
467.106	352.35
467.543	346.62
467.98	341.73
468.416	330.83
468.853	327.42
469.29	316.11
469.726	313.28
470.162	305.21
470.599	294.68
471.035	291.28
471.471	280.64
471.907	276.08
472.344	274.48
472.78	276.2
473.216	278.59
473.652	275.12
474.088	275.07
474.523	275.13
474.959	277.98
475.395	275.66
475.831	274.83
476.266	277.2
476.702	277.28
477.138	274.9
477.573	273.63
478.008	273.54
478.444	276.21
478.879	279.65
479.314	280.89
479.75	280.82
480.185	281.31
480.62	283.44
481.055	285.29
481.49	287.44
481.925	291.49
482.36	298.35
482.795	305.85
483.229	313.01
483.664	318.66
484.099	319.03
484.534	324.16
484.968	327.9
485.403	328.23
485.837	327.01
486.271	326.41
486.706	326.69
487.14	321.43
487.574	316.6
488.009	314.1
488.443	311.47
488.877	315.96
489.311	316.81
489.745	320.2
490.179	323.91
490.613	331.56
491.046	334
491.48	336.49
491.914	337.19
492.348	339.44
492.781	341.66
493.215	342.97
493.648	343.27
494.082	346.4
494.515	347.94
494.948	352.66
495.382	354.75
495.815	358.13
496.248	361.79
496.681	368.86
497.114	375.31
497.547	381.08
497.98	388.92
498.413	394.33
498.846	400.18
499.279	405.22
499.711	407.82
500.144	409.69
500.577	417.36
501.009	424.52
501.442	432.06
501.874	435.15
502.306	438.03
502.739	446.24
503.171	455.73
503.603	459.56
504.036	466.92
504.468	472.97
504.9	481.4
505.332	487.16
505.764	491.86
506.196	497.96
506.627	508.35
507.059	518.83
507.491	523.18
507.923	524.39
508.354	536.02
508.786	544.44
509.217	556.81
509.649	567.96
510.08	580.15
510.512	593.08
510.943	603.63
511.374	613.24
511.805	627.46
512.237	641.23
512.668	662.09
513.099	680.04
513.53	698.69
513.961	713.69
514.391	735.56
514.822	760.54
515.253	783.92
515.684	801.94
516.114	822.5
516.545	837.69
516.975	857.11
517.406	871.49
517.836	875.8
518.267	882.48
518.697	895.63
519.127	900.85
519.558	905.85
519.988	910.44
520.418	919.54
520.848	932.27
521.278	940.18
521.708	978.88
522.138	989.37
522.567	1010.22
522.997	1028.96
523.427	1041.06
523.857	1053.83
524.286	1062.44
524.716	1074.23
525.145	1088.75
525.575	1097.85
526.004	1109.32
526.433	1082.37
526.863	1082.56
527.292	1079.56
527.721	1085.15
528.15	1090.18
528.579	1093.15
529.008	1101.6
529.437	1117.64
529.866	1126.75
530.295	1139.36
530.724	1149.42
531.152	1168.08
531.581	1179.33
532.01	1190.75
532.438	1196.19
532.867	1206.79
533.295	1218.95
533.723	1223.66
534.152	1222.67
534.58	1223.89
535.008	1213.67
535.436	1215.16
535.865	1220.07
536.293	1229.04
536.721	1239.78
537.149	1257.34
537.576	1259.07
538.004	1267.05
538.432	1271.39
538.86	1270.31
539.287	1274.25
539.715	1282.66
540.143	1283.34
540.57	1280.29
540.998	1278.39
541.425	1263.6
541.852	1248.62
542.28	1246.8
542.707	1236.13
543.134	1226.63
543.561	1224.49
543.988	1219.47
544.415	1218.67
544.842	1214.62
545.269	1210.39
545.696	1211.74
546.123	1220.35
546.549	1213.61
546.976	1205.46
547.403	1204.48
547.829	1207.04
548.256	1208.69
548.682	1206.54
549.108	1204.29
549.535	1204.07
549.961	1205.58
550.387	1197.03
550.813	1194.37
551.24	1199.47
551.666	1201.41
552.092	1195.74
552.518	1191.56
552.943	1188.06
553.369	1194
553.795	1196.37
554.221	1198.05
554.646	1196.2
555.072	1204.7
555.498	1206.75
555.923	1212.6
556.349	1222.61
556.774	1229.72
557.199	1230.05
557.625	1232.71
558.05	1228.92
558.475	1236.01
558.9	1235.29
559.325	1230.74
559.75	1226.3
560.175	1222.41
560.6	1218.3
561.025	1215.5
561.449	1215.74
561.874	1219.1
562.299	1222.71
562.723	1227.51
563.148	1220.38
563.572	1221.91
563.997	1227.11
564.421	1227.92
564.846	1226.49
565.27	1227.48
565.694	1225.69
566.118	1232.09
566.542	1236.04
566.966	1230.03
567.39	1225.09
567.814	1216.74
568.238	1216.26
568.662	1218.05
569.086	1219.56
569.509	1223.81
569.933	1213.99
570.357	1207.84
570.78	1192.93
571.204	1184.89
571.627	1175.94
572.05	1173.31
572.474	1172.45
572.897	1162.37
573.32	1158.05
573.743	1150.39
574.166	1137.93
574.589	1135.47
575.012	1130.45
575.435	1128.22
575.858	1121.02
576.281	1114.62
576.704	1103.8
577.126	1094.9
577.549	1087.3
577.972	1078.92
578.394	1071.65
578.817	1068.09
579.239	1056.19
579.661	1046.45
580.084	1036.78
580.506	1027.81
580.928	1024.28
581.35	1017.41
581.772	1014.45
582.194	1005.8
582.616	997.5
583.038	988.02
583.46	979.37
583.882	976.9
584.303	978.74
584.725	974.91
585.147	979.05
585.568	986.21
585.99	993.55
586.411	997.3
586.833	1006.08
587.254	1007.13
587.675	1016.28
588.096	1023.6
588.518	1019.8
588.939	1008.96
589.36	1006.86
589.781	995.28
590.202	977.71
590.623	971.76
591.043	968.97
591.464	960.18
591.885	956.93
592.305	952.05
592.726	943.01
593.147	944.07
593.567	939.51
593.987	933.67
594.408	929.09
594.828	925.29
595.248	920.76
595.669	909.04
596.089	905.07
596.509	900.25
596.929	891
597.349	890.88
597.769	882.55
598.189	879.16
598.608	880.38
599.028	882.31
599.448	882.81
599.867	874.08
600.287	871.29
600.706	868.16
601.126	862.53
601.545	862.28
601.965	861.42
602.384	858.02
602.803	858.9
603.222	856.01
603.641	851.03
604.061	848.35
604.48	845.26
604.898	849.45
605.317	852.33
605.736	852.95
606.155	851.01
606.574	844.64
606.992	848.17
607.411	845.35
607.829	838.62
608.248	836.07
608.666	833.71
609.085	833.86
609.503	828.72
609.921	824.09
610.339	824.98
610.758	823.19
611.176	819.93
611.594	814.2
612.012	811.92
612.43	814.9
612.847	817.86
613.265	818.89
613.683	820.73
614.101	821.13
614.518	817.01
614.936	809.48
615.353	800.74
615.771	798.43
616.188	797.78
616.606	795.03
617.023	789.54
617.44	780.72
617.857	773.98
618.274	767.23
618.691	763.33
619.108	758.05
619.525	753.58
619.942	757.67
620.359	759.21
620.776	756.11
621.192	753.42
621.609	751.97
622.026	756.45
622.442	761.31
622.859	763.43
623.275	757.08
623.691	759.41
624.108	766.26
624.524	772.66
624.94	771.31
625.356	776.39
625.772	783.63
626.188	789.31
626.604	790.16
627.02	786.5
627.436	784.78
627.852	790.39
628.268	797.88
628.683	792.25
629.099	787
629.514	783.73
629.93	786.1
630.345	787.43
630.761	783.85
631.176	784.45
631.591	781.17
632.007	776.57
632.422	773.68
632.837	765.65
633.252	764.21
633.667	757.43
634.082	750.8
634.497	742.09
634.911	730.8
635.326	728.39
635.741	717.31
636.155	709.18
636.57	709.41
636.984	707.37
637.399	708.57
637.813	705.08
638.228	703.56
638.642	704.26
639.056	695.47
639.47	693.22
639.884	686.33
640.298	680.39
640.712	677.59
641.126	668.63
641.54	661.02
641.954	653.28
642.368	644.94
642.781	639.29
643.195	627.1
643.609	625.44
644.022	619.12
644.436	614.1
644.849	605.03
645.262	596.19
645.676	594.36
646.089	591.27
646.502	583.47
646.915	579.84
647.328	569.23
647.741	567.48
648.154	559.82
648.567	559.83
648.98	552.64
649.393	552.15
649.805	550.33
650.218	546.04
650.631	537.01
651.043	532.89
651.456	529.72
651.868	527.59
652.28	536.15
652.693	542.89
653.105	543.78
653.517	548.03
653.929	548.33
654.341	550.91
654.753	544.59
655.165	546.92
655.577	545.3
655.989	541.51
656.401	537.66
656.813	519.12
657.224	506.96
657.636	490.52
658.047	482.22
658.459	471.28
658.87	464.98
659.282	457.74
659.693	447.86
660.104	440.5
660.515	432.63
660.926	430.53
661.338	427.95
661.749	424.9
662.159	420.42
662.57	416.55
662.981	414.75
663.392	410.9
663.803	411.94
664.213	409.44
664.624	404.61
665.035	405.63
665.445	397.68
665.855	395.07
666.266	390.34
666.676	389.13
667.086	384.28
667.497	382.72
667.907	379.04
668.317	374.03
668.727	375
669.137	375.03
669.547	373.78
669.956	374.81
670.366	375.02
670.776	376.47
671.186	378.42
671.595	380.23
672.005	382.02
672.414	382.52
672.824	384.12
673.233	382.94
673.642	385.1
674.052	387.12
674.461	390.58
674.87	392.56
675.279	392.72
675.688	394.63
676.097	397.22
676.506	396.38
676.915	405.09
677.323	406.55
677.732	407.32
678.141	408.48
678.549	403.92
678.958	403
679.366	403.94
679.775	406.49
680.183	414.32
680.592	418.12
681	422.96
681.408	420.56
681.816	426.51
682.224	432.36
682.632	440.29
683.04	457.79
683.448	472.72
683.856	491.92
684.264	513.98
684.671	532.37
685.079	556.04
685.487	581.22
685.894	617.03
686.302	646.85
686.709	674.29
687.116	704.36
687.524	731.59
687.931	757.12
688.338	777.45
688.745	793.35
689.152	812.69
689.559	839.95
689.966	869.69
690.373	886.6
690.78	913.96
691.187	952.48
691.593	982.69
692	1009.92
692.407	1050.08
692.813	1101.26
693.22	1142.52
693.626	1184.19
694.032	1218.08
694.439	1266.74
694.845	1305.99
695.251	1353.87
695.657	1399.63
696.063	1464.95
696.469	1513.98
696.875	1559.18
697.281	1584.58
697.687	1616.92
698.093	1645.88
698.498	1698.25
698.904	1740.14
699.31	1799.82
699.715	1846.86
700.12	1907.4
700.526	1925.68
700.931	1974.45
701.337	2013.29
701.742	2039.98
702.147	2099.33
702.552	2123.14
702.957	2165.21
703.362	2181.28
703.767	2205.41
704.172	2235.2
704.577	2207.83
704.981	2239.48
705.386	2253.83
705.791	2250.53
706.195	2300.95
706.6	2310.16
707.004	2363.55
707.408	2344.63
707.813	2365.8
708.217	2358.91
708.621	2360.91
709.025	2427.78
709.43	2431.13
709.834	2473.64
710.237	2521.53
710.641	2512.79
711.045	2528.37
711.449	2528.85
711.853	2553.4
712.256	2581.15
712.66	2607.76
713.064	2658.48
713.467	2688.2
713.87	2765.47
714.274	2797.83
714.677	2873.72
715.08	2985.34
715.484	3102.04
715.887	3239.97
716.29	3372.16
716.693	3515.27
717.096	3677.67
717.499	3769.42
717.901	3786.5
718.304	3804.68
718.707	3820.29
719.109	3750.43
719.512	3727.81
719.915	3636.69
720.317	3598.79
720.719	3628.3
721.122	3606.85
721.524	3572.08
721.926	3546.18
722.328	3615.72
722.731	3606.42
723.133	3625.82
723.535	3756.83
723.937	3770.81
724.338	3805.72
724.74	3831.88
725.142	3820.63
725.544	3822.67
725.945	3846.25
726.347	3838.85
726.748	3832.59
727.15	3842.9
727.551	3819.27
727.952	3798.82
728.354	3778.02
728.755	3776.17
729.156	3745.34
729.557	3705.06
729.958	3619.57
730.359	3578.48
730.76	3568.09
731.161	3527.12
731.562	3513.64
731.962	3512.38
732.363	3470.65
732.763	3430.44
733.164	3457
733.564	3416
733.965	3354.34
734.365	3332.99
734.766	3351.6
735.166	3324.1
735.566	3287.18
735.966	3268.94
736.366	3267.73
736.766	3227.61
737.166	3247.83
737.566	3218.83
737.966	3198.9
738.365	3222.65
738.765	3219.33
739.165	3169.22
739.564	3151.49
739.964	3180.94
740.363	3148.65
740.763	3146.11
741.162	3137.43
741.561	3117.56
741.96	3087.21
742.36	3099.39
742.759	3104.54
743.158	3127.74
743.557	3138.46
743.955	3167.11
744.354	3137.89
744.753	3174.47
745.152	3146.93
745.55	3181.71
745.949	3175.07
746.348	3176.6
746.746	3189.03
747.144	3162.09
747.543	3148.1
747.941	3178.83
748.339	3129.54
748.737	3123.98
749.136	3121.92
749.534	3164.69
749.932	3147.59
750.33	3162.21
750.727	3195.62
751.125	3179.65
751.523	3168.17
751.921	3198.33
752.318	3174.86
752.716	3214.46
753.113	3224.73
753.511	3239.31
753.908	3241.12
754.305	3231.21
754.703	3272.97
755.1	3315.09
755.497	3354.51
755.894	3480.8
756.291	3597.89
756.688	3817.99
757.085	4109.76
757.482	4520.29
757.878	4968.78
758.275	5370.98
758.672	5923.32
759.068	6374.44
759.465	7017.65
759.861	7849.67
760.258	8813.89
760.654	9311.61
761.05	9237.05
761.447	8813.91
761.843	8208.46
762.239	7580.62
762.635	7296.86
763.031	7025.45
763.427	6636.86
763.822	6231.98
764.218	5827.31
764.614	5300.31
765.01	4946.39
765.405	4715.96
765.801	4544.47
766.196	4321.07
766.592	4199.3
766.987	3991.27
767.382	3849.45
767.778	3790.21
768.173	3702.24
768.568	3654.87
768.963	3572.57
769.358	3587.46
769.753	3559.96
770.148	3504.03
770.542	3503.44
770.937	3480.86
771.332	3543.14
771.726	3557.13
772.121	3517.26
772.515	3551.1
772.91	3538.8
773.304	3586.49
773.699	3540.76
774.093	3573.84
774.487	3610.04
774.881	3639.82
775.275	3636.53
775.669	3604.28
776.063	3633.58
776.457	3656.39
776.851	3611.16
777.245	3608.01
777.638	3629.36
778.032	3704.01
778.425	3678.96
778.819	3708.63
779.212	3680.55
779.606	3653.66
779.999	3668.35
780.392	3658.14
780.786	3710.87
781.179	3722.64
781.572	3751.41
781.965	3758.32
782.358	3720.01
782.751	3757.41
783.143	3723.37
783.536	3770.37
783.929	3797.93
784.322	3875.77
784.714	3893.21
785.107	3889.81
785.499	3935.93
785.891	3922.51
786.284	3910.61
786.676	4005.22
787.068	3995.66
787.46	4031.92
787.852	4045.39
788.245	4104.95
788.636	4122.4
789.028	4167.62
789.42	4195.95
789.812	4201.76
790.204	4264.19
790.595	4332.77
790.987	4206.45
791.378	4220.78
791.77	4305.9
792.161	4395.26
792.553	4432.34
792.944	4358.7
793.335	4315.31
793.726	4364.39
794.117	4427.15
794.508	4515.2
794.899	4494.94
795.29	4586.7
795.681	4622.85
796.072	4528.18
796.463	4418.9
796.853	4428.45
797.244	4534.74
797.634	4562.28
798.025	4562.73
798.415	4569.99
798.806	4637.9
799.196	4697.53
799.586	4734.58
799.976	4714.94
800.366	4872.85
800.756	5021.47
801.146	4991.52
801.536	5010.55
801.926	5054.96
802.316	5072.8
802.706	5123.49
803.095	5041.23
803.485	5108.03
803.874	5132.28
804.264	5304.31
804.653	5285.08
805.043	5385.79
805.432	5460.8
805.821	5468.11
806.21	5487.47
806.599	5564.71
806.988	5595.97
807.377	5665.03
807.766	5750.51
808.155	5941.26
808.544	5762.9
808.933	5772.55
809.321	5755.81
809.71	5953.45
810.098	6052.05
810.487	6358.19
810.875	6680.99
811.264	6692.5
811.652	6890.36
812.04	6984.41
812.428	7097.4
812.816	7606.41
813.204	7882.95
813.592	8252.73
813.98	8476.18
814.368	8423.93
814.756	8740.14
815.144	8681.55
815.531	8992.71
815.919	8936.2
816.306	9144.3
816.694	8933.02
817.081	8970.28
817.469	9203.94
817.856	9203.24
818.243	9383.81
818.63	9636.99
819.017	9364.44
819.404	9422.43
819.791	9679
820.178	10086.92
820.565	10257.76
820.952	10890.91
821.339	10559.4
821.725	10692.32
822.112	10197.1
822.498	10165.23
822.885	10252.19
823.271	10180.32
823.657	10448.4
824.044	10449.53
824.43	10501.12
824.816	10488.93
825.202	10191.16
825.588	10874.65
825.974	10884.26
826.36	11231.78
826.746	11265.98
827.132	11502.49
827.517	11491.52
827.903	10966.41
828.289	11001.01
828.674	10482.88
829.06	10401.57
829.445	10664.27
829.83	10901.41
830.216	11219.06
830.601	11450.25
830.986	11178.67
831.371	11094.09
831.756	11461.77
832.141	11173.97
832.526	11161.18
832.911	11348.71
833.295	11270.37
833.68	11583.13
834.065	11166.26
834.449	10547.11
834.834	10501.49
835.218	10492.52
835.603	10716.77
835.987	10570.91
836.371	11118.93
836.755	11054.8
837.139	11307.11
837.524	11463.18
837.908	11334.55
838.291	11369.91
838.675	11412.4
839.059	11546.88
839.443	11534.2
839.827	11376.01
840.21	11692.87
840.594	11600.03
840.977	11729.24
841.361	11719.49
841.744	11969.67
842.127	11867.75
842.511	12025.7
842.894	12413.23
843.277	12657.89
843.66	13009.46
844.043	13055.69
844.426	12522.13
844.809	12307.71
845.191	12328.24
845.574	12024.26
845.957	11776.06
846.339	11704.46
846.722	11356.29
847.104	11405.69
847.487	11294.91
847.869	11298.91
848.252	11483.52
848.634	11699.83
849.016	11871.31
849.398	11944.72
849.78	12498.42
850.162	12502.36
850.544	12777.28
850.926	13191.95
851.307	13128.46
851.689	13305.86
852.071	13608.73
852.452	13826.95
852.834	13814.93
853.215	14082.64
853.597	14190.07
853.978	14392.67
854.359	14691.53
854.741	14037.07
855.122	13971.48
855.503	13778.3
855.884	13870.01
856.265	13838.03
856.646	13905.15
857.026	13651.16
857.407	13607.71
857.788	13709.74
858.169	13889.19
858.549	13340.76
858.93	13752.49
859.31	13790.25
859.69	13941.04
860.071	13678.68
860.451	13531.28
860.831	13051.37
861.211	13816.58
861.591	14172.05
861.971	14156.66
862.351	14295.36
862.731	14549.76
863.111	14718.82
863.491	14937.93
863.87	15512.08
864.25	15741.84
864.629	15479.09
865.009	15816.96
865.388	16377.51
865.768	17562.07
866.147	17503.73
866.526	16533.16
866.905	16723.8
867.284	17667.05
867.663	16780.5
868.042	16086.87
868.421	16040.8
868.8	16304.09
869.179	16469.05
869.558	15505.2
869.936	14283.53
870.315	14536.82
870.693	14899.4
871.072	16075.98
871.45	15317.92
871.828	15512.12
872.207	16314.66
872.585	16072.27
872.963	16509.75
873.341	15947.72
873.719	15772.22
874.097	15595.58
874.475	15890.4
874.853	16251.41
875.23	15576.21
875.608	16229.78
875.986	17557.51
876.363	16793.78
876.741	17310.26
877.118	16890.53
877.495	17715.58
877.873	18002.43
878.25	18930.1
878.627	18154.03
879.004	18401.18
879.381	18312.29
879.758	17831.93
880.135	16600.64
880.512	17550.09
880.889	17071.18
881.265	16883.92
881.642	16735.4
882.019	17030.79
882.395	16694.4
882.772	17367.73
883.148	16606.01
883.524	16537.32
883.901	16444.4
884.277	16676.64
884.653	16567.13
885.029	17052.24
885.405	18902.88
885.781	18768.63
886.157	17988.26
886.532	18204.01
886.908	18186.39
887.284	20234.71
887.659	20891.59
888.035	21529.61
888.411	22092.88
888.786	22387.61
889.161	23151.13
889.537	22702.7
889.912	23417.12
890.287	23386.92
890.662	23989.86
891.037	23533.2
891.412	21934.27
891.787	21701.01
892.162	20943.39
892.536	21429.08
892.911	20601.21
893.286	20153.13
893.66	19324.94
894.035	19798.64
894.409	21547.64
894.784	20682.57
895.158	21022.82
895.532	22260.97
895.906	22865.73
896.281	23397.28
896.655	23017.74
897.029	26309.45
897.402	27400.06
897.776	30514.21
898.15	30441.93
898.524	30119.75
898.898	30509.74
899.271	34170.7
899.645	29614.84
900.018	28452.85
900.392	29507.11
900.765	29760.68
901.138	27567.74
901.511	27169.93
901.884	24962.2
902.258	23018.56
902.631	23799.07
903.003	27382.86
903.376	24718.95
903.749	27723.22
904.122	29690.57
904.495	32694.58
904.867	33120.6
905.24	28746.84
905.612	26760.51
905.985	27365.91
906.357	28631.26
906.729	27324.64
907.102	23365.18
907.474	22481.44
907.846	22630.25
908.218	22343.56
908.59	19771.14
908.962	19134.66
909.334	20608.42
909.705	21670.39
910.077	21051.96
910.449	21916.3
910.82	22552.41
911.192	24823.36
911.563	25809.15
911.935	27627.39
912.306	27666.48
912.677	28557.86
913.048	28264.48
913.419	30684.55
913.79	30848.06
914.161	33081.76
914.532	31643.99
914.903	29071.65
915.274	27625.22
915.645	27224.47
916.015	23964.92
916.386	22855.05
916.756	24341.5
917.127	25126.38
917.497	22465.54
917.868	24463.06
918.238	23257.69
918.608	23927.54
918.978	24454.59
919.348	25875.68
919.718	26748.44
920.088	25791.54
920.458	26821.77
920.828	28222.88
921.198	26772.78
921.567	28614.96
921.937	22168.65
922.306	22379.55
922.676	24139.27
923.045	20143.33
923.415	19143.27
923.784	17424.52
924.153	17910.03
924.522	17899.37
924.891	16826.48
925.26	18009.65
925.629	17580.69
925.998	20211.8
926.367	19736
926.736	18807.17
927.104	22379.84
927.473	24067.37
927.842	29089.97
928.21	28774.57
928.578	30202.4
928.947	28557.44
929.315	28752.09
929.683	33725.78
930.051	33994.26
930.42	39464.08
930.788	33719.99
931.156	33468.9
931.523	31396.3
931.891	29012
932.259	27900.67
932.627	32385.16
932.994	45866.23
933.362	37888.99
933.729	32888.65
934.097	31468.46
934.464	26645.4
934.831	30751.61
935.199	30308.46
935.566	29390.25
935.933	29784.47
936.3	36070.68
936.667	28078.65
937.034	25379.46
937.401	25118.3
937.767	21686.49
938.134	19315.15
938.501	27225.98
938.867	29018.8
939.234	49090.1
939.6	41853.12
939.967	46129.32
940.333	30931.03
940.699	26311.14
941.065	21048.4
941.431	27597.98
941.798	26652.25
942.163	35008.4
942.529	21862.1
942.895	20138.12
943.261	13030.08
943.627	17104.54
943.992	14972.9
944.358	14984.18
944.723	15048.56
945.089	14664.81
945.454	13559.95
945.82	14454.04
946.185	13902.89
946.55	16124.64
946.915	14451.94
947.28	16966.06
947.645	14955.54
948.01	13807.7
948.375	14417.18
948.74	17296.37
949.104	20187.83
949.469	29154.8
949.834	51631.96
950.198	49010.98
950.562	29383.28
950.927	24482.93
951.291	29427.73
951.655	25037.51
952.02	23521.83
952.384	17779.22
952.748	15512.77
953.112	15162.09
953.476	13179.32
953.839	12179.11
954.203	12064.83
954.567	15113.06
954.931	23797.54
955.294	20391.46
955.658	20517.22
956.021	34894.07
956.385	59172.26
956.748	87217.43
957.111	135305.8
957.474	151778.74
957.837	170918.51
958.2	129151.13
958.563	46369.48
958.926	31398.44
959.289	47629.22
959.652	53310.36
960.015	40044.91
960.377	57446.04
960.74	65533.62
961.102	112934.95
961.465	121676.32
961.827	65381.28
962.189	125532.22
962.552	87090.17
962.914	69765.11
963.276	45299.47
963.638	37441.14
964	37085.24
964.362	25104.75
964.724	24241.83
965.085	17319.14
965.447	14185.16
965.809	16134.39
966.17	16165.5
966.532	17511.7
966.893	16094.71
967.255	14634.78
967.616	17261.93
967.977	13819.23
968.338	15078.93
968.699	12420.83
969.061	12418.28
969.421	12508.92
969.782	14031.69
970.143	11862.21
970.504	12306.85
970.865	13988.27
971.225	14336.55
971.586	14036.12
971.946	20003.54
972.307	17377.83
972.667	22680.53
973.027	23351.48
973.388	28253.33
973.748	19202.52
974.108	20908.69
974.468	28228.98
974.828	21813.18
975.188	16775.33
975.548	15405.49
975.907	12941.95
976.267	14521.21
976.627	12215.05
976.986	12657.4
977.346	12088.01
977.705	11633.21
978.064	10586.45
978.424	8823.9
978.783	9085.61
979.142	10365.48
979.501	9934.87
979.86	10513.91
980.219	10128.8
980.578	13057.78
980.937	14623.31
981.296	13028.68
981.654	13433.56
982.013	20928.26
982.371	27148.93
982.73	25402.98
983.088	28793.76
983.447	30719.47
983.805	43915.01
984.163	91828.67
984.521	101925.25
984.879	149627.98
985.237	-243966.35
985.595	234981.91
985.953	58296.74
986.311	33582.91
986.669	19520.75
987.026	16829.08
987.384	22632.16
987.741	23363.49
988.099	16722.44
988.456	13310.36
988.814	12444.45
989.171	10810.73
989.528	10670.65
989.885	11284.43
990.242	8970.63
990.599	11175.71
990.956	9157.16
991.313	6422.38
991.67	5289.25
992.027	5629.29
992.383	5013.1
992.74	4408.8
993.096	4630.28
993.453	4804.01
993.809	4977.31
994.165	6622.73
994.522	6097
994.878	6725.38
995.234	8413.91
995.59	8279.06
995.946	7796.65
996.302	8899.04
996.658	10275.68
997.013	11300.53
997.369	13425.74
997.725	17219.02
998.08	11167.06
998.436	17099.83
998.791	23562.84
999.147	23629.91
999.502	25762.55
999.857	18734.68
1000.212	30619.37
1000.567	43591.8
1000.922	25170.12
1001.277	15999.59
1001.632	11886.43
1001.987	15317.69
1002.342	11024.28
1002.696	8846.41
1003.051	7054.73
1003.406	8597.17
1003.76	8557.6
1004.114	8440.45
1004.469	7110.2
1004.823	5897.67
1005.177	6349.41
1005.531	5032.16
1005.885	4479.17
1006.239	5050.87
1006.593	6325.31
1006.947	8471.85
1007.301	6323.29
1007.655	6906.01
1008.008	5065.82
1008.362	5704.71
1008.715	8144.3
1009.069	7404.23
1009.422	11164.2
1009.776	22314.65
1010.129	14795.15
1010.482	12343.08
1010.835	10418.29
1011.188	21691.88
1011.541	20321.66
1011.894	-123798.95
1012.247	363018.37
1012.6	24661.07
1012.952	15554.77
1013.305	7969.6
1013.657	5750.77
1014.01	5461.25
1014.362	4509.4
1014.715	4021.88
1015.067	3508.67
1015.419	3434.47
1015.771	3074.08
1016.123	2738.89
1016.475	2799.45
1016.827	2979.97
1017.179	3231.87
1017.531	3250.33
1017.883	3316.88
1018.234	3220.47
1018.586	4071.06
1018.938	4337.2
1019.289	5992.99
1019.64	6804.88
1019.992	6327.51
1020.343	5817.06
1020.694	4617.56
1021.045	4086.86
1021.396	4679.51
1021.747	5033.67
1022.098	5996.06
1022.449	4333.37
1022.8	4032.05
1023.151	2827.62
1023.501	2527.47
1023.852	2747.56
1024.202	2861.25
1024.553	3127.76
1024.903	3056.01
1025.253	2644.48
1025.604	2376.37
1025.954	2958.83
1026.304	3575.12
1026.654	4152.82
1027.004	6030.77
1027.354	9704.32
1027.703	9201.6
1028.053	12058.03
1028.403	17672.66
1028.753	25339.04
1029.102	33689.08
1029.452	171214.96
1029.801	7307.93
1030.15	4745.61
1030.499	3965.63
897.758	2947.43
901.051	2917.8
904.343	2953.64
907.636	2948.7
910.928	3015.82
914.22	2922.95
917.511	2933.89
920.803	3005.34
924.094	3040.31
927.384	3003.01
930.675	2966.58
933.965	2913.34
937.255	2913.19
940.544	2882.29
943.834	2784.62
947.123	2735.29
950.411	2831.4
953.7	2800.68
956.988	2759.63
960.276	2701.95
963.563	2800.67
966.851	2788.46
970.138	2855.41
973.424	2841.04
976.711	2788.32
979.997	2971.77
983.283	2997.61
986.568	2888.61
989.853	2918.79
993.138	2948.26
996.423	3026.7
999.708	2952.47
1002.992	3040.04
1006.275	2829.58
1009.559	2902.96
1012.842	3028.74
1016.125	2948.3
1019.408	2924.89
1022.69	3031.07
1025.972	3043.26
1029.254	3012.99
1032.536	2926.72
1035.817	2963.05
1039.098	2886.15
1042.379	3085.48
1045.659	3062.09
1048.939	2981.5
1052.219	3010.5
1055.498	3032.35
1058.778	3005.53
1062.057	2994.3
1065.335	3015.09
1068.614	3040.5
1071.892	3010.99
1075.17	3102.1
1078.447	3081.87
1081.724	3067.53
1085.001	3113.62
1088.278	3082
1091.554	3101.76
1094.83	3099.24
1098.106	3121.53
1101.382	3174.39
1104.657	3173.12
1107.932	3171.12
1111.206	3125.12
1114.481	3084
1117.755	3092.1
1121.029	3060.51
1124.302	3113.76
1127.575	3051.1
1130.848	3037.1
1134.121	2990.05
1137.393	2931.19
1140.665	3006.34
1143.937	2976.27
1147.208	2943.16
1150.48	2971.83
1153.75	2954.5
1157.021	3005.54
1160.291	2967.19
1163.561	3011.94
1166.831	3010.28
1170.101	3047.92
1173.37	3031.94
1176.639	2963.89
1179.907	3033.63
1183.176	3027.5
1186.444	3042.88
1189.711	3069.37
1192.979	3072.33
1196.246	3033.13
1199.513	3051.88
1202.78	3048.54
1206.046	3054.76
1209.312	3077.75
1212.578	3111.94
1215.843	3052.13
1219.108	3032.34
1222.373	3053.74
1225.638	3014.99
1228.902	2994.94
1232.166	2968.76
1235.43	2944.87
1238.693	2968.02
1241.956	2971.45
1245.219	3005.23
1248.482	3000.64
1251.744	2994.85
1255.006	3160.57
1258.268	3119.63
1261.529	3055.23
1264.79	3067.02
1268.051	3172.39
1271.312	3194.05
1274.572	3152.64
1277.832	3141.59
1281.092	3137.85
1284.351	3098.28
1287.61	3070.56
1290.869	2974.95
1294.128	2936.32
1297.386	3051.6
1300.644	3037.41
1303.902	3050.97
1307.159	2903.51
1310.416	2956.79
1313.673	2978.56
1316.93	2959.4
1320.186	3016.16
1323.442	3068.05
1326.697	3047.4
1329.953	3054.45
1333.208	3067.8
1336.463	3051.5
1339.717	2977
1342.972	3122.9
1346.226	3106.2
1349.479	3029.31
1352.733	2991.04
1355.986	3026.93
1359.238	2999.69
1362.491	3001.26
1365.743	3004.57
1368.995	3006.25
1372.247	3019.81
1375.498	3046.32
1378.749	3053.87
1382	3015.64
1385.251	3076.19
1388.501	3047.7
1391.751	3018.91
1395	2997.95
1398.25	3034.68
1401.499	3034.88
1404.748	2946.28
1407.996	2929.05
1411.244	2913.51
1414.492	2890.22
1417.74	2862.98
1420.987	2882.65
1424.234	2935.73
1427.481	2929.5
1430.728	2984.09
1433.974	2961.19
1437.22	2983.08
1440.465	2988.62
1443.711	2946.96
1446.956	2988.73
1450.201	2985.01
1453.445	3031.34
1456.689	3000.75
1459.933	3015.35
1463.177	3038.8
1466.42	3011.03
1469.663	2989.65
1472.906	2971.95
1476.148	3077.45
1479.391	3004.28
1482.633	2981.23
1485.874	2985.64
1489.115	2959.63
1492.356	2976.4
1495.597	2949.28
1498.838	2956.9
1502.078	2916.87
1505.318	2850.53
1508.557	2898.37
1511.797	2846.37
1515.036	2959.63
1518.274	2946.47
1521.513	2927.3
1524.751	2953.4
1527.989	2960.28
1531.227	2967.81
1534.464	2950.64
1537.701	2987.61
1540.938	3010.11
1544.174	2963.67
1547.41	2970.46
1550.646	3007.13
1553.882	3033.95
1557.117	3086.18
1560.352	3106.25
1563.587	3058.22
1566.821	3012.36
1570.055	3060.7
1573.289	3022.8
1576.523	3106.83
1579.756	3110.21
1582.989	3124.51
1586.222	3084.77
1589.454	3130.38
1592.686	3097.02
1595.918	3116.72
1599.15	3101.35
1602.381	3195.67
1605.612	3134.43
1608.843	3233.8
1612.073	3141.93
1615.303	3122.04
1618.533	3106
1621.762	3118.37
1624.992	3109.49
1628.221	3084.09
1631.449	3070.52
1634.678	3144.79
1637.906	3091.14
1641.134	3133.79
1644.361	3082.19
1647.588	3070.57
1650.815	3083.93
1654.042	3075.03
1657.269	3102.47
1660.495	3049.08
1663.72	3043.48
1666.946	3013.41
1670.171	2935.27
1673.396	2912.68
1676.621	2907.3
1679.845	2944.25
1683.069	2975.32
1686.293	3028.26
1689.517	2985.79
1692.74	2899.34
1695.963	2928.7
1699.185	2972.68
1702.408	2941.12
1705.63	2993.11
1708.852	2999.49
1712.073	2973.76
1715.294	2942.56
1718.515	3012.39
1721.736	2950.11
1724.956	2955.29
1728.176	2985.64
1731.396	3007.02
1734.616	3002.99
1737.835	3025.25
1741.054	3004.62
1744.272	3002.96
1747.491	3027.31
1750.709	3098.61
1753.927	2977.36
1757.144	3037.39
1760.361	3067.46
1763.578	3071.78
1766.795	3006.62
1770.011	3021.48
1773.227	3073.41
1776.443	3107.6
1779.658	3152.8
1782.874	3099.93
1786.089	3067.26
1789.303	3070.72
1792.518	3077.87
1795.732	3068.32
1798.945	3070.35
1802.159	3129.03
1805.372	3005.64
1808.585	2983.37
1811.797	2984.6
1815.01	3048.97
1818.222	3048.42
1821.434	2985.2
1824.645	3064.81
1827.856	3034.25
1831.067	3073.22
1834.278	3048.65
1837.488	3030.87
1840.698	3199.9
1843.908	3113.64
1847.117	3075.98
1850.326	2931.52
1853.535	3056.09
1856.744	3122.93
1859.952	3027.67
1863.16	3026.9
1866.368	3054.45
1869.575	3153.37
1872.782	3042.94
1875.989	2988.16
1879.196	3093.98
1882.402	3087.86
1885.608	3137.7
1888.814	3017.4
1892.019	2910.02
1895.224	2958.29
1898.429	2952.22
1901.634	2925.77
1904.838	2908.25
1908.042	2953.67
1911.246	2954.69
1914.449	2868.75
1917.652	2878.07
1920.855	2860.67
1924.058	2924.48
1927.26	2954.57
1930.462	2988.12
1933.664	3009.14
1936.865	2940.59
1940.066	2941.49
1943.267	2890.59
1946.467	2913.41
1949.668	2943.6
1952.868	3009.4
1956.067	2978.14
1959.267	2901.88
1962.466	2932.38
1965.665	2920.3
1968.863	2912.33
1972.061	2938.79
1975.259	2942.78
1978.457	3027.12
1981.654	2981.12
1984.852	2982.41
1988.048	2902.59
1991.245	2913.29
1994.441	3000.52
1997.637	3000.42
2000.833	2982.16
2004.028	3023.57
2007.223	3071.6
2010.418	3041.88
2013.613	3008.25
2016.807	2961.87
2020.001	2979.12
2023.194	3034.98
2026.388	3006.21
2029.581	2951.54
2032.774	2992.22
2035.966	2989.55
2039.158	2913.46
2042.35	2945.6
2045.542	2874.28
2048.733	2986.05
2051.924	3027.93
2055.115	3060.37
2058.306	2989.57
2061.496	3052.06
2064.686	3128.54
2067.875	3046.07
2071.065	3069.46
2074.254	3102.94
2077.442	3052.35
2080.631	3145.96
2083.819	3009.21
2087.007	2984.19
2090.195	2945.84
2093.382	2994.76
2096.569	2971.67
2099.756	2918.81
2102.942	2929.62
2106.128	2928.58
2109.314	2922.64
2112.5	2872.43
2115.685	2855.41
2118.87	2867.68
2122.055	2936.32
2125.239	2893.78
2128.424	2855.49
2131.608	2989.59
2134.791	2964.62
2137.974	3042.11
2141.157	3025.56
2144.34	2964.28
2147.523	2994.71
2150.705	2997.32
2153.887	2982.52
2157.068	2919.23
2160.25	2935.93
2163.431	2987.18
2166.611	2911.64
2169.792	2930.28
2172.972	2806.97
2176.152	2903.13
2179.331	2943.31
2182.511	2912.3
2185.69	2946.35
2188.868	2936.45
2192.047	3005.42
2195.225	2979.15
2198.403	2926.1
2201.58	2927.7
2204.758	2925.78
2207.935	3015.93
2211.111	2887.4
2214.288	2869.31
2217.464	2914.1
2220.64	2893.97
2223.815	2954.4
2226.991	2868.13
2230.166	2888.66
2233.34	2911.65
2236.515	2945.23
2239.689	3026.3
2242.863	2963.62
2246.036	3022.97
2249.209	3035.72
2252.382	3079.99
2255.555	3056.68
2258.727	2983.05
2261.9	3033.22
2265.071	3026.83
2268.243	3031.99
2271.414	2953.69
2274.585	2898.81
2277.756	2973.42
2280.926	2926.85
2284.096	2974.38
2287.266	2864.89
2290.436	2927.85
2293.605	2963.62
2296.774	2983.7
2299.942	3018.58
2303.111	3037.33
2306.279	3077.81
2309.447	3067.97
2312.614	3046.41
2315.781	3066.31
2318.948	3027.36
2322.115	3069.81
2325.281	2968.93
2328.447	2995.78
2331.613	2977.47
2334.779	2934.62
2337.944	2943.72
2341.109	2941.75
2344.274	2919.25
2347.438	2881.73
2350.602	2910.85
2353.766	2932.76
2356.929	2914.78
2360.092	2959.89
2363.255	2901.62
2366.418	2811.06
2369.58	2956.28
2372.742	2685
2375.904	2712.71
2379.066	2682.19
2382.227	2729.48
2385.388	2689.01
2388.548	2596.67
2391.709	2661.27
2394.869	2637.52
2398.029	2764.33
2401.188	2789.63
2404.347	2703.29
2407.506	2884.9
2410.665	2906.44
2413.823	2926.27
2416.981	2865.09
2420.139	2908.47
2423.296	2966.69
2426.453	2942.08
2429.61	2966.91
2432.767	2877.28
2435.923	2917.09
2439.079	2846.35
2442.235	2908.85
2445.391	2826.76
2448.546	2844.7
2451.701	2907.12
2454.855	2860.21
2458.009	2930.84
2461.163	2938.18
2464.317	2885.89
2467.471	2925.2
2470.624	2971.72
2473.777	2971.42
2476.929	2982.46
2480.082	3009
2483.234	2970.1
2486.385	2896.3
2489.537	2888.35
2492.688	2828.63
2495.839	2849.45
2498.989	2857.64
2502.14	2838.95
2505.29	2810.05
2508.439	2844.45
2511.589	2752.18
2514.738	2774.34
2517.887	2810.41
2521.035	2902.87
2524.183	2899.12
2527.331	2875.27
2530.479	2835.81
2533.627	2852.35
