Data from C_3_DEC_OH_4N_Splice17_13-25-59-364.txt Node
Date: Sat Mar 14 13:25:59 EDT 2020
User: sa697716
Spectrometer: FLMS03696
Trigger mode: 0
Integration Time (sec): 3.180400E-1
Scans to average: 20
Electric dark correction enabled: true
Nonlinearity correction enabled: true
Boxcar width: 5
XAxis mode: Wavelengths
Number of Pixels in Spectrum: 2048
>>>>>Begin Spectral Data<<<<<
187.83	-361309.23
188.298	2625.69
188.766	1374.5
189.233	1270.75
189.701	1713.4
190.169	2362.41
190.636	894.07
191.104	709.34
191.571	126.44
192.039	-73.21
192.506	-51.77
192.974	449.23
193.441	-605.2
193.908	-206.41
194.375	-22.45
194.842	3.97
195.31	101.27
195.777	179.37
196.244	374.67
196.711	390
197.177	471.33
197.644	652.62
198.111	1071.08
198.578	1454.3
199.045	1168.69
199.511	1902.67
199.978	2203.26
200.445	1880.09
200.911	2051.27
201.378	2247.39
201.844	2048.62
202.31	3426.88
202.777	3495.44
203.243	1955.78
203.709	1865.63
204.176	2229.99
204.642	1831.8
205.108	1702.06
205.574	1368.16
206.04	1219.9
206.506	1153.71
206.972	1074.26
207.438	1050.35
207.903	1189.31
208.369	1059.22
208.835	1064.56
209.301	1113.81
209.766	1115.11
210.232	1094.84
210.697	1338.85
211.163	1653.58
211.628	2448.74
212.094	2063.23
212.559	2570.35
213.024	1624.58
213.49	1969.94
213.955	1903.12
214.42	1828.8
214.885	1711.18
215.35	1648.9
215.815	1673.12
216.28	1769.99
216.745	1425.7
217.21	1525.04
217.675	1353.14
218.14	1485.88
218.604	1613.1
219.069	1804.54
219.534	1885.21
219.998	2133.3
220.463	2537.69
220.927	2970.41
221.392	2757.63
221.856	2763.5
222.32	3405.35
222.785	4169.76
223.249	5190.37
223.713	5764.05
224.177	5748.69
224.642	7277.06
225.106	8921.81
225.57	9687.72
226.034	7263.82
226.497	11021.01
226.961	9990.22
227.425	11705.9
227.889	12958.39
228.353	12923.32
228.816	26575.79
229.28	25425.48
229.744	21371.06
230.207	13041.99
230.671	12842.29
231.134	21013.33
231.597	24257.72
232.061	24187.16
232.524	23452.01
232.987	16159.24
233.45	14593.8
233.914	13080.68
234.377	13357.69
234.84	12241.17
235.303	14376.78
235.766	16030.42
236.229	16570.6
236.691	10390.83
237.154	11644.09
237.617	8796.35
238.08	8995.87
238.542	10516.53
239.005	7545.76
239.468	7500.24
239.93	7082.34
240.393	6446.16
240.855	5670.93
241.317	5798.68
241.78	7063.86
242.242	7331.54
242.704	7948.72
243.166	6946.54
243.629	6345.77
244.091	7312.51
244.553	7991.24
245.015	8626.81
245.477	11159.14
245.939	16292.1
246.4	17324.89
246.862	16884.97
247.324	15930.57
247.786	17764.1
248.247	23274.35
248.709	23905.05
249.17	17888.75
249.632	17006.8
250.093	19704.05
250.555	17028.09
251.016	10431.78
251.477	9925.91
251.939	10720.14
252.4	11230.51
252.861	13335.38
253.322	12409.35
253.783	14756.12
254.244	19161.69
254.705	15050.43
255.166	13360.12
255.627	13161.62
256.088	18662.39
256.549	19787.34
257.009	17009.59
257.47	20643.33
257.931	16832.07
258.391	12634.62
258.852	13071.97
259.312	13669.2
259.773	16916.16
260.233	14328.75
260.694	12128.42
261.154	13705.93
261.614	11058.69
262.074	9893.31
262.534	10303.51
262.994	9737.7
263.455	12945.51
263.915	10909.65
264.374	10282.05
264.834	11218.99
265.294	12419.29
265.754	12864.78
266.214	12162.74
266.673	11379.99
267.133	14355.9
267.593	14231.45
268.052	17411.75
268.512	15149.25
268.971	18322.49
269.431	20108.16
269.89	18005.92
270.349	27017.84
270.809	30165.43
271.268	27142.29
271.727	60739.56
272.186	39351.3
272.645	29495.62
273.104	21229.32
273.563	30725.47
274.022	24074.14
274.481	20527.8
274.94	15792.17
275.399	11725.51
275.857	13611.44
276.316	18401.83
276.775	16381.31
277.233	16167.43
277.692	15194.95
278.15	17257.62
278.609	17824.55
279.067	16504.48
279.525	15343
279.984	19833.24
280.442	23863.22
280.9	23615.49
281.358	15581.84
281.816	14569.73
282.274	14276.88
282.732	14677.18
283.19	14729.37
283.648	12687.39
284.106	13512.75
284.564	13716.45
285.021	12752.57
285.479	9517.04
285.937	8645.49
286.394	7605.14
286.852	7824.14
287.309	8229.99
287.767	8016.79
288.224	7645.66
288.682	8425.26
289.139	9278.57
289.596	8534.31
290.053	8879.28
290.511	11212.85
290.968	13637.34
291.425	18517.76
291.882	15512.99
292.339	13534.44
292.796	13426.46
293.252	12667.74
293.709	10104.56
294.166	9095.3
294.623	10048.44
295.079	9659.81
295.536	9746.42
295.992	8865.2
296.449	8782.25
296.905	9146.26
297.362	8789.44
297.818	9232.1
298.274	9610.77
298.731	9765.2
299.187	9655.33
299.643	10365.4
300.099	12556.1
300.555	13762.2
301.011	11510.49
301.467	11139.91
301.923	12984.98
302.379	12711.21
302.835	12519.58
303.291	12526.2
303.746	14278.61
304.202	18064.35
304.658	18185.06
305.113	12234.96
305.569	12010.51
306.024	12800.61
306.479	12149.42
306.935	10276.93
307.39	11215.57
307.845	10393.27
308.301	10506.29
308.756	10251.51
309.211	9878.58
309.666	10139.63
310.121	12639.53
310.576	12836.97
311.031	12748.65
311.486	14591.68
311.94	14574.65
312.395	19503.18
312.85	36604.63
313.305	178759.84
313.759	931964.96
314.214	67637.47
314.668	53819.87
315.123	45380.68
315.577	16331.17
316.032	14574.79
316.486	18319.45
316.94	14484.72
317.394	10113.22
317.849	7883.42
318.303	7482.98
318.757	7054.52
319.211	7809.2
319.665	6805.44
320.119	6884.91
320.572	9833.56
321.026	9194.69
321.48	7644.78
321.934	8318.71
322.387	8338.22
322.841	8993.02
323.295	8157.16
323.748	9358.63
324.202	9517.48
324.655	11473.21
325.108	16068.23
325.562	11393.58
326.015	13544.41
326.468	10265
326.921	11519.66
327.374	10781.81
327.827	11273.19
328.28	12713.21
328.733	8537.14
329.186	7506.85
329.639	7166.26
330.092	6057.1
330.545	5765.33
330.997	5832.8
331.45	6391.13
331.903	7525.6
332.355	12922.19
332.808	12541.66
333.26	10355.94
333.713	11286.69
334.165	11373
334.617	15178.97
335.069	12202.04
335.522	22084.11
335.974	24380.88
336.426	22310.15
336.878	15420.5
337.33	7825.39
337.782	7640.17
338.234	9612.68
338.686	11459.49
339.137	13615.06
339.589	12802.17
340.041	10057.3
340.493	8666.06
340.944	8893.05
341.396	9569.6
341.847	8086.86
342.299	9567.74
342.75	11751.56
343.201	10230.2
343.653	11797.6
344.104	14483.41
344.555	11443.41
345.006	17786.23
345.457	13692.53
345.908	10904.97
346.359	10280.98
346.81	8356.73
347.261	8804.28
347.712	8667.68
348.163	9298.24
348.613	9486.07
349.064	8884.54
349.515	7786.85
349.965	8013.26
350.416	9627.56
350.866	10549.85
351.317	11900.68
351.767	19748.44
352.217	24901.05
352.668	20645.07
353.118	18959.55
353.568	18183.24
354.018	14398.75
354.468	15209.93
354.918	10942.01
355.368	9590.3
355.818	13603.57
356.268	39275.16
356.718	164460.34
357.168	41053.16
357.617	20630.68
358.067	22932.53
358.517	21550.48
358.966	25393.84
359.416	28561.65
359.865	30880.48
360.315	36771.81
360.764	17209.95
361.213	9681.15
361.663	9149.33
362.112	11338.08
362.561	18328.12
363.01	13860.64
363.459	11650.37
363.908	12573.57
364.357	10714.96
364.806	18003.78
365.255	12346.5
365.703	11314.58
366.152	11345.29
366.601	9242.03
367.05	7535.58
367.498	6874.09
367.947	7194.78
368.395	7480.97
368.844	6645.48
369.292	7996.44
369.74	5569.55
370.189	8561.66
370.637	10043.11
371.085	8659.73
371.533	10565.7
371.981	10153.38
372.429	9715.25
372.877	10109.65
373.325	8511.37
373.773	8662.84
374.221	7713.6
374.669	9568.84
375.116	8267.79
375.564	8323.29
376.012	9305.62
376.459	7655.42
376.907	9130.27
377.354	11004.67
377.801	10291.05
378.249	11843.37
378.696	15180.22
379.143	18384.33
379.591	19559.1
380.038	33250.9
380.485	24224.34
380.932	26224.88
381.379	24124.73
381.826	17860.83
382.273	12696.68
382.72	11086.57
383.166	10802.61
383.613	7009
384.06	6319.13
384.506	7352.6
384.953	5392.25
385.4	5399.22
385.846	4734.05
386.292	4601.37
386.739	4494.24
387.185	4436.37
387.631	4428.3
388.078	4309.97
388.524	4585
388.97	4229.94
389.416	3517.55
389.862	3740.61
390.308	3543.15
390.754	3592.66
391.2	3892.48
391.645	3975.37
392.091	3833.43
392.537	3719.83
392.983	3714.95
393.428	3687.77
393.874	3957.05
394.319	3989.41
394.765	3799.23
395.21	3902.74
395.655	3661.03
396.101	3430.76
396.546	3104.21
396.991	3118.19
397.436	2898.5
397.881	2804.49
398.326	2646.78
398.771	2514.83
399.216	2196.56
399.661	1975.4
400.106	1972.66
400.551	2030.73
400.995	1827.19
401.44	1806.77
401.885	1702.51
402.329	1728.75
402.774	1656.7
403.218	1619.03
403.663	1559.67
404.107	1606.52
404.551	1627.14
404.995	1496.03
405.44	1438.52
405.884	1463.15
406.328	1417.72
406.772	1414.87
407.216	1285.63
407.66	1247.59
408.104	1177.12
408.547	1104.45
408.991	1069.31
409.435	1033.46
409.879	1022.01
410.322	1012.16
410.766	981.08
411.209	940.44
411.653	904.18
412.096	889.78
412.54	892.02
412.983	891.61
413.426	899.81
413.869	900.4
414.312	883.56
414.756	853.17
415.199	814.23
415.642	794.04
416.085	794.43
416.527	789.2
416.97	799.56
417.413	758.61
417.856	746.8
418.298	737.25
418.741	728.22
419.184	724.32
419.626	752.59
420.069	754.58
420.511	759.62
420.953	744.33
421.396	737.63
421.838	720.61
422.28	738.45
422.722	747.09
423.164	758.55
423.606	753.2
424.048	751.16
424.49	718.79
424.932	715.28
425.374	703.16
425.816	713.32
426.258	727.78
426.699	734.56
427.141	725.34
427.582	735.41
428.024	730.18
428.465	721.68
428.907	705.78
429.348	692.13
429.789	690.79
430.231	676.62
430.672	686.63
431.113	670.49
431.554	660.55
431.995	643.66
432.436	621.63
432.877	608.43
433.318	600.33
433.759	594.58
434.2	596.73
434.64	590.29
435.081	590.93
435.522	560.84
435.962	539.94
436.403	531.29
436.843	535.4
437.284	522.04
437.724	503.6
438.164	501.16
438.604	489.81
439.045	472.09
439.485	452.66
439.925	443.76
440.365	430.36
440.805	422.42
441.245	416.2
441.685	400.37
442.125	396.27
442.564	399.57
443.004	390.79
443.444	389.79
443.883	387.68
444.323	381.97
444.762	378.29
445.202	383.14
445.641	393.59
446.081	389.15
446.52	392.44
446.959	388.17
447.398	379.31
447.837	375.22
448.276	367.89
448.716	372.29
449.154	374.8
449.593	368.78
450.032	367.53
450.471	357.01
450.91	353.99
451.349	353.44
451.787	350.16
452.226	353.47
452.664	352.26
453.103	353.51
453.541	352.61
453.98	354
454.418	354.98
454.856	351.67
455.295	351.55
455.733	355.37
456.171	356.7
456.609	357.85
457.047	359.78
457.485	365.89
457.923	367.1
458.361	360.51
458.798	360.69
459.236	359
459.674	358.19
460.111	358.76
460.549	356.17
460.987	353.6
461.424	351.31
461.862	347.85
462.299	342.64
462.736	341.57
463.173	343.08
463.611	342.04
464.048	342.13
464.485	345.57
464.922	343.96
465.359	341.26
465.796	343.91
466.233	343.06
466.67	341.56
467.106	341.14
467.543	336.23
467.98	331.67
468.416	320.93
468.853	317.07
469.29	307.25
469.726	302.68
470.162	294.52
470.599	284.94
471.035	280.22
471.471	272.6
471.907	269.63
472.344	268.55
472.78	269.31
473.216	271.2
473.652	268.7
474.088	266.34
474.523	266.05
474.959	268.75
475.395	266.7
475.831	267
476.266	269.13
476.702	268.1
477.138	265.98
477.573	265.08
478.008	264.92
478.444	266.4
478.879	271.82
479.314	273.28
479.75	273.26
480.185	273.91
480.62	275.43
481.055	276.01
481.49	278.51
481.925	281.74
482.36	289.11
482.795	297.23
483.229	304.95
483.664	309.74
484.099	310.34
484.534	315.72
484.968	319.03
485.403	319.27
485.837	318.62
486.271	318.41
486.706	318.95
487.14	313.53
487.574	308.67
488.009	305.85
488.443	303.67
488.877	308.23
489.311	308.76
489.745	312.87
490.179	316.88
490.613	325.07
491.046	327.02
491.48	329.41
491.914	330.48
492.348	333.49
492.781	336.49
493.215	337.7
493.648	337.88
494.082	341.87
494.515	342.97
494.948	347.92
495.382	349.24
495.815	352.75
496.248	356.96
496.681	364.15
497.114	370.37
497.547	376.64
497.98	385.03
498.413	390.67
498.846	396.45
499.279	402.23
499.711	405.14
500.144	407.11
500.577	415.11
501.009	421.93
501.442	429.3
501.874	432.2
502.306	434.4
502.739	442.48
503.171	450.91
503.603	455.25
504.036	462.16
504.468	467.9
504.9	476.41
505.332	481.49
505.764	486.63
506.196	492.91
506.627	503.63
507.059	514.02
507.491	518.16
507.923	519.91
508.354	531.26
508.786	540.25
509.217	552.94
509.649	564.29
510.08	577.98
510.512	591.2
510.943	602.1
511.374	611.63
511.805	626.69
512.237	640.97
512.668	663.48
513.099	681.42
513.53	700.07
513.961	715.49
514.391	738.05
514.822	762.26
515.253	786.45
515.684	805.28
516.114	825.53
516.545	841.42
516.975	861.71
517.406	875.05
517.836	879.47
518.267	886.46
518.697	900.68
519.127	905.82
519.558	911.61
519.988	915.34
520.418	923.54
520.848	937.45
521.278	945.55
521.708	983.5
522.138	993.78
522.567	1015.76
522.997	1034.29
523.427	1045.62
523.857	1058.73
524.286	1067.43
524.716	1081.31
525.145	1096.12
525.575	1105.48
526.004	1115.56
526.433	1088.75
526.863	1090.56
527.292	1086.33
527.721	1091.83
528.15	1097.07
528.579	1098.75
529.008	1107.68
529.437	1122.67
529.866	1131.63
530.295	1142.86
530.724	1152.57
531.152	1171.54
531.581	1182.19
532.01	1194.74
532.438	1200.33
532.867	1211.36
533.295	1224.99
533.723	1229.12
534.152	1227.71
534.58	1228.37
535.008	1218.42
535.436	1220.24
535.865	1225.35
536.293	1234.43
536.721	1244.44
537.149	1261.69
537.576	1263.85
538.004	1271.76
538.432	1276.27
538.86	1275.59
539.287	1280.59
539.715	1289.53
540.143	1291
540.57	1287.25
540.998	1284.68
541.425	1269.57
541.852	1255.23
542.28	1253.18
542.707	1242.72
543.134	1234.55
543.561	1232.13
543.988	1227.17
544.415	1226.51
544.842	1222.65
545.269	1219.07
545.696	1221.66
546.123	1229.8
546.549	1223.27
546.976	1215.15
547.403	1214.02
547.829	1215.02
548.256	1215.62
548.682	1213.49
549.108	1209.81
549.535	1210.28
549.961	1211.6
550.387	1202.25
550.813	1200.45
551.24	1205.05
551.666	1207.35
552.092	1201.83
552.518	1197.79
552.943	1195.42
553.369	1200.81
553.795	1204.99
554.221	1206.46
554.646	1204.65
555.072	1213.35
555.498	1216.02
555.923	1222.34
556.349	1231.57
556.774	1237.37
557.199	1238.29
557.625	1241.22
558.05	1237.37
558.475	1244.84
558.9	1243.85
559.325	1238.9
559.75	1233.46
560.175	1228.61
560.6	1224.31
561.025	1221.73
561.449	1222.59
561.874	1226.54
562.299	1228.96
562.723	1233.75
563.148	1225.52
563.572	1226.11
563.997	1231.93
564.421	1234.25
564.846	1233.62
565.27	1235.09
565.694	1232.5
566.118	1238.05
566.542	1242.13
566.966	1236.55
567.39	1231.78
567.814	1223.38
568.238	1222.94
568.662	1224.05
569.086	1225.58
569.509	1228.71
569.933	1217.26
570.357	1210.99
570.78	1196.49
571.204	1186.83
571.627	1178.54
572.05	1176.35
572.474	1175.28
572.897	1165.56
573.32	1161.1
573.743	1152.81
574.166	1140.3
574.589	1138.52
575.012	1133.39
575.435	1132.23
575.858	1124.88
576.281	1117.23
576.704	1105.79
577.126	1097.04
577.549	1089.23
577.972	1080.76
578.394	1073.5
578.817	1070.55
579.239	1057.77
579.661	1049.1
580.084	1039.22
580.506	1029.87
580.928	1026.45
581.35	1018.78
581.772	1015.33
582.194	1005.96
582.616	998.32
583.038	988.12
583.46	979.25
583.882	977.41
584.303	977.47
584.725	972.82
585.147	976.39
585.568	984.03
585.99	991.89
586.411	996.17
586.833	1006.68
587.254	1006.42
587.675	1014.91
588.096	1022.2
588.518	1018.55
588.939	1009.21
589.36	1008.35
589.781	997.7
590.202	980.49
590.623	973.27
591.043	970.52
591.464	960.32
591.885	958.46
592.305	954.67
592.726	945
593.147	945.9
593.567	942.22
593.987	936.23
594.408	933.07
594.828	928.69
595.248	926.26
595.669	915.62
596.089	910.88
596.509	905.06
596.929	895.67
597.349	896.13
597.769	888.49
598.189	883.19
598.608	883.61
599.028	884.97
599.448	884.47
599.867	875.35
600.287	870.91
600.706	869.09
601.126	863.01
601.545	862.75
601.965	861.24
602.384	857.14
602.803	858.49
603.222	856.21
603.641	850.83
604.061	848.85
604.48	845.48
604.898	849.83
605.317	851.37
605.736	852.01
606.155	849.75
606.574	843.37
606.992	846.45
607.411	843.39
607.829	835.56
608.248	833.74
608.666	831.69
609.085	831.74
609.503	826.34
609.921	822.53
610.339	824.59
610.758	822.64
611.176	818.92
611.594	813.76
612.012	811.08
612.43	814.47
612.847	817.32
613.265	817.37
613.683	819.01
614.101	818.57
614.518	815.17
614.936	807.91
615.353	798.78
615.771	797.48
616.188	796.96
616.606	794.32
617.023	788.74
617.44	779.21
617.857	773.88
618.274	768.18
618.691	764.52
619.108	758.23
619.525	752.96
619.942	757.74
620.359	758.06
620.776	753.63
621.192	751.23
621.609	749.36
622.026	753.82
622.442	757.22
622.859	757.57
623.275	752.86
623.691	756.24
624.108	763.48
624.524	770.4
624.94	770
625.356	774.71
625.772	781.42
626.188	788.89
626.604	789.19
627.02	785.6
627.436	785.07
627.852	789.62
628.268	795.49
628.683	789.78
629.099	784.74
629.514	781.19
629.93	783.91
630.345	786.25
630.761	782.59
631.176	784.02
631.591	782.18
632.007	778.26
632.422	775.09
632.837	767.48
633.252	764.77
633.667	757.84
634.082	751.48
634.497	743.74
634.911	731.64
635.326	727.76
635.741	716.06
636.155	706.5
636.57	705.33
636.984	703.78
637.399	704.48
637.813	702.32
638.228	699.36
638.642	700.37
639.056	691.21
639.47	688.94
639.884	682.97
640.298	676.9
640.712	674.63
641.126	665.21
641.54	658.59
641.954	651.68
642.368	642.75
642.781	637.75
643.195	625.34
643.609	624.2
644.022	618.38
644.436	613.11
644.849	604.84
645.262	596.4
645.676	595.44
646.089	590.68
646.502	581.98
646.915	576.92
647.328	565.67
647.741	565.28
648.154	557.52
648.567	557.12
648.98	549.18
649.393	548.44
649.805	545.8
650.218	541.22
650.631	532.44
651.043	528.06
651.456	524.97
651.868	523.49
652.28	529.47
652.693	534.75
653.105	535.5
653.517	540.32
653.929	539.72
654.341	542.1
654.753	535.34
655.165	538.01
655.577	536.7
655.989	533.68
656.401	529.04
656.813	511.03
657.224	500.68
657.636	484.54
658.047	475.71
658.459	465.01
658.87	460.04
659.282	452.58
659.693	441.95
660.104	433.09
660.515	424.61
660.926	422.15
661.338	420.07
661.749	415.58
662.159	411.57
662.57	407.81
662.981	404.64
663.392	399.5
663.803	400.94
664.213	398.21
664.624	396.3
665.035	397.27
665.445	390.14
665.855	385.87
666.266	382.18
666.676	379.51
667.086	373.61
667.497	372.7
667.907	368.93
668.317	364.74
668.727	365.85
669.137	364.63
669.547	363.5
669.956	364.58
670.366	365.18
670.776	366.11
671.186	368.7
671.595	371.38
672.005	373.08
672.414	375.05
672.824	375.58
673.233	375.05
673.642	377.4
674.052	380.55
674.461	383.04
674.87	385.06
675.279	385.21
675.688	385.79
676.097	388.5
676.506	388.58
676.915	395.68
677.323	397.4
677.732	397.12
678.141	397.74
678.549	392.38
678.958	392.55
679.366	393.95
679.775	396.51
680.183	405.8
680.592	408.76
681	412.57
681.408	409.98
681.816	415.49
682.224	421.83
682.632	429.91
683.04	447.88
683.448	462.96
683.856	482.23
684.264	504.41
684.671	521.46
685.079	545.16
685.487	571.81
685.894	607.45
686.302	636.18
686.709	661.63
687.116	691.53
687.524	718.03
687.931	744.05
688.338	764.74
688.745	781.12
689.152	802.89
689.559	832.45
689.966	861.57
690.373	877.49
690.78	905.7
691.187	948.25
691.593	981.24
692	1009.95
692.407	1048.64
692.813	1098.3
693.22	1139.38
693.626	1180.62
694.032	1215.52
694.439	1265.39
694.845	1307.4
695.251	1357.24
695.657	1403.55
696.063	1467.52
696.469	1517.89
696.875	1566.45
697.281	1594.63
697.687	1629.01
698.093	1658.5
698.498	1710.06
698.904	1750.51
699.31	1811.31
699.715	1859.01
700.12	1920.31
700.526	1939.71
700.931	1988.65
701.337	2025.57
701.742	2050.9
702.147	2111.95
702.552	2135.21
702.957	2180.22
703.362	2197.91
703.767	2220
704.172	2246.44
704.577	2218.06
704.981	2249.09
705.386	2263.57
705.791	2261.19
706.195	2314.85
706.6	2321.26
707.004	2377.8
707.408	2355.48
707.813	2377.24
708.217	2371.87
708.621	2376.09
709.025	2443.16
709.43	2447.82
709.834	2491.19
710.237	2539.38
710.641	2530.12
711.045	2547.6
711.449	2547.75
711.853	2571.31
712.256	2599.71
712.66	2625.57
713.064	2677.84
713.467	2709.56
713.87	2788.23
714.274	2819.99
714.677	2896.21
715.08	3008.54
715.484	3125.05
715.887	3264.21
716.29	3400.6
716.693	3545.89
717.096	3710.96
717.499	3801.92
717.901	3820.09
718.304	3835.02
718.707	3850.35
719.109	3780.8
719.512	3758.95
719.915	3665.56
720.317	3625.58
720.719	3654.03
721.122	3631.74
721.524	3598.06
721.926	3573.85
722.328	3641.93
722.731	3636.82
723.133	3658.04
723.535	3789.92
723.937	3802.94
724.338	3839.71
724.74	3867.61
725.142	3856.78
725.544	3856.73
725.945	3882.71
726.347	3875.67
726.748	3869.66
727.15	3877.6
727.551	3854.89
727.952	3836.16
728.354	3816.69
728.755	3815
729.156	3784.66
729.557	3746.45
729.958	3663.14
730.359	3616.23
730.76	3604.04
731.161	3565.19
731.562	3549.25
731.962	3548.76
732.363	3504.52
732.763	3461.68
733.164	3486.36
733.564	3440.99
733.965	3375.86
734.365	3353.23
734.766	3377.08
735.166	3351.58
735.566	3313.4
735.966	3295.94
736.366	3290.56
736.766	3249.89
737.166	3270.41
737.566	3243.45
737.966	3227.12
738.365	3253.12
738.765	3250.05
739.165	3195.56
739.564	3176.68
739.964	3205.79
740.363	3174.67
740.763	3173.7
741.162	3167.24
741.561	3144.61
741.96	3113.84
742.36	3127.07
742.759	3132.87
743.158	3158.31
743.557	3168.65
743.955	3196.97
744.354	3166.88
744.753	3206.56
745.152	3178.84
745.55	3213.25
745.949	3210.6
746.348	3209.35
746.746	3218.52
747.144	3190.64
747.543	3173.94
747.941	3208.86
748.339	3161.37
748.737	3156.28
749.136	3148.38
749.534	3191.32
749.932	3172.79
750.33	3188.11
750.727	3228.04
751.125	3214
751.523	3201.74
751.921	3233.22
752.318	3208.25
752.716	3246.63
753.113	3255.24
753.511	3272.14
753.908	3271.52
754.305	3262.12
754.703	3302.86
755.1	3343.43
755.497	3382.54
755.894	3510.42
756.291	3628.7
756.688	3849.35
757.085	4144.09
757.482	4557.74
757.878	5012.49
758.275	5426.27
758.672	5987.67
759.068	6447.62
759.465	7099.45
759.861	7943.64
760.258	8927.69
760.654	9433.44
761.05	9363.85
761.447	8935.61
761.843	8325.66
762.239	7688.49
762.635	7396.08
763.031	7118.33
763.427	6722.71
763.822	6304.85
764.218	5891.87
764.614	5352.39
765.01	4991.76
765.405	4757.34
765.801	4584.3
766.196	4359.06
766.592	4234.62
766.987	4026.59
767.382	3884.07
767.778	3822.74
768.173	3736.23
768.568	3687.65
768.963	3604.99
769.358	3618.21
769.753	3588.88
770.148	3533.4
770.542	3532.72
770.937	3510.44
771.332	3570.75
771.726	3584.17
772.121	3545.27
772.515	3581.69
772.91	3572.22
773.304	3619.4
773.699	3575.59
774.093	3611.06
774.487	3645.94
774.881	3674.5
775.275	3671.86
775.669	3642.78
776.063	3670.5
776.457	3690.2
776.851	3640.3
777.245	3633.74
777.638	3654.45
778.032	3732.72
778.425	3708.15
778.819	3738.19
779.212	3709.88
779.606	3685.68
779.999	3697.15
780.392	3687.39
780.786	3742
781.179	3754.86
781.572	3785.88
781.965	3796.2
782.358	3758.14
782.751	3793.12
783.143	3756.59
783.536	3807.09
783.929	3833.16
784.322	3909.82
784.714	3932.25
785.107	3930.74
785.499	3981.23
785.891	3966.13
786.284	3950.43
786.676	4042.2
787.068	4033.93
787.46	4071.91
787.852	4081.93
788.245	4139.26
788.636	4159.87
789.028	4205.09
789.42	4233.27
789.812	4238.97
790.204	4302.8
790.595	4372.99
790.987	4244.49
791.378	4260.37
791.77	4346.46
792.161	4438.63
792.553	4477.56
792.944	4402.58
793.335	4354.64
793.726	4405.36
794.117	4467.27
794.508	4557.97
794.899	4537.26
795.29	4630.31
795.681	4666.6
796.072	4571.79
796.463	4460.25
796.853	4473.47
797.244	4581.99
797.634	4605.75
798.025	4600.87
798.415	4609.04
798.806	4675.49
799.196	4736.2
799.586	4774.3
799.976	4751.49
800.366	4908.72
800.756	5057.05
801.146	5022.36
801.536	5042.94
801.926	5091.78
802.316	5115.69
802.706	5162.79
803.095	5078.58
803.485	5148.37
803.874	5169.08
804.264	5345.03
804.653	5329.45
805.043	5432.34
805.432	5509.69
805.821	5513.95
806.21	5533.32
806.599	5611.19
806.988	5644.31
807.377	5714.35
807.766	5799.63
808.155	5996.87
808.544	5819.4
808.933	5827.75
809.321	5811.48
809.71	6010.1
810.098	6114.79
810.487	6424.2
810.875	6750.01
811.264	6763.8
811.652	6970.05
812.04	7068.79
812.428	7179.67
812.816	7690.4
813.204	7972.31
813.592	8344.52
813.98	8569.04
814.368	8510.01
814.756	8836.8
815.144	8782.32
815.531	9103.8
815.919	9045.23
816.306	9250.61
816.694	9044.54
817.081	9085.9
817.469	9321.11
817.856	9322.84
818.243	9509.12
818.63	9767.65
819.017	9484.68
819.404	9527.67
819.791	9780.56
820.178	10192.53
820.565	10363.63
820.952	10998.83
821.339	10663.46
821.725	10789.06
822.112	10284.48
822.498	10251.71
822.885	10344.02
823.271	10269.46
823.657	10547.43
824.044	10553.29
824.43	10602.48
824.816	10589.34
825.202	10292.5
825.588	10980.96
825.974	10993.94
826.36	11338.3
826.746	11362.83
827.132	11594.3
827.517	11586.17
827.903	11055.96
828.289	11082.72
828.674	10549.55
829.06	10471.32
829.445	10732.84
829.83	10969.2
830.216	11285.93
830.601	11545.03
830.986	11272.89
831.371	11180.69
831.756	11553.38
832.141	11265.78
832.526	11253.59
832.911	11447.42
833.295	11368.29
833.68	11680.19
834.065	11265.72
834.449	10646.26
834.834	10588.88
835.218	10582.69
835.603	10811.81
835.987	10669.93
836.371	11228.13
836.755	11159.91
837.139	11426.07
837.524	11585.23
837.908	11460.95
838.291	11498.46
838.675	11543.05
839.059	11675.81
839.443	11662.07
839.827	11503.43
840.21	11816.98
840.594	11717.61
840.977	11855.73
841.361	11839.01
841.744	12085.1
842.127	11985.95
842.511	12144.8
842.894	12547.87
843.277	12795.43
843.66	13156.68
844.043	13216.59
844.426	12677.76
844.809	12459.38
845.191	12474.38
845.574	12169.8
845.957	11930.43
846.339	11849.68
846.722	11500.13
847.104	11536.41
847.487	11427.62
847.869	11438.49
848.252	11617.96
848.634	11841.79
849.016	12014.36
849.398	12094.88
849.78	12663.04
850.162	12663.58
850.544	12939.08
850.926	13350.12
851.307	13292.6
851.689	13479.78
852.071	13772.56
852.452	13990.05
852.834	13971.92
853.215	14248.92
853.597	14353.18
853.978	14550.15
854.359	14852.24
854.741	14201.32
855.122	14140.09
855.503	13949.62
855.884	14036.03
856.265	13999.76
856.646	14082.11
857.026	13824.99
857.407	13776.09
857.788	13885.88
858.169	14072.23
858.549	13516.15
858.93	13923.64
859.31	13954.04
859.69	14099.65
860.071	13828.47
860.451	13687.23
860.831	13185.24
861.211	13948.92
861.591	14320.23
861.971	14301.65
862.351	14436.86
862.731	14687.87
863.111	14868.99
863.491	15094.73
863.87	15678.13
864.25	15912.05
864.629	15650.71
865.009	16006.49
865.388	16590.48
865.768	17767.02
866.147	17705.53
866.526	16730.76
866.905	16932.06
867.284	17882.47
867.663	16980.84
868.042	16277.25
868.421	16225.78
868.8	16492.3
869.179	16653.19
869.558	15678.59
869.936	14464.47
870.315	14720.33
870.693	15077.98
871.072	16264.69
871.45	15503.29
871.828	15705.5
872.207	16518.71
872.585	16272.96
872.963	16708.31
873.341	16140.18
873.719	15945.65
874.097	15756.34
874.475	16050.89
874.853	16415.73
875.23	15732.99
875.608	16388.55
875.986	17732.91
876.363	16944.87
876.741	17471.61
877.118	17051.12
877.495	17881.41
877.873	18187.21
878.25	19136.78
878.627	18370.01
879.004	18626.2
879.381	18532.27
879.758	18038.11
880.135	16788.7
880.512	17760.89
880.889	17282.53
881.265	17097.26
881.642	16953.91
882.019	17248.82
882.395	16907.77
882.772	17579.08
883.148	16805.35
883.524	16741.35
883.901	16646.66
884.277	16885.91
884.653	16778.29
885.029	17261.26
885.405	19130.05
885.781	18979.04
886.157	18181.22
886.532	18391.8
886.908	18373.69
887.284	20430.16
887.659	21097.03
888.035	21759.61
888.411	22320.31
888.786	22603.93
889.161	23382.8
889.537	22936.85
889.912	23666.41
890.287	23649.48
890.662	24250.94
891.037	23812.06
891.412	22208.86
891.787	21978.76
892.162	21201.53
892.536	21683.97
892.911	20868.67
893.286	20424.86
893.66	19591.99
894.035	20092.19
894.409	21875.16
894.784	20995.34
895.158	21333.86
895.532	22593.64
895.906	23208.75
896.281	23741.92
896.655	23376.12
897.029	26699.6
897.402	27805.16
897.776	30949.97
898.15	30825.71
898.524	30486.83
898.898	30872.12
899.271	34559.23
899.645	29941.67
900.018	28744.1
900.392	29822.94
900.765	30059.85
901.138	27830.58
901.511	27411.79
901.884	25176.14
902.258	23249.25
902.631	24038.93
903.003	27684.13
903.376	24994.29
903.749	28029.56
904.122	30027.12
904.495	33059.73
904.867	33495.23
905.24	29102.67
905.612	27088.66
905.985	27706.81
906.357	28962.95
906.729	27639.65
907.102	23613.72
907.474	22714.36
907.846	22877.46
908.218	22590.7
908.59	19985.71
908.962	19344.47
909.334	20832.27
909.705	21899.22
910.077	21271.25
910.449	22139.22
910.82	22779.16
911.192	25087.72
911.563	26081.83
911.935	27912.87
912.306	27935.61
912.677	28852.76
913.048	28568.03
913.419	31023.95
913.79	31196.31
914.161	33474.25
914.532	32036.66
914.903	29441.31
915.274	27947.97
915.645	27538.38
916.015	24236.37
916.386	23121.05
916.756	24611.25
917.127	25380.87
917.497	22685.21
917.868	24729.55
918.238	23500.64
918.608	24173.87
918.978	24672.68
919.348	26158.75
919.718	27053.84
920.088	26064.5
920.458	27107.35
920.828	28531.34
921.198	27061.73
921.567	28903.29
921.937	22366.33
922.306	22563.59
922.676	24337.93
923.045	20304.63
923.415	19289.88
923.784	17554.5
924.153	18058.68
924.522	18043.63
924.891	16960.66
925.26	18161.66
925.629	17723.71
925.998	20374.35
926.367	19915.15
926.736	18972.01
927.104	22596.68
927.473	24274.04
927.842	29298.33
928.21	29022.7
928.578	30497.38
928.947	28853.46
929.315	29039.33
929.683	34092.49
930.051	34369.99
930.42	39903.37
930.788	34112.24
931.156	33850.27
931.523	31742.8
931.891	29341.42
932.259	28179.89
932.627	32679.61
932.994	46215.01
933.362	38243.8
933.729	33185.51
934.097	31779.3
934.464	26893.92
934.831	31027.69
935.199	30626.95
935.566	29727.9
935.933	30138.16
936.3	36517.39
936.667	28383.02
937.034	25671.26
937.401	25368.92
937.767	21900.24
938.134	19494.74
938.501	27463.08
938.867	29271.64
939.234	49469.17
939.6	42175.44
939.967	46514.05
940.333	31151.69
940.699	26566.2
941.065	21257.97
941.431	27876.85
941.798	26900.74
942.163	35354.42
942.529	22110.45
942.895	20345.02
943.261	13168.33
943.627	17298.33
943.992	15149.51
944.358	15164.13
944.723	15228.9
945.089	14851.93
945.454	13737.82
945.82	14677.43
946.185	14077.27
946.55	16314.09
946.915	14639.08
947.28	17166.38
947.645	15104.83
948.01	13956.06
948.375	14570.31
948.74	17448.36
949.104	20338.02
949.469	29351.37
949.834	51850.35
950.198	49343.63
950.562	29580.04
950.927	24655.92
951.291	29707.07
951.655	25309.8
952.02	23711.45
952.384	17907.77
952.748	15602.91
953.112	15250.17
953.476	13255.98
953.839	12254.16
954.203	12109.07
954.567	15153.04
954.931	23846.35
955.294	20409.65
955.658	20528.05
956.021	35000.25
956.385	59382
956.748	87589.04
957.111	135724.58
957.474	152592.12
957.837	171939.48
958.2	130218.39
958.563	46864.8
958.926	31710.78
959.289	48034.44
959.652	53654.43
960.015	40261.3
960.377	57824.29
960.74	66019.92
961.102	113868.55
961.465	122289.3
961.827	65763.84
962.189	126213.89
962.552	87500.93
962.914	70241.47
963.276	45623.35
963.638	37778.12
964	37379.33
964.362	25285.48
964.724	24471.61
965.085	17475.03
965.447	14328.47
965.809	16285.91
966.17	16285.07
966.532	17638.55
966.893	16193.04
967.255	14759.65
967.616	17418.04
967.977	13970.91
968.338	15258.78
968.699	12535.45
969.061	12526.55
969.421	12621.65
969.782	14171.27
970.143	11989.01
970.504	12420.65
970.865	14114.87
971.225	14441.82
971.586	14133.79
971.946	20115.47
972.307	17462.09
972.667	22813.18
973.027	23493.93
973.388	28496.45
973.748	19344.46
974.108	21096.96
974.468	28509.06
974.828	22029.65
975.188	16939.52
975.548	15544.06
975.907	13062.24
976.267	14643.03
976.627	12317.31
976.986	12775.15
977.346	12159.59
977.705	11730.86
978.064	10677.52
978.424	8894.68
978.783	9167.46
979.142	10462.39
979.501	10024.38
979.86	10609.48
980.219	10204.55
980.578	13148.83
980.937	14716.78
981.296	13113.92
981.654	13487
982.013	20957.59
982.371	27215.06
982.73	25422.36
983.088	28788.31
983.447	30812
983.805	44027.43
984.163	92264.03
984.521	102536.24
984.879	150496.55
985.237	-245418
985.595	236908.84
985.953	58807.65
986.311	33916.57
986.669	19688.99
987.026	16960.25
987.384	22684.92
987.741	23449.44
988.099	16794.75
988.456	13379.22
988.814	12555.63
989.171	10899.68
989.528	10720.2
989.885	11313.04
990.242	8980.38
990.599	11194.25
990.956	9183.5
991.313	6443.36
991.67	5287.21
992.027	5623.53
992.383	4995.99
992.74	4383.83
993.096	4613.9
993.453	4784.24
993.809	4972.33
994.165	6614.29
994.522	6083.83
994.878	6692.05
995.234	8386.9
995.59	8285.42
995.946	7799.49
996.302	8923.38
996.658	10281
997.013	11296.87
997.369	13408.77
997.725	17179.21
998.08	11129.23
998.436	17078.47
998.791	23605.6
999.147	23635.57
999.502	25801.48
999.857	18717.74
1000.212	30464.14
1000.567	43249.42
1000.922	24955.65
1001.277	15899.67
1001.632	11825.15
1001.987	15265.69
1002.342	10947.31
1002.696	8742.08
1003.051	6973.4
1003.406	8451.02
1003.76	8437.63
1004.114	8328.81
1004.469	7038.56
1004.823	5830.05
1005.177	6275.57
1005.531	4950.45
1005.885	4378.64
1006.239	4942.61
1006.593	6217.88
1006.947	8326.41
1007.301	6233.09
1007.655	6772.35
1008.008	4980.74
1008.362	5619
1008.715	8012.67
1009.069	7257.94
1009.422	11015.77
1009.776	22177.09
1010.129	14737.31
1010.482	12288.43
1010.835	10358.77
1011.188	21568.14
1011.541	20399.9
1011.894	-124522.47
1012.247	365053.81
1012.6	24874.69
1012.952	15744.39
1013.305	8059.49
1013.657	5821.67
1014.01	5526.57
1014.362	4531.05
1014.715	4069.74
1015.067	3552.59
1015.419	3466.94
1015.771	3069.57
1016.123	2742.86
1016.475	2810.21
1016.827	2988.8
1017.179	3229.11
1017.531	3237.51
1017.883	3312.45
1018.234	3256.42
1018.586	4075.47
1018.938	4331.73
1019.289	5967.6
1019.64	6797.3
1019.992	6298.07
1020.343	5786.91
1020.694	4614.54
1021.045	4066.87
1021.396	4631.82
1021.747	4957.88
1022.098	5847.51
1022.449	4260.43
1022.8	3958.47
1023.151	2766.88
1023.501	2475.67
1023.852	2697.84
1024.202	2803.51
1024.553	3054.64
1024.903	2991.95
1025.253	2579.06
1025.604	2332.33
1025.954	2921.23
1026.304	3576.02
1026.654	4148.41
1027.004	6075.36
1027.354	9730.36
1027.703	9167.39
1028.053	12003.01
1028.403	17519.25
1028.753	25255.35
1029.102	34095.84
1029.452	173619.66
1029.801	7445.82
1030.15	4754.06
1030.499	3996.76
897.758	2946.09
901.051	2915.8
904.343	2951.06
907.636	2946.59
910.928	3014.31
914.22	2922.23
917.511	2932.68
920.803	3005.45
924.094	3039.15
927.384	3001.95
930.675	2967.82
933.965	2914.38
937.255	2914.62
940.544	2884.83
943.834	2786.77
947.123	2736.68
950.411	2834.06
953.7	2802.82
956.988	2763.43
960.276	2704.42
963.563	2803.71
966.851	2790.57
970.138	2857.38
973.424	2843.2
976.711	2789.1
979.997	2973.79
983.283	3000.81
986.568	2889.61
989.853	2921.35
993.138	2947.49
996.423	3029.21
999.708	2954.45
1002.992	3042.45
1006.275	2831.66
1009.559	2904.05
1012.842	3030.45
1016.125	2950.68
1019.408	2925.69
1022.69	3033.37
1025.972	3043.83
1029.254	3014.93
1032.536	2927.99
1035.817	2965.31
1039.098	2886.62
1042.379	3086.78
1045.659	3063.17
1048.939	2983.72
1052.219	3011.73
1055.498	3034.26
1058.778	3007.11
1062.057	2996.49
1065.335	3016.02
1068.614	3041.19
1071.892	3009.28
1075.17	3104.47
1078.447	3080.86
1081.724	3069.2
1085.001	3113.09
1088.278	3082.93
1091.554	3101.35
1094.83	3098.9
1098.106	3121.85
1101.382	3174.63
1104.657	3173.24
1107.932	3172.69
1111.206	3124.3
1114.481	3087.24
1117.755	3091.65
1121.029	3063.23
1124.302	3113.6
1127.575	3053.23
1130.848	3039.2
1134.121	2991.21
1137.393	2931.19
1140.665	3007.8
1143.937	2978
1147.208	2944.21
1150.48	2971.12
1153.75	2957.28
1157.021	3005.5
1160.291	2968.01
1163.561	3010.99
1166.831	3009.7
1170.101	3047.02
1173.37	3032.51
1176.639	2964.52
1179.907	3033.05
1183.176	3027.5
1186.444	3042.66
1189.711	3070.81
1192.979	3075.2
1196.246	3037.71
1199.513	3054.94
1202.78	3052.73
1206.046	3058.99
1209.312	3083.92
1212.578	3116.21
1215.843	3057.54
1219.108	3037.9
1222.373	3060.37
1225.638	3018.15
1228.902	2997.56
1232.166	2968.79
1235.43	2949.08
1238.693	2971.8
1241.956	2973.26
1245.219	3006.46
1248.482	3002.07
1251.744	2996.08
1255.006	3161.63
1258.268	3120.16
1261.529	3057.33
1264.79	3068.32
1268.051	3174.79
1271.312	3194.26
1274.572	3151.21
1277.832	3140.58
1281.092	3137.49
1284.351	3099.16
1287.61	3071.98
1290.869	2974.97
1294.128	2937.03
1297.386	3051.57
1300.644	3037.23
1303.902	3049.67
1307.159	2904.66
1310.416	2958.5
1313.673	2980.8
1316.93	2959.46
1320.186	3016.76
1323.442	3069.38
1326.697	3048.82
1329.953	3054.87
1333.208	3068.91
1336.463	3052.37
1339.717	2978.36
1342.972	3121.7
1346.226	3104.94
1349.479	3029.48
1352.733	2991.61
1355.986	3027.2
1359.238	2998.28
1362.491	3000.48
1365.743	3005.43
1368.995	3004.78
1372.247	3020.87
1375.498	3047.14
1378.749	3055.44
1382	3015
1385.251	3076.19
1388.501	3047
1391.751	3018.94
1395	3000.25
1398.25	3037.26
1401.499	3035.48
1404.748	2948.96
1407.996	2930.18
1411.244	2914.62
1414.492	2890.32
1417.74	2867.45
1420.987	2886.82
1424.234	2941.58
1427.481	2932.06
1430.728	2986.01
1433.974	2961.05
1437.22	2984.64
1440.465	2990.64
1443.711	2949.35
1446.956	2991.36
1450.201	2989.75
1453.445	3032.93
1456.689	3002.27
1459.933	3016.44
1463.177	3042.27
1466.42	3015.25
1469.663	2992.56
1472.906	2973.64
1476.148	3079.8
1479.391	3006.26
1482.633	2983.85
1485.874	2985.71
1489.115	2961.19
1492.356	2976.5
1495.597	2949.63
1498.838	2956.4
1502.078	2914.38
1505.318	2851.38
1508.557	2899.6
1511.797	2845.17
1515.036	2959.35
1518.274	2948.97
1521.513	2927.69
1524.751	2954.19
1527.989	2962.88
1531.227	2969.98
1534.464	2952.32
1537.701	2989.2
1540.938	3010.93
1544.174	2965.34
1547.41	2971.16
1550.646	3008.62
1553.882	3031.81
1557.117	3085.15
1560.352	3103.89
1563.587	3055.71
1566.821	3009.62
1570.055	3060.23
1573.289	3022.34
1576.523	3107.22
1579.756	3110.14
1582.989	3126.53
1586.222	3084.81
1589.454	3132.23
1592.686	3101.26
1595.918	3120.29
1599.15	3105.48
1602.381	3199.66
1605.612	3137.09
1608.843	3235.71
1612.073	3144.54
1615.303	3122.99
1618.533	3107.79
1621.762	3118.89
1624.992	3109.31
1628.221	3083.01
1631.449	3071.36
1634.678	3143.68
1637.906	3090.35
1641.134	3134.73
1644.361	3083.85
1647.588	3070.94
1650.815	3085.22
1654.042	3074.7
1657.269	3104.99
1660.495	3050.89
1663.72	3045.05
1666.946	3015.14
1670.171	2938.19
1673.396	2915.47
1676.621	2909.26
1679.845	2945.19
1683.069	2977.29
1686.293	3029.87
1689.517	2988.63
1692.74	2901.24
1695.963	2930.33
1699.185	2974.94
1702.408	2942.96
1705.63	2993.79
1708.852	2999.88
1712.073	2974.23
1715.294	2944.33
1718.515	3013.84
1721.736	2950.87
1724.956	2955.49
1728.176	2985.32
1731.396	3008.21
1734.616	3004.02
1737.835	3025.91
1741.054	3006.98
1744.272	3003.61
1747.491	3027.75
1750.709	3098.79
1753.927	2976.65
1757.144	3038.37
1760.361	3068.21
1763.578	3072.82
1766.795	3006.57
1770.011	3020.54
1773.227	3072.47
1776.443	3107.02
1779.658	3152.83
1782.874	3098.9
1786.089	3068.29
1789.303	3071.75
1792.518	3079.06
1795.732	3071.13
1798.945	3073.68
1802.159	3131.01
1805.372	3008.25
1808.585	2985.49
1811.797	2989.43
1815.01	3053.79
1818.222	3054.6
1821.434	2988.81
1824.645	3067.14
1827.856	3036.92
1831.067	3074.79
1834.278	3050.73
1837.488	3035.47
1840.698	3203.43
1843.908	3117.7
1847.117	3076.5
1850.326	2933.1
1853.535	3057.77
1856.744	3125.29
1859.952	3029.14
1863.16	3027.49
1866.368	3055.39
1869.575	3154.51
1872.782	3040.21
1875.989	2985.49
1879.196	3093.03
1882.402	3086.9
1885.608	3136.31
1888.814	3016.42
1892.019	2908.85
1895.224	2958.76
1898.429	2953.5
1901.634	2927.03
1904.838	2907.89
1908.042	2955.62
1911.246	2958.59
1914.449	2871.16
1917.652	2880.72
1920.855	2863.52
1924.058	2927.29
1927.26	2957.3
1930.462	2990.78
1933.664	3009.66
1936.865	2941.08
1940.066	2942.39
1943.267	2890.83
1946.467	2913.89
1949.668	2945.83
1952.868	3009.47
1956.067	2978.43
1959.267	2901.39
1962.466	2931.91
1965.665	2919.78
1968.863	2914.62
1972.061	2940.68
1975.259	2945.36
1978.457	3029.13
1981.654	2981.63
1984.852	2980.57
1988.048	2902.6
1991.245	2913.67
1994.441	3001.02
1997.637	3000.14
2000.833	2983.51
2004.028	3024.51
2007.223	3071.92
2010.418	3041.29
2013.613	3009.02
2016.807	2963.04
2020.001	2979.39
2023.194	3037.48
2026.388	3008.71
2029.581	2952.67
2032.774	2994.16
2035.966	2992.25
2039.158	2913.91
2042.35	2948.73
2045.542	2876.21
2048.733	2986.68
2051.924	3027.83
2055.115	3064.04
2058.306	2991.36
2061.496	3053.26
2064.686	3129.41
2067.875	3047.19
2071.065	3070.02
2074.254	3102.84
2077.442	3051.58
2080.631	3145.08
2083.819	3010.32
2087.007	2986.52
2090.195	2945.69
2093.382	2993.86
2096.569	2971.34
2099.756	2918.37
2102.942	2930.16
2106.128	2927.13
2109.314	2924.79
2112.5	2874.2
2115.685	2857.28
2118.87	2868.8
2122.055	2936.74
2125.239	2896.02
2128.424	2856.9
2131.608	2990.58
2134.791	2966.82
2137.974	3043.09
2141.157	3027.59
2144.34	2964.36
2147.523	2994.54
2150.705	2998.12
2153.887	2984.45
2157.068	2920.67
2160.25	2936.27
2163.431	2988.04
2166.611	2913.23
2169.792	2931.97
2172.972	2808.96
2176.152	2904.92
2179.331	2945.9
2182.511	2914.75
2185.69	2948.02
2188.868	2935.99
2192.047	3007.17
2195.225	2980.87
2198.403	2927
2201.58	2927.03
2204.758	2925.63
2207.935	3015.62
2211.111	2885.68
2214.288	2867.38
2217.464	2912.03
2220.64	2892.47
2223.815	2953.64
2226.991	2865.25
2230.166	2884.85
2233.34	2910.43
2236.515	2943.97
2239.689	3024.12
2242.863	2960.9
2246.036	3021.88
2249.209	3033.93
2252.382	3077.73
2255.555	3052.87
2258.727	2979.32
2261.9	3028.99
2265.071	3022.81
2268.243	3028.11
2271.414	2949.1
2274.585	2894.73
2277.756	2970.37
2280.926	2923.55
2284.096	2970.34
2287.266	2860.83
2290.436	2926.51
2293.605	2962.99
2296.774	2985.19
2299.942	3020.39
2303.111	3036.23
2306.279	3080.04
2309.447	3069.83
2312.614	3047.91
2315.781	3066.16
2318.948	3029.38
2322.115	3072.7
2325.281	2971.66
2328.447	2998.71
2331.613	2977.83
2334.779	2935.22
2337.944	2945.88
2341.109	2941.58
2344.274	2920.88
2347.438	2881.9
2350.602	2910.77
2353.766	2931.18
2356.929	2914.13
2360.092	2957.56
2363.255	2898.28
2366.418	2809.32
2369.58	2953.72
2372.742	2682.46
2375.904	2710.89
2379.066	2679.14
2382.227	2726.61
2385.388	2686.96
2388.548	2597.44
2391.709	2661.83
2394.869	2637.47
2398.029	2765.23
2401.188	2789.71
2404.347	2704.71
2407.506	2886.57
2410.665	2909.06
2413.823	2927.71
2416.981	2867.58
2420.139	2911.23
2423.296	2968.42
2426.453	2941.88
2429.61	2969.41
2432.767	2879.01
2435.923	2919.55
2439.079	2847.62
2442.235	2910.42
2445.391	2828.89
2448.546	2847.24
2451.701	2909.75
2454.855	2863.61
2458.009	2931.83
2461.163	2943.11
2464.317	2889.11
2467.471	2928.32
2470.624	2976.28
2473.777	2974.96
2476.929	2984.88
2480.082	3012.85
2483.234	2974.21
2486.385	2899.81
2489.537	2892.33
2492.688	2833.45
2495.839	2851.12
2498.989	2859.46
2502.14	2841.74
2505.29	2810.07
2508.439	2846.31
2511.589	2754.73
2514.738	2775.43
2517.887	2811.02
2521.035	2902.82
2524.183	2896.77
2527.331	2873.62
2530.479	2834.33
2533.627	2850.68
