Data from C_3_DIV_OH_2N_Splice17_12-48-15-012.txt Node
Date: Sat Mar 14 12:48:15 EDT 2020
User: sa697716
Spectrometer: FLMS03696
Trigger mode: 0
Integration Time (sec): 3.180400E-1
Scans to average: 20
Electric dark correction enabled: true
Nonlinearity correction enabled: true
Boxcar width: 5
XAxis mode: Wavelengths
Number of Pixels in Spectrum: 2048
>>>>>Begin Spectral Data<<<<<
187.83	-341238.08
188.298	2600.37
188.766	1332.2
189.233	1190.47
189.701	1706.82
190.169	2263.02
190.636	828.44
191.104	649.79
191.571	59.82
192.039	-113.31
192.506	-113.38
192.974	548.56
193.441	-776.17
193.908	-278.72
194.375	-51.87
194.842	7.35
195.31	97.28
195.777	174.11
196.244	321.84
196.711	179.57
197.177	173.11
197.644	183.23
198.111	312.22
198.578	385.99
199.045	310.39
199.511	439.09
199.978	435.26
200.445	381.34
200.911	373.47
201.378	326.6
201.844	341.96
202.31	519.66
202.777	520.56
203.243	287.79
203.709	275.9
204.176	286.35
204.642	237.39
205.108	250.3
205.574	172.1
206.04	108.83
206.506	103.38
206.972	57.59
207.438	63.27
207.903	81.26
208.369	94.93
208.835	111.9
209.301	132.86
209.766	109.03
210.232	110.59
210.697	124.36
211.163	150.77
211.628	220.59
212.094	281.76
212.559	479.76
213.024	328.58
213.49	438.44
213.955	421.41
214.42	346
214.885	347.36
215.35	356.84
215.815	464.69
216.28	532.33
216.745	426.59
217.21	499.8
217.675	415.78
218.14	475.39
218.604	514.96
219.069	632.66
219.534	766.54
219.998	916.54
220.463	1126.73
220.927	1301.85
221.392	1256.23
221.856	1341.36
222.32	1664.06
222.785	2135.25
223.249	2727.7
223.713	3092.19
224.177	3147.71
224.642	3977.9
225.106	4889.21
225.57	5405.23
226.034	4167.09
226.497	6455.21
226.961	5929.73
227.425	7017.91
227.889	7768.35
228.353	7841.12
228.816	16368.01
229.28	15866.62
229.744	13516.84
230.207	8377.66
230.671	8300.04
231.134	13643.96
231.597	15912.65
232.061	15924.21
232.524	15566.13
232.987	10873.35
233.45	9885.2
233.914	8905.06
234.377	9065.79
234.84	8334.6
235.303	9822.7
235.766	10997.47
236.229	11414.5
236.691	7162.65
237.154	8053.02
237.617	6093.1
238.08	6215.15
238.542	7273.23
239.005	5217.46
239.468	5227.12
239.93	4939.64
240.393	4515.66
240.855	3988.68
241.317	4089.69
241.78	4968.43
242.242	5162.65
242.704	5624.52
243.166	4939.31
243.629	4542.07
244.091	5260.36
244.553	5787.67
245.015	6254.9
245.477	8091.26
245.939	11872.8
246.4	12690.76
246.862	12414.28
247.324	11764.74
247.786	13165.03
248.247	17301.96
248.709	17771.41
249.17	13369.56
249.632	12730.52
250.093	14938.52
250.555	13023.91
251.016	8001.21
251.477	7619.72
251.939	8257.6
252.4	8704.02
252.861	10373.85
253.322	9698.19
253.783	11585.88
254.244	15048.13
254.705	11851.56
255.166	10503.15
255.627	10330.56
256.088	14668.83
256.549	15633.78
257.009	13505.07
257.47	16372.21
257.931	13341.46
258.391	10040.37
258.852	10379.39
259.312	10883.19
259.773	13462.5
260.233	11479.42
260.694	9747.75
261.154	11030.77
261.614	8936.9
262.074	8012.13
262.534	8381.61
262.994	7946.05
263.455	10584.64
263.915	8946.63
264.374	8466.18
264.834	9265.95
265.294	10256.48
265.754	10648.99
266.214	10123.74
266.673	9496.38
267.133	12006.27
267.593	11946.83
268.052	14669.08
268.512	12814.83
268.971	15585.06
269.431	17158.7
269.89	15413.4
270.349	23155.83
270.809	25890.17
271.268	23335.99
271.727	52224.09
272.186	33918.26
272.645	25428.39
273.104	18308.61
273.563	26518.51
274.022	20798.28
274.481	17767.13
274.94	13739.46
275.399	10248.09
275.857	11942.67
276.316	16178.81
276.775	14473.04
277.233	14326.54
277.692	13481.95
278.15	15344.73
278.609	15900.54
279.067	14757.65
279.525	13736.26
279.984	17755.71
280.442	21348.58
280.9	21178.53
281.358	13983.56
281.816	13063.49
282.274	12771.22
282.732	13190.01
283.19	13245.37
283.648	11384.26
284.106	12106.48
284.564	12302.7
285.021	11432.69
285.479	8524.95
285.937	7722.82
286.394	6787.14
286.852	6994.23
287.309	7379.21
287.767	7181.98
288.224	6877.02
288.682	7589.64
289.139	8405.03
289.596	7745.86
290.053	8078.81
290.511	10246.53
290.968	12536.17
291.425	17109.08
291.882	14364.34
292.339	12589.97
292.796	12527.32
293.252	11843.01
293.709	9497.29
294.166	8538.18
294.623	9471.15
295.079	9103.68
295.536	9205.94
295.992	8391.82
296.449	8309.07
296.905	8667.16
297.362	8363.43
297.818	8806.29
298.274	9170.07
298.731	9317.73
299.187	9246.01
299.643	9930.13
300.099	12056.2
300.555	13202.31
301.011	11036.05
301.467	10717.53
301.923	12510.95
302.379	12189.79
302.835	11993.75
303.291	12005.21
303.746	13693.65
304.202	17283.57
304.658	17336.19
305.113	11657.57
305.569	11467.19
306.024	12201.37
306.479	11549.25
306.935	9736.17
307.39	10592.87
307.845	9757.34
308.301	9832.53
308.756	9559.46
309.211	9198.3
309.666	9428.54
310.121	11757.04
310.576	11900.85
311.031	11782.21
311.486	13444.32
311.94	13363.85
312.395	17845.55
312.85	33474.3
313.305	163627.68
313.759	849569.76
314.214	61467.06
314.668	48687.3
315.123	40807.53
315.577	14599
316.032	13039.33
316.486	16375.54
316.94	12993.41
317.394	9092.43
317.849	7097.96
318.303	6727.37
318.757	6346.69
319.211	7044.16
319.665	6173.47
320.119	6247.04
320.572	8966.62
321.026	8389.49
321.48	6980.16
321.934	7606.53
322.387	7610.9
322.841	8236.48
323.295	7455.39
323.748	8554.42
324.202	8668.79
324.655	10420.76
325.108	14631.2
325.562	10347.41
326.015	12265.65
326.468	9304.15
326.921	10406.48
327.374	9743.23
327.827	10172.62
328.28	11487.76
328.733	7716.4
329.186	6781.22
329.639	6484.71
330.092	5449.23
330.545	5195.5
330.997	5259.84
331.45	5760.42
331.903	6759.82
332.355	11589.16
332.808	11203.32
333.26	9235.39
333.713	10032.11
334.165	10092.75
334.617	13407.58
335.069	10808.78
335.522	19431.25
335.974	21422.56
336.426	19426.84
336.878	13385.45
337.33	6772.05
337.782	6618.27
338.234	8319.13
338.686	9907.65
339.137	11763.05
339.589	11063.71
340.041	8680.2
340.493	7493.76
340.944	7690.74
341.396	8309.95
341.847	7046.3
342.299	8384.36
342.75	10304.27
343.201	8983.89
343.653	10412.42
344.104	12804.51
344.555	10127.97
345.006	15758.34
345.457	12218.98
345.908	9705.79
346.359	9208.8
346.81	7506.48
347.261	7896.03
347.712	7757.28
348.163	8310.09
348.613	8441.29
349.064	7920.66
349.515	6930.44
349.965	7143.48
350.416	8531.01
350.866	9388.94
351.317	10570.28
351.767	17508.45
352.217	22168.56
352.668	18397.4
353.118	16924.54
353.568	16315.36
354.018	12930.06
354.468	13680.57
354.918	9797.93
355.368	8568.79
355.818	12100.62
356.268	34756.99
356.718	146300.08
357.168	36442.5
357.617	18284.59
358.067	20226.73
358.517	18873.81
358.966	22130.18
359.416	24840.11
359.865	26852.45
360.315	32018.21
360.764	14992.02
361.213	8419.28
361.663	7922.23
362.112	9763.6
362.561	15766.02
363.01	11961.62
363.459	10093.98
363.908	10905.47
364.357	9304.51
364.806	15657.52
365.255	10751.8
365.703	9880.45
366.152	9896.98
366.601	8039.34
367.05	6559.15
367.498	5977.8
367.947	6244.75
368.395	6475.75
368.844	5755.3
369.292	6898.4
369.74	4787.16
370.189	7338.29
370.637	8562.31
371.085	7392.25
371.533	9000.71
371.981	8596.5
372.429	8224.03
372.877	8522.2
373.325	7136.24
373.773	7251.2
374.221	6450.66
374.669	7991.97
375.116	6895.61
375.564	6969.4
376.012	7783.7
376.459	6413.44
376.907	7676.78
377.354	9244.77
377.801	8655.3
378.249	9970.51
378.696	12691.82
379.143	15347.8
379.591	16315.03
380.038	27645.72
380.485	20020.62
380.932	21503.94
381.379	19731.37
381.826	14599.86
382.273	10341.45
382.72	8982.84
383.166	8734.33
383.613	5672.43
384.06	5097.04
384.506	5906.07
384.953	4332.69
385.4	4317.46
385.846	3779
386.292	3642.23
386.739	3537.15
387.185	3482.95
387.631	3472.8
388.078	3373.97
388.524	3584.37
388.97	3307.8
389.416	2751.7
389.862	2919.15
390.308	2769.17
390.754	2810.98
391.2	3045.86
391.645	3091.21
392.091	2978.69
392.537	2881.96
392.983	2852.24
393.428	2829.97
393.874	3017.45
394.319	3034.91
394.765	2873.57
395.21	2935.84
395.655	2737.87
396.101	2559.89
396.546	2317.87
396.991	2301.86
397.436	2132.39
397.881	2056.07
398.326	1914.15
398.771	1804.41
399.216	1549.48
399.661	1381.25
400.106	1373.32
400.551	1406.6
400.995	1255.39
401.44	1231.32
401.885	1154.32
402.329	1162.24
402.774	1112.46
403.218	1087.64
403.663	1041.74
404.107	1073.94
404.551	1083.8
404.995	984.04
405.44	941.18
405.884	947.94
406.328	911.95
406.772	907.77
407.216	821.81
407.66	788.22
408.104	732.62
408.547	685.39
408.991	657.05
409.435	627.9
409.879	622.36
410.322	610.29
410.766	590.99
411.209	564.02
411.653	541.12
412.096	532.58
412.54	529.72
412.983	527.07
413.426	530.11
413.869	528.61
414.312	517.83
414.756	495.92
415.199	469.78
415.642	456.21
416.085	455.85
416.527	448.23
416.97	449.32
417.413	427.16
417.856	420.64
418.298	413.81
418.741	407.68
419.184	405.05
419.626	416.15
420.069	417.02
420.511	417.89
420.953	409.55
421.396	407.41
421.838	393.93
422.28	403.79
422.722	406.5
423.164	408.26
423.606	404.45
424.048	400.24
424.49	382.9
424.932	379.33
425.374	370.71
425.816	372.29
426.258	376.86
426.699	382.98
427.141	377.9
427.582	384.1
428.024	382.93
428.465	377.28
428.907	368.28
429.348	361.28
429.789	365.2
430.231	359.91
430.672	365.12
431.113	356.98
431.554	351.81
431.995	338.95
432.436	328.85
432.877	322.01
433.318	319.94
433.759	316.15
434.2	316.87
434.64	311.13
435.081	311.93
435.522	296.29
435.962	282.67
436.403	276.56
436.843	278.93
437.284	269.39
437.724	257.94
438.164	252.38
438.604	245.54
439.045	236.63
439.485	226.42
439.925	218.41
440.365	209.38
440.805	204.94
441.245	203.06
441.685	195.66
442.125	191.22
442.564	190.77
443.004	188.31
443.444	187.79
443.883	186.78
444.323	181.42
444.762	177.66
445.202	178.44
445.641	184.07
446.081	178.61
446.52	179.7
446.959	179.05
447.398	177.38
447.837	173.98
448.276	168.58
448.716	168.53
449.154	168.02
449.593	165.49
450.032	164.33
450.471	157.22
450.91	155.32
451.349	156.01
451.787	152.52
452.226	154.03
452.664	152.26
453.103	153.7
453.541	151.21
453.98	155.52
454.418	156.59
454.856	157.57
455.295	156.7
455.733	159.76
456.171	158.48
456.609	159.22
457.047	158.88
457.485	163.32
457.923	165.26
458.361	164.23
458.798	161.71
459.236	160.61
459.674	159.11
460.111	161.77
460.549	160.99
460.987	159.03
461.424	159.07
461.862	157.01
462.299	153.91
462.736	154.02
463.173	154.71
463.611	158.64
464.048	159.74
464.485	162.5
464.922	159.93
465.359	157.56
465.796	166.83
466.233	166.9
466.67	168.54
467.106	170.25
467.543	166.36
467.98	162.71
468.416	153.99
468.853	151.63
469.29	145.83
469.726	143.43
470.162	139.98
470.599	129.15
471.035	125.72
471.471	121.17
471.907	117.64
472.344	116.44
472.78	117.45
473.216	118.66
473.652	116.64
474.088	115.48
474.523	116.56
474.959	116.96
475.395	115.62
475.831	114.9
476.266	115.46
476.702	114.52
477.138	114.09
477.573	113.2
478.008	112.21
478.444	114.94
478.879	118.59
479.314	119.6
479.75	119.38
480.185	119.55
480.62	120.25
481.055	120.69
481.49	123.04
481.925	124.87
482.36	130.42
482.795	134.32
483.229	135.25
483.664	136.52
484.099	135.78
484.534	138.69
484.968	141.23
485.403	142.12
485.837	140.27
486.271	138.38
486.706	137.57
487.14	133.46
487.574	131.02
488.009	129.78
488.443	127.24
488.877	128.98
489.311	127.88
489.745	128.43
490.179	129.82
490.613	134.44
491.046	134.93
491.48	135.4
491.914	135.03
492.348	135.54
492.781	136.4
493.215	136.18
493.648	134.5
494.082	134.8
494.515	134.64
494.948	135.87
495.382	133.15
495.815	133.07
496.248	133.5
496.681	133.61
497.114	133.33
497.547	133.77
497.98	136.17
498.413	137.12
498.846	137.62
499.279	136.46
499.711	134.06
500.144	133.01
500.577	134.92
501.009	134.39
501.442	136.41
501.874	135.32
502.306	132.74
502.739	134.95
503.171	134.59
503.603	133.41
504.036	132.75
504.468	131.47
504.9	131.31
505.332	128.59
505.764	127.55
506.196	124.96
506.627	125.14
507.059	125.29
507.491	119.38
507.923	117.4
508.354	117.4
508.786	117.07
509.217	117.87
509.649	117.71
510.08	117.95
510.512	118.93
510.943	118.55
511.374	117.65
511.805	117.4
512.237	117.62
512.668	117.89
513.099	117.23
513.53	117.18
513.961	116.89
514.391	117.38
514.822	120.24
515.253	120.91
515.684	121.24
516.114	121.75
516.545	122.56
516.975	123.01
517.406	122.81
517.836	120.57
518.267	119.48
518.697	120.17
519.127	118.47
519.558	115.33
519.988	112.77
520.418	110.96
520.848	109.35
521.278	107.19
521.708	137.19
522.138	136.84
522.567	137.77
522.997	137.49
523.427	135.2
523.857	134.91
524.286	134.08
524.716	134.17
525.145	135.39
525.575	136.25
526.004	135.53
526.433	103.57
526.863	102.4
527.292	102.26
527.721	102.54
528.15	102.45
528.579	102.02
529.008	102.35
529.437	101.73
529.866	100.89
530.295	100.28
530.724	101.74
531.152	103.44
531.581	104.16
532.01	104.03
532.438	103.06
532.867	103.08
533.295	104.41
533.723	104.39
534.152	104.64
534.58	104.82
535.008	103.68
535.436	104.87
535.865	103.76
536.293	102.98
536.721	102.82
537.149	104.87
537.576	106.05
538.004	106.36
538.432	104.99
538.86	105.18
539.287	104.66
539.715	105.47
540.143	103.13
540.57	103.85
540.998	104.04
541.425	104.91
541.852	103.19
542.28	101.8
542.707	100.08
543.134	100.22
543.561	99.37
543.988	99.26
544.415	98.59
544.842	97.71
545.269	96.99
545.696	97.55
546.123	97.44
546.549	97.11
546.976	97.01
547.403	97.22
547.829	96.53
548.256	96.49
548.682	96.33
549.108	97.72
549.535	98.24
549.961	97.68
550.387	96.25
550.813	96.98
551.24	97.34
551.666	96.59
552.092	96.2
552.518	96.42
552.943	97.67
553.369	97.38
553.795	96.98
554.221	97.21
554.646	97.43
555.072	99.7
555.498	97.43
555.923	96.8
556.349	98.18
556.774	98.3
557.199	98.03
557.625	96.28
558.05	96.69
558.475	97.06
558.9	97.71
559.325	98.3
559.75	97.61
560.175	97.67
560.6	97.5
561.025	96.9
561.449	97.39
561.874	97.46
562.299	99.6
562.723	99.9
563.148	99.16
563.572	99.02
563.997	99.38
564.421	98.9
564.846	99.36
565.27	100.69
565.694	101.18
566.118	102.22
566.542	104.77
566.966	104.44
567.39	105.45
567.814	105.73
568.238	106.85
568.662	107.41
569.086	108.95
569.509	110.23
569.933	111.42
570.357	111.87
570.78	111.47
571.204	112.9
571.627	112.91
572.05	113.53
572.474	115.83
572.897	115.11
573.32	116.37
573.743	116.11
574.166	116.42
574.589	115.47
575.012	115.61
575.435	115.7
575.858	114.09
576.281	113.87
576.704	112.71
577.126	112.24
577.549	111.82
577.972	110.58
578.394	110.53
578.817	112.68
579.239	111.7
579.661	111.92
580.084	113.4
580.506	113.33
580.928	112.58
581.35	112.73
581.772	111.79
582.194	111.99
582.616	110.99
583.038	109.55
583.46	106.67
583.882	107.2
584.303	106.35
584.725	104.33
585.147	111.11
585.568	113.61
585.99	115.4
586.411	116.52
586.833	118.43
587.254	119.64
587.675	121.09
588.096	122.99
588.518	123.99
588.939	123.74
589.36	124.83
589.781	115.9
590.202	117.33
590.623	116.84
591.043	116.26
591.464	115.46
591.885	116.45
592.305	115.93
592.726	114.37
593.147	114.54
593.567	114.61
593.987	113.66
594.408	113.25
594.828	109.46
595.248	109.91
595.669	109.92
596.089	108.94
596.509	106.97
596.929	106.2
597.349	107.28
597.769	105.89
598.189	105.46
598.608	105.44
599.028	106.76
599.448	106.47
599.867	104.36
600.287	102.89
600.706	103.68
601.126	104.5
601.545	106.2
601.965	105.6
602.384	106.02
602.803	105.87
603.222	106.56
603.641	105.88
604.061	106.96
604.48	107.39
604.898	108.61
605.317	108.82
605.736	109.25
606.155	109.68
606.574	109.28
606.992	110.42
607.411	111.82
607.829	110.52
608.248	110.92
608.666	109.97
609.085	110.72
609.503	110.61
609.921	112.05
610.339	112.87
610.758	112.15
611.176	112.6
611.594	112.22
612.012	112.04
612.43	114.77
612.847	115.42
613.265	118.2
613.683	118.47
614.101	118.88
614.518	117.65
614.936	116.72
615.353	116.91
615.771	117.29
616.188	117.59
616.606	117.53
617.023	116.46
617.44	116.12
617.857	113.32
618.274	113.05
618.691	113.87
619.108	113.42
619.525	113.2
619.942	114.32
620.359	115.21
620.776	115.49
621.192	116.79
621.609	117.72
622.026	118.77
622.442	121.14
622.859	120.81
623.275	120.04
623.691	120.79
624.108	123.1
624.524	124.07
624.94	124.09
625.356	124.23
625.772	124.09
626.188	124.39
626.604	124.54
627.02	124.07
627.436	125.46
627.852	127.91
628.268	129.23
628.683	127.26
629.099	125.69
629.514	124.83
629.93	126.07
630.345	127.76
630.761	126.43
631.176	127.22
631.591	128.83
632.007	129.06
632.422	127.27
632.837	126.17
633.252	127.22
633.667	126.86
634.082	126.2
634.497	125.92
634.911	126.34
635.326	127.38
635.741	126.9
636.155	124.65
636.57	126.75
636.984	128.19
637.399	131.6
637.813	130.97
638.228	132.34
638.642	133.91
639.056	133.55
639.47	132.21
639.884	132.75
640.298	132.33
640.712	134.21
641.126	133.28
641.54	131.91
641.954	128.67
642.368	130.43
642.781	134.12
643.195	133.15
643.609	134.98
644.022	136.02
644.436	135.89
644.849	134.89
645.262	133.7
645.676	133.53
646.089	135.25
646.502	137.05
646.915	136.28
647.328	133.18
647.741	135.44
648.154	133.92
648.567	137.55
648.98	137.93
649.393	139.66
649.805	140.73
650.218	140.32
650.631	139.34
651.043	138.14
651.456	138.99
651.868	138.66
652.28	139.44
652.693	141.65
653.105	140.57
653.517	142.07
653.929	142.26
654.341	144.51
654.753	143.8
655.165	144.78
655.577	146.09
655.989	146.24
656.401	144.32
656.813	142.95
657.224	141.49
657.636	136.72
658.047	136.7
658.459	135.92
658.87	133.21
659.282	132.85
659.693	132.94
660.104	132.52
660.515	131.03
660.926	134.31
661.338	134.01
661.749	133.48
662.159	135.83
662.57	134.2
662.981	134.76
663.392	136.02
663.803	138.19
664.213	137.98
664.624	137.79
665.035	138.8
665.445	135.76
665.855	136.02
666.266	137.77
666.676	137.39
667.086	137.16
667.497	138.12
667.907	137.98
668.317	137.21
668.727	141.19
669.137	141.09
669.547	141.38
669.956	142.05
670.366	143.14
670.776	143.36
671.186	143.57
671.595	145.01
672.005	144.4
672.414	144.01
672.824	144.67
673.233	140.64
673.642	141.56
674.052	143.55
674.461	145.12
674.87	144.81
675.279	144.92
675.688	144.15
676.097	145.42
676.506	145.67
676.915	147.84
677.323	147.16
677.732	147.07
678.141	145.3
678.549	141.37
678.958	138.95
679.366	136.49
679.775	134.08
680.183	138.11
680.592	137.13
681	136.69
681.408	134.43
681.816	133.73
682.224	131.84
682.632	134.53
683.04	137.94
683.448	140.93
683.856	146.33
684.264	151.55
684.671	151.64
685.079	153.51
685.487	156.83
685.894	161.23
686.302	163.46
686.709	165.75
687.116	166.48
687.524	168.58
687.931	168.64
688.338	166.22
688.745	161.62
689.152	158.4
689.559	157.01
689.966	157.63
690.373	156.22
690.78	155.75
691.187	156.83
691.593	155.64
692	151.57
692.407	150.64
692.813	154.3
693.22	154.45
693.626	153.51
694.032	154.22
694.439	154.08
694.845	152.39
695.251	151.63
695.657	151.53
696.063	151.1
696.469	150.26
696.875	149.89
697.281	144.95
697.687	142.5
698.093	141.03
698.498	139.72
698.904	136.5
699.31	136.13
699.715	140.42
700.12	141.7
700.526	140.9
700.931	142.44
701.337	142.95
701.742	143.01
702.147	144.97
702.552	144.26
702.957	144.32
703.362	144.07
703.767	142.88
704.172	138.25
704.577	132.83
704.981	131.61
705.386	131.17
705.791	128.91
706.195	128.45
706.6	127.76
707.004	128.03
707.408	124.31
707.813	125.64
708.217	125.54
708.621	124.61
709.025	127.14
709.43	129.39
709.834	130.11
710.237	130.92
710.641	129.99
711.045	129.63
711.449	130.24
711.853	137.34
712.256	135.93
712.66	135.89
713.064	137
713.467	138.42
713.87	139.88
714.274	140.51
714.677	143.75
715.08	148.32
715.484	152.59
715.887	162.01
716.29	159.64
716.693	166.55
717.096	173.13
717.499	178.19
717.901	176.43
718.304	174.88
718.707	173.3
719.109	169.26
719.512	165.71
719.915	165.33
720.317	159.6
720.719	160.49
721.122	158.2
721.524	155.62
721.926	159.59
722.328	162.4
722.731	160.54
723.133	161
723.535	164.99
723.937	165.27
724.338	164.78
724.74	167.87
725.142	242.92
725.544	246.35
725.945	266.69
726.347	259.36
726.748	258.76
727.15	261.44
727.551	265.83
727.952	262
728.354	259.73
728.755	257.95
729.156	251.12
729.557	175.26
729.958	165.33
730.359	144.75
730.76	143.31
731.161	141.33
731.562	137.95
731.962	131.34
732.363	132.16
732.763	130.32
733.164	127.27
733.564	125.67
733.965	123.98
734.365	124.48
734.766	124.61
735.166	124.39
735.566	124.9
735.966	125.27
736.366	126.88
736.766	124.4
737.166	124.56
737.566	125.72
737.966	126.07
738.365	127.75
738.765	129.26
739.165	127.07
739.564	125.63
739.964	123.99
740.363	121.95
740.763	119.89
741.162	121.16
741.561	120.17
741.96	118.57
742.36	117.73
742.759	117.71
743.158	115.89
743.557	115.79
743.955	115.62
744.354	114.82
744.753	115.23
745.152	116.91
745.55	115.14
745.949	115.74
746.348	115.38
746.746	114.13
747.144	116.59
747.543	115.9
747.941	117.84
748.339	116.56
748.737	118.77
749.136	120.17
749.534	118.3
749.932	121.33
750.33	121.34
750.727	121.52
751.125	123.03
751.523	119.68
751.921	125.84
752.318	125.2
752.716	129.29
753.113	128.2
753.511	127.7
753.908	129.78
754.305	133.95
754.703	135.63
755.1	139.76
755.497	141.21
755.894	145.2
756.291	144.75
756.688	153.99
757.085	162.16
757.482	178.66
757.878	200.98
758.275	217.37
758.672	226.61
759.068	240.07
759.465	259.63
759.861	286.64
760.258	316.1
760.654	334.22
761.05	332.59
761.447	316.93
761.843	293.75
762.239	265.77
762.635	251.95
763.031	244.01
763.427	232.75
763.822	219.32
764.218	205.51
764.614	189.69
765.01	175.56
765.405	163.97
765.801	159.39
766.196	151.73
766.592	145.16
766.987	138.61
767.382	132.77
767.778	131.7
768.173	129.34
768.568	128.44
768.963	126.4
769.358	128.13
769.753	129.98
770.148	128.74
770.542	128.25
770.937	128.14
771.332	131.29
771.726	131.12
772.121	134.66
772.515	135.63
772.91	135.13
773.304	136.32
773.699	135.36
774.093	134.47
774.487	135.36
774.881	135.82
775.275	137.09
775.669	133.91
776.063	136.26
776.457	133.9
776.851	131.82
777.245	132.19
777.638	133.19
778.032	133.38
778.425	134.81
778.819	140.91
779.212	145.12
779.606	147.09
779.999	147.54
780.392	149.66
780.786	149.55
781.179	150.22
781.572	152.38
781.965	153.69
782.358	154.19
782.751	154.55
783.143	148.96
783.536	146.7
783.929	142.87
784.322	147.13
784.714	143.62
785.107	145.62
785.499	150.57
785.891	152.56
786.284	150.36
786.676	153
787.068	156.61
787.46	157.36
787.852	155.5
788.245	156.88
788.636	155.21
789.028	161.02
789.42	162.34
789.812	162.14
790.204	161.9
790.595	169.23
790.987	166.51
791.378	164.03
791.77	166.34
792.161	169.75
792.553	173.64
792.944	172.12
793.335	166.7
793.726	170.15
794.117	174.23
794.508	174.12
794.899	167.05
795.29	167.06
795.681	167.41
796.072	164.07
796.463	191.03
796.853	198.4
797.244	205.62
797.634	206.76
798.025	203.78
798.415	197.32
798.806	204.16
799.196	211.33
799.586	219.45
799.976	221.58
800.366	227.61
800.756	200.23
801.146	192.58
801.536	190.56
801.926	190.88
802.316	193.48
802.706	200.15
803.095	196.92
803.485	196.63
803.874	192.82
804.264	196.13
804.653	198.1
805.043	205.66
805.432	212.28
805.821	216.9
806.21	221.81
806.599	223.59
806.988	225.69
807.377	223.4
807.766	225.7
808.155	233.6
808.544	227.54
808.933	226.43
809.321	227.97
809.71	228.7
810.098	229.56
810.487	235.7
810.875	245.38
811.264	245.53
811.652	271.29
812.04	277.15
812.428	282.8
812.816	298.05
813.204	309.43
813.592	315.44
813.98	326.33
814.368	330.62
814.756	346.17
815.144	345.76
815.531	359.58
815.919	338.46
816.306	346.1
816.694	338.6
817.081	343.87
817.469	354.03
817.856	351.88
818.243	358.28
818.63	359.29
819.017	352.81
819.404	356.76
819.791	359.5
820.178	371.19
820.565	379.2
820.952	412.51
821.339	405.26
821.725	410.58
822.112	400.79
822.498	396.88
822.885	399.38
823.271	393.41
823.657	394.59
824.044	398.85
824.43	400.51
824.816	414.27
825.202	396.98
825.588	418.05
825.974	419.31
826.36	429
826.746	433.79
827.132	444.61
827.517	449.81
827.903	433.05
828.289	442.47
828.674	426.38
829.06	410.11
829.445	413.03
829.83	419.45
830.216	428.39
830.601	441.72
830.986	439.5
831.371	437.55
831.756	452.55
832.141	453.87
832.526	450.79
832.911	462.33
833.295	457.22
833.68	471.18
834.065	460.73
834.449	438.84
834.834	438.94
835.218	437.24
835.603	449.31
835.987	440.59
836.371	456.66
836.755	452.19
837.139	454.33
837.524	457.84
837.908	449.15
838.291	450.74
838.675	447.22
839.059	448.26
839.443	439.22
839.827	426.69
840.21	432.65
840.594	433.67
840.977	434.26
841.361	438.99
841.744	446.97
842.127	449.02
842.511	451.32
842.894	462.41
843.277	469.95
843.66	482.74
844.043	489.39
844.426	477.33
844.809	458.83
845.191	463.22
845.574	449.36
845.957	439.38
846.339	441.67
846.722	429.35
847.104	429.85
847.487	419.37
847.869	422.13
848.252	431.73
848.634	436.86
849.016	445.31
849.398	444.09
849.78	461.85
850.162	466.49
850.544	469.66
850.926	478.47
851.307	477.28
851.689	489.64
852.071	495.23
852.452	499.72
852.834	498.35
853.215	516.93
853.597	522.97
853.978	539.15
854.359	551.5
854.741	529.5
855.122	528.67
855.503	521.74
855.884	525.91
856.265	529.35
856.646	524.18
857.026	517.49
857.407	511.74
857.788	510.85
858.169	508.06
858.549	495.8
858.93	509.85
859.31	514.45
859.69	529.98
860.071	520.25
860.451	515.94
860.831	499.89
861.211	523.96
861.591	531.43
861.971	530.59
862.351	534.71
862.731	531.96
863.111	541.37
863.491	554.31
863.87	568.02
864.25	572.41
864.629	570.66
865.009	583.03
865.388	605.64
865.768	642.86
866.147	643.03
866.526	614.38
866.905	628.38
867.284	649.65
867.663	606.71
868.042	583.01
868.421	579.87
868.8	573.73
869.179	587.67
869.558	552.53
869.936	514.41
870.315	523.39
870.693	542.99
871.072	575.35
871.45	546.18
871.828	561.45
872.207	589.73
872.585	583.82
872.963	602.24
873.341	586.15
873.719	591.38
874.097	583.25
874.475	593.49
874.853	596.18
875.23	581.45
875.608	616.92
875.986	667.49
876.363	640.57
876.741	677.38
877.118	675.37
877.495	708.68
877.873	711.52
878.25	747.47
878.627	713.99
879.004	722.03
879.381	706.88
879.758	695.39
880.135	641.44
880.512	674.7
880.889	637.72
881.265	621.75
881.642	602.35
882.019	608.82
882.395	611.47
882.772	644.75
883.148	618.14
883.524	624.78
883.901	617.66
884.277	622.86
884.653	611.93
885.029	642.48
885.405	724.79
885.781	729
886.157	692.93
886.532	689.12
886.908	683.93
887.284	760.81
887.659	781.36
888.035	800.25
888.411	818.13
888.786	837.14
889.161	859.2
889.537	822.55
889.912	840.39
890.287	849.09
890.662	867.13
891.037	840.78
891.412	783.16
891.787	771.05
892.162	747.14
892.536	769.68
892.911	746.77
893.286	720.21
893.66	693.17
894.035	716.28
894.409	769.61
894.784	747.1
895.158	765.26
895.532	817.57
895.906	849.68
896.281	867.28
896.655	861.31
897.029	977.29
897.402	1020.77
897.776	1137.78
898.15	1127.77
898.524	1125.39
898.898	1138.87
899.271	1289.42
899.645	1111.32
900.018	1059.03
900.392	1098.3
900.765	1092.6
901.138	1015.87
901.511	1001.8
901.884	944.22
902.258	880.93
902.631	917.82
903.003	1054.19
903.376	939.53
903.749	1056.78
904.122	1121.49
904.495	1226.93
904.867	1235.07
905.24	1069.9
905.612	1001.58
905.985	990.19
906.357	1018.46
906.729	969.82
907.102	831.12
907.474	805.95
907.846	811.55
908.218	811.08
908.59	737.81
908.962	722.09
909.334	774.22
909.705	812.58
910.077	792.47
910.449	819.41
910.82	847.07
911.192	926.52
911.563	963.46
911.935	1012.4
912.306	991.04
912.677	1003.16
913.048	1010.17
913.419	1106.62
913.79	1100.22
914.161	1172.88
914.532	1160.56
914.903	1061.1
915.274	1012.77
915.645	990.77
916.015	869.94
916.386	842.75
916.756	897.1
917.127	898.42
917.497	809.16
917.868	896.78
918.238	855.96
918.608	861.23
918.978	875.1
919.348	913.71
919.718	956.33
920.088	934.42
920.458	993.23
920.828	1033.01
921.198	1005.56
921.567	1065.71
921.937	825.66
922.306	827.09
922.676	894.16
923.045	772.92
923.415	746.11
923.784	674.77
924.153	706.88
924.522	709.21
924.891	666.03
925.26	703.53
925.629	669.56
925.998	751.22
926.367	735.56
926.736	733.23
927.104	833.88
927.473	885.58
927.842	1060.7
928.21	1014.67
928.578	1027.09
928.947	991.69
929.315	1007.36
929.683	1234.62
930.051	1266.63
930.42	1504.88
930.788	1245.95
931.156	1258.06
931.523	1206.54
931.891	1133.55
932.259	1124.28
932.627	1326.73
932.994	1834.57
933.362	1569.42
933.729	1353.51
934.097	1284.72
934.464	1070.21
934.831	1189.68
935.199	1152.6
935.566	1103.49
935.933	1082.92
936.3	1295.28
936.667	1000.33
937.034	1050.33
937.401	996.41
937.767	849.89
938.134	768.39
938.501	1078.2
938.867	1209.86
939.234	2052.22
939.6	1731.89
939.967	1931.8
940.333	1316.27
940.699	1112.23
941.065	744.46
941.431	995.12
941.798	1029.15
942.163	1371.23
942.529	840.42
942.895	734.02
943.261	499.78
943.627	677.8
943.992	626.57
944.358	621.32
944.723	677.45
945.089	665.18
945.454	620.7
945.82	623.28
946.185	579.22
946.55	662.99
946.915	617.01
947.28	701.99
947.645	609.49
948.01	590.02
948.375	628.21
948.74	686.26
949.104	809.09
949.469	1066.27
949.834	1900.93
950.198	1993.17
950.562	1249.67
950.927	1052.18
951.291	1268.21
951.655	1066.03
952.02	905.3
952.384	690.56
952.748	647.1
953.112	689.48
953.476	626.8
953.839	564.2
954.203	571.71
954.567	704.16
954.931	1051.91
955.294	934.11
955.658	945.48
956.021	1666.37
956.385	2673.12
956.748	3854.05
957.111	5360.65
957.474	5878.64
957.837	6635.09
958.2	4568.59
958.563	1619.15
958.926	1179.33
959.289	1718.22
959.652	1920.42
960.015	1427.64
960.377	2103.57
960.74	2426.36
961.102	4085
961.465	4656.55
961.827	3182.02
962.189	6128.59
962.552	4297.25
962.914	3320.72
963.276	2153.27
963.638	1769
964	1720.08
964.362	1199.25
964.724	1107.06
965.085	806.36
965.447	650.65
965.809	580.48
966.17	560.82
966.532	596.29
966.893	538.07
967.255	485.7
967.616	575.74
967.977	468.68
968.338	506.05
968.699	444.95
969.061	453.48
969.421	460.14
969.782	507.65
970.143	458.55
970.504	534.35
970.865	648.11
971.225	690.88
971.586	664.08
971.946	904.74
972.307	732.49
972.667	908.55
973.027	919.08
973.388	1051.29
973.748	742.65
974.108	812.59
974.468	957.7
974.828	805.29
975.188	584.7
975.548	536.15
975.907	491.35
976.267	566.61
976.627	532.65
976.986	548.2
977.346	527.61
977.705	504.82
978.064	446.8
978.424	387.96
978.783	339.88
979.142	391.91
979.501	392.49
979.86	420.48
980.219	400.15
980.578	457.96
980.937	512.12
981.296	465.79
981.654	482.14
982.013	719.73
982.371	954.22
982.73	916.74
983.088	1023.26
983.447	1134.34
983.805	1640.3
984.163	3441.94
984.521	3896.16
984.879	5442.09
985.237	-9309.71
985.595	9540.87
985.953	2366.26
986.311	1265.45
986.669	755.79
987.026	634.97
987.384	770.65
987.741	726.1
988.099	632.47
988.456	509.62
988.814	521
989.171	435.3
989.528	390.91
989.885	407.83
990.242	365.28
990.599	410.22
990.956	341.11
991.313	251.64
991.67	208.84
992.027	268.03
992.383	242.81
992.74	221.94
993.096	256.23
993.453	261.64
993.809	262.72
994.165	329.62
994.522	394.4
994.878	433.07
995.234	526.71
995.59	508.25
995.946	372.48
996.302	394.87
996.658	408.93
997.013	387.51
997.369	540.74
997.725	802.46
998.08	519.26
998.436	516.13
998.791	737.71
999.147	771.33
999.502	906.99
999.857	639.25
1000.212	1040.95
1000.567	1584.62
1000.922	888.59
1001.277	545.98
1001.632	368.56
1001.987	454.42
1002.342	357.56
1002.696	322.71
1003.051	305.3
1003.406	366.31
1003.76	353.81
1004.114	385.3
1004.469	354.49
1004.823	299.91
1005.177	283.7
1005.531	230.18
1005.885	231.35
1006.239	286.4
1006.593	368.73
1006.947	462.03
1007.301	336.94
1007.655	346.74
1008.008	243.63
1008.362	259
1008.715	394.65
1009.069	353.9
1009.422	622.63
1009.776	1136.99
1010.129	650.8
1010.482	443.18
1010.835	296.81
1011.188	549.02
1011.541	545.39
1011.894	-3355.19
1012.247	9538.97
1012.6	468.05
1012.952	365.77
1013.305	93.13
1013.657	116.52
1014.01	134.21
1014.362	115.72
1014.715	191.52
1015.067	213.92
1015.419	230.54
1015.771	218.47
1016.123	209.81
1016.475	242.72
1016.827	258.44
1017.179	315.36
1017.531	273.87
1017.883	257.91
1018.234	313.89
1018.586	358.25
1018.938	441.02
1019.289	601.05
1019.64	629.27
1019.992	528.37
1020.343	434.77
1020.694	422.07
1021.045	332.14
1021.396	380.82
1021.747	458.85
1022.098	427.55
1022.449	292.27
1022.8	223.25
1023.151	177.15
1023.501	196.79
1023.852	213.23
1024.202	255.02
1024.553	215.07
1024.903	272.31
1025.253	294.3
1025.604	276.72
1025.954	332.27
1026.304	404.09
1026.654	452.3
1027.004	604.73
1027.354	791.13
1027.703	874.94
1028.053	994.37
1028.403	1913.06
1028.753	2153.04
1029.102	1862.03
1029.452	5656.01
1029.801	212.95
1030.15	108.93
1030.499	24.03
897.758	2815.91
901.051	2776.91
904.343	2810.53
907.636	2808.11
910.928	2875.07
914.22	2782.44
917.511	2789.17
920.803	2859.86
924.094	2881.85
927.384	2852.82
930.675	2819.17
933.965	2767.54
937.255	2773.18
940.544	2742.3
943.834	2663.82
947.123	2609.31
950.411	2707.19
953.7	2677.3
956.988	2637.99
960.276	2578.97
963.563	2665.88
966.851	2657.78
970.138	2720.05
973.424	2709.02
976.711	2657.05
979.997	2809.43
983.283	2840.86
986.568	2738.14
989.853	2758.88
993.138	2785.3
996.423	2867.26
999.708	2796.02
1002.992	2869.66
1006.275	2684.01
1009.559	2738.72
1012.842	2857.13
1016.125	2784.92
1019.408	2760.3
1022.69	2853.28
1025.972	2866.4
1029.254	2840.85
1032.536	2764.14
1035.817	2795.3
1039.098	2727.56
1042.379	2893.02
1045.659	2881.18
1048.939	2807.16
1052.219	2828.27
1055.498	2845.55
1058.778	2825.25
1062.057	2812.52
1065.335	2830.45
1068.614	2848.74
1071.892	2826.52
1075.17	2908.19
1078.447	2891.22
1081.724	2879.92
1085.001	2917.28
1088.278	2893.22
1091.554	2902.16
1094.83	2899.76
1098.106	2921.39
1101.382	2968.85
1104.657	2969.56
1107.932	2964.72
1111.206	2922.94
1114.481	2880.62
1117.755	2884.21
1121.029	2858.34
1124.302	2906.8
1127.575	2855.71
1130.848	2838.71
1134.121	2797.07
1137.393	2743.76
1140.665	2812.33
1143.937	2785.9
1147.208	2750.15
1150.48	2783.34
1153.75	2770.16
1157.021	2809.74
1160.291	2776.15
1163.561	2817.29
1166.831	2814.04
1170.101	2848.39
1173.37	2826.81
1176.639	2767.79
1179.907	2828.15
1183.176	2827.57
1186.444	2840.04
1189.711	2865.43
1192.979	2875.18
1196.246	2832.51
1199.513	2854.16
1202.78	2847.21
1206.046	2854.25
1209.312	2880.35
1212.578	2906.75
1215.843	2856.87
1219.108	2835.21
1222.373	2856.48
1225.638	2820.67
1228.902	2802.09
1232.166	2775.79
1235.43	2755.6
1238.693	2779.95
1241.956	2780.04
1245.219	2817.08
1248.482	2812.74
1251.744	2807.14
1255.006	2961.76
1258.268	2919.24
1261.529	2859.69
1264.79	2867.18
1268.051	2968.78
1271.312	2986.58
1274.572	2944.7
1277.832	2932.18
1281.092	2922.72
1284.351	2889.44
1287.61	2866.12
1290.869	2776.73
1294.128	2745.32
1297.386	2844.71
1300.644	2832
1303.902	2842.17
1307.159	2700.55
1310.416	2757.76
1313.673	2783.43
1316.93	2768.37
1320.186	2817.44
1323.442	2866.09
1326.697	2853.58
1329.953	2852.78
1333.208	2872
1336.463	2858.75
1339.717	2794.29
1342.972	2940.32
1346.226	2921.33
1349.479	2849.92
1352.733	2818.15
1355.986	2852.37
1359.238	2824.39
1362.491	2828.3
1365.743	2831.28
1368.995	2832.48
1372.247	2844.22
1375.498	2872.7
1378.749	2880.85
1382	2841.62
1385.251	2904.47
1388.501	2869.78
1391.751	2848.88
1395	2826.7
1398.25	2862.57
1401.499	2870.84
1404.748	2792.89
1407.996	2792.04
1411.244	2776.33
1414.492	2756.11
1417.74	2733.6
1420.987	2744
1424.234	2803.81
1427.481	2786.17
1430.728	2846.97
1433.974	2818.88
1437.22	2839.93
1440.465	2842.87
1443.711	2796.58
1446.956	2833.64
1450.201	2825.69
1453.445	2870.17
1456.689	2843.93
1459.933	2857.36
1463.177	2886.94
1466.42	2855.91
1469.663	2835.94
1472.906	2819.88
1476.148	2905.75
1479.391	2853.73
1482.633	2826.07
1485.874	2830.87
1489.115	2811.39
1492.356	2819.71
1495.597	2791.2
1498.838	2793.12
1502.078	2757.79
1505.318	2700.3
1508.557	2743.63
1511.797	2705.84
1515.036	2785.6
1518.274	2770.79
1521.513	2747.18
1524.751	2769.45
1527.989	2774.71
1531.227	2784.28
1534.464	2770.62
1537.701	2794.81
1540.938	2813.11
1544.174	2767.95
1547.41	2765.51
1550.646	2805.05
1553.882	2837.05
1557.117	2885.51
1560.352	2898.47
1563.587	2856.23
1566.821	2813.53
1570.055	2850.3
1573.289	2816.7
1576.523	2895.51
1579.756	2896.41
1582.989	2912.74
1586.222	2871.17
1589.454	2912.23
1592.686	2880.49
1595.918	2902.01
1599.15	2885.6
1602.381	2968.37
1605.612	2914.84
1608.843	3012.13
1612.073	2923.53
1615.303	2906.05
1618.533	2893.91
1621.762	2898.53
1624.992	2887.05
1628.221	2866.13
1631.449	2853.53
1634.678	2919.61
1637.906	2868.36
1641.134	2910.92
1644.361	2862.3
1647.588	2850.01
1650.815	2866.02
1654.042	2852.2
1657.269	2881.58
1660.495	2825.48
1663.72	2849.95
1666.946	2815.24
1670.171	2749.26
1673.396	2727.46
1676.621	2718.47
1679.845	2744.83
1683.069	2770.6
1686.293	2813.71
1689.517	2778.59
1692.74	2705.56
1695.963	2737.52
1699.185	2753.91
1702.408	2731.07
1705.63	2773.82
1708.852	2783.82
1712.073	2760.18
1715.294	2739.99
1718.515	2806.54
1721.736	2752.61
1724.956	2752.64
1728.176	2779.52
1731.396	2803.75
1734.616	2792.93
1737.835	2817.87
1741.054	2802.75
1744.272	2799.38
1747.491	2824.03
1750.709	2887.54
1753.927	2781.41
1757.144	2831.95
1760.361	2870.51
1763.578	2870.22
1766.795	2810.52
1770.011	2824.14
1773.227	2868.82
1776.443	2903.45
1779.658	2946.44
1782.874	2896.46
1786.089	2868.28
1789.303	2872.72
1792.518	2882.62
1795.732	2869.81
1798.945	2878.5
1802.159	2931.54
1805.372	2824.53
1808.585	2808.14
1811.797	2813.62
1815.01	2868.69
1818.222	2865.71
1821.434	2832.51
1824.645	2895.34
1827.856	2874.29
1831.067	2911.99
1834.278	2878.41
1837.488	2863.24
1840.698	3020.6
1843.908	2940.72
1847.117	2904.75
1850.326	2781.17
1853.535	2896.64
1856.744	2939.67
1859.952	2853.25
1863.16	2859.4
1866.368	2887.65
1869.575	2993.02
1872.782	2881.36
1875.989	2824.12
1879.196	2923.99
1882.402	2918.61
1885.608	2967.93
1888.814	2866.53
1892.019	2759.37
1895.224	2817.96
1898.429	2800.9
1901.634	2779.9
1904.838	2759.12
1908.042	2811.97
1911.246	2821.5
1914.449	2743.1
1917.652	2744.16
1920.855	2723.01
1924.058	2779.07
1927.26	2814.15
1930.462	2844.96
1933.664	2871.78
1936.865	2806.26
1940.066	2813.08
1943.267	2757.97
1946.467	2776.12
1949.668	2807.19
1952.868	2876
1956.067	2851.06
1959.267	2779.45
1962.466	2807.82
1965.665	2792.85
1968.863	2788.95
1972.061	2805.49
1975.259	2804.68
1978.457	2888.35
1981.654	2839.75
1984.852	2839.07
1988.048	2766.26
1991.245	2774.09
1994.441	2858.2
1997.637	2848.88
2000.833	2824.72
2004.028	2866.21
2007.223	2917.71
2010.418	2892.93
2013.613	2853.66
2016.807	2820.21
2020.001	2832.25
2023.194	2879.49
2026.388	2853.12
2029.581	2797.77
2032.774	2844.2
2035.966	2851.2
2039.158	2778.47
2042.35	2809.79
2045.542	2733.69
2048.733	2839.57
2051.924	2870.6
2055.115	2898.12
2058.306	2835.7
2061.496	2897.65
2064.686	2967.17
2067.875	2879.4
2071.065	2896.58
2074.254	2926.11
2077.442	2873.82
2080.631	2968.73
2083.819	2850.08
2087.007	2828.58
2090.195	2795.16
2093.382	2834.94
2096.569	2811.5
2099.756	2761.41
2102.942	2782.79
2106.128	2785.46
2109.314	2777.86
2112.5	2737.73
2115.685	2713.42
2118.87	2724.91
2122.055	2791.07
2125.239	2755.6
2128.424	2726.9
2131.608	2839.51
2134.791	2820.33
2137.974	2886.31
2141.157	2871.79
2144.34	2815.3
2147.523	2836.66
2150.705	2847.4
2153.887	2827.35
2157.068	2772.47
2160.25	2778.77
2163.431	2820.1
2166.611	2761.37
2169.792	2776.91
2172.972	2663.07
2176.152	2751.09
2179.331	2791.63
2182.511	2768.1
2185.69	2797.76
2188.868	2792.08
2192.047	2852.5
2195.225	2836.36
2198.403	2787.36
2201.58	2780.82
2204.758	2777.17
2207.935	2866.6
2211.111	2744.47
2214.288	2726.81
2217.464	2770.38
2220.64	2744.57
2223.815	2804.54
2226.991	2721.03
2230.166	2743.26
2233.34	2771.08
2236.515	2799.73
2239.689	2878.98
2242.863	2818.56
2246.036	2876.45
2249.209	2878.43
2252.382	2917.07
2255.555	2901.93
2258.727	2833.33
2261.9	2879.31
2265.071	2869.88
2268.243	2873.97
2271.414	2800.18
2274.585	2756.89
2277.756	2828.81
2280.926	2785.56
2284.096	2830.73
2287.266	2729.62
2290.436	2791.3
2293.605	2820.48
2296.774	2851.44
2299.942	2874.93
2303.111	2894.92
2306.279	2941.65
2309.447	2928.69
2312.614	2903.36
2315.781	2922.79
2318.948	2893.53
2322.115	2934.45
2325.281	2832.1
2328.447	2857.86
2331.613	2830.56
2334.779	2801.8
2337.944	2803.43
2341.109	2805.05
2344.274	2787.3
2347.438	2746.68
2350.602	2773.96
2353.766	2792.66
2356.929	2777.42
2360.092	2819.29
2363.255	2768.17
2366.418	2693.66
2369.58	2820.76
2372.742	2577.7
2375.904	2597.95
2379.066	2569.83
2382.227	2610.39
2385.388	2572.69
2388.548	2488.67
2391.709	2550.22
2394.869	2527.77
2398.029	2636.05
2401.188	2653.46
2404.347	2578.66
2407.506	2744.88
2410.665	2772.19
2413.823	2781.64
2416.981	2735.39
2420.139	2769.26
2423.296	2824.21
2426.453	2795.5
2429.61	2820.56
2432.767	2746.22
2435.923	2785.59
2439.079	2734.82
2442.235	2789.11
2445.391	2708.36
2448.546	2737.64
2451.701	2790.23
2454.855	2755.89
2458.009	2813.66
2461.163	2816.7
2464.317	2774.39
2467.471	2811.2
2470.624	2853.71
2473.777	2836.48
2476.929	2846.67
2480.082	2875.62
2483.234	2835.06
2486.385	2788.37
2489.537	2780.91
2492.688	2735.25
2495.839	2754.74
2498.989	2764.63
2502.14	2747.67
2505.29	2726.94
2508.439	2756
2511.589	2673.37
2514.738	2683.59
2517.887	2717.61
2521.035	2788.31
2524.183	2774.65
2527.331	2752.06
2530.479	2722.04
2533.627	2734.28
