Data from C_3_DEC_OH_4N_Splice17_13-26-21-010.txt Node
Date: Sat Mar 14 13:26:21 EDT 2020
User: sa697716
Spectrometer: FLMS03696
Trigger mode: 0
Integration Time (sec): 3.180400E-1
Scans to average: 20
Electric dark correction enabled: true
Nonlinearity correction enabled: true
Boxcar width: 5
XAxis mode: Wavelengths
Number of Pixels in Spectrum: 2048
>>>>>Begin Spectral Data<<<<<
187.83	-315213.41
188.298	2173.09
188.766	1219.9
189.233	1064.13
189.701	1523.28
190.169	2081.01
190.636	724.96
191.104	555.85
191.571	35.64
192.039	-118.67
192.506	-219.49
192.974	324.68
193.441	-768.18
193.908	-195.95
194.375	-165.52
194.842	-55.63
195.31	-35.47
195.777	92.27
196.244	291.3
196.711	311.76
197.177	404.15
197.644	584.6
198.111	1017.82
198.578	1439.85
199.045	1175.05
199.511	1966.9
199.978	2247.06
200.445	1935.07
200.911	2141.99
201.378	2340.96
201.844	2175.55
202.31	3675.34
202.777	3812.83
203.243	2096.85
203.709	1999.47
204.176	2393.73
204.642	1989.09
205.108	1861.42
205.574	1502.74
206.04	1341.9
206.506	1272.42
206.972	1186.42
207.438	1164.13
207.903	1305.12
208.369	1171.55
208.835	1166.42
209.301	1206.99
209.766	1218.15
210.232	1204.37
210.697	1488.38
211.163	1822.02
211.628	2691.79
212.094	2243.03
212.559	2806.18
213.024	1749.12
213.49	2118.29
213.955	2055.53
214.42	1983.66
214.885	1851.78
215.35	1769.34
215.815	1738.74
216.28	1854.66
216.745	1500.53
217.21	1616.67
217.675	1420.48
218.14	1570.89
218.604	1706.52
219.069	1921.84
219.534	1994.37
219.998	2239.82
220.463	2643.46
220.927	3126.4
221.392	2879.95
221.856	2876.05
222.32	3529.56
222.785	4325.51
223.249	5365.2
223.713	5928.7
224.177	5866.87
224.642	7431.96
225.106	9122.14
225.57	9916.82
226.034	7405.47
226.497	11209.69
226.961	10122.75
227.425	11775.85
227.889	12996.13
228.353	12927.61
228.816	26555.25
229.28	25352.86
229.744	21268.68
230.207	12955.22
230.671	12744.88
231.134	20895.67
231.597	24153.55
232.061	24045.92
232.524	23389.72
232.987	16085.74
233.45	14536.46
233.914	13033.3
234.377	13276.67
234.84	12164.13
235.303	14273.27
235.766	15930.9
236.229	16441.69
236.691	10329.77
237.154	11597.63
237.617	8764.43
238.08	8964.26
238.542	10481.22
239.005	7515.89
239.468	7491.87
239.93	7073.04
240.393	6439.43
240.855	5647.33
241.317	5786.63
241.78	7034.47
242.242	7309.6
242.704	7912.25
243.166	6900.19
243.629	6307.83
244.091	7273.1
244.553	7954.23
245.015	8567.14
245.477	11084.43
245.939	16251.89
246.4	17243.71
246.862	16746.52
247.324	15736.54
247.786	17529.98
248.247	22970.57
248.709	23552.51
249.17	17648.23
249.632	16779.64
250.093	19526.39
250.555	16866.35
251.016	10341.07
251.477	9815.98
251.939	10634.26
252.4	11162.34
252.861	13260.47
253.322	12380.03
253.783	14753.3
254.244	19105.74
254.705	15001.22
255.166	13290.43
255.627	13115.2
256.088	18514.11
256.549	19691.79
257.009	16946.98
257.47	20564.18
257.931	16744.88
258.391	12537.97
258.852	12918.65
259.312	13542.8
259.773	16731.07
260.233	14198.98
260.694	11959.74
261.154	13536.41
261.614	10915.81
262.074	9752.96
262.534	10164.45
262.994	9617.73
263.455	12800.11
263.915	10785.73
264.374	10158.04
264.834	11082.8
265.294	12229.33
265.754	12671.51
266.214	11981.09
266.673	11193.99
267.133	14119.6
267.593	13979.42
268.052	17097.06
268.512	14864.27
268.971	18011.79
269.431	19759.53
269.89	17680.34
270.349	26556.69
270.809	29629.09
271.268	26659.98
271.727	59785.66
272.186	38728.39
272.645	29024.8
273.104	20878.56
273.563	30221.23
274.022	23661.18
274.481	20164.85
274.94	15571.19
275.399	11556.13
275.857	13448.46
276.316	18163.74
276.775	16143.9
277.233	15922.58
277.692	14956.72
278.15	16978.35
278.609	17544.02
279.067	16264.37
279.525	15127.77
279.984	19538.61
280.442	23511.16
280.9	23314.98
281.358	15369.26
281.816	14390.61
282.274	14107.24
282.732	14548.91
283.19	14587.06
283.648	12545.43
284.106	13355.63
284.564	13560.53
285.021	12587.16
285.479	9382.14
285.937	8499.43
286.394	7500.74
286.852	7721.66
287.309	8128.23
287.767	7912.87
288.224	7581.56
288.682	8348.02
289.139	9198.17
289.596	8461.4
290.053	8804.47
290.511	11138.74
290.968	13546.57
291.425	18330.97
291.882	15319.56
292.339	13366.27
292.796	13232.49
293.252	12437.24
293.709	9941.45
294.166	8931.87
294.623	9871.24
295.079	9468.78
295.536	9529.2
295.992	8667.88
296.449	8584.64
296.905	8919.38
297.362	8593.18
297.818	9047.88
298.274	9433.34
298.731	9584.25
299.187	9474.68
299.643	10171.67
300.099	12332.43
300.555	13544.68
301.011	11324.67
301.467	10971.38
301.923	12830.07
302.379	12501.2
302.835	12305.05
303.291	12339.48
303.746	14068.54
304.202	17812.44
304.658	17903.63
305.113	12061.93
305.569	11833.93
306.024	12611.06
306.479	11965.04
306.935	10115.28
307.39	11046.85
307.845	10172.73
308.301	10238.93
308.756	9983.66
309.211	9614.51
309.666	9839.74
310.121	12230.76
310.576	12415.62
311.031	12307.74
311.486	14109.94
311.94	14096.36
312.395	18874.1
312.85	35609.77
313.305	174924
313.759	909237.21
314.214	66134.42
314.668	52712.46
315.123	44441.71
315.577	15939.04
316.032	14248.9
316.486	17877.33
316.94	14138.44
317.394	9883.14
317.849	7687.72
318.303	7267.87
318.757	6877.72
319.211	7621.48
319.665	6660
320.119	6751.41
320.572	9683.9
321.026	9056.65
321.48	7529.66
321.934	8191.83
322.387	8214.31
322.841	8898.96
323.295	8048.97
323.748	9246.07
324.202	9364.44
324.655	11287.32
325.108	15845.11
325.562	11253.35
326.015	13379.62
326.468	10140.45
326.921	11374.4
327.374	10611.89
327.827	11066.22
328.28	12538.62
328.733	8420.17
329.186	7417.92
329.639	7062.49
330.092	5932.77
330.545	5645.57
330.997	5707.83
331.45	6276.25
331.903	7388.61
332.355	12681.59
332.808	12335.5
333.26	10150.76
333.713	11060
334.165	11148.36
334.617	14912.44
335.069	12026.87
335.522	21771.75
335.974	24132.84
336.426	21924.77
336.878	15086.59
337.33	7677.84
337.782	7493.02
338.234	9433.01
338.686	11207.21
339.137	13292.02
339.589	12516.59
340.041	9841.28
340.493	8470.53
340.944	8694.81
341.396	9430.25
341.847	7970.71
342.299	9441.75
342.75	11570.22
343.201	10072.51
343.653	11620.3
344.104	14285.4
344.555	11244.48
345.006	17420.77
345.457	13415.36
345.908	10608.18
346.359	9975.66
346.81	8143.53
347.261	8555.68
347.712	8389.45
348.163	8996.17
348.613	9158.94
349.064	8568.14
349.515	7525.52
349.965	7749.96
350.416	9312.08
350.866	10255.2
351.317	11567.72
351.767	19192.64
352.217	24332.68
352.668	20293.55
353.118	18679.44
353.568	18014.94
354.018	14282.93
354.468	15081.49
354.918	10871.12
355.368	9501.5
355.818	13444.86
356.268	38686.13
356.718	162308.81
357.168	40384.08
357.617	20226.31
358.067	22412.44
358.517	20996.54
358.966	24670.19
359.416	27749.24
359.865	29921.09
360.315	35623.01
360.764	16664.64
361.213	9372.96
361.663	8833.99
362.112	10898.82
362.561	17668.72
363.01	13379.7
363.459	11248.44
363.908	12160.99
364.357	10356.11
364.806	17499.81
365.255	12094.13
365.703	11126.61
366.152	11180.26
366.601	9115.92
367.05	7442.76
367.498	6767.61
367.947	7077.15
368.395	7383.64
368.844	6549.16
369.292	7875.09
369.74	5471.89
370.189	8355.18
370.637	9769.62
371.085	8421.01
371.533	10262.86
371.981	9879.13
372.429	9462.89
372.877	9866.3
373.325	8264.58
373.773	8409.72
374.221	7465.84
374.669	9251.44
375.116	8021.01
375.564	8130.5
376.012	9101.52
376.459	7510.46
376.907	8936.33
377.354	10794.57
377.801	10087.42
378.249	11613.5
378.696	14879.86
379.143	18139.59
379.591	19294.93
380.038	32711.23
380.485	23535.62
380.932	25348.73
381.379	23306.54
381.826	17293.3
382.273	12295.65
382.72	10732.71
383.166	10449.84
383.613	6790.9
384.06	6119.41
384.506	7121.79
384.953	5213.28
385.4	5251.4
385.846	4606.11
386.292	4461.87
386.739	4358.68
387.185	4299.23
387.631	4307.71
388.078	4208.11
388.524	4497.78
388.97	4149.1
389.416	3458.02
389.862	3688.5
390.308	3491.24
390.754	3553.81
391.2	3859.12
391.645	3951.41
392.091	3811.98
392.537	3694.81
392.983	3683.24
393.428	3641.79
393.874	3909.28
394.319	3928.51
394.765	3735.64
395.21	3841.81
395.655	3619.39
396.101	3397.35
396.546	3063.45
396.991	3077.84
397.436	2858.71
397.881	2765.53
398.326	2606.89
398.771	2474.31
399.216	2166.77
399.661	1950.41
400.106	1957.71
400.551	2007.99
400.995	1804.85
401.44	1795.44
401.885	1687.13
402.329	1707.65
402.774	1642.23
403.218	1608.72
403.663	1549.85
404.107	1598.45
404.551	1617.15
404.995	1480.66
405.44	1419
405.884	1437.47
406.328	1388.53
406.772	1388.13
407.216	1268.51
407.66	1229.02
408.104	1161.06
408.547	1091.19
408.991	1054.42
409.435	1014.44
409.879	1004.63
410.322	997.84
410.766	973.57
411.209	931.05
411.653	897.06
412.096	881.23
412.54	881.34
412.983	878.08
413.426	883.6
413.869	885.11
414.312	872.5
414.756	841.36
415.199	803.46
415.642	780
416.085	783.69
416.527	777.08
416.97	790.34
417.413	752.13
417.856	745.56
418.298	738.62
418.741	733.18
419.184	730.23
419.626	758.24
420.069	757.84
420.511	764.41
420.953	748.51
421.396	744.32
421.838	725.38
422.28	741.98
422.722	746.94
423.164	755.04
423.606	745.25
424.048	745.17
424.49	712.68
424.932	709.27
425.374	698.28
425.816	707.93
426.258	721.7
426.699	729.11
427.141	719.21
427.582	725.97
428.024	721.81
428.465	714.45
428.907	695.19
429.348	684.21
429.789	685.65
430.231	672.09
430.672	681.95
431.113	664.54
431.554	654.85
431.995	636.99
432.436	618.01
432.877	607
433.318	599.16
433.759	595.28
434.2	594.92
434.64	587.43
435.081	587.62
435.522	555.22
435.962	534.91
436.403	523.41
436.843	529.49
437.284	515.77
437.724	497.71
438.164	494.27
438.604	482.75
439.045	467.08
439.485	450.51
439.925	438.42
440.365	427.59
440.805	420.79
441.245	416.42
441.685	401.22
442.125	395.94
442.564	399.75
443.004	391.66
443.444	392.78
443.883	390.4
444.323	384.27
444.762	382.34
445.202	386.97
445.641	395.68
446.081	389.74
446.52	393.08
446.959	390.44
447.398	380.53
447.837	375.9
448.276	365.24
448.716	370.28
449.154	371.87
449.593	366.06
450.032	364.86
450.471	354.34
450.91	352.79
451.349	351.5
451.787	348.2
452.226	352.99
452.664	353.27
453.103	354.31
453.541	350.09
453.98	353.14
454.418	354.38
454.856	349.69
455.295	350.06
455.733	354.32
456.171	356.38
456.609	357.23
457.047	356.59
457.485	362.62
457.923	364.75
458.361	359.97
458.798	358.66
459.236	357.41
459.674	357.6
460.111	358.66
460.549	355.41
460.987	352.56
461.424	351.94
461.862	349.32
462.299	342.47
462.736	341.71
463.173	343.78
463.611	343.47
464.048	343.44
464.485	346.54
464.922	342.88
465.359	340.11
465.796	344.05
466.233	342.11
466.67	341.09
467.106	342.33
467.543	337.94
467.98	332.15
468.416	320.12
468.853	316.09
469.29	306.16
469.726	302.89
470.162	294.59
470.599	284.36
471.035	280.9
471.471	273.08
471.907	269.72
472.344	268.17
472.78	270.65
473.216	273.82
473.652	271.25
474.088	270.67
474.523	270.32
474.959	273.29
475.395	270.08
475.831	268.33
476.266	269.91
476.702	268.93
477.138	265.92
477.573	264.63
478.008	264.58
478.444	266.56
478.879	271.05
479.314	272.6
479.75	272.15
480.185	272.92
480.62	274.66
481.055	276.16
481.49	278.7
481.925	282.96
482.36	289.82
482.795	297.5
483.229	304.96
483.664	309.53
484.099	309.97
484.534	315.07
484.968	318.75
485.403	320.21
485.837	318.69
486.271	317.48
486.706	318.48
487.14	312.93
487.574	307.63
488.009	304.03
488.443	301.02
488.877	305.69
489.311	306.57
489.745	310.6
490.179	313.81
490.613	322.17
491.046	324.63
491.48	326.33
491.914	327.71
492.348	330.6
492.781	334.18
493.215	335.77
493.648	336.03
494.082	339.34
494.515	340.41
494.948	345.6
495.382	346.9
495.815	350.71
496.248	355.3
496.681	362.11
497.114	368.27
497.547	374.67
497.98	383.51
498.413	387.92
498.846	394.58
499.279	400.26
499.711	402.66
500.144	405.47
500.577	413.56
501.009	420.58
501.442	428.66
501.874	432.91
502.306	435.55
502.739	443.73
503.171	453.8
503.603	458.16
504.036	464.83
504.468	471.65
504.9	479.7
505.332	485.44
505.764	490.9
506.196	496.57
506.627	506.74
507.059	516.68
507.491	520.9
507.923	522.72
508.354	533.81
508.786	543.59
509.217	556.11
509.649	568.27
510.08	581.11
510.512	593.88
510.943	605.47
511.374	614.6
511.805	629.2
512.237	644.06
512.668	665.67
513.099	683.79
513.53	702.21
513.961	717.45
514.391	739.75
514.822	765.03
515.253	789.79
515.684	807.87
516.114	829.65
516.545	846.26
516.975	864.74
517.406	879.19
517.836	884.67
518.267	892.2
518.697	907.69
519.127	912.29
519.558	917.82
519.988	922.45
520.418	931.64
520.848	944.82
521.278	952.79
521.708	992.58
522.138	1003.88
522.567	1024.6
522.997	1043.19
523.427	1053.81
523.857	1067.96
524.286	1076.48
524.716	1088.46
525.145	1103.6
525.575	1113.2
526.004	1123.69
526.433	1096.61
526.863	1097.89
527.292	1095.65
527.721	1101.21
528.15	1106.35
528.579	1107.54
529.008	1117.41
529.437	1132.53
529.866	1141.81
530.295	1153.18
530.724	1163.15
531.152	1181.35
531.581	1192.13
532.01	1203.09
532.438	1209.73
532.867	1220.72
533.295	1234.27
533.723	1237.74
534.152	1238.03
534.58	1238.36
535.008	1228.69
535.436	1231.16
535.865	1237.25
536.293	1246.9
536.721	1258.83
537.149	1275.65
537.576	1277.5
538.004	1285.9
538.432	1290.02
538.86	1288.7
539.287	1293.47
539.715	1302.83
540.143	1302.84
540.57	1299.75
540.998	1296.99
541.425	1281
541.852	1266.27
542.28	1264.83
542.707	1253.02
543.134	1244.52
543.561	1240.63
543.988	1236.54
544.415	1235.54
544.842	1232.56
545.269	1228.99
545.696	1230.22
546.123	1238.89
546.549	1232.05
546.976	1223.94
547.403	1224.88
547.829	1226.1
548.256	1228.6
548.682	1226.27
549.108	1222.17
549.535	1222.83
549.961	1223.39
550.387	1214.9
550.813	1212.13
551.24	1216.62
551.666	1217.71
552.092	1211.7
552.518	1208.42
552.943	1205.75
553.369	1211.13
553.795	1215.36
554.221	1215.39
554.646	1214
555.072	1221.3
555.498	1223.43
555.923	1229.76
556.349	1240.56
556.774	1246.4
557.199	1246.19
557.625	1249
558.05	1245.07
558.475	1251.6
558.9	1251.11
559.325	1245.85
559.75	1242.07
560.175	1238.25
560.6	1232.94
561.025	1230.3
561.449	1230.59
561.874	1234.6
562.299	1237.21
562.723	1240.59
563.148	1233
563.572	1235.51
563.997	1242.17
564.421	1244.41
564.846	1243.93
565.27	1245.91
565.694	1244.03
566.118	1250.89
566.542	1255.06
566.966	1249.63
567.39	1244.94
567.814	1236.46
568.238	1234.44
568.662	1234.86
569.086	1235.04
569.509	1237.67
569.933	1227.31
570.357	1220.24
570.78	1204.54
571.204	1195.01
571.627	1186.18
572.05	1184.55
572.474	1183.72
572.897	1173.51
573.32	1168.68
573.743	1161.05
574.166	1147.98
574.589	1145.69
575.012	1139.82
575.435	1138.26
575.858	1131.29
576.281	1123.74
576.704	1113.07
577.126	1104.4
577.549	1097.65
577.972	1088.82
578.394	1081.59
578.817	1078.15
579.239	1065.79
579.661	1057.61
580.084	1047.11
580.506	1038.25
580.928	1034.49
581.35	1026.07
581.772	1023.35
582.194	1014.34
582.616	1006.07
583.038	995.54
583.46	987.22
583.882	985.25
584.303	986.54
584.725	982.43
585.147	985.91
585.568	993.29
585.99	1001.54
586.411	1004.42
586.833	1013.52
587.254	1014.05
587.675	1023.49
588.096	1031.83
588.518	1027.56
588.939	1016.09
589.36	1014.83
589.781	1003.71
590.202	985.93
590.623	979.18
591.043	976.66
591.464	967.67
591.885	964.88
592.305	959.87
592.726	949.67
593.147	949.83
593.567	945.87
593.987	940.2
594.408	937.06
594.828	933.66
595.248	929.7
595.669	918.06
596.089	912.93
596.509	908.32
596.929	898.94
597.349	899.62
597.769	892.54
598.189	888.46
598.608	889.13
599.028	889.05
599.448	888.75
599.867	879.75
600.287	876.88
600.706	873.98
601.126	868.11
601.545	868.37
601.965	866.5
602.384	862.99
602.803	863.85
603.222	860.59
603.641	855.74
604.061	852.6
604.48	850.05
604.898	854.23
605.317	856.4
605.736	856.58
606.155	854.36
606.574	848.2
606.992	851.46
607.411	847.97
607.829	840.93
608.248	839.78
608.666	837.74
609.085	836.69
609.503	831.13
609.921	828.29
610.339	829
610.758	826.86
611.176	822.99
611.594	816.57
612.012	814.42
612.43	817.35
612.847	819.25
613.265	819.96
613.683	822.11
614.101	821.12
614.518	816.22
614.936	809.82
615.353	800.93
615.771	798.72
616.188	797.9
616.606	794.88
617.023	789.42
617.44	780.53
617.857	774.68
618.274	768.72
618.691	765.53
619.108	758.92
619.525	754.49
619.942	758.02
620.359	759.22
620.776	755.87
621.192	753.43
621.609	751.43
622.026	754.95
622.442	758.78
622.859	759.43
623.275	754.52
623.691	757.41
624.108	764.35
624.524	771.85
624.94	771.31
625.356	777.12
625.772	783.92
626.188	790.51
626.604	791.69
627.02	789.32
627.436	789.23
627.852	793.99
628.268	801.43
628.683	795.78
629.099	791.25
629.514	788.2
629.93	789.75
630.345	791.84
630.761	789.11
631.176	790.88
631.591	787.04
632.007	782.27
632.422	779.16
632.837	771.86
633.252	768.49
633.667	761.06
634.082	753.91
634.497	745.28
634.911	734.47
635.326	730.99
635.741	719.21
636.155	711.22
636.57	710.58
636.984	709.07
637.399	709.71
637.813	707.1
638.228	704.14
638.642	704.79
639.056	696.58
639.47	693.58
639.884	686.54
640.298	679.41
640.712	676.35
641.126	666.46
641.54	658.3
641.954	650.35
642.368	642.34
642.781	637.87
643.195	625.22
643.609	624.24
644.022	618.1
644.436	613.3
644.849	605.24
645.262	596.15
645.676	594.86
646.089	590.23
646.502	582.67
646.915	577.63
647.328	565.08
647.741	563.95
648.154	554.98
648.567	553.91
648.98	547.35
649.393	546.99
649.805	545.22
650.218	540.08
650.631	532.58
651.043	527.65
651.456	523.42
651.868	523.98
652.28	531.71
652.693	537.14
653.105	538.28
653.517	541.64
653.929	541.44
654.341	543.72
654.753	538.09
655.165	540.44
655.577	538.36
655.989	536.66
656.401	530.45
656.813	512.36
657.224	502.46
657.636	486.08
658.047	477.79
658.459	467.51
658.87	460.36
659.282	453.06
659.693	441.78
660.104	433.86
660.515	425.55
660.926	423.78
661.338	420.74
661.749	415.86
662.159	411.68
662.57	406.79
662.981	403.2
663.392	399.89
663.803	401.36
664.213	398.82
664.624	394.94
665.035	394.93
665.445	388.35
665.855	384.36
666.266	379.99
666.676	378.07
667.086	372.51
667.497	371.53
667.907	368.02
668.317	362.68
668.727	363.61
669.137	363.44
669.547	362.7
669.956	362.66
670.366	363.65
670.776	365.33
671.186	366.28
671.595	369.88
672.005	370.42
672.414	371.32
672.824	371.63
673.233	370.98
673.642	374.14
674.052	377.6
674.461	381
674.87	383.2
675.279	382.69
675.688	384.88
676.097	387.54
676.506	388.25
676.915	396.5
677.323	399.13
677.732	400.07
678.141	401.35
678.549	395.48
678.958	395.31
679.366	397.12
679.775	400.21
680.183	409.28
680.592	412.24
681	417.06
681.408	415.57
681.816	420.91
682.224	426.3
682.632	433.92
683.04	451.89
683.448	465.77
683.856	483.86
684.264	506.36
684.671	523.89
685.079	547.97
685.487	573.86
685.894	608.58
686.302	639.28
686.709	666.68
687.116	697.2
687.524	725.25
687.931	750.39
688.338	771.99
688.745	789.07
689.152	809.93
689.559	838.31
689.966	867.73
690.373	883.83
690.78	912.48
691.187	953.02
691.593	984.52
692	1012.59
692.407	1051.92
692.813	1103.03
693.22	1144.11
693.626	1185.26
694.032	1221.42
694.439	1272.96
694.845	1314.06
695.251	1364.04
695.657	1410.69
696.063	1476.91
696.469	1529.76
696.875	1579.58
697.281	1607.25
697.687	1643.6
698.093	1674.3
698.498	1727.22
698.904	1768.44
699.31	1831.9
699.715	1878.66
700.12	1944.07
700.526	1961.18
700.931	2010.05
701.337	2048.95
701.742	2074.71
702.147	2132.45
702.552	2156.89
702.957	2199.86
703.362	2216.97
703.767	2240.17
704.172	2269.27
704.577	2238.51
704.981	2273.42
705.386	2286.49
705.791	2283.15
706.195	2336.86
706.6	2347.59
707.004	2404.35
707.408	2384.62
707.813	2406.11
708.217	2398.81
708.621	2401.04
709.025	2469.17
709.43	2471.43
709.834	2515.85
710.237	2566.07
710.641	2556.53
711.045	2571.46
711.449	2569.11
711.853	2592.43
712.256	2622.14
712.66	2649.84
713.064	2704.55
713.467	2736.54
713.87	2815.31
714.274	2846.22
714.677	2922.02
715.08	3035.39
715.484	3154.42
715.887	3297.26
716.29	3433.28
716.693	3579.23
717.096	3744.39
717.499	3833.6
717.901	3849.55
718.304	3869.86
718.707	3885.28
719.109	3816.28
719.512	3796
719.915	3703.25
720.317	3663.28
720.719	3696.78
721.122	3673.01
721.524	3638.4
721.926	3615.41
722.328	3684.4
722.731	3676.44
723.133	3697.78
723.535	3833.11
723.937	3846.28
724.338	3880.7
724.74	3910.86
725.142	3897.18
725.544	3902.97
725.945	3931.62
726.347	3924.62
726.748	3924.3
727.15	3933.21
727.551	3910.21
727.952	3888.45
728.354	3868.06
728.755	3870.75
729.156	3837.88
729.557	3799.23
729.958	3710.68
730.359	3663.51
730.76	3651.88
731.161	3606.98
731.562	3591.66
731.962	3592.15
732.363	3549.21
732.763	3503.2
733.164	3524.54
733.564	3480.46
733.965	3414.71
734.365	3390.37
734.766	3411.08
735.166	3385.06
735.566	3347.6
735.966	3330.43
736.366	3327.52
736.766	3283.35
737.166	3307.29
737.566	3280.99
737.966	3261.94
738.365	3288.51
738.765	3286.29
739.165	3233.77
739.564	3215.26
739.964	3247.04
740.363	3212.93
740.763	3210.24
741.162	3203.57
741.561	3181.93
741.96	3148.6
742.36	3163.8
742.759	3167.84
743.158	3193.35
743.557	3202.4
743.955	3229.31
744.354	3199.12
744.753	3236.77
745.152	3208.44
745.55	3245.78
745.949	3241.14
746.348	3244.37
746.746	3253.97
747.144	3227.66
747.543	3211.85
747.941	3244.32
748.339	3194.49
748.737	3188.04
749.136	3184.52
749.534	3228.54
749.932	3209.51
750.33	3225.57
750.727	3260.86
751.125	3245.49
751.523	3232.81
751.921	3263.9
752.318	3241.81
752.716	3283.43
753.113	3292.63
753.511	3309.85
753.908	3310.15
754.305	3300.08
754.703	3341.97
755.1	3385.48
755.497	3425.68
755.894	3554.7
756.291	3674.37
756.688	3898.93
757.085	4195.98
757.482	4614.34
757.878	5071.27
758.275	5487.34
758.672	6054.46
759.068	6515.25
759.465	7172.07
759.861	8025.33
760.258	9017.5
760.654	9528.94
761.05	9454.34
761.447	9024.87
761.843	8406.25
762.239	7764.08
762.635	7472.91
763.031	7195.7
763.427	6789.82
763.822	6374.65
764.218	5957.91
764.614	5415.43
765.01	5050.35
765.405	4814.37
765.801	4635.95
766.196	4407.68
766.592	4281.56
766.987	4066.99
767.382	3920.92
767.778	3861.4
768.173	3770.77
768.568	3723.09
768.963	3636.75
769.358	3652.38
769.753	3622.08
770.148	3567.26
770.542	3566.57
770.937	3545.68
771.332	3608.84
771.726	3621.5
772.121	3582
772.515	3619.93
772.91	3609.51
773.304	3660.37
773.699	3613.65
774.093	3650.05
774.487	3685.28
774.881	3713.76
775.275	3710.93
775.669	3680.28
776.063	3710.77
776.457	3734.81
776.851	3681.92
777.245	3674.57
777.638	3696.31
778.032	3772.04
778.425	3746.7
778.819	3778.2
779.212	3751.67
779.606	3725.28
779.999	3737.49
780.392	3728.5
780.786	3783.96
781.179	3798.23
781.572	3827.17
781.965	3836.4
782.358	3796.98
782.751	3835.08
783.143	3799.04
783.536	3848.58
783.929	3875.85
784.322	3954.69
784.714	3974.17
785.107	3970.43
785.499	4020.37
785.891	4005.73
786.284	3989.48
786.676	4087.63
787.068	4076.57
787.46	4110.1
787.852	4121.65
788.245	4180.17
788.636	4199.34
789.028	4245.36
789.42	4272.09
789.812	4279.29
790.204	4344.63
790.595	4416.73
790.987	4285.25
791.378	4300.55
791.77	4393.98
792.161	4487.41
792.553	4524.99
792.944	4452.99
793.335	4405.37
793.726	4458.16
794.117	4521.71
794.508	4615.31
794.899	4595.37
795.29	4689.9
795.681	4729.22
796.072	4631.91
796.463	4520.62
796.853	4533.07
797.244	4640.68
797.634	4664.01
798.025	4663.29
798.415	4668.22
798.806	4733.61
799.196	4791.68
799.586	4830
799.976	4805.16
800.366	4964.15
800.756	5113
801.146	5081.78
801.536	5101.75
801.926	5156.86
802.316	5175.41
802.706	5228.06
803.095	5142.64
803.485	5209.12
803.874	5236.14
804.264	5413.08
804.653	5395.05
805.043	5500.74
805.432	5576.33
805.821	5577.57
806.21	5591.75
806.599	5672.32
806.988	5701.03
807.377	5773.76
807.766	5865.68
808.155	6062.03
808.544	5882.49
808.933	5891.36
809.321	5874.18
809.71	6072.86
810.098	6181.28
810.487	6495.22
810.875	6825.48
811.264	6844.7
811.652	7051.07
812.04	7150.73
812.428	7259.75
812.816	7777.89
813.204	8063.08
813.592	8436.17
813.98	8672.1
814.368	8613.15
814.756	8939.72
815.144	8883.45
815.531	9196.92
815.919	9136.4
816.306	9350.46
816.694	9137.22
817.081	9173.39
817.469	9411.76
817.856	9414.29
818.243	9595.35
818.63	9857.04
819.017	9571.81
819.404	9616.32
819.791	9876.65
820.178	10295.69
820.565	10469.51
820.952	11115.65
821.339	10783.23
821.725	10908.01
822.112	10400.86
822.498	10375.58
822.885	10463.85
823.271	10401.27
823.657	10683.43
824.044	10697.06
824.43	10750.1
824.816	10727.16
825.202	10426.14
825.588	11117.08
825.974	11131.23
826.36	11480.41
826.746	11499.42
827.132	11747.73
827.517	11728.02
827.903	11192.1
828.289	11214.04
828.674	10675.75
829.06	10598.7
829.445	10858.14
829.83	11104.63
830.216	11426.06
830.601	11676.41
830.986	11404.72
831.371	11309.51
831.756	11688.64
832.141	11395.47
832.526	11390.43
832.911	11582.17
833.295	11497.14
833.68	11818
834.065	11401.01
834.449	10775.95
834.834	10728.19
835.218	10722.44
835.603	10949.7
835.987	10797.25
836.371	11367.13
836.755	11289.66
837.139	11563.2
837.524	11724.94
837.908	11602.54
838.291	11637.1
838.675	11682.5
839.059	11809.8
839.443	11788.87
839.827	11627.46
840.21	11951.01
840.594	11839.19
840.977	11979.33
841.361	11956.48
841.744	12210.31
842.127	12104.28
842.511	12262.01
842.894	12654.23
843.277	12916.97
843.66	13285.1
844.043	13341.85
844.426	12806.8
844.809	12593.31
845.191	12606.19
845.574	12297.53
845.957	12054.15
846.339	11979.51
846.722	11622.68
847.104	11673.37
847.487	11548.16
847.869	11557.29
848.252	11741.4
848.634	11956.98
849.016	12131.09
849.398	12216.22
849.78	12777.85
850.162	12772.37
850.544	13053.07
850.926	13470.54
851.307	13402.31
851.689	13592.33
852.071	13897.53
852.452	14113.78
852.834	14100.12
853.215	14376.44
853.597	14483.58
853.978	14697.88
854.359	15014.35
854.741	14346.55
855.122	14280.87
855.503	14092.64
855.884	14186.02
856.265	14146.65
856.646	14232.8
857.026	13968.18
857.407	13926.53
857.788	14032.4
858.169	14220.85
858.549	13646.59
858.93	14067.93
859.31	14115.05
859.69	14263.08
860.071	13993.33
860.451	13845.87
860.831	13339.32
861.211	14121.72
861.591	14487.73
861.971	14470.63
862.351	14608.96
862.731	14871.55
863.111	15047.88
863.491	15268.3
863.87	15858.93
864.25	16091.74
864.629	15833.08
865.009	16182.93
865.388	16765.17
865.768	17977.7
866.147	17922.93
866.526	16932.43
866.905	17139.12
867.284	18100.92
867.663	17187.92
868.042	16475.61
868.421	16427.26
868.8	16694.07
869.179	16866.41
869.558	15879.99
869.936	14632.31
870.315	14883.45
870.693	15249.39
871.072	16442.29
871.45	15667.91
871.828	15873.74
872.207	16686.57
872.585	16441.21
872.963	16891.49
873.341	16315.67
873.719	16135.58
874.097	15942.43
874.475	16250.1
874.853	16613.64
875.23	15922.47
875.608	16590.21
875.986	17945.18
876.363	17158.82
876.741	17675.51
877.118	17234.93
877.495	18074.27
877.873	18369.44
878.25	19325.89
878.627	18535.16
879.004	18800.52
879.381	18708.59
879.758	18214.63
880.135	16954.85
880.512	17936.65
880.889	17463.53
881.265	17275.76
881.642	17120.28
882.019	17403.26
882.395	17054.25
882.772	17738.72
883.148	16966.24
883.524	16910.72
883.901	16812.68
884.277	17064.82
884.653	16952.9
885.029	17437.51
885.405	19312.68
885.781	19171.7
886.157	18379.07
886.532	18595.55
886.908	18574.47
887.284	20645.29
887.659	21304.24
888.035	21958.95
888.411	22529.2
888.786	22829.46
889.161	23623.74
889.537	23186.35
889.912	23929.17
890.287	23910.04
890.662	24528.15
891.037	24082.96
891.412	22458.09
891.787	22224.34
892.162	21450.5
892.536	21927.15
892.911	21097.2
893.286	20635.22
893.66	19798.58
894.035	20282.2
894.409	22065.79
894.784	21174.25
895.158	21515.61
895.532	22797.07
895.906	23411.14
896.281	23958.04
896.655	23575.92
897.029	26923.25
897.402	28030.84
897.776	31181.22
898.15	31097.5
898.524	30772.36
898.898	31172.46
899.271	34904.33
899.645	30227.41
900.018	29052.65
900.392	30130.61
900.765	30376.1
901.138	28120.06
901.511	27705.48
901.884	25455.96
902.258	23480.74
902.631	24273.76
903.003	27939.3
903.376	25206.05
903.749	28269.37
904.122	30252.94
904.495	33309.53
904.867	33739.39
905.24	29303.99
905.612	27297.11
905.985	27911.29
906.357	29205.73
906.729	27881.17
907.102	23842.67
907.474	22949.69
907.846	23099.75
908.218	22815.26
908.59	20182.94
908.962	19538.76
909.334	21060.9
909.705	22133.45
910.077	21510.82
910.449	22391.97
910.82	23032.55
911.192	25338.68
911.563	26335.52
911.935	28183.28
912.306	28203.77
912.677	29135.12
913.048	28844.91
913.419	31272.05
913.79	31448.24
914.161	33727.08
914.532	32263.08
914.903	29643.84
915.274	28168.1
915.645	27780.83
916.015	24447.57
916.386	23322.84
916.756	24828.39
917.127	25631.77
917.497	22930.75
917.868	24965.99
918.238	23726.02
918.608	24407.78
918.978	24933.03
919.348	26411.66
919.718	27279.55
920.088	26293.15
920.458	27339.29
920.828	28748.58
921.198	27249.35
921.567	29101.93
921.937	22547.37
922.306	22754.9
922.676	24530.32
923.045	20482.49
923.415	19461.78
923.784	17732.7
924.153	18238.37
924.522	18216.45
924.891	17124.98
925.26	18344.07
925.629	17905.74
925.998	20581.33
926.367	20089.67
926.736	19155.64
927.104	22793.95
927.473	24489.99
927.842	29561.2
928.21	29287.87
928.578	30786.66
928.947	29142.26
929.315	29322.9
929.683	34419.14
930.051	34699.66
930.42	40309.27
930.788	34425.88
931.156	34187.8
931.523	32088.91
931.891	29645.2
932.259	28467.76
932.627	33016.19
932.994	46673.52
933.362	38603.05
933.729	33526.11
934.097	32085.83
934.464	27151.13
934.831	31334.05
935.199	30873.52
935.566	29920.53
935.933	30328.82
936.3	36755.66
936.667	28613.99
937.034	25884.36
937.401	25573.66
937.767	22064.64
938.134	19652.83
938.501	27746.41
938.867	29594.39
939.234	49984.23
939.6	42659.76
939.967	47034.14
940.333	31515.77
940.699	26828.99
941.065	21481.03
941.431	28225.37
941.798	27267.42
942.163	35832.19
942.529	22365.1
942.895	20584.68
943.261	13333.14
943.627	17490.9
943.992	15314.89
944.358	15325.61
944.723	15385.1
945.089	14997.53
945.454	13848.57
945.82	14779.94
946.185	14194.32
946.55	16456.87
946.915	14771.83
947.28	17333.96
947.645	15250.46
948.01	14089.7
948.375	14689.53
948.74	17607.97
949.104	20515.23
949.469	29598.26
949.834	52236.8
950.198	49604.43
950.562	29727.75
950.927	24743.42
951.291	29804.2
951.655	25416.47
952.02	23855.31
952.384	18044.25
952.748	15723.63
953.112	15384.94
953.476	13403.5
953.839	12412.42
954.203	12284.68
954.567	15380.12
954.931	24241.9
955.294	20717.92
955.658	20841.94
956.021	35481.77
956.385	60132.27
956.748	88740
957.111	137240.69
957.474	153935.93
957.837	173076.77
958.2	130950.52
958.563	47131.23
958.926	31889.97
959.289	48447.54
959.652	54127.67
960.015	40589.06
960.377	58292.57
960.74	66512.87
961.102	114915.7
961.465	123545.87
961.827	66458.48
962.189	127500.92
962.552	88478.11
962.914	70881.67
963.276	46050.56
963.638	38079.38
964	37750.72
964.362	25537.88
964.724	24687.45
965.085	17606.87
965.447	14431.1
965.809	16402.21
966.17	16425.9
966.532	17754.78
966.893	16312.18
967.255	14825.47
967.616	17520.25
967.977	14023.11
968.338	15316.57
968.699	12606.29
969.061	12610.99
969.421	12702.24
969.782	14255.1
970.143	12046.37
970.504	12486.84
970.865	14202.83
971.225	14541.18
971.586	14234.25
971.946	20287.13
972.307	17604.55
972.667	22983.27
973.027	23681.34
973.388	28689.55
973.748	19524.19
974.108	21315.38
974.468	28800.35
974.828	22193.5
975.188	17037.57
975.548	15636.7
975.907	13144.92
976.267	14741.02
976.627	12416.33
976.986	12872.89
977.346	12273.8
977.705	11809.04
978.064	10746.08
978.424	8963.04
978.783	9261.65
979.142	10584.21
979.501	10123.04
979.86	10695.42
980.219	10304.18
980.578	13264.19
980.937	14849.95
981.296	13249.79
981.654	13660.07
982.013	21222.81
982.371	27543.63
982.73	25732.39
983.088	29163.85
983.447	31160.36
983.805	44579.6
984.163	93243.99
984.521	103420.56
984.879	151489.72
985.237	-246585.26
985.595	237682.43
985.953	59063.2
986.311	34099.29
986.669	19828.31
987.026	17106.69
987.384	22977.72
987.741	23747.97
988.099	17020.16
988.456	13594.21
988.814	12753.54
989.171	11091.01
989.528	10904.51
989.885	11509.89
990.242	9132.84
990.599	11354.45
990.956	9318.13
991.313	6530.29
991.67	5366.35
992.027	5710.68
992.383	5070.13
992.74	4451.94
993.096	4676.03
993.453	4862.33
993.809	5047.85
994.165	6722.03
994.522	6191.38
994.878	6801.06
995.234	8528.28
995.59	8416.55
995.946	7917.23
996.302	9037.96
996.658	10445.83
997.013	11502.36
997.369	13617.13
997.725	17413.93
998.08	11277.06
998.436	17299.74
998.791	23899.28
999.147	23928.61
999.502	26069.76
999.857	18939.9
1000.212	30877.5
1000.567	44025.15
1000.922	25380.84
1001.277	16224.26
1001.632	12070.11
1001.987	15557.55
1002.342	11165.85
1002.696	8934.08
1003.051	7110.2
1003.406	8642
1003.76	8611.54
1004.114	8501.54
1004.469	7129.72
1004.823	5906.83
1005.177	6343.43
1005.531	5035.32
1005.885	4464.43
1006.239	5044.54
1006.593	6343.87
1006.947	8515.67
1007.301	6378.73
1007.655	6957.69
1008.008	5101.2
1008.362	5745.38
1008.715	8219.83
1009.069	7455.14
1009.422	11268.8
1009.776	22549.59
1010.129	14974.93
1010.482	12440.01
1010.835	10492.59
1011.188	21813.17
1011.541	20489.99
1011.894	-125707.68
1012.247	370621.83
1012.6	25121.94
1012.952	15906.57
1013.305	8150.54
1013.657	5916.51
1014.01	5567.76
1014.362	4617.71
1014.715	4141.91
1015.067	3607.29
1015.419	3537.72
1015.771	3134.87
1016.123	2787.47
1016.475	2864.37
1016.827	3037.05
1017.179	3262.42
1017.531	3269.27
1017.883	3359.72
1018.234	3263.16
1018.586	4094.31
1018.938	4362.49
1019.289	6034.68
1019.64	6867.67
1019.992	6361.52
1020.343	5852.43
1020.694	4648.78
1021.045	4123.42
1021.396	4702.17
1021.747	5072.07
1022.098	6035.67
1022.449	4390.98
1022.8	4060.93
1023.151	2812.48
1023.501	2511.07
1023.852	2733.47
1024.202	2814.01
1024.553	3092.9
1024.903	3033.07
1025.253	2599.54
1025.604	2328.32
1025.954	2904.84
1026.304	3512.71
1026.654	4087.21
1027.004	5990.04
1027.354	9599.23
1027.703	9115.89
1028.053	12064.31
1028.403	17633.46
1028.753	25175.89
1029.102	34034.04
1029.452	173446.16
1029.801	7404.23
1030.15	4777.02
1030.499	4024.5
897.758	2949.54
901.051	2919.57
904.343	2956.04
907.636	2949.87
910.928	3018.44
914.22	2922.26
917.511	2933.33
920.803	3005.69
924.094	3037.65
927.384	3002.07
930.675	2966.98
933.965	2913.72
937.255	2912.99
940.544	2881.75
943.834	2784.91
947.123	2733.07
950.411	2834.53
953.7	2800.66
956.988	2757.26
960.276	2702.53
963.563	2802.43
966.851	2787.09
970.138	2854.78
973.424	2841.09
976.711	2786.12
979.997	2971.8
983.283	2998.43
986.568	2886.78
989.853	2918.67
993.138	2949.93
996.423	3029.65
999.708	2953.67
1002.992	3043.84
1006.275	2831.99
1009.559	2902.59
1012.842	3032.3
1016.125	2947.48
1019.408	2927.41
1022.69	3033.68
1025.972	3043.46
1029.254	3014.14
1032.536	2927.02
1035.817	2962.76
1039.098	2885.62
1042.379	3084.7
1045.659	3064.48
1048.939	2981.15
1052.219	3014.14
1055.498	3033.75
1058.778	3008.07
1062.057	2997.18
1065.335	3014.41
1068.614	3040.63
1071.892	3013.04
1075.17	3102.6
1078.447	3082.49
1081.724	3069.76
1085.001	3113.86
1088.278	3085.51
1091.554	3101.68
1094.83	3100.04
1098.106	3123.24
1101.382	3176.54
1104.657	3176.1
1107.932	3172.01
1111.206	3127.87
1114.481	3088.49
1117.755	3092.8
1121.029	3065.82
1124.302	3113.27
1127.575	3054.7
1130.848	3038.29
1134.121	2991.72
1137.393	2932.76
1140.665	3007.55
1143.937	2978.9
1147.208	2944.52
1150.48	2972.19
1153.75	2955.8
1157.021	3006.32
1160.291	2968.71
1163.561	3013.66
1166.831	3012.4
1170.101	3050.51
1173.37	3033.34
1176.639	2965.96
1179.907	3035.07
1183.176	3029.91
1186.444	3044.16
1189.711	3073.37
1192.979	3075.38
1196.246	3036.53
1199.513	3054.2
1202.78	3048.96
1206.046	3056.34
1209.312	3082.5
1212.578	3114.11
1215.843	3054.25
1219.108	3035.36
1222.373	3056.29
1225.638	3015.67
1228.902	2995.42
1232.166	2969.12
1235.43	2945.9
1238.693	2971.46
1241.956	2972.16
1245.219	3006.31
1248.482	3004.13
1251.744	2998.45
1255.006	3165.43
1258.268	3122.5
1261.529	3059.05
1264.79	3070.83
1268.051	3178.25
1271.312	3198.59
1274.572	3153.95
1277.832	3144.03
1281.092	3139.34
1284.351	3099.43
1287.61	3072.65
1290.869	2974.58
1294.128	2940.43
1297.386	3054.18
1300.644	3038.66
1303.902	3048.2
1307.159	2902.49
1310.416	2959.55
1313.673	2981.29
1316.93	2960.32
1320.186	3019.01
1323.442	3068.49
1326.697	3049.79
1329.953	3053.65
1333.208	3068.9
1336.463	3052.66
1339.717	2979.23
1342.972	3123.98
1346.226	3106.86
1349.479	3029.41
1352.733	2992.97
1355.986	3025.26
1359.238	2998.86
1362.491	2999.49
1365.743	3004.89
1368.995	3001.76
1372.247	3019.45
1375.498	3047
1378.749	3055.63
1382	3016.43
1385.251	3077.87
1388.501	3046.32
1391.751	3021.22
1395	3002.54
1398.25	3039.73
1401.499	3039.57
1404.748	2954.87
1407.996	2934.11
1411.244	2918.79
1414.492	2893.29
1417.74	2866.23
1420.987	2887.7
1424.234	2944
1427.481	2931.12
1430.728	2987.85
1433.974	2962.14
1437.22	2984.29
1440.465	2991.23
1443.711	2950.55
1446.956	2990.01
1450.201	2989.14
1453.445	3033.89
1456.689	3003.39
1459.933	3017.02
1463.177	3047.35
1466.42	3018.05
1469.663	2994.06
1472.906	2976.32
1476.148	3081.34
1479.391	3007.15
1482.633	2986.98
1485.874	2990.19
1489.115	2965.99
1492.356	2980.13
1495.597	2952.06
1498.838	2958.48
1502.078	2915.69
1505.318	2853.88
1508.557	2900.72
1511.797	2847.41
1515.036	2961.71
1518.274	2948.44
1521.513	2926.7
1524.751	2954.01
1527.989	2961.32
1531.227	2969.44
1534.464	2950.94
1537.701	2987.29
1540.938	3009.81
1544.174	2962.99
1547.41	2969.54
1550.646	3007.37
1553.882	3033.48
1557.117	3086.42
1560.352	3104.38
1563.587	3058.47
1566.821	3012.86
1570.055	3061.29
1573.289	3025.49
1576.523	3109.14
1579.756	3113.92
1582.989	3127.85
1586.222	3086.86
1589.454	3132.86
1592.686	3101.29
1595.918	3122.45
1599.15	3105.36
1602.381	3200.01
1605.612	3138.6
1608.843	3236.54
1612.073	3144.47
1615.303	3123.96
1618.533	3110.75
1621.762	3119.66
1624.992	3110.05
1628.221	3084.4
1631.449	3072.9
1634.678	3144.63
1637.906	3092.62
1641.134	3137.32
1644.361	3084.72
1647.588	3075.55
1650.815	3088.93
1654.042	3076.77
1657.269	3108.47
1660.495	3052.78
1663.72	3046.6
1666.946	3015.2
1670.171	2939.48
1673.396	2915.15
1676.621	2908.12
1679.845	2945.2
1683.069	2974.75
1686.293	3028.39
1689.517	2987.04
1692.74	2899.88
1695.963	2930.36
1699.185	2976.53
1702.408	2943.93
1705.63	2995.31
1708.852	2999.61
1712.073	2974.84
1715.294	2944.86
1718.515	3014.62
1721.736	2950.79
1724.956	2955.27
1728.176	2984.49
1731.396	3008.03
1734.616	3000.4
1737.835	3021.55
1741.054	3003.51
1744.272	3003.44
1747.491	3026.01
1750.709	3099.27
1753.927	2976.74
1757.144	3036.63
1760.361	3067.78
1763.578	3072.97
1766.795	3007.32
1770.011	3022.66
1773.227	3074.74
1776.443	3107.95
1779.658	3154.13
1782.874	3099.56
1786.089	3066.89
1789.303	3071
1792.518	3081.07
1795.732	3072.19
1798.945	3075.13
1802.159	3130.83
1805.372	3009.33
1808.585	2987.06
1811.797	2990.44
1815.01	3052.43
1818.222	3054.58
1821.434	2989.02
1824.645	3068.07
1827.856	3036.65
1831.067	3074.82
1834.278	3049.79
1837.488	3034.39
1840.698	3202.89
1843.908	3116.9
1847.117	3076.78
1850.326	2935.46
1853.535	3058.95
1856.744	3126.01
1859.952	3027.52
1863.16	3030.22
1866.368	3056.06
1869.575	3154.31
1872.782	3042.57
1875.989	2986.36
1879.196	3093.8
1882.402	3088.49
1885.608	3136.26
1888.814	3016.06
1892.019	2910.78
1895.224	2962.15
1898.429	2951.87
1901.634	2926.35
1904.838	2906.65
1908.042	2956.5
1911.246	2958.06
1914.449	2871.2
1917.652	2880.45
1920.855	2862.51
1924.058	2927.82
1927.26	2955.49
1930.462	2989.72
1933.664	3009.32
1936.865	2942.11
1940.066	2945.63
1943.267	2890.4
1946.467	2916.28
1949.668	2946.11
1952.868	3009.2
1956.067	2979.85
1959.267	2901.77
1962.466	2933.95
1965.665	2919.98
1968.863	2916.12
1972.061	2938.63
1975.259	2943.42
1978.457	3027.94
1981.654	2976.65
1984.852	2978.61
1988.048	2899.39
1991.245	2910.62
1994.441	2996.8
1997.637	2996.05
2000.833	2978.73
2004.028	3020.42
2007.223	3071.71
2010.418	3038.18
2013.613	3005.41
2016.807	2961.77
2020.001	2977.26
2023.194	3036.65
2026.388	3006.36
2029.581	2951.31
2032.774	2994.13
2035.966	2991.36
2039.158	2913.21
2042.35	2945.86
2045.542	2875.34
2048.733	2986.85
2051.924	3027.54
2055.115	3063.12
2058.306	2989.38
2061.496	3052.48
2064.686	3130.9
2067.875	3045.67
2071.065	3070.61
2074.254	3102.65
2077.442	3052.87
2080.631	3147.58
2083.819	3012.06
2087.007	2986.79
2090.195	2946.71
2093.382	2996.31
2096.569	2974.23
2099.756	2918.89
2102.942	2931.52
2106.128	2929.8
2109.314	2924.53
2112.5	2872.97
2115.685	2854.03
2118.87	2865.75
2122.055	2934.89
2125.239	2894.71
2128.424	2855.84
2131.608	2989.26
2134.791	2967.69
2137.974	3041.42
2141.157	3024.72
2144.34	2963.23
2147.523	2992.93
2150.705	2997.38
2153.887	2985.35
2157.068	2922.32
2160.25	2937.04
2163.431	2986.32
2166.611	2912.89
2169.792	2928.64
2172.972	2809.24
2176.152	2905.76
2179.331	2948.01
2182.511	2917.86
2185.69	2950.38
2188.868	2936.09
2192.047	3009.24
2195.225	2981.31
2198.403	2933
2201.58	2928.26
2204.758	2929.86
2207.935	3016.36
2211.111	2888.28
2214.288	2869.44
2217.464	2914.58
2220.64	2895.08
2223.815	2955.88
2226.991	2867.55
2230.166	2889.92
2233.34	2909.08
2236.515	2944.27
2239.689	3024.38
2242.863	2966.3
2246.036	3025.48
2249.209	3037.21
2252.382	3078.48
2255.555	3055.2
2258.727	2982.84
2261.9	3031.16
2265.071	3023.34
2268.243	3029.28
2271.414	2952.6
2274.585	2898.18
2277.756	2969.18
2280.926	2922.52
2284.096	2968.51
2287.266	2861.28
2290.436	2926.68
2293.605	2960.93
2296.774	2982.32
2299.942	3020.2
2303.111	3037.86
2306.279	3081.5
2309.447	3068.54
2312.614	3048.51
2315.781	3066.64
2318.948	3030.86
2322.115	3073.01
2325.281	2971.89
2328.447	3000.13
2331.613	2980.15
2334.779	2934.78
2337.944	2945.68
2341.109	2941.81
2344.274	2920.24
2347.438	2882.45
2350.602	2910.86
2353.766	2931.16
2356.929	2914.17
2360.092	2957.94
2363.255	2898.71
2366.418	2809.19
2369.58	2953.81
2372.742	2682.08
2375.904	2709.68
2379.066	2680.34
2382.227	2724.66
2385.388	2687.16
2388.548	2594.74
2391.709	2659.55
2394.869	2632.48
2398.029	2760.55
2401.188	2785.91
2404.347	2702.47
2407.506	2884.09
2410.665	2904.7
2413.823	2924.86
2416.981	2866
2420.139	2906.62
2423.296	2968.02
2426.453	2941.8
2429.61	2967.92
2432.767	2880.08
2435.923	2919.06
2439.079	2845.8
2442.235	2907.49
2445.391	2827.03
2448.546	2845.01
2451.701	2906.81
2454.855	2860.95
2458.009	2928.58
2461.163	2938.19
2464.317	2888.9
2467.471	2925.51
2470.624	2970.6
2473.777	2972.93
2476.929	2984.48
2480.082	3009.92
2483.234	2970.56
2486.385	2897.69
2489.537	2891.4
2492.688	2831.57
2495.839	2853.02
2498.989	2858.24
2502.14	2842.06
2505.29	2813.21
2508.439	2844.75
2511.589	2754.12
2514.738	2775.92
2517.887	2810.76
2521.035	2905.08
2524.183	2899.43
2527.331	2876.74
2530.479	2835.5
2533.627	2853.6
