Data from C_3_HIR_WI_4N_Splice17_13-10-40-143.txt Node
Date: Sat Mar 14 13:10:40 EDT 2020
User: sa697716
Spectrometer: FLMS03696
Trigger mode: 0
Integration Time (sec): 3.180400E-1
Scans to average: 20
Electric dark correction enabled: true
Nonlinearity correction enabled: true
Boxcar width: 5
XAxis mode: Wavelengths
Number of Pixels in Spectrum: 2048
>>>>>Begin Spectral Data<<<<<
187.83	-282382.01
188.298	2108.42
188.766	1121.61
189.233	993.18
189.701	1393.32
190.169	1926.08
190.636	704.73
191.104	613.18
191.571	104.92
192.039	-65.78
192.506	-59.51
192.974	513.25
193.441	-760.77
193.908	-184.02
194.375	-60.74
194.842	-21.1
195.31	14
195.777	105.81
196.244	349.04
196.711	436.78
197.177	565.21
197.644	806.59
198.111	1403.59
198.578	1975.8
199.045	1575.24
199.511	2603.79
199.978	3037.91
200.445	2599.7
200.911	2890.17
201.378	3211.85
201.844	2909.8
202.31	4953.52
202.777	5195.23
203.243	2880.73
203.709	2720.23
204.176	3235.49
204.642	2647.41
205.108	2465.18
205.574	1991.22
206.04	1816.45
206.506	1703.13
206.972	1607.52
207.438	1557.36
207.903	1761.16
208.369	1544.23
208.835	1569.32
209.301	1652.51
209.766	1689.03
210.232	1683.95
210.697	2090.75
211.163	2557.56
211.628	3855.05
212.094	3233.41
212.559	3973.76
213.024	2475.36
213.49	3029.22
213.955	2936.4
214.42	2864.39
214.885	2675.98
215.35	2566.48
215.815	2483.39
216.28	2651.43
216.745	2158.61
217.21	2353.79
217.675	2165.24
218.14	2451.23
218.604	2758.85
219.069	3161.23
219.534	3338.65
219.998	3900.58
220.463	4741.01
220.927	5843.03
221.392	5506.05
221.856	5588.29
222.32	7037.32
222.785	8721.36
223.249	10980.51
223.713	12233.09
224.177	12240.54
224.642	15694.7
225.106	19322.95
225.57	21112.12
226.034	15719.49
226.497	23909.01
226.961	21585.15
227.425	25126.7
227.889	27833.2
228.353	27838.39
228.816	57426.13
229.28	54836.18
229.744	46171.89
230.207	28037.83
230.671	27564.69
231.134	45558.49
231.597	52624.41
232.061	52568.97
232.524	51193.65
232.987	35233.17
233.45	31653.86
233.914	28387.3
234.377	29067.1
234.84	26593.09
235.303	31320.56
235.766	34922.96
236.229	36054.01
236.691	22657.35
237.154	25421.68
237.617	19127.83
238.08	19571.72
238.542	22908.43
239.005	16350.91
239.468	16226.64
239.93	15295.99
240.393	13891.17
240.855	12185.65
241.317	12480.5
241.78	15180.45
242.242	15711.14
242.704	16955.84
243.166	14747.17
243.629	13393.41
244.091	15444.16
244.553	16912.82
245.015	18156.13
245.477	23464.22
245.939	34405.4
246.4	36436.2
246.862	35390.69
247.324	33349.34
247.786	37326.46
248.247	48961.44
248.709	50509.49
249.17	37772.32
249.632	35627.11
250.093	41313.09
250.555	35666.73
251.016	21754.3
251.477	20643.27
251.939	22283.78
252.4	23363.11
252.861	27733.1
253.322	25772.81
253.783	30655.14
254.244	39676.62
254.705	31239.45
255.166	27765.66
255.627	27348.34
256.088	38541.45
256.549	40945.46
257.009	35253.46
257.47	42723.74
257.931	34795.91
258.391	26099.79
258.852	26912.16
259.312	28214.44
259.773	34863.99
260.233	29444.04
260.694	24848.21
261.154	28178.31
261.614	22633.22
262.074	20208.8
262.534	21004.7
262.994	19802.58
263.455	26379.81
263.915	22215.54
264.374	20954.26
264.834	22884.84
265.294	25373.87
265.754	26278.37
266.214	24873.85
266.673	23264.61
267.133	29387.21
267.593	29168.04
268.052	35720.3
268.512	31026.07
268.971	37410.44
269.431	40976.07
269.89	36653.55
270.349	54925.45
270.809	61226.36
271.268	54999.54
271.727	123446.29
272.186	79917.39
272.645	59901.73
273.104	43139.07
273.563	62453.95
274.022	49136.59
274.481	41790.75
274.94	32185.3
275.399	23910.14
275.857	27801.37
276.316	37577.87
276.775	33402.98
277.233	32881.82
277.692	30770.28
278.15	34816.15
278.609	35764.79
279.067	33036.69
279.525	30677.49
279.984	39610.77
280.442	47563.38
280.9	46897.29
281.358	30833.86
281.816	28729.59
282.274	28116.31
282.732	29009.23
283.19	29129.56
283.648	25160.28
284.106	26782.58
284.564	27212.02
285.021	25185.35
285.479	18742.81
285.937	17012.8
286.394	14928.69
286.852	15340.75
287.309	16103.53
287.767	15558.87
288.224	14785.15
288.682	16225.41
289.139	17812.06
289.596	16302.46
290.053	16960.11
290.511	21411.59
290.968	25996.05
291.425	35263.54
291.882	29368.87
292.339	25572.74
292.796	25354.36
293.252	23879.85
293.709	18939.77
294.166	16959.68
294.623	18729.72
295.079	17947.31
295.536	18022.74
295.992	16353.8
296.449	16151.19
296.905	16763.93
297.362	16045.57
297.818	16856.26
298.274	17480.59
298.731	17801.49
299.187	17600.19
299.643	18870.38
300.099	22808.84
300.555	25006.06
301.011	20870.99
301.467	20130.79
301.923	23547.48
302.379	23010.05
302.835	22616.97
303.291	22621.15
303.746	25732.94
304.202	32512.46
304.658	32651.95
305.113	21945.59
305.569	21482.28
306.024	22885.74
306.479	21769.75
306.935	18355.87
307.39	20030.96
307.845	18485.72
308.301	18606.83
308.756	18141.03
309.211	17474.83
309.666	17899.98
310.121	22206.59
310.576	22519.81
311.031	22328.95
311.486	25535.87
311.94	25491.72
312.395	34074.17
312.85	63987.91
313.305	314083.39
313.759	1626064.75
314.214	117807.06
314.668	93434.54
315.123	78600.32
315.577	28226.5
316.032	25106.02
316.486	31466.45
316.94	24858.2
317.394	17291.15
317.849	13444.03
318.303	12723.31
318.757	12000.45
319.211	13273.31
319.665	11604.73
320.119	11755.22
320.572	16828.51
321.026	15736.76
321.48	13091.07
321.934	14247.42
322.387	14274.99
322.841	15392.31
323.295	13855.95
323.748	15935.25
324.202	16145.83
324.655	19409.4
325.108	27081.42
325.562	19129.71
326.015	22718.43
326.468	17178.89
326.921	19217.77
327.374	17930.9
327.827	18688.54
328.28	21118.38
328.733	14168.56
329.186	12439.65
329.639	11846.71
330.092	9981.12
330.545	9515.04
330.997	9594.54
331.45	10491.2
331.903	12318.74
332.355	21202.04
332.808	20617.81
333.26	17010.66
333.713	18436.36
334.165	18575.58
334.617	24763.8
335.069	20000.41
335.522	36111.87
335.974	39973.33
336.426	36481.93
336.878	25180.27
337.33	12750.57
337.782	12434.39
338.234	15590.47
338.686	18683.2
339.137	22166.71
339.589	20861.2
340.041	16383.29
340.493	14079.47
340.944	14423.71
341.396	15539.8
341.847	13096.62
342.299	15467.93
342.75	18910.12
343.201	16513.81
343.653	18953.31
344.104	23252.06
344.555	18294.11
345.006	28461.79
345.457	21829.4
345.908	17318.81
346.359	16266.87
346.81	13247.11
347.261	13951.81
347.712	13707.95
348.163	14675.01
348.613	14894.87
349.064	13908.83
349.515	12188.41
349.965	12493.76
350.416	15011.03
350.866	16465.02
351.317	18635.06
351.767	30827.68
352.217	38916.7
352.668	32278.05
353.118	29540.1
353.568	28391.14
354.018	22429.17
354.468	23641.62
354.918	16945.48
355.368	14834.72
355.818	20970.13
356.268	60327.66
356.718	252422.84
357.168	62838.81
357.617	31576.73
358.067	35190.68
358.517	32958.18
358.966	38641.72
359.416	43406.01
359.865	46910.72
360.315	56004.31
360.764	26171.95
361.213	14690.07
361.663	13903.53
362.112	17162.52
362.561	27698.06
363.01	20852.54
363.459	17536.98
363.908	18999.53
364.357	16168.87
364.806	27306.59
365.255	18730.25
365.703	17150.55
366.152	17141.6
366.601	13860.25
367.05	11260.96
367.498	10224.74
367.947	10702.7
368.395	11151.29
368.844	9876.14
369.292	11825.65
369.74	8174.55
370.189	12499.73
370.637	14637.64
371.085	12621.14
371.533	15400.22
371.981	14803.45
372.429	14125.22
372.877	14672.83
373.325	12249.69
373.773	12454.14
374.221	11089.17
374.669	13722.42
375.116	11852.68
375.564	11936.84
376.012	13325.39
376.459	10985.33
376.907	13102.66
377.354	15796.65
377.801	14751.34
378.249	16952.39
378.696	21625.52
379.143	26224.79
379.591	27909.45
380.038	47153.49
380.485	34071.79
380.932	36769.48
381.379	33622.83
381.826	24801.86
382.273	17628.22
382.72	15357.14
383.166	14971.89
383.613	9717.67
384.06	8762.38
384.506	10157.11
384.953	7459.32
385.4	7493.88
385.846	6559.07
386.292	6375.47
386.739	6227.81
387.185	6140.07
387.631	6148.77
388.078	5958.05
388.524	6375.36
388.97	5873.57
389.416	4898.06
389.862	5204.02
390.308	4923.84
390.754	4997.49
391.2	5416.81
391.645	5535.19
392.091	5317.45
392.537	5144.72
392.983	5145.13
393.428	5071.37
393.874	5438.5
394.319	5454.17
394.765	5180.64
395.21	5321.02
395.655	4981.79
396.101	4672.24
396.546	4219.61
396.991	4255.71
397.436	3951.26
397.881	3822.23
398.326	3601.71
398.771	3415.12
399.216	2986.16
399.661	2686.48
400.106	2683.89
400.551	2757.12
400.995	2475.03
401.44	2447.26
401.885	2298.61
402.329	2321.68
402.774	2224.81
403.218	2161.78
403.663	2074.2
404.107	2130.86
404.551	2148.67
404.995	1968.5
405.44	1893.99
405.884	1920.95
406.328	1860.21
406.772	1850.84
407.216	1685.1
407.66	1628.87
408.104	1546.71
408.547	1446.63
408.991	1400.57
409.435	1347.55
409.879	1330.43
410.322	1311.88
410.766	1268.18
411.209	1203.96
411.653	1155.82
412.096	1134.63
412.54	1135.92
412.983	1128.21
413.426	1137.46
413.869	1134.17
414.312	1112.01
414.756	1071.96
415.199	1022.23
415.642	993.13
416.085	997.72
416.527	990.71
416.97	1005.09
417.413	954.47
417.856	943.74
418.298	932.22
418.741	926.22
419.184	922.89
419.626	959.93
420.069	960.84
420.511	966.56
420.953	945.31
421.396	937.33
421.838	910.84
422.28	932.13
422.722	937.12
423.164	947.73
423.606	934.23
424.048	934.14
424.49	889.77
424.932	885.92
425.374	870.21
425.816	886.15
426.258	904.59
426.699	916.14
427.141	905.25
427.582	918.36
428.024	913.07
428.465	904.42
428.907	881.98
429.348	868.12
429.789	868.73
430.231	854.75
430.672	864.31
431.113	843.76
431.554	831.58
431.995	808.29
432.436	781.07
432.877	766.82
433.318	757.2
433.759	750.88
434.2	751.6
434.64	743.08
435.081	744.56
435.522	706.56
435.962	680.56
436.403	666.3
436.843	674.28
437.284	658.76
437.724	640.18
438.164	639.21
438.604	627.83
439.045	606.74
439.485	582.86
439.925	569.64
440.365	555.45
440.805	547.9
441.245	541.77
441.685	523.6
442.125	519.23
442.564	522.66
443.004	511.95
443.444	510.05
443.883	509.41
444.323	503.04
444.762	503.34
445.202	509.97
445.641	519.73
446.081	515.59
446.52	518.47
446.959	513.52
447.398	501.47
447.837	495.58
448.276	488.5
448.716	493.63
449.154	498.7
449.593	488.35
450.032	485.9
450.471	475.61
450.91	475.21
451.349	476.31
451.787	474.74
452.226	481.17
452.664	480.99
453.103	480.27
453.541	479.21
453.98	481.07
454.418	484.39
454.856	477.78
455.295	476.75
455.733	481.91
456.171	482.97
456.609	482.02
457.047	481.82
457.485	490.43
457.923	492.39
458.361	485.63
458.798	485.29
459.236	483.46
459.674	485.43
460.111	487.17
460.549	482.01
460.987	478.92
461.424	477.39
461.862	475.07
462.299	466.29
462.736	464.55
463.173	466
463.611	462.4
464.048	461.09
464.485	465.83
464.922	461.7
465.359	457.53
465.796	456.69
466.233	454.85
466.67	452.26
467.106	451.54
467.543	446.78
467.98	439.9
468.416	427.54
468.853	423.71
469.29	410
469.726	404.87
470.162	395.21
470.599	385.54
471.035	380.54
471.471	370.12
471.907	366.47
472.344	365.14
472.78	367.55
473.216	372.08
473.652	368.09
474.088	366.87
474.523	366.84
474.959	370.51
475.395	367.31
475.831	366.17
476.266	367.53
476.702	366.59
477.138	362.23
477.573	360.89
478.008	360.03
478.444	362.28
478.879	366.14
479.314	367.34
479.75	366.53
480.185	368.26
480.62	370.46
481.055	372.73
481.49	376.02
481.925	381.62
482.36	388.98
482.795	398.61
483.229	408.11
483.664	416.21
484.099	417.91
484.534	424.59
484.968	428.06
485.403	429.37
485.837	428.23
486.271	427.75
486.706	428.29
487.14	422.63
487.574	416.34
488.009	412.47
488.443	409.24
488.877	414.41
489.311	415.39
489.745	421.65
490.179	426.36
490.613	435.49
491.046	438.69
491.48	442.14
491.914	442.93
492.348	446.73
492.781	450.76
493.215	452.61
493.648	453.81
494.082	457.78
494.515	458.66
494.948	465.87
495.382	469.01
495.815	473.9
496.248	478
496.681	487.97
497.114	496.02
497.547	504.24
497.98	515.66
498.413	522.05
498.846	531.72
499.279	539.49
499.711	543.72
500.144	548.31
500.577	558.25
501.009	568.67
501.442	578.25
501.874	582.69
502.306	586.62
502.739	595.4
503.171	607.81
503.603	612.64
504.036	622.65
504.468	629.58
504.9	640.53
505.332	647.43
505.764	654.94
506.196	664.01
506.627	678.38
507.059	691.64
507.491	700.98
507.923	704.12
508.354	719.81
508.786	732.03
509.217	749.87
509.649	764.92
510.08	784.2
510.512	800.96
510.943	815.82
511.374	829.23
511.805	849.5
512.237	868.91
512.668	898.68
513.099	924.19
513.53	950.34
513.961	972.8
514.391	1003.74
514.822	1035.44
515.253	1070.55
515.684	1096.42
516.114	1125.68
516.545	1148.61
516.975	1175.72
517.406	1195.32
517.836	1201.82
518.267	1211.9
518.697	1230.27
519.127	1238.84
519.558	1249.04
519.988	1256.12
520.418	1270.28
520.848	1289.14
521.278	1300.59
521.708	1327.07
522.138	1342.64
522.567	1374.47
522.997	1400.45
523.427	1417.57
523.857	1435.95
524.286	1449.6
524.716	1465.35
525.145	1485.22
525.575	1498.15
526.004	1514.32
526.433	1504.89
526.863	1507.87
527.292	1501.72
527.721	1509.65
528.15	1518.63
528.579	1521.93
529.008	1532.53
529.437	1555.75
529.866	1570.15
530.295	1588.47
530.724	1602.27
531.152	1629.28
531.581	1644.2
532.01	1662.15
532.438	1670.8
532.867	1685.22
533.295	1702.91
533.723	1710.48
534.152	1709.41
534.58	1710.78
535.008	1696.53
535.436	1698.98
535.865	1706.54
536.293	1720.57
536.721	1733.96
537.149	1758.27
537.576	1761.71
538.004	1773.87
538.432	1781.12
538.86	1780.26
539.287	1786.26
539.715	1799.05
540.143	1800.85
540.57	1797.63
540.998	1792.47
541.425	1773.59
541.852	1755.51
542.28	1753.94
542.707	1739.66
543.134	1728.28
543.561	1723.93
543.988	1717.78
544.415	1717.37
544.842	1713.51
545.269	1706.57
545.696	1710.6
546.123	1722.31
546.549	1711.98
546.976	1699.58
547.403	1699.85
547.829	1701.64
548.256	1705.64
548.682	1702.31
549.108	1696.75
549.535	1697.51
549.961	1700.49
550.387	1688.54
550.813	1684.09
551.24	1691.1
551.666	1692.38
552.092	1683.57
552.518	1677.87
552.943	1671.5
553.369	1678.93
553.795	1684.24
554.221	1684.01
554.646	1680.78
555.072	1690.48
555.498	1695.44
555.923	1703.66
556.349	1718.77
556.774	1726.38
557.199	1728
557.625	1734.03
558.05	1728.64
558.475	1737.86
558.9	1737.47
559.325	1730.24
559.75	1724
560.175	1717.3
560.6	1710.26
561.025	1707.07
561.449	1708.12
561.874	1712.29
562.299	1716.19
562.723	1721.8
563.148	1712.12
563.572	1714.52
563.997	1722.63
564.421	1726.01
564.846	1724.16
565.27	1726.98
565.694	1723.02
566.118	1731.23
566.542	1735.7
566.966	1726.82
567.39	1719.2
567.814	1707.3
568.238	1703.86
568.662	1705.9
569.086	1706.22
569.509	1711.21
569.933	1694.45
570.357	1685.13
570.78	1664.16
571.204	1650.93
571.627	1638.34
572.05	1635.01
572.474	1632.07
572.897	1618.64
573.32	1609.29
573.743	1598.42
574.166	1579.76
574.589	1578.02
575.012	1569.6
575.435	1566.52
575.858	1556.22
576.281	1545.23
576.704	1530.21
577.126	1517.8
577.549	1506.76
577.972	1497.23
578.394	1486.82
578.817	1480.02
579.239	1461.71
579.661	1448.3
580.084	1433.35
580.506	1420.03
580.928	1414.27
581.35	1403.8
581.772	1398.07
582.194	1385.65
582.616	1372.6
583.038	1358.03
583.46	1346.79
583.882	1342.99
584.303	1346.01
584.725	1341.25
585.147	1343.72
585.568	1353.28
585.99	1363.17
586.411	1368.37
586.833	1380.99
587.254	1381.53
587.675	1393.69
588.096	1404
588.518	1397.15
588.939	1380.67
589.36	1377.71
589.781	1365.89
590.202	1340.16
590.623	1330.88
591.043	1328.37
591.464	1315.38
591.885	1311.75
592.305	1307.09
592.726	1294.59
593.147	1296.56
593.567	1292.75
593.987	1285.58
594.408	1280.98
594.828	1279.01
595.248	1273.64
595.669	1256.76
596.089	1250.37
596.509	1243.24
596.929	1229.91
597.349	1230.75
597.769	1220.69
598.189	1214.69
598.608	1214.66
599.028	1215.81
599.448	1215.74
599.867	1204.07
600.287	1199.73
600.706	1196.25
601.126	1188.36
601.545	1186.98
601.965	1184.46
602.384	1178.86
602.803	1180.03
603.222	1175.71
603.641	1168.69
604.061	1163.57
604.48	1159.25
604.898	1164.96
605.317	1168.08
605.736	1168
606.155	1164.71
606.574	1155.68
606.992	1159.97
607.411	1155.03
607.829	1147.18
608.248	1143.23
608.666	1140.18
609.085	1137.59
609.503	1129.66
609.921	1122.88
610.339	1123.99
610.758	1121.35
611.176	1116
611.594	1106.76
612.012	1101.92
612.43	1103.03
612.847	1106.35
613.265	1105.78
613.683	1107.84
614.101	1107.12
614.518	1102.45
614.936	1092.82
615.353	1079.73
615.771	1076.15
616.188	1075.3
616.606	1071.76
617.023	1065.15
617.44	1052.49
617.857	1045.61
618.274	1037.91
618.691	1032.02
619.108	1022.99
619.525	1016.03
619.942	1020.54
620.359	1020.8
620.776	1015.06
621.192	1010.87
621.609	1006.67
622.026	1011.46
622.442	1015.2
622.859	1016.94
623.275	1010.6
623.691	1014.48
624.108	1022.91
624.524	1033.52
624.94	1033.63
625.356	1041.5
625.772	1050.46
626.188	1059.43
626.604	1059.95
627.02	1057.11
627.436	1055.08
627.852	1060.25
628.268	1069.3
628.683	1061.87
629.099	1054.48
629.514	1049.63
629.93	1051.49
630.345	1054.68
630.761	1051.34
631.176	1053.36
631.591	1048.07
632.007	1043.1
632.422	1039.82
632.837	1030.08
633.252	1027.76
633.667	1018.66
634.082	1010.61
634.497	1000.74
634.911	985.24
635.326	981
635.741	965.98
636.155	955.87
636.57	956.1
636.984	954.94
637.399	953.98
637.813	951.07
638.228	948.03
638.642	949.25
639.056	937.58
639.47	934.93
639.884	926.95
640.298	920.05
640.712	916.59
641.126	903.23
641.54	894.04
641.954	886.97
642.368	875.67
642.781	867.85
643.195	851.8
643.609	849.93
644.022	843.6
644.436	837.44
644.849	825.84
645.262	815.44
645.676	814.26
646.089	807.81
646.502	796.05
646.915	789.87
647.328	775.26
647.741	772.86
648.154	762.75
648.567	759.22
648.98	747.01
649.393	745.4
649.805	741.64
650.218	734.27
650.631	721.32
651.043	715.24
651.456	709.99
651.868	709.06
652.28	719.14
652.693	726.84
653.105	728.92
653.517	735.22
653.929	735.4
654.341	737.25
654.753	728.47
655.165	732.01
655.577	728.72
655.989	723.83
656.401	715.63
656.813	689.73
657.224	672.3
657.636	650.69
658.047	636.73
658.459	620.39
658.87	611.43
659.282	600.62
659.693	584.59
660.104	572.56
660.515	560.29
660.926	556.28
661.338	551.09
661.749	545.98
662.159	538.67
662.57	533.56
662.981	529.43
663.392	522.97
663.803	524.47
664.213	521.59
664.624	517.22
665.035	518.67
665.445	509.44
665.855	504.63
666.266	498.95
666.676	495.42
667.086	489.08
667.497	487.25
667.907	482.22
668.317	474.37
668.727	473.46
669.137	472.51
669.547	469.84
669.956	471.34
670.366	471.58
670.776	472.65
671.186	474.89
671.595	478.19
672.005	479.98
672.414	481.01
672.824	481.96
673.233	482.62
673.642	486.01
674.052	490.31
674.461	493.28
674.87	497.15
675.279	496.21
675.688	497.1
676.097	498.45
676.506	497.72
676.915	506.97
677.323	508.39
677.732	508.48
678.141	508.9
678.549	502.18
678.958	501.84
679.366	501.74
679.775	504.88
680.183	514.71
680.592	519.53
681	525.35
681.408	522.28
681.816	529.77
682.224	536.53
682.632	544.93
683.04	566.69
683.448	585.08
683.856	609.36
684.264	636.46
684.671	661.11
685.079	690.89
685.487	725.02
685.894	772.41
686.302	810.36
686.709	845.21
687.116	885.53
687.524	920.64
687.931	951.95
688.338	979.1
688.745	1004.56
689.152	1033.08
689.559	1069.75
689.966	1107.23
690.373	1130.13
690.78	1169.29
691.187	1223.3
691.593	1267.35
692	1305.67
692.407	1359.87
692.813	1428.96
693.22	1484.34
693.626	1542.06
694.032	1591.96
694.439	1662.12
694.845	1718.5
695.251	1789.46
695.657	1854.13
696.063	1946.09
696.469	2019.4
696.875	2089.02
697.281	2132.1
697.687	2181.95
698.093	2226.61
698.498	2302.23
698.904	2362.74
699.31	2449.83
699.715	2513.53
700.12	2604.27
700.526	2630.14
700.931	2699.53
701.337	2754.98
701.742	2793.58
702.147	2878.21
702.552	2915.2
702.957	2977.73
703.362	3004.57
703.767	3039.09
704.172	3084.78
704.577	3050.84
704.981	3101.21
705.386	3125.43
705.791	3127.42
706.195	3204.98
706.6	3222.56
707.004	3303.94
707.408	3281.28
707.813	3314.27
708.217	3308.71
708.621	3316.94
709.025	3414.07
709.43	3423.47
709.834	3486.68
710.237	3558.42
710.641	3548.52
711.045	3575.33
711.449	3573.77
711.853	3608.87
712.256	3654.65
712.66	3696.52
713.064	3774.74
713.467	3821.9
713.87	3934.55
714.274	3985.33
714.677	4098.04
715.08	4260.92
715.484	4433.08
715.887	4638.86
716.29	4838.8
716.693	5048.72
717.096	5292.38
717.499	5428.77
717.901	5459.09
718.304	5491.19
718.707	5521.84
719.109	5427.12
719.512	5401.59
719.915	5271.23
720.317	5219.74
720.719	5267.2
721.122	5241.85
721.524	5197.37
721.926	5160.14
722.328	5263.03
722.731	5258.05
723.133	5291.11
723.535	5484.24
723.937	5508.64
724.338	5564.68
724.74	5606.12
725.142	5552.39
725.544	5552.92
725.945	5583.01
726.347	5580.84
726.748	5578.27
727.15	5595.56
727.551	5560.16
727.952	5535.15
728.354	5509.74
728.755	5509.92
729.156	5472.13
729.557	5456.57
729.958	5338.68
730.359	5283.46
730.76	5268.64
731.161	5210.83
731.562	5190.09
731.962	5194.91
732.363	5134
732.763	5071.41
733.164	5110.39
733.564	5045.37
733.965	4951.93
734.365	4920.32
734.766	4952.76
735.166	4916.22
735.566	4859.05
735.966	4829.81
736.366	4823.55
736.766	4761.95
737.166	4795.96
737.566	4753.27
737.966	4729.08
738.365	4767.83
738.765	4762.87
739.165	4685.83
739.564	4658.45
739.964	4706.26
740.363	4663.86
740.763	4662.25
741.162	4652.38
741.561	4620.21
741.96	4577.04
742.36	4597.41
742.759	4603.03
743.158	4639.91
743.557	4656.17
743.955	4697.93
744.354	4653.78
744.753	4710.9
745.152	4673.17
745.55	4728.32
745.949	4722.37
746.348	4725.65
746.746	4742.4
747.144	4705.36
747.543	4683.69
747.941	4730.42
748.339	4660.24
748.737	4654.44
749.136	4647.01
749.534	4711.7
749.932	4683.63
750.33	4707.33
750.727	4762.37
751.125	4739.12
751.523	4725.19
751.921	4770.79
752.318	4739.93
752.716	4800.23
753.113	4812.26
753.511	4836.27
753.908	4836.78
754.305	4820.83
754.703	4881.35
755.1	4942.75
755.497	5002.76
755.894	5190.02
756.291	5366.95
756.688	5695.45
757.085	6131.65
757.482	6743.85
757.878	7412.03
758.275	8016.69
758.672	8849.38
759.068	9528.33
759.465	10493.44
759.861	11744.59
760.258	13191.48
760.654	13941.28
761.05	13820.19
761.447	13188.02
761.843	12280.3
762.239	11344.8
762.635	10917.79
763.031	10509.22
763.427	9920.15
763.822	9305.05
764.218	8693.32
764.614	7902.09
765.01	7368.6
765.405	7028.1
765.801	6766.35
766.196	6439.16
766.592	6253.95
766.987	5942.71
767.382	5729.39
767.778	5642.55
768.173	5512.75
768.568	5440.23
768.963	5315.86
769.358	5336.62
769.753	5291.97
770.148	5209.08
770.542	5204.85
770.937	5171.85
771.332	5259.78
771.726	5281.12
772.121	5217.7
772.515	5272.33
772.91	5260.22
773.304	5330.3
773.699	5263.18
774.093	5316.16
774.487	5368.05
774.881	5413.21
775.275	5412.04
775.669	5371.27
776.063	5413.39
776.457	5451.48
776.851	5377.35
777.245	5366.78
777.638	5402.35
778.032	5516.55
778.425	5481.53
778.819	5526.7
779.212	5483.6
779.606	5444.23
779.999	5463.78
780.392	5450.45
780.786	5530.13
781.179	5549.57
781.572	5592.48
781.965	5603.89
782.358	5548.65
782.751	5604.09
783.143	5557.66
783.536	5629.56
783.929	5671.16
784.322	5784.13
784.714	5812.94
785.107	5807.55
785.499	5882.04
785.891	5862.55
786.284	5842.8
786.676	5984.34
787.068	5965
787.46	6016.32
787.852	6036.29
788.245	6122.3
788.636	6151.69
789.028	6221.61
789.42	6260.76
789.812	6268.05
790.204	6360.86
790.595	6459.38
790.987	6261.59
791.378	6284.41
791.77	6414.14
792.161	6546.92
792.553	6602.19
792.944	6494.08
793.335	6426.71
793.726	6503.67
794.117	6595.85
794.508	6734.92
794.899	6710.55
795.29	6851.43
795.681	6906.8
796.072	6762.77
796.463	6581.99
796.853	6593.48
797.244	6750.95
797.634	6780.38
798.025	6776.53
798.415	6781.71
798.806	6871.86
799.196	6951.74
799.586	7002.37
799.976	6968.3
800.366	7200.2
800.756	7441.92
801.146	7401.33
801.536	7430.59
801.926	7508.36
802.316	7536.67
802.706	7612.63
803.095	7485.61
803.485	7591.04
803.874	7633.52
804.264	7891.8
804.653	7869.3
805.043	8014.98
805.432	8122.4
805.821	8128.17
806.21	8153.36
806.599	8276.08
806.988	8325.22
807.377	8437.38
807.766	8566.35
808.155	8853.16
808.544	8597.23
808.933	8611.62
809.321	8592.58
809.71	8891.5
810.098	9052.69
810.487	9511.87
810.875	9992.37
811.264	10013.84
811.652	10309.74
812.04	10460.03
812.428	10626.01
812.816	11388
813.204	11804.83
813.592	12352.76
813.98	12696.65
814.368	12600.91
814.756	13080.63
815.144	12994.44
815.531	13469.55
815.919	13388.71
816.306	13693.63
816.694	13387.32
817.081	13438.51
817.469	13790.75
817.856	13790.73
818.243	14058.11
818.63	14454.91
819.017	14044.52
819.404	14114.66
819.791	14494.02
820.178	15114.72
820.565	15365.42
820.952	16297.09
821.339	15802.99
821.725	15983.45
822.112	15250.06
822.498	15210.36
822.885	15333.78
823.271	15234.35
823.657	15654.33
824.044	15664.38
824.43	15738.88
824.816	15709.73
825.202	15273.07
825.588	16291.1
825.974	16309.7
826.36	16825.55
826.746	16852.21
827.132	17211.8
827.517	17187.52
827.903	16404.84
828.289	16432.11
828.674	15652.63
829.06	15546.53
829.445	15934.93
829.83	16292.43
830.216	16769.3
830.601	17126.81
830.986	16717.5
831.371	16588.79
831.756	17148.25
832.141	16712.62
832.526	16703.49
832.911	16976.64
833.295	16853.92
833.68	17322.08
834.065	16698.96
834.449	15781.01
834.834	15699.81
835.218	15702.34
835.603	16030.04
835.987	15803.58
836.371	16633.04
836.755	16521.46
837.139	16923.03
837.524	17166.03
837.908	16989.61
838.291	17043.81
838.675	17107.73
839.059	17313.43
839.443	17292.68
839.827	17059.62
840.21	17545.76
840.594	17390.21
840.977	17600.97
841.361	17576.28
841.744	17951.95
842.127	17793.64
842.511	18049.05
842.894	18643.25
843.277	19018.71
843.66	19560.29
844.043	19642.85
844.426	18837.91
844.809	18530.5
845.191	18569.58
845.574	18111.9
845.957	17742.87
846.339	17634.35
846.722	17102.02
847.104	17169.67
847.487	17005.09
847.869	17014.41
848.252	17290.88
848.634	17614.12
849.016	17875.64
849.398	17994.54
849.78	18841.42
850.162	18853.28
850.544	19259.85
850.926	19883.79
851.307	19791.3
851.689	20064.97
852.071	20516.34
852.452	20836.01
852.834	20822.88
853.215	21217.27
853.597	21374.76
853.978	21660.78
854.359	22103.48
854.741	21125.81
855.122	21035.81
855.503	20748.82
855.884	20876.72
856.265	20810.45
856.646	20925.48
857.026	20529.28
857.407	20470.82
857.788	20631.07
858.169	20926.57
858.549	20084.68
858.93	20703.65
859.31	20743.81
859.69	20950.13
860.071	20557.12
860.451	20337.91
860.831	19612
861.211	20763.07
861.591	21302.51
861.971	21269.71
862.351	21455.04
862.731	21834.93
863.111	22091.11
863.491	22423.26
863.87	23302.15
864.25	23647.1
864.629	23254.17
865.009	23749.38
865.388	24590.06
865.768	26331.59
866.147	26225.66
866.526	24774.9
866.905	25074.27
867.284	26482.97
867.663	25140.13
868.042	24081.33
868.421	23994.19
868.8	24400.77
869.179	24648.64
869.558	23212.61
869.936	21403.25
870.315	21789.54
870.693	22313.8
871.072	24059.63
871.45	22926.27
871.828	23218.95
872.207	24420.84
872.585	24058.74
872.963	24718.59
873.341	23851.54
873.719	23575.06
874.097	23293.67
874.475	23721.81
874.853	24264.49
875.23	23256.49
875.608	24220.34
875.986	26213.61
876.363	25061.48
876.741	25824.04
877.118	25164.55
877.495	26415.37
877.873	26848.69
878.25	28262.12
878.627	27116.99
879.004	27500.56
879.381	27364.59
879.758	26653.26
880.135	24800.38
880.512	26231.91
880.889	25536.95
881.265	25275.59
881.642	25064.65
882.019	25487.03
882.395	24962.15
882.772	25945.01
883.148	24816.11
883.524	24725.37
883.901	24574.86
884.277	24946.1
884.653	24790.87
885.029	25501.42
885.405	28228.9
885.781	28000.09
886.157	26845.43
886.532	27170.55
886.908	27161.31
887.284	30199.68
887.659	31173.07
888.035	32140.38
888.411	32963.1
888.786	33385.32
889.161	34535.68
889.537	33894.04
889.912	34975.88
890.287	34943.64
890.662	35845.13
891.037	35198.73
891.412	32816.3
891.787	32486.57
892.162	31356.52
892.536	32078.52
892.911	30870.09
893.286	30223.15
893.66	29005.21
894.035	29745.65
894.409	32392.79
894.784	31083.76
895.158	31584.96
895.532	33466.49
895.906	34379
896.281	35165.59
896.655	34607.77
897.029	39536.5
897.402	41162.31
897.776	45813.34
898.15	45651.08
898.524	45133.57
898.898	45747.31
899.271	51247.39
899.645	44386.17
900.018	42623.79
900.392	44223.17
900.765	44572.56
901.138	41274.5
901.511	40656.44
901.884	37325.39
902.258	34422.67
902.631	35580.41
903.003	40919.62
903.376	36906.33
903.749	41370.4
904.122	44310.3
904.495	48774.03
904.867	49407.41
905.24	42850.84
905.612	39871.81
905.985	40785.95
906.357	42651.84
906.729	40705.98
907.102	34776.41
907.474	33431.09
907.846	33635.51
908.218	33165.96
908.59	29318.47
908.962	28352.98
909.334	30556.1
909.705	32109.83
910.077	31180.38
910.449	32454.63
910.82	33370.28
911.192	36733.07
911.563	38165.8
911.935	40860.04
912.306	40927.05
912.677	42262.66
913.048	41843.84
913.419	45392.63
913.79	45630.51
914.161	48955.61
914.532	46785.17
914.903	42983.78
915.274	40817.21
915.645	40230.96
916.015	35408.8
916.386	33771.01
916.756	35937.94
917.127	37067.27
917.497	33119.81
917.868	36066.01
918.238	34249
918.608	35241.29
918.978	35978.95
919.348	38108.05
919.718	39375.57
920.088	37923.99
920.458	39388.87
920.828	41443.54
921.198	39299.29
921.567	41974.25
921.937	32513.85
922.306	32823.72
922.676	35403.7
923.045	29533.67
923.415	28050.77
923.784	25567.52
924.153	26294.58
924.522	26274.18
924.891	24701.35
925.26	26445.47
925.629	25823.2
925.998	29687.02
926.367	28976.85
926.736	27592.47
927.104	32865.51
927.473	35325.27
927.842	42610.39
928.21	42174.71
928.578	44317.33
928.947	41926.57
929.315	42180.77
929.683	49481.66
930.051	49870.45
930.42	57952.2
930.788	49526.83
931.156	49166.43
931.523	46103.71
931.891	42598.21
932.259	40940.11
932.627	47444.94
932.994	67094.53
933.362	55484.83
933.729	48193.25
934.097	46085.38
934.464	38986.03
934.831	44988.43
935.199	44321.59
935.566	42961.65
935.933	43507.16
936.3	52626.62
936.667	40960.34
937.034	36940.11
937.401	36521.09
937.767	31507.21
938.134	28062.66
938.501	39554.36
938.867	42144.95
939.234	71264.57
939.6	60860.98
939.967	67151.01
940.333	44985.3
940.699	38335.22
941.065	30755.92
941.431	40360.55
941.798	38910.53
942.163	51170.79
942.529	31991.63
942.895	29491.19
943.261	19097.84
943.627	25019.61
943.992	21928.89
944.358	21971.19
944.723	22068.25
945.089	21566.1
945.454	19911.53
945.82	21287.66
946.185	20434.24
946.55	23629.92
946.915	21178.85
947.28	24807.53
947.645	21881.51
948.01	20199.66
948.375	21088.62
948.74	25275.17
949.104	29451.59
949.469	42586.98
949.834	75149.75
950.198	71264.39
950.562	42811.89
950.927	35697.74
951.291	43006.1
951.655	36603.46
952.02	34381.36
952.384	25988.35
952.748	22610.37
953.112	22043.84
953.476	19154.41
953.839	17717.27
954.203	17534.78
954.567	21918.42
954.931	34511.37
955.294	29537.31
955.658	29709.49
956.021	50499.48
956.385	85620.3
956.748	126442.6
957.111	196169.4
957.474	220048.9
957.837	247896.34
958.2	187578.88
958.563	67458
958.926	45598.51
959.289	69150.66
959.652	77139.61
960.015	57919.63
960.377	83083.69
960.74	94672.69
961.102	163180.21
961.465	175296.3
961.827	93809.09
962.189	179866.39
962.552	124622.75
962.914	99984.82
963.276	64834.96
963.638	53685.91
964	53105.14
964.362	35903.69
964.724	34753.18
965.085	24794.15
965.447	20321.08
965.809	23169.7
966.17	23211.45
966.532	25107.41
966.893	23009
967.255	20934.01
967.616	24673.29
967.977	19773.71
968.338	21594.83
968.699	17746.6
969.061	17741.53
969.421	17852.15
969.782	20029.29
970.143	16928.92
970.504	17552.68
970.865	19952.44
971.225	20425.52
971.586	19998.93
971.946	28502.02
972.307	24744.52
972.667	32310.62
973.027	33317.96
973.388	40386.35
973.748	27453.23
974.108	29887.21
974.468	40429.59
974.828	31203.38
975.188	24000.39
975.548	22053.27
975.907	18497.43
976.267	20726.54
976.627	17415.58
976.986	18046.51
977.346	17236.45
977.705	16592.38
978.064	15110.83
978.424	12571.89
978.783	12998.02
979.142	14817.53
979.501	14160.74
979.86	14978.38
980.219	14438.9
980.578	18613.09
980.937	20847.9
981.296	18554.47
981.654	19088.9
982.013	29703.39
982.371	38523.75
982.73	35937.19
983.088	40719.32
983.447	43576.74
983.805	62272.13
984.163	130178.14
984.521	144523.98
984.879	211729.06
985.237	-344558.24
985.595	332337.96
985.953	82451.55
986.311	47633.38
986.669	27653.66
987.026	23888.96
987.384	32065.21
987.741	33143.36
988.099	23675.17
988.456	18873.1
988.814	17669.96
989.171	15360.43
989.528	15144.58
989.885	15998.56
990.242	12673.85
990.599	15793.73
990.956	12906.29
991.313	9031.35
991.67	7424.42
992.027	7865.77
992.383	6998.9
992.74	6135.92
993.096	6431.12
993.453	6669.2
993.809	6922.13
994.165	9209.56
994.522	8439.34
994.878	9312.05
995.234	11680.5
995.59	11492.85
995.946	10887.94
996.302	12391.3
996.658	14339.26
997.013	15800.03
997.369	18713.54
997.725	23919.96
998.08	15530.57
998.436	23944.32
998.791	33017.61
999.147	32966.69
999.502	36019.14
999.857	26165.66
1000.212	42750.69
1000.567	60790.91
1000.922	35141.45
1001.277	22340.29
1001.632	16574.85
1001.987	21334.49
1002.342	15288.08
1002.696	12215.49
1003.051	9745.03
1003.406	11824.9
1003.76	11768.02
1004.114	11587.49
1004.469	9760.18
1004.823	8063.68
1005.177	8705.52
1005.531	6905.45
1005.885	6132.06
1006.239	6925.79
1006.593	8678.67
1006.947	11622.73
1007.301	8686.71
1007.655	9475.53
1008.008	6955.28
1008.362	7809.43
1008.715	11166.36
1009.069	10170.8
1009.422	15293.86
1009.776	30643.39
1010.129	20381.48
1010.482	17020.05
1010.835	14389.07
1011.188	30012.88
1011.541	28196.76
1011.894	-172518.45
1012.247	507759.27
1012.6	34488.26
1012.952	21718.07
1013.305	11200.54
1013.657	8083.58
1014.01	7634.52
1014.362	6319.57
1014.715	5616.74
1015.067	4887.33
1015.419	4785.04
1015.771	4225.16
1016.123	3760.57
1016.475	3864.9
1016.827	4108.77
1017.179	4430.57
1017.531	4454.27
1017.883	4559.02
1018.234	4387.94
1018.586	5539.07
1018.938	5872.18
1019.289	8113.47
1019.64	9312.52
1019.992	8648.74
1020.343	7955.86
1020.694	6300.75
1021.045	5564.85
1021.396	6354.25
1021.747	6799.32
1022.098	8184.57
1022.449	5941.71
1022.8	5513.08
1023.151	3837.84
1023.501	3409.52
1023.852	3724.65
1024.202	3844.77
1024.553	4216.24
1024.903	4115.76
1025.253	3525.46
1025.604	3166.44
1025.954	3933
1026.304	4808.2
1026.654	5625.33
1027.004	8239.64
1027.354	13306.78
1027.703	12503.01
1028.053	16477.35
1028.403	24266.06
1028.753	35093.69
1029.102	47665.3
1029.452	246280.94
1029.801	10606.24
1030.15	6829.48
1030.499	5768.57
897.758	2747.41
901.051	2707.06
904.343	2741.93
907.636	2743.46
910.928	2807.51
914.22	2715.66
917.511	2725.79
920.803	2787.96
924.094	2812.27
927.384	2786.01
930.675	2749.19
933.965	2702.23
937.255	2706.22
940.544	2674.69
943.834	2603.36
947.123	2550.66
950.411	2648.29
953.7	2620.21
956.988	2590.38
960.276	2530.19
963.563	2613.79
966.851	2607.59
970.138	2669.3
973.424	2663.81
976.711	2612.31
979.997	2758.6
983.283	2790.63
986.568	2691.59
989.853	2712.41
993.138	2739.54
996.423	2822.19
999.708	2757.44
1002.992	2829.55
1006.275	2650.11
1009.559	2703.01
1012.842	2820.59
1016.125	2750.84
1019.408	2728.81
1022.69	2820.78
1025.972	2834.81
1029.254	2808.34
1032.536	2735.94
1035.817	2765.09
1039.098	2703.64
1042.379	2865.22
1045.659	2857.84
1048.939	2788.15
1052.219	2812.69
1055.498	2828.39
1058.778	2810.58
1062.057	2797.39
1065.335	2818.59
1068.614	2840.55
1071.892	2821.94
1075.17	2901.69
1078.447	2885.95
1081.724	2878.25
1085.001	2918.37
1088.278	2887.48
1091.554	2902.27
1094.83	2900.03
1098.106	2927.12
1101.382	2974.04
1104.657	2974.04
1107.932	2970.52
1111.206	2933.73
1114.481	2891.26
1117.755	2893.03
1121.029	2869.45
1124.302	2923.99
1127.575	2873.19
1130.848	2859.37
1134.121	2818.49
1137.393	2765.96
1140.665	2832.32
1143.937	2805.55
1147.208	2765.73
1150.48	2805.21
1153.75	2790.85
1157.021	2825.65
1160.291	2794.66
1163.561	2838.79
1166.831	2830.81
1170.101	2862.81
1173.37	2839.38
1176.639	2781.71
1179.907	2844.3
1183.176	2849.04
1186.444	2856.19
1189.711	2884.66
1192.979	2898.88
1196.246	2854.55
1199.513	2870.6
1202.78	2868.32
1206.046	2877.39
1209.312	2903.13
1212.578	2932.71
1215.843	2881.32
1219.108	2853.11
1222.373	2877.33
1225.638	2840.73
1228.902	2820.39
1232.166	2787.25
1235.43	2768.66
1238.693	2791
1241.956	2792.42
1245.219	2829.79
1248.482	2821.66
1251.744	2815.03
1255.006	2974.36
1258.268	2930.98
1261.529	2870.81
1264.79	2880.23
1268.051	2982.82
1271.312	3004.91
1274.572	2967
1277.832	2951.68
1281.092	2945.61
1284.351	2915.15
1287.61	2892.38
1290.869	2805.05
1294.128	2776.29
1297.386	2873.1
1300.644	2860.63
1303.902	2875.12
1307.159	2727.51
1310.416	2784.23
1313.673	2811.57
1316.93	2791.67
1320.186	2840.54
1323.442	2888.17
1326.697	2870.98
1329.953	2865.17
1333.208	2885.88
1336.463	2867.23
1339.717	2802.97
1342.972	2944.48
1346.226	2918.16
1349.479	2846.73
1352.733	2817.94
1355.986	2843.81
1359.238	2817.27
1362.491	2818.83
1365.743	2823.68
1368.995	2818.78
1372.247	2831.11
1375.498	2858.24
1378.749	2868.14
1382	2822.63
1385.251	2881.22
1388.501	2842.4
1391.751	2821.99
1395	2795.89
1398.25	2831.12
1401.499	2834.72
1404.748	2757.88
1407.996	2749.27
1411.244	2733.45
1414.492	2712.52
1417.74	2693.27
1420.987	2702.09
1424.234	2760.3
1427.481	2743.3
1430.728	2800.47
1433.974	2774.7
1437.22	2792.12
1440.465	2793.87
1443.711	2752.7
1446.956	2791.23
1450.201	2780.64
1453.445	2825.7
1456.689	2804.2
1459.933	2815.25
1463.177	2849.39
1466.42	2820.2
1469.663	2799.3
1472.906	2791.4
1476.148	2877.74
1479.391	2828.26
1482.633	2797.4
1485.874	2808.35
1489.115	2791.74
1492.356	2800.9
1495.597	2774.57
1498.838	2777.96
1502.078	2745.74
1505.318	2692.27
1508.557	2736.33
1511.797	2702.67
1515.036	2786.95
1518.274	2778.53
1521.513	2749.7
1524.751	2773.09
1527.989	2783.06
1531.227	2800.19
1534.464	2788.99
1537.701	2812.25
1540.938	2830.41
1544.174	2785.05
1547.41	2785.56
1550.646	2823.52
1553.882	2855.82
1557.117	2913.79
1560.352	2929.98
1563.587	2886.56
1566.821	2841.85
1570.055	2883.12
1573.289	2849.85
1576.523	2932.08
1579.756	2936.78
1582.989	2956.34
1586.222	2915.41
1589.454	2956.59
1592.686	2926.71
1595.918	2950.63
1599.15	2937.79
1602.381	3020.38
1605.612	2968.07
1608.843	3068.12
1612.073	2978.21
1615.303	2963.17
1618.533	2950.52
1621.762	2957.26
1624.992	2945.25
1628.221	2929.59
1631.449	2916.4
1634.678	2974.88
1637.906	2925.65
1641.134	2966.69
1644.361	2922.51
1647.588	2910.02
1650.815	2922.91
1654.042	2905.61
1657.269	2933.37
1660.495	2880.15
1663.72	2893.35
1666.946	2857.66
1670.171	2795.85
1673.396	2770.58
1676.621	2760.94
1679.845	2783.84
1683.069	2806.89
1686.293	2853.55
1689.517	2821.78
1692.74	2747.51
1695.963	2781.18
1699.185	2804.72
1702.408	2776.76
1705.63	2824.96
1708.852	2835.04
1712.073	2807.57
1715.294	2789.3
1718.515	2852.36
1721.736	2798.11
1724.956	2793.22
1728.176	2821.56
1731.396	2843.12
1734.616	2831.11
1737.835	2859.71
1741.054	2836.99
1744.272	2829.3
1747.491	2861.07
1750.709	2921.13
1753.927	2817.88
1757.144	2865.49
1760.361	2907.32
1763.578	2902.51
1766.795	2839.16
1770.011	2850.22
1773.227	2896.51
1776.443	2928.72
1779.658	2977.62
1782.874	2917.65
1786.089	2893.71
1789.303	2897.62
1792.518	2903.13
1795.732	2888.51
1798.945	2898.49
1802.159	2949.62
1805.372	2843.91
1808.585	2825.42
1811.797	2828.43
1815.01	2882.27
1818.222	2880.49
1821.434	2841.71
1824.645	2904.68
1827.856	2885.09
1831.067	2922.75
1834.278	2879.09
1837.488	2867.11
1840.698	3023.26
1843.908	2941.51
1847.117	2905.52
1850.326	2777.6
1853.535	2892.58
1856.744	2927.17
1859.952	2838.78
1863.16	2840.05
1866.368	2865.4
1869.575	2969.7
1872.782	2850.17
1875.989	2788.24
1879.196	2881.27
1882.402	2871.81
1885.608	2916.42
1888.814	2808.99
1892.019	2702.99
1895.224	2755.18
1898.429	2739.3
1901.634	2714.26
1904.838	2691.89
1908.042	2744.4
1911.246	2749.09
1914.449	2672.92
1917.652	2671.41
1920.855	2654.01
1924.058	2708.44
1927.26	2743.58
1930.462	2771.5
1933.664	2798.97
1936.865	2730.78
1940.066	2736.59
1943.267	2682.18
1946.467	2702.06
1949.668	2731.28
1952.868	2797.56
1956.067	2772.89
1959.267	2700.2
1962.466	2728.63
1965.665	2715.26
1968.863	2705.89
1972.061	2729.24
1975.259	2730.35
1978.457	2808.77
1981.654	2765.92
1984.852	2766.2
1988.048	2697.52
1991.245	2701.51
1994.441	2790.94
1997.637	2779.62
2000.833	2760.89
2004.028	2803.72
2007.223	2855.45
2010.418	2828.83
2013.613	2794.31
2016.807	2759.6
2020.001	2766.19
2023.194	2813.87
2026.388	2792.56
2029.581	2736.3
2032.774	2783.45
2035.966	2789.44
2039.158	2716.05
2042.35	2743.9
2045.542	2671.75
2048.733	2774.77
2051.924	2803.72
2055.115	2836.2
2058.306	2776.08
2061.496	2834.86
2064.686	2902.52
2067.875	2816.87
2071.065	2831.31
2074.254	2862.01
2077.442	2813.02
2080.631	2906.49
2083.819	2789.69
2087.007	2773.2
2090.195	2737.22
2093.382	2776.02
2096.569	2754.01
2099.756	2707.18
2102.942	2729.68
2106.128	2735.48
2109.314	2724.87
2112.5	2685.15
2115.685	2659.16
2118.87	2672.22
2122.055	2732.39
2125.239	2700.2
2128.424	2674.21
2131.608	2784.93
2134.791	2761.14
2137.974	2825.17
2141.157	2809.37
2144.34	2759.48
2147.523	2777.38
2150.705	2791.97
2153.887	2771.27
2157.068	2719.11
2160.25	2724.59
2163.431	2763.71
2166.611	2702.56
2169.792	2724.18
2172.972	2611.57
2176.152	2694.39
2179.331	2731.85
2182.511	2710.84
2185.69	2740.63
2188.868	2733.54
2192.047	2792.34
2195.225	2778.69
2198.403	2726.73
2201.58	2724.62
2204.758	2716.1
2207.935	2803.83
2211.111	2688.68
2214.288	2669.45
2217.464	2711.56
2220.64	2683.01
2223.815	2741.72
2226.991	2660.32
2230.166	2680.91
2233.34	2708.99
2236.515	2737.22
2239.689	2814.92
2242.863	2755.59
2246.036	2809.57
2249.209	2815.46
2252.382	2851.89
2255.555	2837.94
2258.727	2769.94
2261.9	2814.87
2265.071	2804.62
2268.243	2807.32
2271.414	2731.48
2274.585	2689.49
2277.756	2757.22
2280.926	2716.37
2284.096	2756.59
2287.266	2657.97
2290.436	2719.13
2293.605	2747.4
2296.774	2774.59
2299.942	2799.66
2303.111	2815.82
2306.279	2868.37
2309.447	2853.21
2312.614	2829.07
2315.781	2846.19
2318.948	2814.29
2322.115	2856.36
2325.281	2752.84
2328.447	2778.39
2331.613	2753.12
2334.779	2723.22
2337.944	2729.88
2341.109	2723.19
2344.274	2706.65
2347.438	2671.07
2350.602	2698.25
2353.766	2718.72
2356.929	2701.95
2360.092	2745.83
2363.255	2693.65
2366.418	2619.41
2369.58	2742.34
2372.742	2511.91
2375.904	2530.54
2379.066	2503.64
2382.227	2546
2385.388	2505.75
2388.548	2423.58
2391.709	2484.02
2394.869	2459.95
2398.029	2567.87
2401.188	2584.54
2404.347	2513.95
2407.506	2667.51
2410.665	2695.13
2413.823	2703.93
2416.981	2654.3
2420.139	2689.11
2423.296	2742.81
2426.453	2715.71
2429.61	2741.42
2432.767	2668.35
2435.923	2706.14
2439.079	2666.33
2442.235	2716.66
2445.391	2641.02
2448.546	2668.77
2451.701	2719.66
2454.855	2689.12
2458.009	2746.34
2461.163	2751.01
2464.317	2708.01
2467.471	2741.86
2470.624	2785.4
2473.777	2754.18
2476.929	2768.21
2480.082	2797.87
2483.234	2760.8
2486.385	2715.51
2489.537	2706.15
2492.688	2663.94
2495.839	2678.49
2498.989	2689.91
2502.14	2674.1
2505.29	2651.79
2508.439	2682.13
2511.589	2601.55
2514.738	2614.26
2517.887	2645.49
2521.035	2709.13
2524.183	2696.09
2527.331	2673.29
2530.479	2644.66
2533.627	2656.75
