Data from C_3_DIV_OH_2N_Splice17_12-47-51-856.txt Node
Date: Sat Mar 14 12:47:51 EDT 2020
User: sa697716
Spectrometer: FLMS03696
Trigger mode: 0
Integration Time (sec): 3.180400E-1
Scans to average: 20
Electric dark correction enabled: true
Nonlinearity correction enabled: true
Boxcar width: 5
XAxis mode: Wavelengths
Number of Pixels in Spectrum: 2048
>>>>>Begin Spectral Data<<<<<
187.83	-364505.62
188.298	2551.32
188.766	1322.06
189.233	1210.09
189.701	1718.11
190.169	2343.03
190.636	843.72
191.104	678.24
191.571	64.26
192.039	-139.99
192.506	-215.91
192.974	269.95
193.441	-575.05
193.908	-156.31
194.375	-35.19
194.842	-16.51
195.31	40.78
195.777	138.1
196.244	334.72
196.711	279.71
197.177	316.35
197.644	387.65
198.111	685.73
198.578	949.88
199.045	761.74
199.511	1225.71
199.978	1433.56
200.445	1263.78
200.911	1376.82
201.378	1449.93
201.844	1328.32
202.31	2262.58
202.777	2391.33
203.243	1316.97
203.709	1267.22
204.176	1494.04
204.642	1250.5
205.108	1162.34
205.574	925.83
206.04	807.37
206.506	778.24
206.972	732.75
207.438	713.98
207.903	805.57
208.369	731.77
208.835	736.49
209.301	789.69
209.766	792.34
210.232	797.75
210.697	975.07
211.163	1214.86
211.628	1816.3
212.094	1549.36
212.559	1965.83
213.024	1234.27
213.49	1534.06
213.955	1495.76
214.42	1420.29
214.885	1346.22
215.35	1291.38
215.815	1324.05
216.28	1423.32
216.745	1162.54
217.21	1271.62
217.675	1149.28
218.14	1312.01
218.604	1450.28
219.069	1686.35
219.534	1826.19
219.998	2129.49
220.463	2596.37
220.927	3164.26
221.392	3008.81
221.856	3079.85
222.32	3886.3
222.785	4854.59
223.249	6136.75
223.713	6921.71
224.177	6965.86
224.642	8910.85
225.106	11007.69
225.57	12068.97
226.034	9036.68
226.497	13773.73
226.961	12507.72
227.425	14651.13
227.889	16235.63
228.353	16269.7
228.816	33633.72
229.28	32258.36
229.744	27264.33
230.207	16670.84
230.671	16463.78
231.134	27171.2
231.597	31443.4
232.061	31450.61
232.524	30579.73
232.987	21116
233.45	19057.93
233.914	17085.03
234.377	17486.12
234.84	16041.9
235.303	18856.21
235.766	21008.97
236.229	21743.61
236.691	13690.81
237.154	15351.42
237.617	11584.22
238.08	11849.05
238.542	13849.77
239.005	9915.85
239.468	9860.27
239.93	9292.92
240.393	8463.91
240.855	7444.24
241.317	7613.89
241.78	9247.89
242.242	9578.94
242.704	10375.87
243.166	9040.52
243.629	8247.93
244.091	9524.33
244.553	10435.2
245.015	11239.99
245.477	14544.68
245.939	21343.9
246.4	22718.45
246.862	22137.84
247.324	20925.29
247.786	23421.76
248.247	30760.88
248.709	31690.48
249.17	23697.93
249.632	22422.59
250.093	26080.53
250.555	22541.37
251.016	13775.39
251.477	13078.95
251.939	14130.51
252.4	14845.11
252.861	17629.69
253.322	16450.82
253.783	19614.58
254.244	25501.06
254.705	20112.27
255.166	17881.65
255.627	17610.57
256.088	24898.66
256.549	26453.12
257.009	22789.6
257.47	27628.61
257.931	22542.7
258.391	16892.53
258.852	17422.2
259.312	18225.97
259.773	22475.23
260.233	19019.56
260.694	16081.49
261.154	18231.51
261.614	14682.16
262.074	13140.86
262.534	13688.5
262.994	12923.45
263.455	17217.66
263.915	14541.16
264.374	13719.65
264.834	14990.71
265.294	16586.17
265.754	17197.47
266.214	16279.25
266.673	15264.03
267.133	19275.98
267.593	19121.27
268.052	23415.83
268.512	20405.54
268.971	24664.14
269.431	27106.75
269.89	24314.16
270.349	36558.74
270.809	40851.2
271.268	36811.82
271.727	82449.17
272.186	53410.12
272.645	40080.78
273.104	28904.72
273.563	41817.12
274.022	32795.22
274.481	27938.95
274.94	21555.4
275.399	16018.37
275.857	18629.6
276.316	25191.24
276.775	22436.47
277.233	22140.59
277.692	20793.77
278.15	23548.94
278.609	24311.9
279.067	22544.25
279.525	20973
279.984	27102.07
280.442	32627.34
280.9	32287.59
281.358	21254.77
281.816	19842.28
282.274	19423.52
282.732	20013.06
283.19	20121.09
283.648	17322.39
284.106	18453.63
284.564	18748.72
285.021	17402.48
285.479	12949.71
285.937	11758.36
286.394	10336.43
286.852	10651.11
287.309	11227.46
287.767	10903.01
288.224	10407.54
288.682	11445.65
289.139	12590.09
289.596	11561.11
290.053	12051.23
290.511	15228.89
290.968	18522.38
291.425	25150.35
291.882	21011.86
292.339	18304.24
292.796	18152.05
293.252	17104.98
293.709	13636.85
294.166	12233.61
294.623	13533.54
295.079	12970.89
295.536	13076.42
295.992	11883.27
296.449	11783.22
296.905	12254.61
297.362	11781.57
297.818	12412.23
298.274	12927.86
298.731	13187.41
299.187	13079.87
299.643	14020.86
300.099	16988.57
300.555	18634.01
301.011	15576.86
301.467	15056.84
301.923	17611.29
302.379	17220.89
302.835	16906.79
303.291	16894.12
303.746	19216.62
304.202	24265.22
304.658	24387.26
305.113	16396.81
305.569	16065.12
306.024	17118.81
306.479	16236.63
306.935	13705.17
307.39	14934.32
307.845	13785.43
308.301	13897.44
308.756	13529.05
309.211	13033.67
309.666	13343.81
310.121	16599.59
310.576	16853.42
311.031	16723.13
311.486	19148.95
311.94	19082.32
312.395	25511.29
312.85	48025.74
313.305	235190.16
313.759	1220429.18
314.214	88367.97
314.668	70143.26
315.123	58929.68
315.577	21124.24
316.032	18779.97
316.486	23524.91
316.94	18614.66
317.394	12977.27
317.849	10083.68
318.303	9544.49
318.757	9002.98
319.211	9988.94
319.665	8752.66
320.119	8852.84
320.572	12693.95
321.026	11880.81
321.48	9913.78
321.934	10764.87
322.387	10770.81
322.841	11658.58
323.295	10530.76
323.748	12128.63
324.202	12282.91
324.655	14756.6
325.108	20710.54
325.562	14641.68
326.015	17357.82
326.468	13117.43
326.921	14731.06
327.374	13773.32
327.827	14336.12
328.28	16221.2
328.733	10873.09
329.186	9549.28
329.639	9102.67
330.092	7659.56
330.545	7298.91
330.997	7381.27
331.45	8079.39
331.903	9482.95
332.355	16284.05
332.808	15821.22
333.26	13010.28
333.713	14128.56
334.165	14269.35
334.617	19039.2
335.069	15331.92
335.522	27750.24
335.974	30764.92
336.426	28097.59
336.878	19419.39
337.33	9852.08
337.782	9636.62
338.234	12121.19
338.686	14519.22
339.137	17173.81
339.589	16179.56
340.041	12727.22
340.493	10927.17
340.944	11181.66
341.396	12049.74
341.847	10165.13
342.299	12051.1
342.75	14755.59
343.201	12886.52
343.653	14787.89
344.104	18167.83
344.555	14303.46
345.006	22224.52
345.457	17131.22
345.908	13608.52
346.359	12809.95
346.81	10447.14
347.261	11005.85
347.712	10817.73
348.163	11622.61
348.613	11825.89
349.064	11062.52
349.515	9695.58
349.965	9974.28
350.416	11984.65
350.866	13173.18
351.317	14880.47
351.767	24679.88
352.217	31159.01
352.668	25936.98
353.118	23722.17
353.568	22819.97
354.018	18072.64
354.468	19104.1
354.918	13722.28
355.368	12002.8
355.818	16986.06
356.268	49006.33
356.718	205057.81
357.168	51169.77
357.617	25534.32
358.067	28356.01
358.517	26630.95
358.966	31362.17
359.416	35170.97
359.865	37910.64
360.315	45078.02
360.764	21071.03
361.213	11819.9
361.663	11181.13
362.112	13831.89
362.561	22433.43
363.01	16975.53
363.459	14272.32
363.908	15405.38
364.357	13135.62
364.806	22244.47
365.255	15351.43
365.703	14083.73
366.152	14123.41
366.601	11462.6
367.05	9317.97
367.498	8483.23
367.947	8857.38
368.395	9214.44
368.844	8187.63
369.292	9817.97
369.74	6801.82
370.189	10406.31
370.637	12169.88
371.085	10456.66
371.533	12699.19
371.981	12175.32
372.429	11637.69
372.877	12124.73
373.325	10190.49
373.773	10381.63
374.221	9262.49
374.669	11461.35
375.116	9893.14
375.564	9979.99
376.012	11186.3
376.459	9268.11
376.907	11089.7
377.354	13357.41
377.801	12518.09
378.249	14380.26
378.696	18384.58
379.143	22251.32
379.591	23706.25
380.038	40331.11
380.485	29279.07
380.932	31652.75
381.379	29123.31
381.826	21552.78
382.273	15352.53
382.72	13401.51
383.166	13084.92
383.613	8494.26
384.06	7697.67
384.506	8956.08
384.953	6577.8
385.4	6629.69
385.846	5825.48
386.292	5668.1
386.739	5533
387.185	5469.03
387.631	5481.16
388.078	5338.81
388.524	5731.55
388.97	5284.44
389.416	4412.17
389.862	4696.16
390.308	4458.57
390.754	4531.44
391.2	4919.04
391.645	5045.76
392.091	4870.33
392.537	4716.64
392.983	4716.64
393.428	4645.56
393.874	4985.29
394.319	5016.43
394.765	4765.87
395.21	4889.97
395.655	4587.49
396.101	4300.12
396.546	3883.29
396.991	3906.82
397.436	3620.61
397.881	3490.73
398.326	3299.2
398.771	3123.43
399.216	2715.88
399.661	2441.6
400.106	2436.06
400.551	2497.42
400.995	2233.59
401.44	2210.31
401.885	2068.74
402.329	2089.63
402.774	2008.26
403.218	1950.82
403.663	1878.54
404.107	1935.79
404.551	1949.41
404.995	1782.19
405.44	1712.82
405.884	1735.68
406.328	1672.27
406.772	1667.15
407.216	1517.81
407.66	1462.69
408.104	1377.89
408.547	1286.69
408.991	1239.61
409.435	1189.33
409.879	1173.6
410.322	1155.25
410.766	1116.51
411.209	1062.53
411.653	1018.41
412.096	996.92
412.54	996.11
412.983	989.84
413.426	994.7
413.869	994.21
414.312	977.7
414.756	938.94
415.199	893.25
415.642	866.61
416.085	865.43
416.527	855.89
416.97	868.33
417.413	821.02
417.856	811.35
418.298	800.16
418.741	790.41
419.184	785.09
419.626	814.23
420.069	816.87
420.511	822.8
420.953	808.03
421.396	801.25
421.838	779.45
422.28	798.46
422.722	803.27
423.164	814.23
423.606	803.16
424.048	799.15
424.49	761.7
424.932	752.75
425.374	738.66
425.816	747.97
426.258	761.01
426.699	768.68
427.141	758.44
427.582	763.93
428.024	759.56
428.465	752.54
428.907	734.5
429.348	724.89
429.789	726.94
430.231	713.28
430.672	723.69
431.113	704.46
431.554	692.49
431.995	668.92
432.436	650.22
432.877	633.25
433.318	624.29
433.759	620.15
434.2	617.89
434.64	610.04
435.081	612.33
435.522	578.68
435.962	556.07
436.403	543.9
436.843	552.26
437.284	536.19
437.724	519.97
438.164	517.33
438.604	504.64
439.045	486.45
439.485	468.37
439.925	455.58
440.365	443.61
440.805	437.92
441.245	434.89
441.685	419.84
442.125	417.22
442.564	419.79
443.004	410.91
443.444	412.11
443.883	413.03
444.323	408.63
444.762	407.73
445.202	412.35
445.641	422.61
446.081	416.73
446.52	420.02
446.959	416.03
447.398	408.09
447.837	405.26
448.276	395.77
448.716	398.55
449.154	400.46
449.593	392.55
450.032	391.49
450.471	382.86
450.91	383.67
451.349	383.75
451.787	382.7
452.226	387.35
452.664	387.31
453.103	390.19
453.541	389.47
453.98	391
454.418	394.55
454.856	389.58
455.295	389.61
455.733	393.58
456.171	395.61
456.609	394.6
457.047	394.9
457.485	401.7
457.923	402.6
458.361	396.92
458.798	397.91
459.236	395.54
459.674	396.45
460.111	397.01
460.549	394.51
460.987	392.27
461.424	391.41
461.862	389.32
462.299	382.26
462.736	382.38
463.173	383.51
463.611	380.58
464.048	380.31
464.485	384.22
464.922	380.24
465.359	375.95
465.796	378.02
466.233	376.44
466.67	374.93
467.106	375.12
467.543	369.98
467.98	365.59
468.416	353.73
468.853	349.7
469.29	338.8
469.726	335.47
470.162	327.34
470.599	317.53
471.035	313.66
471.471	304.22
471.907	300.78
472.344	298.96
472.78	300.17
473.216	304.52
473.652	301.83
474.088	300.65
474.523	301.15
474.959	302.85
475.395	299.55
475.831	298.64
476.266	300.95
476.702	299.99
477.138	296.23
477.573	294.76
478.008	293.68
478.444	295.84
478.879	300.03
479.314	301.02
479.75	301.49
480.185	302.88
480.62	305.31
481.055	306.98
481.49	309.31
481.925	315.05
482.36	322.71
482.795	331.57
483.229	339.15
483.664	345.82
484.099	347.05
484.534	352.07
484.968	356.31
485.403	356.32
485.837	355.08
486.271	354.96
486.706	354.73
487.14	349.07
487.574	343.63
488.009	340.71
488.443	337.41
488.877	341.86
489.311	343.09
489.745	347.19
490.179	351.46
490.613	359.45
491.046	361.84
491.48	364.84
491.914	365.47
492.348	368.09
492.781	370.98
493.215	372.77
493.648	372.37
494.082	375.76
494.515	376.51
494.948	381.87
495.382	383.97
495.815	387.27
496.248	390.33
496.681	397.55
497.114	403.65
497.547	409.51
497.98	417.43
498.413	421.84
498.846	427.34
499.279	431.9
499.711	433.25
500.144	434.52
500.577	441.36
501.009	447.16
501.442	453.82
501.874	455.68
502.306	457.21
502.739	463.41
503.171	472.14
503.603	473.99
504.036	478.8
504.468	482.45
504.9	488.78
505.332	491.58
505.764	493.96
506.196	496.58
506.627	504.56
507.059	511.13
507.491	512.96
507.923	510.96
508.354	519.09
508.786	525.17
509.217	534.47
509.649	542.08
510.08	551.87
510.512	561.71
510.943	570.25
511.374	575.7
511.805	585.81
512.237	595.64
512.668	611.2
513.099	624.07
513.53	636.4
513.961	646.13
514.391	661.28
514.822	677.54
515.253	694.31
515.684	705.61
516.114	719.99
516.545	730.46
516.975	742
517.406	750.37
517.836	750.53
518.267	753.64
518.697	762.24
519.127	763.71
519.558	765.1
519.988	765.12
520.418	768.59
520.848	774.54
521.278	776.92
521.708	797.44
522.138	803.04
522.567	817.83
522.997	829.65
523.427	834.83
523.857	841.75
524.286	845.82
524.716	853
525.145	861.98
525.575	867.59
526.004	873.01
526.433	855.48
526.863	853.93
527.292	848.37
527.721	849.59
528.15	852.05
528.579	851.71
529.008	857.13
529.437	866.57
529.866	871.96
530.295	878.76
530.724	885.3
531.152	898.12
531.581	905.31
532.01	912.65
532.438	915.94
532.867	921.67
533.295	929.67
533.723	932.12
534.152	931.01
534.58	930.47
535.008	922.76
535.436	924.17
535.865	927.88
536.293	933.43
536.721	940.31
537.149	952.6
537.576	955.09
538.004	961.61
538.432	964.57
538.86	963.4
539.287	965.66
539.715	972.08
540.143	971.83
540.57	969.85
540.998	968.41
541.425	958.45
541.852	948.1
542.28	946.65
542.707	937.8
543.134	931.09
543.561	928.86
543.988	925.91
544.415	925
544.842	921.56
545.269	917.43
545.696	919
546.123	925.01
546.549	919.72
546.976	912.87
547.403	912.46
547.829	912.34
548.256	913.36
548.682	911.3
549.108	909.13
549.535	909.52
549.961	910.19
550.387	902.78
550.813	900.55
551.24	903.31
551.666	903.61
552.092	899.09
552.518	896.01
552.943	893.54
553.369	897.09
553.795	899.13
554.221	899.78
554.646	898.02
555.072	904.73
555.498	905.51
555.923	909.63
556.349	917.67
556.774	922.44
557.199	923.34
557.625	926.59
558.05	924.2
558.475	929.11
558.9	928.74
559.325	925.97
559.75	922.75
560.175	920.01
560.6	918
561.025	917.08
561.449	918.76
561.874	922.22
562.299	924.39
562.723	928.15
563.148	924.18
563.572	925.69
563.997	931.27
564.421	933.55
564.846	934.66
565.27	937.8
565.694	937.47
566.118	943.03
566.542	948.01
566.966	945.21
567.39	944.04
567.814	939.07
568.238	940.48
568.662	943.58
569.086	946.34
569.509	950.08
569.933	943.5
570.357	940.73
570.78	931.72
571.204	927.36
571.627	922.62
572.05	922.68
572.474	923.64
572.897	917.7
573.32	915.77
573.743	910.49
574.166	902.68
574.589	902.18
575.012	898.6
575.435	897.7
575.858	891.89
576.281	886.96
576.704	879.15
577.126	873.7
577.549	868.87
577.972	862.42
578.394	858.61
578.817	856.76
579.239	847.38
579.661	841.69
580.084	835.27
580.506	829.66
580.928	827.87
581.35	823.27
581.772	820.96
582.194	815.03
582.616	809.27
583.038	800.72
583.46	793.92
583.882	792.59
584.303	793.96
584.725	790.82
585.147	795
585.568	801.48
585.99	808.24
586.411	812.5
586.833	820.13
587.254	821.55
587.675	830.53
588.096	838.72
588.518	837.27
588.939	829.4
589.36	829.11
589.781	819.47
590.202	807.16
590.623	802.23
591.043	799.54
591.464	792.91
591.885	791.56
592.305	788.1
592.726	779.78
593.147	780.2
593.567	777.7
593.987	774.13
594.408	772.35
594.828	768.58
595.248	766.17
595.669	758.16
596.089	754.85
596.509	750.95
596.929	744.43
597.349	745.53
597.769	739.53
598.189	736.18
598.608	737.29
599.028	737.94
599.448	737.61
599.867	730.31
600.287	726.87
600.706	724.84
601.126	719.89
601.545	719.56
601.965	718.97
602.384	716.24
602.803	717.34
603.222	714.69
603.641	710.83
604.061	709.65
604.48	707.78
604.898	712.7
605.317	715.61
605.736	716.61
606.155	715.83
606.574	710.74
606.992	714.1
607.411	712.72
607.829	707.61
608.248	706.15
608.666	704.23
609.085	704.35
609.503	700.22
609.921	697.48
610.339	699.5
610.758	698.79
611.176	696.86
611.594	693.06
612.012	691.77
612.43	694.52
612.847	698.3
613.265	700.55
613.683	703.7
614.101	704.95
614.518	701.92
614.936	696.65
615.353	689.5
615.771	688.4
616.188	688.85
616.606	687.04
617.023	684.12
617.44	677.47
617.857	673.28
618.274	668.08
618.691	665.25
619.108	661.51
619.525	657.45
619.942	661.06
620.359	662.48
620.776	659.35
621.192	658.05
621.609	656.58
622.026	660.15
622.442	664.18
622.859	665.75
623.275	660.8
623.691	662.92
624.108	671.28
624.524	678.66
624.94	679.39
625.356	685.08
625.772	690.67
626.188	697.18
626.604	699.19
627.02	696.6
627.436	695.93
627.852	701.55
628.268	709.17
628.683	703.52
629.099	699.38
629.514	696.54
629.93	698.71
630.345	700.5
630.761	697.99
631.176	698.92
631.591	696.95
632.007	694.82
632.422	692.26
632.837	684.81
633.252	684.14
633.667	678.64
634.082	674.31
634.497	667.93
634.911	659.65
635.326	657.37
635.741	647.97
636.155	641.25
636.57	642.26
636.984	642.64
637.399	645.4
637.813	644.41
638.228	643.09
638.642	644.54
639.056	638.73
639.47	638.64
639.884	634.71
640.298	631.89
640.712	632.32
641.126	625.49
641.54	621.25
641.954	616.73
642.368	610.46
642.781	608.82
643.195	599.4
643.609	600.49
644.022	597.18
644.436	595.56
644.849	588.45
645.262	580.79
645.676	580.73
646.089	577.29
646.502	571.5
646.915	567.84
647.328	557.81
647.741	557.89
648.154	550.21
648.567	550.14
648.98	543.25
649.393	544.29
649.805	543.59
650.218	540.58
650.631	534.34
651.043	529.9
651.456	527.59
651.868	527.4
652.28	535.26
652.693	542.09
653.105	543.65
653.517	548.32
653.929	548.62
654.341	551.71
654.753	544.99
655.165	547.11
655.577	546.2
655.989	544.14
656.401	539.06
656.813	521.58
657.224	511.18
657.636	495.57
658.047	487.11
658.459	475.54
658.87	469.56
659.282	463.18
659.693	452.84
660.104	444.45
660.515	436.44
660.926	436.34
661.338	433
661.749	428.81
662.159	424.24
662.57	420.39
662.981	418.38
663.392	414.96
663.803	416.53
664.213	414.31
664.624	412.04
665.035	412.97
665.445	404.11
665.855	401.72
666.266	397.89
666.676	396.71
667.086	391.35
667.497	391.96
667.907	388.6
668.317	382.82
668.727	383.45
669.137	383.27
669.547	381.96
669.956	383.08
670.366	382.94
670.776	383.51
671.186	384.43
671.595	385.93
672.005	385.49
672.414	384.94
672.824	385.14
673.233	383.53
673.642	384.37
674.052	385.29
674.461	387.49
674.87	388.93
675.279	388.67
675.688	388.28
676.097	389.3
676.506	388.1
676.915	393.75
677.323	394.57
677.732	393.16
678.141	392.56
678.549	386.62
678.958	384.52
679.366	384.37
679.775	384.4
680.183	392.29
680.592	396.05
681	398.75
681.408	396.61
681.816	400.34
682.224	405.74
682.632	412.91
683.04	429.91
683.448	443.78
683.856	461.28
684.264	482.8
684.671	498.66
685.079	518.78
685.487	543.02
685.894	575.28
686.302	601.63
686.709	623.47
687.116	649.01
687.524	669.88
687.931	688.43
688.338	702.95
688.745	713.64
689.152	727.12
689.559	748.35
689.966	768.28
690.373	775.62
690.78	794.02
691.187	822.69
691.593	842.1
692	859.26
692.407	886.18
692.813	922.48
693.22	949.15
693.626	975.98
694.032	994.67
694.439	1027.28
694.845	1052.37
695.251	1084.29
695.657	1112.66
696.063	1156.43
696.469	1187.34
696.875	1216.58
697.281	1227.57
697.687	1244.35
698.093	1257.59
698.498	1289.88
698.904	1311.22
699.31	1349.42
699.715	1376.44
700.12	1415.97
700.526	1420.67
700.931	1450.63
701.337	1470.96
701.742	1482.54
702.147	1518.73
702.552	1531.01
702.957	1555.14
703.362	1563.57
703.767	1571.9
704.172	1585.78
704.577	1559.29
704.981	1577.09
705.386	1580.43
705.791	1573.57
706.195	1605.28
706.6	1607.26
707.004	1641.04
707.408	1623.92
707.813	1634.01
708.217	1628.06
708.621	1627.17
709.025	1670.45
709.43	1671.54
709.834	1697.97
710.237	1727.96
710.641	1718.49
711.045	1726.24
711.449	1721.36
711.853	1736.11
712.256	1751.8
712.66	1765.29
713.064	1796.57
713.467	1815.45
713.87	1862.03
714.274	1880.42
714.677	1927.36
715.08	1998.18
715.484	2072.01
715.887	2164.26
716.29	2246.29
716.693	2338.26
717.096	2444.86
717.499	2500.1
717.901	2504.2
718.304	2513.18
718.707	2521.35
719.109	2471.33
719.512	2455.15
719.915	2395.08
720.317	2365.13
720.719	2384.6
721.122	2368.65
721.524	2344.8
721.926	2329.14
722.328	2373.52
722.731	2368.3
723.133	2379.13
723.535	2464.05
723.937	2470.8
724.338	2491.65
724.74	2508.26
725.142	2526.58
725.544	2525.91
725.945	2547.3
726.347	2541.94
726.748	2537.85
727.15	2542.98
727.551	2527.2
727.952	2512.14
728.354	2497.02
728.755	2494.14
729.156	2474.81
729.557	2420.72
729.958	2365.73
730.359	2328.83
730.76	2320.64
731.161	2293.18
731.562	2280.69
731.962	2279
732.363	2250.54
732.763	2223.79
733.164	2237.79
733.564	2207.8
733.965	2165.64
734.365	2150.14
734.766	2162.54
735.166	2144.52
735.566	2120.98
735.966	2111.11
736.366	2109.32
736.766	2084.58
737.166	2097.31
737.566	2079.85
737.966	2068.25
738.365	2085.59
738.765	2084.56
739.165	2051.43
739.564	2038.41
739.964	2058.07
740.363	2036.19
740.763	2033.51
741.162	2027.46
741.561	2012.67
741.96	1991.96
742.36	1998.27
742.759	2001.57
743.158	2014.53
743.557	2020.73
743.955	2038.56
744.354	2017.36
744.753	2041.06
745.152	2024.5
745.55	2045.01
745.949	2041.72
746.348	2043.45
746.746	2050.44
747.144	2034.62
747.543	2024.35
747.941	2045.14
748.339	2013.59
748.737	2011.52
749.136	2007.28
749.534	2031.72
749.932	2023.02
750.33	2034.63
750.727	2056.55
751.125	2047.09
751.523	2036.92
751.921	2059.31
752.318	2044.19
752.716	2070.21
753.113	2074.99
753.511	2085.7
753.908	2087.17
754.305	2083.61
754.703	2109.08
755.1	2135.73
755.497	2160.93
755.894	2242.81
756.291	2318.99
756.688	2460.51
757.085	2645.62
757.482	2908.76
757.878	3197.4
758.275	3457.2
758.672	3804.57
759.068	4093.78
759.465	4508.21
759.861	5038.59
760.258	5658.53
760.654	5971.25
761.05	5921.07
761.447	5653.33
761.843	5263.93
762.239	4862.29
762.635	4676.95
763.031	4505.47
763.427	4258.84
763.822	3995.51
764.218	3737.69
764.614	3398.16
765.01	3171.48
765.405	3023.64
765.801	2912.67
766.196	2771.7
766.592	2692.62
766.987	2560.73
767.382	2470.3
767.778	2430.49
768.173	2374.88
768.568	2343.39
768.963	2290.32
769.358	2299.62
769.753	2282.59
770.148	2247.88
770.542	2247.31
770.937	2231.99
771.332	2273.29
771.726	2282.02
772.121	2261.11
772.515	2284.44
772.91	2280.54
773.304	2312.42
773.699	2282.67
774.093	2303.87
774.487	2328.04
774.881	2346.2
775.275	2348.92
775.669	2329.35
776.063	2347.6
776.457	2358.12
776.851	2327
777.245	2322.38
777.638	2337.07
778.032	2384.02
778.425	2369.65
778.819	2390.78
779.212	2373.35
779.606	2354.92
779.999	2362.39
780.392	2357.46
780.786	2390.43
781.179	2398.34
781.572	2416.81
781.965	2420.41
782.358	2398.31
782.751	2421.63
783.143	2397.19
783.536	2430.5
783.929	2445.47
784.322	2495.01
784.714	2504.87
785.107	2504.11
785.499	2533.8
785.891	2523.6
786.284	2516.16
786.676	2576.05
787.068	2571.06
787.46	2591.54
787.852	2596.66
788.245	2634.53
788.636	2646.18
789.028	2676.92
789.42	2693.91
789.812	2699
790.204	2741.37
790.595	2784.78
790.987	2701.51
791.378	2709.72
791.77	2765.6
792.161	2820.99
792.553	2845.54
792.944	2801.5
793.335	2771.13
793.726	2803.52
794.117	2845.36
794.508	2901.22
794.899	2885.45
795.29	2942.31
795.681	2965.47
796.072	2906.66
796.463	2850.42
796.853	2858.25
797.244	2923.65
797.634	2937.16
798.025	2935.44
798.415	2934.8
798.806	2974.65
799.196	3013.89
799.586	3039.96
799.976	3021.57
800.366	3119.08
800.756	3198.87
801.146	3180.13
801.536	3193.24
801.926	3225.75
802.316	3242.58
802.706	3276.82
803.095	3226.9
803.485	3267.59
803.874	3285.06
804.264	3398.65
804.653	3389.94
805.043	3455.46
805.432	3504.29
805.821	3504.6
806.21	3515.64
806.599	3559.07
806.988	3579.59
807.377	3622.16
807.766	3678.73
808.155	3797.08
808.544	3683.91
808.933	3688.22
809.321	3677.54
809.71	3798.9
810.098	3865.03
810.487	4056.78
810.875	4260.44
811.264	4262.65
811.652	4394.8
812.04	4452.81
812.428	4521.8
812.816	4841.78
813.204	5014.22
813.592	5239.3
813.98	5379.14
814.368	5345.19
814.756	5548.28
815.144	5514.64
815.531	5719.4
815.919	5674.02
816.306	5804.39
816.694	5674.65
817.081	5698.32
817.469	5853.04
817.856	5858.49
818.243	5973.17
818.63	6130.03
819.017	5951.18
819.404	5978.21
819.791	6130.95
820.178	6388.89
820.565	6502.44
820.952	6904.22
821.339	6697.2
821.725	6769.58
822.112	6456.35
822.498	6436.21
822.885	6490.91
823.271	6455.51
823.657	6627.23
824.044	6635.13
824.43	6666.3
824.816	6655.49
825.202	6466.41
825.588	6895.06
825.974	6901.12
826.36	7115.66
826.746	7129.55
827.132	7279.62
827.517	7270.06
827.903	6941.85
828.289	6964.29
828.674	6641.4
829.06	6587.32
829.445	6750.53
829.83	6897
830.216	7100.11
830.601	7258.99
830.986	7100.98
831.371	7045.8
831.756	7281.06
832.141	7104.64
832.526	7096.95
832.911	7210.2
833.295	7160.52
833.68	7358.13
834.065	7103.29
834.449	6712.19
834.834	6681.93
835.218	6673.8
835.603	6818.5
835.987	6724.99
836.371	7070.15
836.755	7025.54
837.139	7193.93
837.524	7293.33
837.908	7218.17
838.291	7241.74
838.675	7272.29
839.059	7357.58
839.443	7345.17
839.827	7237.56
840.21	7437.13
840.594	7375.51
840.977	7461.63
841.361	7450.98
841.744	7609.27
842.127	7538.44
842.511	7639.34
842.894	7884.78
843.277	8038.8
843.66	8263.41
844.043	8307.6
844.426	7972.58
844.809	7837.14
845.191	7854.51
845.574	7660.39
845.957	7506.41
846.339	7463.96
846.722	7241.12
847.104	7263.99
847.487	7188.8
847.869	7198.52
848.252	7316.15
848.634	7450.77
849.016	7567.87
849.398	7612.6
849.78	7967.07
850.162	7969.65
850.544	8141.09
850.926	8401.66
851.307	8369.3
851.689	8490.75
852.071	8671.04
852.452	8803.73
852.834	8800.59
853.215	8964.52
853.597	9028.3
853.978	9160.19
854.359	9347
854.741	8933.18
855.122	8894.16
855.503	8770.77
855.884	8823.92
856.265	8800.43
856.646	8838.53
857.026	8670.42
857.407	8641.74
857.788	8709.85
858.169	8823.24
858.549	8479.84
858.93	8738.92
859.31	8757.33
859.69	8861.18
860.071	8695.75
860.451	8608.27
860.831	8301.06
861.211	8784.63
861.591	9011.1
861.971	8993.87
862.351	9076.75
862.731	9230.53
863.111	9340.08
863.491	9483.1
863.87	9838.85
864.25	9978.02
864.629	9814.55
865.009	10028.4
865.388	10388.84
865.768	11132.72
866.147	11099.3
866.526	10484.7
866.905	10607.52
867.284	11197.76
867.663	10631.19
868.042	10188.37
868.421	10158.47
868.8	10326.93
869.179	10434.48
869.558	9826.77
869.936	9060.7
870.315	9208.48
870.693	9437.93
871.072	10173.6
871.45	9691.91
871.828	9817.92
872.207	10322.47
872.585	10168.42
872.963	10438.97
873.341	10084.21
873.719	9969.78
874.097	9845.01
874.475	10040.73
874.853	10260.03
875.23	9839.11
875.608	10256.31
875.986	11093.75
876.363	10608.4
876.741	10946.83
877.118	10679.02
877.495	11198.86
877.873	11378.76
878.25	11974.01
878.627	11477.36
879.004	11642.18
879.381	11574.39
879.758	11280.43
880.135	10497.89
880.512	11092.61
880.889	10775.19
881.265	10656.78
881.642	10555.77
882.019	10729.2
882.395	10520.18
882.772	10949.24
883.148	10472.98
883.524	10440.05
883.901	10368.3
884.277	10512.96
884.653	10443.33
885.029	10753.55
885.405	11909.45
885.781	11814.48
886.157	11322.62
886.532	11442.9
886.908	11419.82
887.284	12689.86
887.659	13092.19
888.035	13498.26
888.411	13848.44
888.786	14030.89
889.161	14511.34
889.537	14235.28
889.912	14696.21
890.287	14682.04
890.662	15066.53
891.037	14790.92
891.412	13790.83
891.787	13650.94
892.162	13180.09
892.536	13491.7
892.911	12995.21
893.286	12715.59
893.66	12198.36
894.035	12506.67
894.409	13615.12
894.784	13069.8
895.158	13297.3
895.532	14087.5
895.906	14482.26
896.281	14811.25
896.655	14579.49
897.029	16646.61
897.402	17340.38
897.776	19303.25
898.15	19244.06
898.524	19045.16
898.898	19290.99
899.271	21593.72
899.645	18712.85
900.018	17971.77
900.392	18641.39
900.765	18778.13
901.138	17376.75
901.511	17104.59
901.884	15720.99
902.258	14508.95
902.631	15000.38
903.003	17270.22
903.376	15585.36
903.749	17471.78
904.122	18694.13
904.495	20577.38
904.867	20840.82
905.24	18103.97
905.612	16850
905.985	17215.71
906.357	17990.34
906.729	17157.07
907.102	14647.77
907.474	14092.72
907.846	14194.04
908.218	14011.48
908.59	12397.48
908.962	11989.72
909.334	12912.55
909.705	13570.87
910.077	13189.42
910.449	13729.88
910.82	14121.5
911.192	15557.22
911.563	16160.82
911.935	17285.75
912.306	17298.61
912.677	17850.01
913.048	17692.79
913.419	19195.01
913.79	19310.07
914.161	20689.76
914.532	19801.99
914.903	18186.35
915.274	17257.65
915.645	17014.56
916.015	14959.8
916.386	14269.16
916.756	15178
917.127	15636.69
917.497	13984.68
917.868	15221.6
918.238	14466.51
918.608	14870.06
918.978	15194.97
919.348	16087.97
919.718	16611.95
920.088	16027.66
920.458	16663.29
920.828	17534.83
921.198	16633.17
921.567	17764.46
921.937	13759.09
922.306	13877.75
922.676	14951.55
923.045	12474.39
923.415	11863.09
923.784	10795.9
924.153	11097.2
924.522	11089.19
924.891	10421.62
925.26	11165.27
925.629	10890.84
925.998	12501.14
926.367	12210.93
926.736	11656.94
927.104	13862.6
927.473	14880.53
927.842	17962.11
928.21	17746.42
928.578	18644.74
928.947	17652.38
929.315	17764.82
929.683	20842.1
930.051	21025.08
930.42	24439.24
930.788	20848.14
931.156	20708.95
931.523	19436.77
931.891	17994.25
932.259	17303.9
932.627	20030.62
932.994	28310.47
933.362	23395.51
933.729	20321.9
934.097	19470.23
934.464	16456.57
934.831	18970.94
935.199	18699.9
935.566	18122.75
935.933	18326.33
936.3	22235.62
936.667	17314.22
937.034	15713.05
937.401	15523.98
937.767	13375.93
938.134	11882.61
938.501	16764.67
938.867	17892.1
939.234	30201.99
939.6	25731.42
939.967	28360.12
940.333	18973.68
940.699	16137.5
941.065	12840.89
941.431	16843.62
941.798	16304.9
942.163	21457.75
942.529	13397.61
942.895	12318.49
943.261	7987.75
943.627	10520.43
943.992	9239.87
944.358	9234.54
944.723	9316.77
945.089	9100.96
945.454	8422.83
945.82	8964.3
946.185	8600.07
946.55	9958.42
946.915	8921.94
947.28	10463.78
947.645	9180.42
948.01	8493.43
948.375	8871.17
948.74	10595.84
949.104	12334.34
949.469	17771.7
949.834	31458
950.198	29948.76
950.562	17991.27
950.927	15024.71
951.291	18064.58
951.655	15397.94
952.02	14396.4
952.384	10913.34
952.748	9530.18
953.112	9332.98
953.476	8126.84
953.839	7509.84
954.203	7432.56
954.567	9281.22
954.931	14601.72
955.294	12505.7
955.658	12572.96
956.021	21429.14
956.385	36197.97
956.748	53436.18
957.111	82547.12
957.474	92439.85
957.837	103925.59
958.2	78394.98
958.563	28143.3
958.926	19024.35
959.289	28849.18
959.652	32302.14
960.015	24221.78
960.377	34726.19
960.74	39570.33
961.102	68204.94
961.465	73599.49
961.827	39957.53
962.189	76813.03
962.552	53434.76
962.914	42890.56
963.276	27839.76
963.638	23040.71
964	22801.08
964.362	15447.42
964.724	14914.68
965.085	10685.38
965.447	8737.54
965.809	9836.79
966.17	9841.3
966.532	10644.03
966.893	9761.4
967.255	8898.62
967.616	10457.56
967.977	8376.44
968.338	9150.43
968.699	7544.83
969.061	7517.05
969.421	7572.17
969.782	8501.83
970.143	7189.57
970.504	7474.09
970.865	8509.54
971.225	8704.31
971.586	8532.8
971.946	12136.12
972.307	10518.82
972.667	13688.22
973.027	14114.78
973.388	17103.37
973.748	11630.01
974.108	12679.1
974.468	17039.14
974.828	13179.31
975.188	10118.22
975.548	9275.81
975.907	7812.58
976.267	8755.18
976.627	7401.83
976.986	7676.24
977.346	7310.83
977.705	7033.96
978.064	6383.87
978.424	5327.14
978.783	5475.34
979.142	6243.45
979.501	6006.53
979.86	6353.85
980.219	6123.54
980.578	7871.06
980.937	8794.02
981.296	7842.8
981.654	8070.63
982.013	12566.69
982.371	16316.2
982.73	15252.55
983.088	17235.12
983.447	18395.91
983.805	26373.06
984.163	55140.73
984.521	61127.99
984.879	89675.6
985.237	-145854.53
985.595	141353.52
985.953	35063.06
986.311	20232.87
986.669	11778.41
987.026	10199.89
987.384	13649.6
987.741	14039.79
988.099	10112.56
988.456	8044.86
988.814	7552.88
989.171	6562.53
989.528	6414.61
989.885	6776.66
990.242	5384.21
990.599	6683.19
990.956	5453.58
991.313	3827.86
991.67	3148.25
992.027	3352.56
992.383	2987.79
992.74	2621.86
993.096	2760.76
993.453	2874.24
993.809	2975.07
994.165	3955.98
994.522	3674.33
994.878	4060.92
995.234	5091.57
995.59	5020.24
995.946	4694.71
996.302	5363.64
996.658	6188.34
997.013	6799.82
997.369	8090.2
997.725	10396.19
998.08	6718.16
998.436	10142.81
998.791	13944.89
999.147	13919.21
999.502	15168.12
999.857	11026.34
1000.212	17995.97
1000.567	25685.35
1000.922	14782.66
1001.277	9351.38
1001.632	6923.46
1001.987	8903.29
1002.342	6420.17
1002.696	5174.39
1003.051	4155.66
1003.406	5037.89
1003.76	5020.45
1004.114	4940.38
1004.469	4157.12
1004.823	3461.32
1005.177	3743.61
1005.531	2985.7
1005.885	2660.66
1006.239	3027.2
1006.593	3811.25
1006.947	5073.12
1007.301	3810.96
1007.655	4136.55
1008.008	3038.31
1008.362	3399.1
1008.715	4843.75
1009.069	4369.48
1009.422	6639.53
1009.776	13336.95
1010.129	8831.87
1010.482	7286.62
1010.835	6133.19
1011.188	12679.94
1011.541	11960.34
1011.894	-72737.69
1012.247	214247.38
1012.6	14533.27
1012.952	9208.91
1013.305	4654.72
1013.657	3388.42
1014.01	3205.2
1014.362	2643.01
1014.715	2410.38
1015.067	2119.11
1015.419	2074.24
1015.771	1851.15
1016.123	1668.55
1016.475	1736.65
1016.827	1842.99
1017.179	2004.09
1017.531	1984.86
1017.883	2005.38
1018.234	1997.84
1018.586	2496.02
1018.938	2682.42
1019.289	3700.85
1019.64	4184.44
1019.992	3843.23
1020.343	3469.53
1020.694	2805.92
1021.045	2465.65
1021.396	2820.61
1021.747	3076.86
1022.098	3596.13
1022.449	2614.04
1022.8	2417.56
1023.151	1713.37
1023.501	1547.95
1023.852	1683.32
1024.202	1776.07
1024.553	1917.79
1024.903	1912.07
1025.253	1670.98
1025.604	1519.11
1025.954	1871.47
1026.304	2255.29
1026.654	2619.81
1027.004	3813.83
1027.354	6074.48
1027.703	5792.73
1028.053	7505.05
1028.403	11054
1028.753	15621.58
1029.102	20924.67
1029.452	105533.68
1029.801	4599.67
1030.15	2971.17
1030.499	2478
897.758	2835.73
901.051	2800.84
904.343	2832.77
907.636	2830.51
910.928	2897.71
914.22	2804.23
917.511	2814.11
920.803	2882.67
924.094	2905.59
927.384	2876.98
930.675	2842.34
933.965	2791.26
937.255	2795.28
940.544	2766.26
943.834	2684.19
947.123	2630.25
950.411	2728.4
953.7	2696.87
956.988	2659.16
960.276	2600.24
963.563	2688.85
966.851	2679.69
970.138	2744.2
973.424	2731.64
976.711	2678.62
979.997	2838.12
983.283	2869.38
986.568	2766.62
989.853	2788.04
993.138	2814.14
996.423	2896.34
999.708	2826.35
1002.992	2904.47
1006.275	2712.17
1009.559	2771.33
1012.842	2891.02
1016.125	2815.88
1019.408	2793.49
1022.69	2887.93
1025.972	2902.77
1029.254	2875.06
1032.536	2797.88
1035.817	2831.56
1039.098	2762.69
1042.379	2933.49
1045.659	2920.55
1048.939	2847.59
1052.219	2870.23
1055.498	2885.99
1058.778	2866.23
1062.057	2853.29
1065.335	2874.67
1068.614	2893.29
1071.892	2870.35
1075.17	2952.85
1078.447	2938.39
1081.724	2926.73
1085.001	2965.57
1088.278	2938.91
1091.554	2950.81
1094.83	2948.88
1098.106	2969.27
1101.382	3019.5
1104.657	3021.31
1107.932	3016.64
1111.206	2975.4
1114.481	2931.91
1117.755	2935.65
1121.029	2911.18
1124.302	2963.27
1127.575	2908.11
1130.848	2891.5
1134.121	2850.64
1137.393	2795.93
1140.665	2867.78
1143.937	2839.73
1147.208	2803.35
1150.48	2839.29
1153.75	2822.46
1157.021	2862.08
1160.291	2830.12
1163.561	2874.98
1166.831	2870.09
1170.101	2905.48
1173.37	2881.58
1176.639	2820.59
1179.907	2883.03
1183.176	2880.34
1186.444	2892.1
1189.711	2921.49
1192.979	2928.68
1196.246	2886.46
1199.513	2903.36
1202.78	2901.98
1206.046	2909.41
1209.312	2936.37
1212.578	2962.31
1215.843	2909.45
1219.108	2889.37
1222.373	2910.7
1225.638	2872.27
1228.902	2854.59
1232.166	2823.81
1235.43	2806.39
1238.693	2828.47
1241.956	2827.03
1245.219	2862.93
1248.482	2862.59
1251.744	2855.76
1255.006	3014.96
1258.268	2971.07
1261.529	2910.94
1264.79	2919.14
1268.051	3024.26
1271.312	3043.38
1274.572	2999.95
1277.832	2991.27
1281.092	2983.11
1284.351	2946.86
1287.61	2925.28
1290.869	2830.62
1294.128	2800.24
1297.386	2901.76
1300.644	2888.92
1303.902	2899.14
1307.159	2755.76
1310.416	2813.36
1313.673	2836.91
1316.93	2820.32
1320.186	2870.8
1323.442	2918.06
1326.697	2906.23
1329.953	2904.97
1333.208	2926.36
1336.463	2910.15
1339.717	2844.29
1342.972	2989.3
1346.226	2969.04
1349.479	2896.69
1352.733	2865.57
1355.986	2898.12
1359.238	2870.01
1362.491	2874.09
1365.743	2877.11
1368.995	2875.2
1372.247	2887.58
1375.498	2914.4
1378.749	2923.31
1382	2880.99
1385.251	2942.72
1388.501	2905.89
1391.751	2883.89
1395	2860.58
1398.25	2897.06
1401.499	2902.14
1404.748	2822.99
1407.996	2821.19
1411.244	2806.24
1414.492	2787.3
1417.74	2762.86
1420.987	2775.98
1424.234	2836.96
1427.481	2820.46
1430.728	2881.93
1433.974	2853.44
1437.22	2875.2
1440.465	2877.18
1443.711	2830.88
1446.956	2869.48
1450.201	2857.94
1453.445	2905.62
1456.689	2876.34
1459.933	2890.43
1463.177	2920.24
1466.42	2891.56
1469.663	2869.44
1472.906	2855.09
1476.148	2944.62
1479.391	2887.49
1482.633	2860.45
1485.874	2868.83
1489.115	2850.12
1492.356	2860.14
1495.597	2832.08
1498.838	2834.87
1502.078	2798.27
1505.318	2740.47
1508.557	2785.41
1511.797	2745.55
1515.036	2835.53
1518.274	2821.21
1521.513	2796.89
1524.751	2819.01
1527.989	2828.85
1531.227	2839.4
1534.464	2827.6
1537.701	2851.47
1540.938	2872.18
1544.174	2825.97
1547.41	2825.2
1550.646	2865.66
1553.882	2899.33
1557.117	2949.8
1560.352	2964.75
1563.587	2919.17
1566.821	2875.93
1570.055	2914.51
1573.289	2881.47
1576.523	2961.78
1579.756	2962.29
1582.989	2981.73
1586.222	2939.25
1589.454	2978.54
1592.686	2950.44
1595.918	2973.79
1599.15	2959.36
1602.381	3041.88
1605.612	2987.46
1608.843	3086.41
1612.073	2998.79
1615.303	2980.96
1618.533	2968.8
1621.762	2975.31
1624.992	2963.49
1628.221	2940.03
1631.449	2926.06
1634.678	2992.08
1637.906	2940.3
1641.134	2985.47
1644.361	2937.93
1647.588	2924.93
1650.815	2942.66
1654.042	2923.98
1657.269	2953.71
1660.495	2898.37
1663.72	2912.25
1666.946	2876.93
1670.171	2808.99
1673.396	2787.6
1676.621	2777.78
1679.845	2803.16
1683.069	2827.5
1686.293	2871.67
1689.517	2840.86
1692.74	2762.84
1695.963	2797.17
1699.185	2824.93
1702.408	2799.65
1705.63	2844.22
1708.852	2855.07
1712.073	2829.13
1715.294	2810.33
1718.515	2874.63
1721.736	2821.13
1724.956	2817.94
1728.176	2845.93
1731.396	2868.71
1734.616	2856.22
1737.835	2882.47
1741.054	2865.47
1744.272	2862.16
1747.491	2888.39
1750.709	2950.99
1753.927	2845.07
1757.144	2893.71
1760.361	2933.15
1763.578	2930.14
1766.795	2870.79
1770.011	2882.42
1773.227	2928.35
1776.443	2962.59
1779.658	3005.42
1782.874	2952.04
1786.089	2924.72
1789.303	2928.41
1792.518	2937.86
1795.732	2924.82
1798.945	2935.34
1802.159	2988.68
1805.372	2881.76
1808.585	2865.9
1811.797	2867.11
1815.01	2925.25
1818.222	2922.2
1821.434	2879.44
1824.645	2945.87
1827.856	2924.69
1831.067	2963.12
1834.278	2925.59
1837.488	2907.8
1840.698	3066.98
1843.908	2983
1847.117	2949.77
1850.326	2819.34
1853.535	2936.14
1856.744	2985.92
1859.952	2896.64
1863.16	2900.22
1866.368	2927.96
1869.575	3034.66
1872.782	2918.96
1875.989	2858.32
1879.196	2959.76
1882.402	2953.69
1885.608	3001.12
1888.814	2897.37
1892.019	2786.54
1895.224	2841.08
1898.429	2826.34
1901.634	2800.71
1904.838	2779.89
1908.042	2833.47
1911.246	2842.48
1914.449	2761.28
1917.652	2761.09
1920.855	2742.19
1924.058	2797.49
1927.26	2832.66
1930.462	2866.72
1933.664	2888.76
1936.865	2825.09
1940.066	2830.83
1943.267	2776
1946.467	2793.57
1949.668	2823.56
1952.868	2895.48
1956.067	2869.33
1959.267	2797.32
1962.466	2827.27
1965.665	2806.71
1968.863	2806.26
1972.061	2823.59
1975.259	2823.37
1978.457	2906.99
1981.654	2860.52
1984.852	2860.01
1988.048	2784.04
1991.245	2792.47
1994.441	2878.9
1997.637	2870.61
2000.833	2851.25
2004.028	2892.05
2007.223	2943.13
2010.418	2917.57
2013.613	2879.8
2016.807	2844.29
2020.001	2859.64
2023.194	2907.45
2026.388	2878.34
2029.581	2823.3
2032.774	2868.59
2035.966	2873.36
2039.158	2799.52
2042.35	2832.32
2045.542	2758.34
2048.733	2862.58
2051.924	2895.39
2055.115	2923.07
2058.306	2860.38
2061.496	2925.13
2064.686	2995.34
2067.875	2908.06
2071.065	2924.97
2074.254	2955.04
2077.442	2902.97
2080.631	2997.87
2083.819	2877.66
2087.007	2854.46
2090.195	2822.14
2093.382	2861.21
2096.569	2837.24
2099.756	2786.57
2102.942	2805.96
2106.128	2811.99
2109.314	2802.84
2112.5	2760.77
2115.685	2737.16
2118.87	2749.18
2122.055	2818.91
2125.239	2778.32
2128.424	2752.07
2131.608	2865.96
2134.791	2846.79
2137.974	2913.5
2141.157	2897.03
2144.34	2843.38
2147.523	2863.17
2150.705	2873.77
2153.887	2853.1
2157.068	2794.89
2160.25	2803.41
2163.431	2845.36
2166.611	2784.32
2169.792	2800.39
2172.972	2684.19
2176.152	2774.97
2179.331	2815.19
2182.511	2792.16
2185.69	2820.57
2188.868	2816.36
2192.047	2877.06
2195.225	2861.37
2198.403	2809.53
2201.58	2804.99
2204.758	2800.69
2207.935	2893.34
2211.111	2766.91
2214.288	2746.65
2217.464	2790.49
2220.64	2768.39
2223.815	2825.41
2226.991	2742.15
2230.166	2764.99
2233.34	2791.02
2236.515	2820.66
2239.689	2901.91
2242.863	2838.43
2246.036	2899.36
2249.209	2905.32
2252.382	2944.67
2255.555	2926.8
2258.727	2860
2261.9	2904.76
2265.071	2894.24
2268.243	2898.86
2271.414	2823.54
2274.585	2777.52
2277.756	2852.49
2280.926	2805.05
2284.096	2851.29
2287.266	2749.45
2290.436	2808.56
2293.605	2837.31
2296.774	2870.08
2299.942	2895
2303.111	2915.3
2306.279	2962.51
2309.447	2949.32
2312.614	2923.73
2315.781	2945.33
2318.948	2910.69
2322.115	2951.75
2325.281	2849.19
2328.447	2875.13
2331.613	2848.53
2334.779	2817.01
2337.944	2820.71
2341.109	2821.21
2344.274	2801.28
2347.438	2763.43
2350.602	2789.72
2353.766	2807.9
2356.929	2790.95
2360.092	2837.27
2363.255	2784.2
2366.418	2707.11
2369.58	2836.97
2372.742	2590.12
2375.904	2611.86
2379.066	2583.52
2382.227	2624
2385.388	2586.16
2388.548	2503.24
2391.709	2565.47
2394.869	2541.26
2398.029	2653.66
2401.188	2670.62
2404.347	2594.51
2407.506	2762.27
2410.665	2789.43
2413.823	2799.81
2416.981	2749.97
2420.139	2787
2423.296	2842.22
2426.453	2813.27
2429.61	2838.37
2432.767	2763.37
2435.923	2801.15
2439.079	2747.49
2442.235	2802.77
2445.391	2720.24
2448.546	2749.2
2451.701	2804.69
2454.855	2767.71
2458.009	2827.25
2461.163	2831.67
2464.317	2787.63
2467.471	2824.22
2470.624	2868.33
2473.777	2853.61
2476.929	2864.52
2480.082	2892.65
2483.234	2852.41
2486.385	2800.68
2489.537	2794.4
2492.688	2746.4
2495.839	2766.95
2498.989	2778.32
2502.14	2759.38
2505.29	2740.22
2508.439	2768.4
2511.589	2684.85
2514.738	2696.29
2517.887	2729.89
2521.035	2802.92
2524.183	2790.65
2527.331	2767.15
2530.479	2735.05
2533.627	2746.2
