Data from C_3_DEC_ON_6N_Splice17_13-35-57-255.txt Node
Date: Sat Mar 14 13:35:57 EDT 2020
User: sa697716
Spectrometer: FLMS03696
Trigger mode: 0
Integration Time (sec): 3.180400E-1
Scans to average: 20
Electric dark correction enabled: true
Nonlinearity correction enabled: true
Boxcar width: 5
XAxis mode: Wavelengths
Number of Pixels in Spectrum: 2048
>>>>>Begin Spectral Data<<<<<
187.83	-385274.55
188.298	2866.25
188.766	1560.61
189.233	1397.44
189.701	1988.04
190.169	2756.5
190.636	1042.38
191.104	883.34
191.571	162.08
192.039	-93.6
192.506	-96.46
192.974	683.77
193.441	-1117.26
193.908	-242.61
194.375	-65.82
194.842	19.86
195.31	107.39
195.777	174.68
196.244	415.4
196.711	438.36
197.177	530.33
197.644	734.16
198.111	1285.49
198.578	1825.38
199.045	1446.92
199.511	2343.53
199.978	2714.75
200.445	2301.89
200.911	2544.02
201.378	2824.24
201.844	2595.02
202.31	4397.77
202.777	4563.84
203.243	2535.97
203.709	2377.19
204.176	2839.64
204.642	2342.43
205.108	2178.94
205.574	1769.9
206.04	1589.42
206.506	1480.76
206.972	1385.15
207.438	1339.13
207.903	1510.28
208.369	1322.94
208.835	1332.93
209.301	1388.36
209.766	1398.93
210.232	1389.69
210.697	1718.37
211.163	2110.76
211.628	3150.72
212.094	2624.71
212.559	3260.5
213.024	2047.73
213.49	2481.12
213.955	2392.16
214.42	2304.37
214.885	2155.17
215.35	2048.97
215.815	2017.1
216.28	2154.13
216.745	1737.24
217.21	1861.04
217.675	1652.39
218.14	1810.29
218.604	1969.66
219.069	2235.68
219.534	2347.68
219.998	2663.71
220.463	3180.93
220.927	3774.53
221.392	3479.87
221.856	3506.2
222.32	4352.09
222.785	5358.47
223.249	6722.16
223.713	7517.02
224.177	7471
224.642	9435.34
225.106	11618.9
225.57	12626.96
226.034	9448.63
226.497	14455.87
226.961	13085.44
227.425	15271.28
227.889	16887.78
228.353	16822.2
228.816	34572.88
229.28	33041.74
229.744	27891.19
230.207	16969.27
230.671	16700.47
231.134	27529.48
231.597	31734.78
232.061	31624.48
232.524	30797.72
232.987	21230.04
233.45	19168.65
233.914	17212.42
234.377	17599.69
234.84	16132.64
235.303	18961.61
235.766	21215.35
236.229	21870.15
236.691	13733.68
237.154	15429.72
237.617	11650.91
238.08	11933.93
238.542	13959.15
239.005	9990.21
239.468	9951.19
239.93	9394.68
240.393	8565.25
240.855	7531.54
241.317	7735.92
241.78	9429.98
242.242	9798.1
242.704	10623.15
243.166	9284.88
243.629	8486
244.091	9809.71
244.553	10756.38
245.015	11581.22
245.477	15007.51
245.939	22004.95
246.4	23439.24
246.862	22802.69
247.324	21487.6
247.786	23991.38
248.247	31426.8
248.709	32330.95
249.17	24218.44
249.632	22959.91
250.093	26720.55
250.555	23104.4
251.016	14120.73
251.477	13383.96
251.939	14505.68
252.4	15232.21
252.861	18116.05
253.322	16887.51
253.783	20111.65
254.244	26062.4
254.705	20489.71
255.166	18171.45
255.627	17890.25
256.088	25250.46
256.549	26803.67
257.009	23017.43
257.47	27916.86
257.931	22720.94
258.391	16989.53
258.852	17498.95
259.312	18304.62
259.773	22608.47
260.233	19113.3
260.694	16130.19
261.154	18266.42
261.614	14700.77
262.074	13125.66
262.534	13627.48
262.994	12842.95
263.455	17084.97
263.915	14404.38
264.374	13571.99
264.834	14783.37
265.294	16359.01
265.754	16910.53
266.214	15975.3
266.673	14915.92
267.133	18822.33
267.593	18631.52
268.052	22776.35
268.512	19815.3
268.971	23917.12
269.431	26189.14
269.89	23435.54
270.349	35155.94
270.809	39250.48
271.268	35292.25
271.727	79043.11
272.186	51145.42
272.645	38374.07
273.104	27637.65
273.563	39943.93
274.022	31304.62
274.481	26672.01
274.94	20552.15
275.399	15233.14
275.857	17693.81
276.316	23886.87
276.775	21291.42
277.233	20972.85
277.692	19665.13
278.15	22297.27
278.609	23006.78
279.067	21282.34
279.525	19770.73
279.984	25506.86
280.442	30682.49
280.9	30319.41
281.358	19971.34
281.816	18619.18
282.274	18242.62
282.732	18792.18
283.19	18846.98
283.648	16223.49
284.106	17318.53
284.564	17588.14
285.021	16345.86
285.479	12176.15
285.937	11030.68
286.394	9707.31
286.852	9973.7
287.309	10478.65
287.767	10166.04
288.224	9678.88
288.682	10641.74
289.139	11692.59
289.596	10723.27
290.053	11116.6
290.511	14029.06
290.968	17079.56
291.425	23163.51
291.882	19360.6
292.339	16866.75
292.796	16711.69
293.252	15740.16
293.709	12533.19
294.166	11221.03
294.623	12397.71
295.079	11907.19
295.536	11981.87
295.992	10865.62
296.449	10736.27
296.905	11162.62
297.362	10742.29
297.818	11310.21
298.274	11781.59
298.731	11982.65
299.187	11870.53
299.643	12751.11
300.099	15446.62
300.555	16943.05
301.011	14191.88
301.467	13748.79
301.923	16047.69
302.379	15659.92
302.835	15371.62
303.291	15369.85
303.746	17509.31
304.202	22112.32
304.658	22229.16
305.113	14938.99
305.569	14647.78
306.024	15607.34
306.479	14812.9
306.935	12534.18
307.39	13642.76
307.845	12636.92
308.301	12743.3
308.756	12415.9
309.211	11982.91
309.666	12289.62
310.121	15336.74
310.576	15588.01
311.031	15480.03
311.486	17698.89
311.94	17652.86
312.395	23673.62
312.85	44448.09
313.305	218212.15
313.759	1134020.13
314.214	82313.7
314.668	65314.15
315.123	54968.61
315.577	19747.62
316.032	17599.97
316.486	22110.97
316.94	17525.94
317.394	12242
317.849	9527.97
318.303	9010.01
318.757	8532.12
319.211	9458.22
319.665	8291.31
320.119	8390.59
320.572	12014.48
321.026	11238.19
321.48	9360.16
321.934	10186.33
322.387	10206.67
322.841	11056.59
323.295	10013.18
323.748	11490.54
324.202	11624.3
324.655	13979.91
325.108	19619.06
325.562	13888.29
326.015	16511.56
326.468	12514.06
326.921	14017.16
327.374	13092.99
327.827	13655.52
328.28	15438.88
328.733	10368.86
329.186	9150.01
329.639	8727.47
330.092	7358.98
330.545	7031.96
330.997	7108.59
331.45	7798.64
331.903	9165
332.355	15733.69
332.808	15284.98
333.26	12593.13
333.713	13736.63
334.165	13830.38
334.617	18421.99
335.069	14849.03
335.522	26856.9
335.974	29742.33
336.426	27111.45
336.878	18740.91
337.33	9564.86
337.782	9363.51
338.234	11802.41
338.686	14080.44
339.137	16709.63
339.589	15760.77
340.041	12349.51
340.493	10616.04
340.944	10878.12
341.396	11715.56
341.847	9926.44
342.299	11743.36
342.75	14358.59
343.201	12491.55
343.653	14363.61
344.104	17643.19
344.555	13913.04
345.006	21662.25
345.457	16688.58
345.908	13259.77
346.359	12524.25
346.81	10168.2
347.261	10670.77
347.712	10489.9
348.163	11259.28
348.613	11472.38
349.064	10750.66
349.515	9427.16
349.965	9693.81
350.416	11644.35
350.866	12775.1
351.317	14434.15
351.767	23956.87
352.217	30396.24
352.668	25266.08
353.118	23173.74
353.568	22223.98
354.018	17622.83
354.468	18604.45
354.918	13369.15
355.368	11693.43
355.818	16575.39
356.268	47702.1
356.718	199982.79
357.168	49757.06
357.617	24957.22
358.067	27802.11
358.517	26147.29
358.966	30752.1
359.416	34601.34
359.865	37412.96
360.315	44579.39
360.764	20889.94
361.213	11734.93
361.663	11113.26
362.112	13715.74
362.561	22203.59
363.01	16754.96
363.459	14094.25
363.908	15178.69
364.357	12920.87
364.806	21838.89
365.255	15073.55
365.703	13822.48
366.152	13850.92
366.601	11250.58
367.05	9182.33
367.498	8359.64
367.947	8718.63
368.395	9071.96
368.844	8070.8
369.292	9694.32
369.74	6715.59
370.189	10264.9
370.637	12016.4
371.085	10357.13
371.533	12584.05
371.981	12081.01
372.429	11549.08
372.877	12046.68
373.325	10099.35
373.773	10282.42
374.221	9148.78
374.669	11352.34
375.116	9823.91
375.564	9933.28
376.012	11116.73
376.459	9214.65
376.907	11018.73
377.354	13339.81
377.801	12497.66
378.249	14424.76
378.696	18399.62
379.143	22316.07
379.591	23666.27
380.038	40063.78
380.485	28969.43
380.932	31396.76
381.379	28795.85
381.826	21341.03
382.273	15174.56
382.72	13231.51
383.166	12911.17
383.613	8406.4
384.06	7614.19
384.506	8868.3
384.953	6528.98
385.4	6579.11
385.846	5787.85
386.292	5636.73
386.739	5538.09
387.185	5510.82
387.631	5574.34
388.078	5487.79
388.524	5949.07
388.97	5539.73
389.416	4666.9
389.862	5009.97
390.308	4776.59
390.754	4888.67
391.2	5392.36
391.645	5606.54
392.091	5484.61
392.537	5404.02
392.983	5468.6
393.428	5459.6
393.874	5930.81
394.319	6082.47
394.765	5935.07
395.21	6317.27
395.655	6143.45
396.101	5952.02
396.546	5559.06
396.991	5799.97
397.436	5578.44
397.881	5607.12
398.326	5534.51
398.771	5476.07
399.216	4994.11
399.661	4670.93
400.106	4812.85
400.551	5082.18
400.995	4685.51
401.44	4745.51
401.885	4551.56
402.329	4690.85
402.774	4576.2
403.218	4499.44
403.663	4406.09
404.107	4603.4
404.551	4715.39
404.995	4417.02
405.44	4352.96
405.884	4519.43
406.328	4471.59
406.772	4543.7
407.216	4218.77
407.66	4172.04
408.104	4072.42
408.547	3912.77
408.991	3877.13
409.435	3814.8
409.879	3822.78
410.322	3831.81
410.766	3760.77
411.209	3637.33
411.653	3568.45
412.096	3569.51
412.54	3642.25
412.983	3681.21
413.426	3741.27
413.869	3795.39
414.312	3772.25
414.756	3690.68
415.199	3572.16
415.642	3517.14
416.085	3566.33
416.527	3579.38
416.97	3674.66
417.413	3512.93
417.856	3503.18
418.298	3489
418.741	3475.12
419.184	3481.7
419.626	3643.65
420.069	3651.39
420.511	3678.3
420.953	3616.69
421.396	3607.69
421.838	3538.63
422.28	3641.2
422.722	3682.53
423.164	3778.83
423.606	3760.63
424.048	3800.75
424.49	3646.17
424.932	3672.78
425.374	3659.88
425.816	3745.43
426.258	3804.78
426.699	3808.17
427.141	3688.45
427.582	3690.03
428.024	3634.37
428.465	3618.4
428.907	3565
429.348	3576.74
429.789	3624.53
430.231	3583.8
430.672	3670.56
431.113	3642.93
431.554	3686.21
431.995	3731.24
432.436	3723.28
432.877	3753.19
433.318	3770.37
433.759	3819.34
434.2	3865.11
434.64	3866.06
435.081	3926.71
435.522	3772.69
435.962	3695.37
436.403	3664.33
436.843	3769.18
437.284	3737.83
437.724	3680.75
438.164	3731.41
438.604	3679.72
439.045	3568.57
439.485	3453.72
439.925	3429.74
440.365	3392.31
440.805	3387.16
441.245	3377.31
441.685	3274
442.125	3273.44
442.564	3307.14
443.004	3234.37
443.444	3237.14
443.883	3257.25
444.323	3263.96
444.762	3301.07
445.202	3367.04
445.641	3439.43
446.081	3446.6
446.52	3493.41
446.959	3480.52
447.398	3421.45
447.837	3421.54
448.276	3396.43
448.716	3451.95
449.154	3495.79
449.593	3399.15
450.032	3376.97
450.471	3319.09
450.91	3316.72
451.349	3295.14
451.787	3272.84
452.226	3310.5
452.664	3292.54
453.103	3282.31
453.541	3274.47
453.98	3252.18
454.418	3282.01
454.856	3224.31
455.295	3209.16
455.733	3222.04
456.171	3234.12
456.609	3219.79
457.047	3212.83
457.485	3244.24
457.923	3239.06
458.361	3191.14
458.798	3202.97
459.236	3193.81
459.674	3229.23
460.111	3256.29
460.549	3234.44
460.987	3238.13
461.424	3245.92
461.862	3239.05
462.299	3204.84
462.736	3210.24
463.173	3229.9
463.611	3190.27
464.048	3186.66
464.485	3221.52
464.922	3210.99
465.359	3220.16
465.796	3162.73
466.233	3161.39
466.67	3148.71
467.106	3158.11
467.543	3155.53
467.98	3145.56
468.416	3109.84
468.853	3129.59
469.29	3075.67
469.726	3070.75
470.162	3015.91
470.599	3039.25
471.035	3045.57
471.471	3005.57
471.907	3027.96
472.344	3035.78
472.78	3056.47
473.216	3110.16
473.652	3077.54
474.088	3079.21
474.523	3075.96
474.959	3115.33
475.395	3093.02
475.831	3070.91
476.266	3089.62
476.702	3081.67
477.138	3047.43
477.573	3039.24
478.008	3025.72
478.444	3036.66
478.879	3051.88
479.314	3055.42
479.75	3039.53
480.185	3044.16
480.62	3059.29
481.055	3058.76
481.49	3056.25
481.925	3071.82
482.36	3072.68
482.795	3105.77
483.229	3127.87
483.664	3133.04
484.099	3094.79
484.534	3100.44
484.968	3090.43
485.403	3069.6
485.837	3039.67
486.271	3013.36
486.706	3006.24
487.14	2983.44
487.574	2946.65
488.009	2935.18
488.443	2920.1
488.877	2943.93
489.311	2946.41
489.745	2970.92
490.179	2985.66
490.613	3022.35
491.046	3036.96
491.48	3045.4
491.914	3032.92
492.348	3041.17
492.781	3044.76
493.215	3043.25
493.648	3048.44
494.082	3067.76
494.515	3057.81
494.948	3072.65
495.382	3079.88
495.815	3078.12
496.248	3076.13
496.681	3107.29
497.114	3130.52
497.547	3142.33
497.98	3158.61
498.413	3141.36
498.846	3139.72
499.279	3143.69
499.711	3137.9
500.144	3121.82
500.577	3129.77
501.009	3143.84
501.442	3147.39
501.874	3124.86
502.306	3116.65
502.739	3123.56
503.171	3169
503.603	3166.52
504.036	3179.75
504.468	3171.96
504.9	3183.86
505.332	3183.51
505.764	3173.58
506.196	3175.86
506.627	3198.16
507.059	3210.09
507.491	3212.4
507.923	3168.17
508.354	3183.88
508.786	3187.41
509.217	3213.98
509.649	3228.5
510.08	3254.16
510.512	3264.63
510.943	3267.51
511.374	3259.16
511.805	3280.31
512.237	3299.49
512.668	3355.27
513.099	3385.03
513.53	3402.08
513.961	3393.86
514.391	3418.41
514.822	3443.9
515.253	3482.67
515.684	3498.13
516.114	3527.16
516.545	3536.9
516.975	3562.28
517.406	3569.84
517.836	3548.69
518.267	3550.55
518.697	3585.54
519.127	3586.92
519.558	3593.84
519.988	3589.98
520.418	3602.38
520.848	3633.49
521.278	3637.85
521.708	3610.61
522.138	3623.45
522.567	3674.91
522.997	3704.97
523.427	3706.25
523.857	3708.99
524.286	3699.96
524.716	3708.55
525.145	3727.43
525.575	3728.71
526.004	3742.45
526.433	3752.29
526.863	3732.72
527.292	3694.99
527.721	3700.72
528.15	3716.74
528.579	3721.68
529.008	3745.43
529.437	3786.9
529.866	3802.25
530.295	3821.18
530.724	3828.46
531.152	3865.61
531.581	3878.97
532.01	3901.38
532.438	3905.66
532.867	3923.39
533.295	3948.03
533.723	3948.97
534.152	3933.94
534.58	3927.28
535.008	3889.61
535.436	3884.98
535.865	3896.63
536.293	3919.18
536.721	3940.12
537.149	3974
537.576	3959.08
538.004	3971.08
538.432	3977.04
538.86	3966.76
539.287	3976.25
539.715	3998.57
540.143	4001.75
540.57	3990.67
540.998	3983.36
541.425	3940.37
541.852	3907.15
542.28	3916.14
542.707	3893.74
543.134	3873.96
543.561	3874.66
543.988	3865.05
544.415	3870.29
544.842	3864.61
545.269	3855.51
545.696	3865.03
546.123	3898.81
546.549	3882.82
546.976	3860.41
547.403	3865
547.829	3874.38
548.256	3884.69
548.682	3884.96
549.108	3875.37
549.535	3881.95
549.961	3891.94
550.387	3869.08
550.813	3861.16
551.24	3880.01
551.666	3888.76
552.092	3873.38
552.518	3865.8
552.943	3854.55
553.369	3872.22
553.795	3884.75
554.221	3886.21
554.646	3878.71
555.072	3897.15
555.498	3904.45
555.923	3915.19
556.349	3936.7
556.774	3945.98
557.199	3941.74
557.625	3952.1
558.05	3937.17
558.475	3959.37
558.9	3955.43
559.325	3937.75
559.75	3926.5
560.175	3914.82
560.6	3907.92
561.025	3910.03
561.449	3918.65
561.874	3932.59
562.299	3940.59
562.723	3953.19
563.148	3928.22
563.572	3936.53
563.997	3957.98
564.421	3971.64
564.846	3972.15
565.27	3976.83
565.694	3967.43
566.118	3986.52
566.542	3999.3
566.966	3983.64
567.39	3970.42
567.814	3945.1
568.238	3940.82
568.662	3952.58
569.086	3958.45
569.509	3981.7
569.933	3956.8
570.357	3954.35
570.78	3923.12
571.204	3907.46
571.627	3900.08
572.05	3914.4
572.474	3929.33
572.897	3920.21
573.32	3917.47
573.743	3913.28
574.166	3884.36
574.589	3896.71
575.012	3889.46
575.435	3897.49
575.858	3886.92
576.281	3872.69
576.704	3849.71
577.126	3839.9
577.549	3829.69
577.972	3824.11
578.394	3814.12
578.817	3811.7
579.239	3785.77
579.661	3771.68
580.084	3752.1
580.506	3741.1
580.928	3750.3
581.35	3739.79
581.772	3740.91
582.194	3720.17
582.616	3696.52
583.038	3668.38
583.46	3649.29
583.882	3645.16
584.303	3659.07
584.725	3648.66
585.147	3639.25
585.568	3648.74
585.99	3652.64
586.411	3642.25
586.833	3652.69
587.254	3637.29
587.675	3656.27
588.096	3672.2
588.518	3648.36
588.939	3596.83
589.36	3582.63
589.781	3563.15
590.202	3499.76
590.623	3494.33
591.043	3505.8
591.464	3487.96
591.885	3484.85
592.305	3474.92
592.726	3445.28
593.147	3449.48
593.567	3441
593.987	3424.49
594.408	3412.74
594.828	3410.19
595.248	3391.72
595.669	3344.69
596.089	3329.99
596.509	3318.52
596.929	3287.91
597.349	3287.13
597.769	3260.9
598.189	3240.6
598.608	3237.14
599.028	3236.23
599.448	3232.02
599.867	3202.49
600.287	3191.64
600.706	3179.45
601.126	3155.39
601.545	3150.61
601.965	3148.1
602.384	3136.7
602.803	3144.51
603.222	3135.52
603.641	3121.79
604.061	3113.75
604.48	3105.14
604.898	3122.86
605.317	3133.6
605.736	3136.33
606.155	3127.67
606.574	3104.41
606.992	3112.26
607.411	3096.68
607.829	3076.89
608.248	3069.16
608.666	3064.32
609.085	3061.18
609.503	3041.71
609.921	3025.79
610.339	3029.54
610.758	3027.17
611.176	3015.84
611.594	2996.07
612.012	2989.81
612.43	2995.93
612.847	3007.34
613.265	3004.62
613.683	3011.78
614.101	3011.1
614.518	3002.45
614.936	2982.49
615.353	2951.33
615.771	2948.66
616.188	2953.05
616.606	2949.92
617.023	2939.35
617.44	2913.83
617.857	2909.02
618.274	2897.02
618.691	2889.96
619.108	2872.72
619.525	2858.38
619.942	2873.55
620.359	2876.77
620.776	2861.64
621.192	2846.65
621.609	2834.98
622.026	2842.43
622.442	2843.81
622.859	2842.84
623.275	2820.17
623.691	2826.7
624.108	2845.6
624.524	2870.17
624.94	2861.44
625.356	2876.22
625.772	2899.51
626.188	2919.11
626.604	2916.43
627.02	2901.62
627.436	2891.33
627.852	2898.86
628.268	2917.93
628.683	2892.83
629.099	2869.31
629.514	2857.61
629.93	2864.91
630.345	2873.41
630.761	2865.3
631.176	2872.72
631.591	2860.48
632.007	2847.84
632.422	2846.89
632.837	2825.4
633.252	2822.29
633.667	2804.45
634.082	2789.84
634.497	2766.22
634.911	2727.83
635.326	2727.83
635.741	2696.84
636.155	2683.33
636.57	2693.14
636.984	2698.72
637.399	2706.99
637.813	2715.83
638.228	2721.07
638.642	2738.4
639.056	2723.33
639.47	2732.29
639.884	2721.43
640.298	2717.19
640.712	2724.31
641.126	2709.07
641.54	2701.84
641.954	2706.1
642.368	2690
642.781	2681.4
643.195	2650.75
643.609	2661.49
644.022	2656.47
644.436	2653.41
644.849	2630.8
645.262	2609.69
645.676	2618.92
646.089	2611.03
646.502	2575.12
646.915	2566.38
647.328	2532.16
647.741	2534.78
648.154	2510.63
648.567	2508.75
648.98	2483.6
649.393	2493.69
649.805	2493.44
650.218	2484.8
650.631	2455.79
651.043	2452.9
651.456	2444.63
651.868	2451.17
652.28	2493.31
652.693	2518.11
653.105	2520.18
653.517	2522.99
653.929	2504.73
654.341	2503.85
654.753	2465.76
655.165	2478.49
655.577	2473.86
655.989	2469.3
656.401	2463
656.813	2387.64
657.224	2363.95
657.636	2328.04
658.047	2319.87
658.459	2307.16
658.87	2319.77
659.282	2318.15
659.693	2287.74
660.104	2267.02
660.515	2248.64
660.926	2258.36
661.338	2268.84
661.749	2268.59
662.159	2255.34
662.57	2259.86
662.981	2260.14
663.392	2249.9
663.803	2270.79
664.213	2276
664.624	2276.73
665.035	2295.76
665.445	2268.63
665.855	2254.5
666.266	2236.63
666.676	2238.7
667.086	2218.72
667.497	2219.28
667.907	2204.08
668.317	2178.94
668.727	2161.6
669.137	2163.63
669.547	2154.45
669.956	2159.69
670.366	2164.48
670.776	2166.37
671.186	2171.68
671.595	2174.23
672.005	2180.45
672.414	2170.89
672.824	2158.94
673.233	2171.12
673.642	2169.86
674.052	2169.57
674.461	2165.17
674.87	2170.44
675.279	2152.45
675.688	2151.77
676.097	2146.39
676.506	2128.84
676.915	2160.51
677.323	2159.76
677.732	2142.77
678.141	2131.35
678.549	2094.08
678.958	2083.52
679.366	2070.43
679.775	2074.17
680.183	2084.05
680.592	2086.66
681	2084.59
681.408	2049.39
681.816	2050.71
682.224	2055.46
682.632	2056.52
683.04	2104.65
683.448	2128.74
683.856	2153.39
684.264	2178.9
684.671	2193.39
685.079	2218.72
685.487	2252
685.894	2318.66
686.302	2355.92
686.709	2369.2
687.116	2396.61
687.524	2406.69
687.931	2411.37
688.338	2419.94
688.745	2425.96
689.152	2439.16
689.559	2467.56
689.966	2488.1
690.373	2467.47
690.78	2478.86
691.187	2523.92
691.593	2538.55
692	2543.3
692.407	2579.62
692.813	2632.87
693.22	2664.98
693.626	2701.67
694.032	2723.47
694.439	2783.32
694.845	2821.47
695.251	2881.96
695.657	2931.41
696.063	3024.01
696.469	3078.86
696.875	3125.85
697.281	3132.94
697.687	3152.35
698.093	3159.51
698.498	3211.5
698.904	3240.34
699.31	3307.2
699.715	3343.97
700.12	3416.03
700.526	3406.58
700.931	3462.96
701.337	3500.64
701.742	3518.84
702.147	3594.39
702.552	3611.38
702.957	3663.37
703.362	3671.15
703.767	3690.63
704.172	3722.5
704.577	3658.47
704.981	3698.48
705.386	3701.52
705.791	3678.09
706.195	3745.64
706.6	3743.21
707.004	3817.79
707.408	3771.93
707.813	3791.49
708.217	3767.69
708.621	3756.62
709.025	3849.73
709.43	3841.67
709.834	3895.28
710.237	3959
710.641	3932.78
711.045	3944.92
711.449	3928.15
711.853	3947.54
712.256	3978.48
712.66	4003.74
713.064	4067.5
713.467	4089.41
713.87	4174.75
714.274	4188.03
714.677	4258.48
715.08	4377.9
715.484	4496.98
715.887	4645.52
716.29	4784.31
716.693	4929.23
717.096	5102.42
717.499	5174.81
717.901	5164.69
718.304	5172.52
718.707	5194.1
719.109	5112.75
719.512	5098.34
719.915	4993.17
720.317	4954
720.719	5004.54
721.122	4987.31
721.524	4951.26
721.926	4920.27
722.328	5012.5
722.731	4993.91
723.133	5002.53
723.535	5161.71
723.937	5159.05
724.338	5187.02
724.74	5213.69
725.142	5173.67
725.544	5168.89
725.945	5194.58
726.347	5188.79
726.748	5178.71
727.15	5193.06
727.551	5161.63
727.952	5135.14
728.354	5108.3
728.755	5109.23
729.156	5074.64
729.557	5047.56
729.958	4944.73
730.359	4902.19
730.76	4898.55
731.161	4860.48
731.562	4852.1
731.962	4868.72
732.363	4822.43
732.763	4776.89
733.164	4822.48
733.564	4765.96
733.965	4681.5
734.365	4653.44
734.766	4682.43
735.166	4648.85
735.566	4595.51
735.966	4567.73
736.366	4561.25
736.766	4503.41
737.166	4533.96
737.566	4497.04
737.966	4475
738.365	4514.87
738.765	4510.71
739.165	4439.69
739.564	4414.75
739.964	4460.79
740.363	4419.92
740.763	4419.66
741.162	4413.48
741.561	4384.94
741.96	4343.29
742.36	4364.57
742.759	4371.13
743.158	4407.27
743.557	4423.9
743.955	4463.19
744.354	4420.18
744.753	4475.96
745.152	4437.68
745.55	4488.84
745.949	4481.86
746.348	4481.42
746.746	4495.6
747.144	4456.08
747.543	4434.95
747.941	4478.27
748.339	4407.43
748.737	4396.72
749.136	4387.15
749.534	4447.76
749.932	4421.18
750.33	4444.21
750.727	4497.34
751.125	4476.71
751.523	4462.31
751.921	4505.52
752.318	4474.14
752.716	4535.66
753.113	4551.58
753.511	4576.9
753.908	4579.75
754.305	4566.05
754.703	4625.86
755.1	4683.76
755.497	4739.71
755.894	4910.75
756.291	5059.78
756.688	5329.49
757.085	5668.66
757.482	6143.44
757.878	6639.47
758.275	7060.83
758.672	7669.09
759.068	8135.56
759.465	8831.2
759.861	9730.46
760.258	10783.75
760.654	11263.16
761.05	11109.53
761.447	10593.75
761.843	9909.07
762.239	9224.52
762.635	8954.66
763.031	8693.57
763.427	8272.65
763.822	7833.95
764.218	7404.01
764.614	6811.77
765.01	6439.51
765.405	6215.97
765.801	6063.84
766.196	5834.95
766.592	5725.6
766.987	5489.44
767.382	5336.8
767.778	5297.44
768.173	5206.99
768.568	5166.98
768.963	5072.68
769.358	5107.94
769.753	5081.48
770.148	5012.94
770.542	5022.19
770.937	5002.51
771.332	5100.95
771.726	5125.92
772.121	5070.23
772.515	5127.33
772.91	5113.57
773.304	5181.54
773.699	5118.35
774.093	5166.83
774.487	5220.7
774.881	5261.35
775.275	5255.09
775.669	5210.15
776.063	5251.86
776.457	5283.05
776.851	5210.78
777.245	5202.82
777.638	5235.34
778.032	5344.17
778.425	5310.71
778.819	5351.69
779.212	5311.43
779.606	5273.39
779.999	5293.08
780.392	5279.85
780.786	5356.36
781.179	5370.49
781.572	5408.87
781.965	5418.89
782.358	5360.21
782.751	5408.24
783.143	5354.21
783.536	5418.68
783.929	5453.06
784.322	5557.19
784.714	5574.59
785.107	5562.99
785.499	5627.77
785.891	5600
786.284	5567.77
786.676	5690.78
787.068	5662.69
787.46	5701.08
787.852	5704.4
788.245	5770.03
788.636	5783.4
789.028	5837.57
789.42	5862.59
789.812	5858.69
790.204	5933.55
790.595	6017.7
790.987	5828.6
791.378	5842.32
791.77	5952.38
792.161	6075.94
792.553	6122.86
792.944	6015.42
793.335	5942.88
793.726	6005.26
794.117	6080.62
794.508	6202.68
794.899	6171.13
795.29	6292.83
795.681	6341.38
796.072	6207.21
796.463	6035.34
796.853	6039.56
797.244	6174.63
797.634	6198.36
798.025	6188.44
798.415	6188.67
798.806	6263.75
799.196	6331.45
799.586	6369.62
799.976	6319.6
800.366	6516.37
800.756	6709.16
801.146	6658.49
801.536	6674.75
801.926	6729.43
802.316	6744.53
802.706	6800.75
803.095	6679.25
803.485	6762.04
803.874	6789.24
804.264	7012.94
804.653	6983.41
805.043	7109.66
805.432	7199.75
805.821	7192.57
806.21	7202.65
806.599	7290.99
806.988	7314.89
807.377	7389.54
807.766	7485.8
808.155	7716.95
808.544	7463.75
808.933	7455.07
809.321	7416.88
809.71	7647.45
810.098	7754.6
810.487	8115.08
810.875	8490.98
811.264	8470.97
811.652	8686.4
812.04	8760.57
812.428	8851.29
812.816	9440.79
813.204	9732.91
813.592	10122.6
813.98	10344.61
814.368	10223.42
814.756	10568.61
815.144	10464.82
815.531	10813.56
815.919	10715.86
816.306	10942.25
816.694	10668.31
817.081	10706.73
817.469	10981.61
817.856	10991.39
818.243	11219.8
818.63	11543.24
819.017	11211.67
819.404	11255.71
819.791	11540.51
820.178	12011.76
820.565	12191.24
820.952	12935.81
821.339	12536.26
821.725	12669.45
822.112	12067.98
822.498	12016.01
822.885	12094.25
823.271	12011.18
823.657	12338.09
824.044	12354.11
824.43	12418.59
824.816	12406.81
825.202	12047.64
825.588	12837.34
825.974	12834.14
826.36	13217.74
826.746	13216.06
827.132	13473.38
827.517	13431.11
827.903	12801.05
828.289	12814.62
828.674	12190.32
829.06	12083.07
829.445	12376.35
829.83	12629.84
830.216	12982.93
830.601	13248.35
830.986	12935.14
831.371	12821.44
831.756	13248.79
832.141	12902.56
832.526	12889.85
832.911	13108.54
833.295	13020.11
833.68	13381.84
834.065	12907.26
834.449	12203.43
834.834	12146.75
835.218	12139.36
835.603	12403.79
835.987	12237.23
836.371	12888.18
836.755	12807.22
837.139	13105.35
837.524	13286.18
837.908	13135.65
838.291	13172.46
838.675	13206.79
839.059	13361.2
839.443	13340.51
839.827	13153.04
840.21	13510.71
840.594	13386.21
840.977	13528.25
841.361	13508.94
841.744	13774.3
842.127	13648.67
842.511	13833.8
842.894	14278.93
843.277	14555.39
843.66	14955.56
844.043	15008.32
844.426	14387.61
844.809	14131.54
845.191	14148.68
845.574	13785.92
845.957	13507.82
846.339	13410.15
846.722	12990.32
847.104	13035.67
847.487	12887.5
847.869	12883.82
848.252	13081.07
848.634	13311.34
849.016	13501.14
849.398	13580.87
849.78	14199.19
850.162	14190.65
850.544	14491.27
850.926	14947.99
851.307	14858.71
851.689	15054.68
852.071	15361.76
852.452	15587.96
852.834	15562.33
853.215	15848.53
853.597	15953.47
853.978	16168.62
854.359	16494.49
854.741	15761.08
855.122	15679.67
855.503	15473.22
855.884	15588.46
856.265	15560.13
856.646	15645.37
857.026	15358.39
857.407	15303.13
857.788	15416.34
858.169	15621.6
858.549	14994.59
858.93	15446.37
859.31	15488.46
859.69	15642.09
860.071	15325.2
860.451	15157.04
860.831	14606.8
861.211	15455.66
861.591	15858.93
861.971	15828.97
862.351	15964.9
862.731	16232.31
863.111	16416.34
863.491	16642.29
863.87	17272.94
864.25	17513.75
864.629	17210.63
865.009	17568.8
865.388	18179.63
865.768	19464.48
866.147	19367.34
866.526	18284.4
866.905	18490.01
867.284	19513.26
867.663	18521.03
868.042	17742.21
868.421	17684.13
868.8	17966.55
869.179	18147.57
869.558	17086.09
869.936	15741.09
870.315	16026.75
870.693	16416.08
871.072	17703.94
871.45	16863.61
871.828	17086.49
872.207	17966.17
872.585	17689.43
872.963	18165.27
873.341	17533.93
873.719	17329.39
874.097	17119.84
874.475	17437.39
874.853	17836.61
875.23	17090.09
875.608	17803.33
875.986	19245
876.363	18395.03
876.741	18960.84
877.118	18491.27
877.495	19385.92
877.873	19689.11
878.25	20710.65
878.627	19859.65
879.004	20118.91
879.381	20021.2
879.758	19490.56
880.135	18134.05
880.512	19164.88
880.889	18644.02
881.265	18431.24
881.642	18273.85
882.019	18571.51
882.395	18191.88
882.772	18904.04
883.148	18075.98
883.524	17989.11
883.901	17875.07
884.277	18133.86
884.653	18016.72
885.029	18536.32
885.405	20529.68
885.781	20359.72
886.157	19518.7
886.532	19744.12
886.908	19732.91
887.284	21940.1
887.659	22650.31
888.035	23339.43
888.411	23934.84
888.786	24238.59
889.161	25049.7
889.537	24580.03
889.912	25352.09
890.287	25315.33
890.662	25948.99
891.037	25444.67
891.412	23706.49
891.787	23449.2
892.162	22618
892.536	23121.2
892.911	22239.2
893.286	21736.4
893.66	20822.56
894.035	21331.49
894.409	23199.23
894.784	22246.38
895.158	22589.49
895.532	23906.28
895.906	24524.6
896.281	25067.97
896.655	24646.78
897.029	28129.14
897.402	29284.95
897.776	32574.28
898.15	32435.24
898.524	32052.7
898.898	32439.95
899.271	36305.24
899.645	31417.66
900.018	30177.2
900.392	31290.66
900.765	31530.05
901.138	29172.42
901.511	28722.43
901.884	26390.24
902.258	24349.23
902.631	25180.15
903.003	28987.73
903.376	26170.46
903.749	29362.1
904.122	31426.19
904.495	34594.07
904.867	35023.28
905.24	30394.37
905.612	28284.64
905.985	28898.79
906.357	30210.23
906.729	28804.22
907.102	24600.99
907.474	23640.65
907.846	23778.19
908.218	23461.31
908.59	20734.17
908.962	20057.55
909.334	21583.18
909.705	22668.1
910.077	21998.95
910.449	22881.85
910.82	23516.92
911.192	25855.6
911.563	26878.4
911.935	28733.11
912.306	28756.69
912.677	29690.18
913.048	29390.29
913.419	31891.9
913.79	32072.99
914.161	34390.63
914.532	32870.07
914.903	30219.59
915.274	28712.11
915.645	28268.98
916.015	24883.63
916.386	23738.19
916.756	25261.7
917.127	26053.32
917.497	23285.32
917.868	25352.2
918.238	24104.46
918.608	24805.13
918.978	25309.57
919.348	26805.17
919.718	27726.98
920.088	26727.82
920.458	27768.52
920.828	29217.05
921.198	27722.38
921.567	29601.39
921.937	22922.65
922.306	23141.75
922.676	24948.34
923.045	20839.28
923.415	19803.85
923.784	18020.06
924.153	18519.52
924.522	18509.56
924.891	17401.47
925.26	18629.02
925.629	18192.55
925.998	20899.51
926.367	20378.63
926.736	19426.83
927.104	23087.64
927.473	24809.8
927.842	29945.07
928.21	29627.14
928.578	31079.29
928.947	29366.46
929.315	29516.32
929.683	34601.43
930.051	34862.63
930.42	40436.28
930.788	34508.47
931.156	34242.01
931.523	32076.4
931.891	29607.83
932.259	28417.39
932.627	32906.98
932.994	46551.19
933.362	38441.2
933.729	33362.02
934.097	31900.11
934.464	27021.66
934.831	31118.58
935.199	30637.68
935.566	29683.15
935.933	30036.65
936.3	36377.88
936.667	28318.91
937.034	25578.65
937.401	25311.19
937.767	21844.01
938.134	19452.04
938.501	27397.28
938.867	29273.09
939.234	49541.5
939.6	42276.14
939.967	46664.62
940.333	31290.19
940.699	26664.85
941.065	21325.25
941.431	27952.46
941.798	27017.44
942.163	35510.63
942.529	22182.81
942.895	20381.04
943.261	13205.11
943.627	17338.34
943.992	15196.82
944.358	15207.51
944.723	15274.07
945.089	14903.06
945.454	13782.11
945.82	14680.73
946.185	14113.54
946.55	16375.06
946.915	14707.26
947.28	17225.42
947.645	15165.97
948.01	14000.65
948.375	14622.9
948.74	17499.22
949.104	20396.11
949.469	29405.81
949.834	51922.89
950.198	49297.3
950.562	29523.57
950.927	24578.45
951.291	29560.01
951.655	25149.26
952.02	23602.64
952.384	17815.49
952.748	15543.22
953.112	15197.41
953.476	13224.22
953.839	12221.07
954.203	12102.1
954.567	15136.76
954.931	23796.05
955.294	20369.75
955.658	20479.18
956.021	34805.89
956.385	58991.59
956.748	86886.62
957.111	134460.6
957.474	150797.51
957.837	169782.37
958.2	128179.53
958.563	46069.55
958.926	31186.88
959.289	47309
959.652	52941.34
960.015	39793.21
960.377	57118.12
960.74	65179.08
961.102	112468.99
961.465	120889.89
961.827	65115.76
962.189	125102.96
962.552	86833.3
962.914	69581.33
963.276	45200.33
963.638	37315.37
964	36875.95
964.362	24941.27
964.724	24112.45
965.085	17202.07
965.447	14105.68
965.809	15990.59
966.17	15984.36
966.532	17306.79
966.893	15896.04
967.255	14461.99
967.616	17070.86
967.977	13683.14
968.338	14959.06
968.699	12309.99
969.061	12308.74
969.421	12397.15
969.782	13927.27
970.143	11795.52
970.504	12232.36
970.865	13914.45
971.225	14231.59
971.586	13936.04
971.946	19863.07
972.307	17206.85
972.667	22448.52
973.027	23136.88
973.388	28015.76
973.748	19050.35
974.108	20751.29
974.468	28000.62
974.828	21617.79
975.188	16614.33
975.548	15276.63
975.907	12828.19
976.267	14387.28
976.627	12113.72
976.986	12553.13
977.346	11967.3
977.705	11516.97
978.064	10476.7
978.424	8719.69
978.783	8983.22
979.142	10253.14
979.501	9811.58
979.86	10382.88
980.219	10002.12
980.578	12892.58
980.937	14433.96
981.296	12878.43
981.654	13236.17
982.013	20548.81
982.371	26691.93
982.73	24958.07
983.088	28245.5
983.447	30162.6
983.805	43120.6
984.163	90183.75
984.521	99996
984.879	146611.54
985.237	-238458.77
985.595	230547.95
985.953	57306.87
986.311	33057.23
986.669	19235.77
987.026	16643.54
987.384	22309.85
987.741	23061.98
988.099	16528.91
988.456	13161.69
988.814	12322.21
989.171	10731.53
989.528	10586.39
989.885	11198.75
990.242	8880.94
990.599	11044.84
990.956	9034.88
991.313	6333.99
991.67	5202.92
992.027	5537.99
992.383	4949.21
992.74	4344.46
993.096	4564.81
993.453	4723.3
993.809	4887.84
994.165	6506.77
994.522	6003.93
994.878	6621.67
995.234	8283.37
995.59	8164.24
995.946	7687.11
996.302	8759.78
996.658	10132.44
997.013	11128.5
997.369	13227.09
997.725	16937.23
998.08	10982.97
998.436	16791.32
998.791	23101.51
999.147	23175.86
999.502	25277.48
999.857	18375.85
1000.212	29861.25
1000.567	42603.21
1000.922	24617.19
1001.277	15642.09
1001.632	11617.55
1001.987	14936.37
1002.342	10724.52
1002.696	8599.98
1003.051	6877.31
1003.406	8325.94
1003.76	8277.25
1004.114	8168.7
1004.469	6867.72
1004.823	5690.14
1005.177	6132.35
1005.531	4863.74
1005.885	4342.67
1006.239	4909.72
1006.593	6164.92
1006.947	8216.76
1007.301	6165.15
1007.655	6710.38
1008.008	4930.49
1008.362	5534.98
1008.715	7898.41
1009.069	7150.94
1009.422	10834.54
1009.776	21610.43
1010.129	14346.68
1010.482	11949.84
1010.835	10079.54
1011.188	21018.96
1011.541	19847.22
1011.894	-120974.04
1012.247	356565.6
1012.6	24204.66
1012.952	15380
1013.305	7842.61
1013.657	5686.65
1014.01	5378.19
1014.362	4424.02
1014.715	3995.49
1015.067	3492.75
1015.419	3417.7
1015.771	3060.8
1016.123	2728.62
1016.475	2815.04
1016.827	2984.85
1017.179	3242.67
1017.531	3260.28
1017.883	3314.93
1018.234	3253.76
1018.586	4119.5
1018.938	4402.23
1019.289	6086.16
1019.64	6912.83
1019.992	6398.67
1020.343	5848.27
1020.694	4670.7
1021.045	4129.87
1021.396	4722.78
1021.747	5123.6
1022.098	6074.74
1022.449	4358.99
1022.8	4003.38
1023.151	2805.09
1023.501	2492.66
1023.852	2709.54
1024.202	2815.95
1024.553	3054.38
1024.903	2986.15
1025.253	2581.66
1025.604	2321.76
1025.954	2874.26
1026.304	3500.96
1026.654	4069.6
1027.004	5924.42
1027.354	9589.72
1027.703	9065.61
1028.053	11884.72
1028.403	17719.22
1028.753	25507.43
1029.102	34172.75
1029.452	174306.91
1029.801	7548.76
1030.15	4869.8
1030.499	4133.4
897.758	3311.9
901.051	3301.6
904.343	3336.78
907.636	3330.4
910.928	3399.42
914.22	3297.76
917.511	3314.04
920.803	3400.74
924.094	3452
927.384	3397.74
930.675	3361.1
933.965	3303.25
937.255	3291.51
940.544	3258.77
943.834	3105.52
947.123	3064.86
950.411	3174.23
953.7	3135.14
956.988	3079.62
960.276	3024.02
963.563	3151.01
966.851	3127.15
970.138	3206.92
973.424	3183.11
976.711	3132.15
979.997	3394.64
983.283	3409.85
986.568	3276.12
989.853	3325.26
993.138	3358.14
996.423	3439.98
999.708	3349.07
1002.992	3471.19
1006.275	3191.56
1009.559	3302.71
1012.842	3443.97
1016.125	3347.36
1019.408	3321.7
1022.69	3449.85
1025.972	3453.86
1029.254	3421.62
1032.536	3312.16
1035.817	3359.83
1039.098	3258.18
1042.379	3535.77
1045.659	3483.7
1048.939	3391.74
1052.219	3435.88
1055.498	3467.34
1058.778	3439.76
1062.057	3429.41
1065.335	3446.15
1068.614	3480.99
1071.892	3441.14
1075.17	3548.07
1078.447	3519.91
1081.724	3504.79
1085.001	3559.36
1088.278	3518.97
1091.554	3548.58
1094.83	3544.12
1098.106	3566.41
1101.382	3632.52
1104.657	3630.33
1107.932	3629.64
1111.206	3571.72
1114.481	3531.09
1117.755	3541.81
1121.029	3500.07
1124.302	3548.31
1127.575	3472.63
1130.848	3450.08
1134.121	3400.05
1137.393	3329.42
1140.665	3414.14
1143.937	3392.83
1147.208	3292.9
1150.48	3319.57
1153.75	3297.44
1157.021	3373.71
1160.291	3328.4
1163.561	3366.46
1166.831	3388.03
1170.101	3425.25
1173.37	3409.39
1176.639	3326.81
1179.907	3401.33
1183.176	3458.3
1186.444	3464.31
1189.711	3499.54
1192.979	3495.73
1196.246	3458.8
1199.513	3484.4
1202.78	3478.13
1206.046	3482.74
1209.312	3525.44
1212.578	3563.21
1215.843	3491.92
1219.108	3473.29
1222.373	3496.22
1225.638	3441.44
1228.902	3415.39
1232.166	3377.21
1235.43	3352.75
1238.693	3367.02
1241.956	3375.44
1245.219	3402.17
1248.482	3407.89
1251.744	3395.78
1255.006	3587.41
1258.268	3550.5
1261.529	3477.4
1264.79	3496.78
1268.051	3628.93
1271.312	3649.51
1274.572	3603.44
1277.832	3594.58
1281.092	3595.82
1284.351	3541.49
1287.61	3510.39
1290.869	3394.91
1294.128	3341.97
1297.386	3488.12
1300.644	3468.99
1303.902	3481.79
1307.159	3320.96
1310.416	3382.66
1313.673	3399.89
1316.93	3371.85
1320.186	3439.34
1323.442	3499.74
1326.697	3470.61
1329.953	3485.42
1333.208	3494.58
1336.463	3481.81
1339.717	3404.71
1342.972	3494.43
1346.226	3506.04
1349.479	3413.14
1352.733	3361.23
1355.986	3411.65
1359.238	3378.78
1362.491	3379.61
1365.743	3386.65
1368.995	3387.17
1372.247	3402.29
1375.498	3415.42
1378.749	3483.25
1382	3417.54
1385.251	3496.72
1388.501	3471.14
1391.751	3432.87
1395	3413.41
1398.25	3453.89
1401.499	3445.14
1404.748	3352.97
1407.996	3259.35
1411.244	3255.86
1414.492	3229.69
1417.74	3199.87
1420.987	3222.96
1424.234	3272.62
1427.481	3279.16
1430.728	3333.34
1433.974	3306.85
1437.22	3340.22
1440.465	3344.36
1443.711	3351.67
1446.956	3383.4
1450.201	3397.87
1453.445	3442.65
1456.689	3404.8
1459.933	3424.69
1463.177	3446.4
1466.42	3417.69
1469.663	3393.87
1472.906	3359.1
1476.148	3509.56
1479.391	3384.51
1482.633	3375.86
1485.874	3368.56
1489.115	3331.21
1492.356	3362.1
1495.597	3330.74
1498.838	3349.65
1502.078	3292.55
1505.318	3211.93
1508.557	3269.59
1511.797	3174.61
1515.036	3359.93
1518.274	3340.59
1521.513	3328.37
1524.751	3364.83
1527.989	3367.01
1531.227	3368.9
1534.464	3330.2
1537.701	3389.18
1540.938	3419.57
1544.174	3377.92
1547.41	3393.58
1550.646	3429.79
1553.882	3450.5
1557.117	3504.02
1560.352	3528.27
1563.587	3476.29
1566.821	3424.41
1570.055	3489.68
1573.289	3445.99
1576.523	3549.2
1579.756	3546.21
1582.989	3561.4
1586.222	3519
1589.454	3574.69
1592.686	3532.49
1595.918	3555.24
1599.15	3531.44
1602.381	3652.37
1605.612	3570.45
1608.843	3673.11
1612.073	3567.35
1615.303	3546.46
1618.533	3522.76
1621.762	3539.21
1624.992	3539.13
1628.221	3504.19
1631.449	3485.14
1634.678	3583.43
1637.906	3519.38
1641.134	3576.47
1644.361	3520.31
1647.588	3506.7
1650.815	3513.8
1654.042	3513.69
1657.269	3548.2
1660.495	3497.51
1663.72	3433.45
1666.946	3424.96
1670.171	3320.73
1673.396	3297.8
1676.621	3300.97
1679.845	3354.75
1683.069	3396
1686.293	3459.78
1689.517	3406.59
1692.74	3297.79
1695.963	3311.46
1699.185	3416.08
1702.408	3362.86
1705.63	3420.25
1708.852	3425.05
1712.073	3394.55
1715.294	3353.47
1718.515	3374.92
1721.736	3322.01
1724.956	3280.26
1728.176	3317.61
1731.396	3337.08
1734.616	3337.91
1737.835	3339.44
1741.054	3339.84
1744.272	3338.26
1747.491	3348.05
1750.709	3441.81
1753.927	3341.51
1757.144	3398.5
1760.361	3475.89
1763.578	3487.37
1766.795	3414.94
1770.011	3440.37
1773.227	3509.45
1776.443	3534.93
1779.658	3578.92
1782.874	3524.13
1786.089	3485.32
1789.303	3490.28
1792.518	3504.06
1795.732	3493.32
1798.945	3496.05
1802.159	3557.26
1805.372	3406.31
1808.585	3375.38
1811.797	3377.26
1815.01	3466.82
1818.222	3471.54
1821.434	3333.2
1824.645	3449.17
1827.856	3402.68
1831.067	3456.29
1834.278	3371.15
1837.488	3364.51
1840.698	3555.31
1843.908	3448.2
1847.117	3410.64
1850.326	3223.54
1853.535	3370.75
1856.744	3509.47
1859.952	3380.5
1863.16	3375.53
1866.368	3402.35
1869.575	3564.69
1872.782	3438.85
1875.989	3383.31
1879.196	3518.5
1882.402	3512.47
1885.608	3566.16
1888.814	3417.46
1892.019	3287.1
1895.224	3339.94
1898.429	3340.54
1901.634	3304.21
1904.838	3291.4
1908.042	3335.67
1911.246	3332.66
1914.449	3218.59
1917.652	3238.02
1920.855	3224.7
1924.058	3303.98
1927.26	3331.6
1930.462	3370.04
1933.664	3383.11
1936.865	3314.87
1940.066	3306.49
1943.267	3254.75
1946.467	3283.84
1949.668	3322.37
1952.868	3386.32
1956.067	3341.82
1959.267	3264.35
1962.466	3298.63
1965.665	3286.86
1968.863	3282.78
1972.061	3318.84
1975.259	3326.5
1978.457	3413.95
1981.654	3362.12
1984.852	3361.81
1988.048	3264.23
1991.245	3288.69
1994.441	3372.22
1997.637	3391.1
2000.833	3373.09
2004.028	3421.62
2007.223	3461.98
2010.418	3422.37
2013.613	3394.79
2016.807	3331.31
2020.001	3358
2023.194	3435.8
2026.388	3397.97
2029.581	3345.4
2032.774	3375.5
2035.966	3370.71
2039.158	3277.24
2042.35	3314.08
2045.542	3239.79
2048.733	3372.81
2051.924	3439.3
2055.115	3481.47
2058.306	3388.34
2061.496	3456.97
2064.686	3544.04
2067.875	3467.03
2071.065	3501.68
2074.254	3542.3
2077.442	3489.74
2080.631	3596.32
2083.819	3424.19
2087.007	3389.05
2090.195	3342.23
2093.382	3405.42
2096.569	3378.79
2099.756	3317.03
2102.942	3313.79
2106.128	3300.82
2109.314	3298.66
2112.5	3230.72
2115.685	3214.56
2118.87	3230.43
2122.055	3303.47
2125.239	3249.05
2128.424	3201.19
2131.608	3368.61
2134.791	3346.78
2137.974	3436.25
2141.157	3413.01
2144.34	3335.95
2147.523	3351.99
2150.705	3344.62
2153.887	3343.58
2157.068	3259.82
2160.25	3292.92
2163.431	3357.6
2166.611	3264.83
2169.792	3278.22
2172.972	3145.62
2176.152	3270.2
2179.331	3317.86
2182.511	3301.81
2185.69	3338.64
2188.868	3321.07
2192.047	3408.98
2195.225	3363.96
2198.403	3309.01
2201.58	3312.85
2204.758	3314.2
2207.935	3413.95
2211.111	3257.22
2214.288	3233.45
2217.464	3285.64
2220.64	3275.22
2223.815	3341.74
2226.991	3243.5
2230.166	3269.67
2233.34	3282.29
2236.515	3323.14
2239.689	3416.1
2242.863	3346.86
2246.036	3414.94
2249.209	3440.9
2252.382	3495.22
2255.555	3460.06
2258.727	3373.26
2261.9	3428.68
2265.071	3419.46
2268.243	3431.95
2271.414	3340.76
2274.585	3266.19
2277.756	3345.48
2280.926	3299.29
2284.096	3354.27
2287.266	3227.34
2290.436	3299.53
2293.605	3340.84
2296.774	3359.49
2299.942	3406.83
2303.111	3424.13
2306.279	3464.53
2309.447	3456.69
2312.614	3437.49
2315.781	3451.95
2318.948	3405.6
2322.115	3449.36
2325.281	3348.27
2328.447	3389.69
2331.613	3369.48
2334.779	3313.13
2337.944	3328.87
2341.109	3319.85
2344.274	3294.89
2347.438	3254.81
2350.602	3288.94
2353.766	3315.13
2356.929	3295.64
2360.092	3340.41
2363.255	3261.86
2366.418	3148.19
2369.58	3328.82
2372.742	2986.16
2375.904	3029.21
2379.066	2987.19
2382.227	3038.67
2385.388	2996.38
2388.548	2891.23
2391.709	2967.49
2394.869	2936.92
2398.029	3101.15
2401.188	3140.79
2404.347	3033.82
2407.506	3262.43
2410.665	3284.35
2413.823	3318.43
2416.981	3244.34
2420.139	3296.66
2423.296	3360.3
2426.453	3336.57
2429.61	3361.25
2432.767	3242.66
2435.923	3297.75
2439.079	3165.08
2442.235	3263.03
2445.391	3162.98
2448.546	3165.22
2451.701	3240.63
2454.855	3174.76
2458.009	3261.7
2461.163	3280.59
2464.317	3222.63
2467.471	3268.44
2470.624	3305.2
2473.777	3369.26
2476.929	3354.65
2480.082	3389.02
2483.234	3358.06
2486.385	3217.7
2489.537	3221.05
2492.688	3142.59
2495.839	3163.18
2498.989	3164.11
2502.14	3141.76
2505.29	3107.31
2508.439	3138.03
2511.589	3035.83
2514.738	3063.1
2517.887	3091.52
2521.035	3260.38
2524.183	3255.67
2527.331	3221.97
2530.479	3165.06
2533.627	3189.04
