Data from C_3_DEC_NC_4N_Splice17_13-05-31-464.txt Node
Date: Sat Mar 14 13:05:31 EDT 2020
User: sa697716
Spectrometer: FLMS03696
Trigger mode: 0
Integration Time (sec): 3.180400E-1
Scans to average: 20
Electric dark correction enabled: true
Nonlinearity correction enabled: true
Boxcar width: 5
XAxis mode: Wavelengths
Number of Pixels in Spectrum: 2048
>>>>>Begin Spectral Data<<<<<
187.83	-338390.16
188.298	2481.95
188.766	1262.92
189.233	1100.09
189.701	1515.24
190.169	2071.84
190.636	722.98
191.104	541.83
191.571	51.71
192.039	-115.59
192.506	-200.68
192.974	354.93
193.441	-654.99
193.908	-147.81
194.375	-84.74
194.842	-91.3
195.31	-36.5
195.777	92.7
196.244	652.15
196.711	1526.69
197.177	2158.31
197.644	3367.92
198.111	5927.47
198.578	8389.93
199.045	6737.15
199.511	11084.49
199.978	13030.82
200.445	10838.76
200.911	12025.05
201.378	13559.21
201.844	11934.75
202.31	20146.55
202.777	20596.62
203.243	11229.53
203.709	10559.19
204.176	12398.63
204.642	10086.83
205.108	9303.53
205.574	7600.64
206.04	6960.32
206.506	6441.11
206.972	6113.38
207.438	5879.02
207.903	6649.66
208.369	5732.59
208.835	5616.71
209.301	5818.64
209.766	5929.28
210.232	5810.25
210.697	7121.02
211.163	8709.55
211.628	13051.79
212.094	10703.01
212.559	12709.55
213.024	7752.82
213.49	9287.88
213.955	8999.85
214.42	8767.41
214.885	8015.1
215.35	7542.06
215.815	6933.11
216.28	7136.88
216.745	5627.76
217.21	5789.4
217.675	5085.01
218.14	5360.94
218.604	5556.44
219.069	5780.68
219.534	5489.37
219.998	5840.96
220.463	6442.39
220.927	7272.68
221.392	6271.94
221.856	5839.32
222.32	6818.93
222.785	7846.34
223.249	9252.15
223.713	9733.51
224.177	9204.62
224.642	11233.74
225.106	13180
225.57	13824
226.034	9876.06
226.497	14483.12
226.961	12651.41
227.425	14211.27
227.889	15219.55
228.353	14704.13
228.816	29326.77
229.28	27267.44
229.744	22332.61
230.207	13270.97
230.671	12713.31
231.134	20391.29
231.597	22997.82
232.061	22370.63
232.524	21293.95
232.987	14358.92
233.45	12714.8
233.914	11197.04
234.377	11221.21
234.84	10074.7
235.303	11685.57
235.766	12860.66
236.229	13138.2
236.691	8163.25
237.154	9072.38
237.617	6789.07
238.08	6897.09
238.542	7955
239.005	5689.45
239.468	5641.04
239.93	5311.9
240.393	4807.48
240.855	4205.56
241.317	4290.69
241.78	5181.21
242.242	5341.81
242.704	5781.4
243.166	5013.76
243.629	4572.05
244.091	5228.51
244.553	5695.78
245.015	6098.08
245.477	7811.68
245.939	11371.76
246.4	11995.61
246.862	11600.37
247.324	10899.64
247.786	12045.26
248.247	15698.07
248.709	15986.04
249.17	11908.53
249.632	11286.09
250.093	13064.67
250.555	11257.31
251.016	6864.47
251.477	6500.28
251.939	7007.62
252.4	7333.28
252.861	8680.76
253.322	8096.42
253.783	9620.43
254.244	12451.86
254.705	9740.55
255.166	8600.58
255.627	8467.93
256.088	11948.86
256.549	12684.81
257.009	10862.38
257.47	13120.09
257.931	10675.91
258.391	7972.88
258.852	8183.5
259.312	8518.36
259.773	10418.77
260.233	8785.11
260.694	7348.92
261.154	8220.99
261.614	6565.78
262.074	5807.92
262.534	5992.12
262.994	5610.78
263.455	7346.71
263.915	6117.29
264.374	5674.05
264.834	6104.91
265.294	6660.3
265.754	6824.06
266.214	6346.81
266.673	5843.43
267.133	7265.25
267.593	7071.83
268.052	8536.52
268.512	7340.42
268.971	8865.15
269.431	9679.11
269.89	8630.12
270.349	12853.11
270.809	14306.79
271.268	12915.45
271.727	28780.6
272.186	18693.63
272.645	14086.95
273.104	10106.94
273.563	14673.11
274.022	11442.55
274.481	9821.63
274.94	7606.74
275.399	5677.95
275.857	6607.89
276.316	8960.02
276.775	8064.2
277.233	8008.78
277.692	7599.42
278.15	8702.95
278.609	9088.93
279.067	8489.95
279.525	7978.91
279.984	10382.98
280.442	12633.17
280.9	12678.94
281.358	8463.72
281.816	7986.25
282.274	7915
282.732	8231.48
283.19	8381.47
283.648	7309.53
284.106	7907.11
284.564	8124.01
285.021	7691.88
285.479	5801.47
285.937	5315.81
286.394	4730.45
286.852	4914.81
287.309	5230.1
287.767	5126.11
288.224	4933.38
288.682	5437.77
289.139	6002.64
289.596	5508.52
290.053	5707.67
290.511	7180.53
290.968	8721.02
291.425	11744.41
291.882	9784.39
292.339	8451.22
292.796	8283.35
293.252	7733.09
293.709	6148.2
294.166	5471.6
294.623	6009.55
295.079	5722.23
295.536	5741.53
295.992	5179.79
296.449	5116.14
296.905	5298.58
297.362	5092.2
297.818	5352.77
298.274	5570.41
298.731	5639.48
299.187	5574.43
299.643	5985.64
300.099	7276.54
300.555	7983.82
301.011	6693.1
301.467	6540.04
301.923	7641.54
302.379	7505.83
302.835	7429.94
303.291	7493.8
303.746	8572
304.202	10938.01
304.658	11072.88
305.113	7518.88
305.569	7461.65
306.024	8020.61
306.479	7653.72
306.935	6565.46
307.39	7222.65
307.845	6750.22
308.301	6849.7
308.756	6752.61
309.211	6579.17
309.666	6819.36
310.121	8583.18
310.576	8770.51
311.031	8807.48
311.486	10162.95
311.94	10210.42
312.395	13802.19
312.85	26118.98
313.305	129364.72
313.759	680952.59
314.214	49809.42
314.668	39735.72
315.123	33785.97
315.577	12260.13
316.032	10965.64
316.486	13805.09
316.94	10996.62
317.394	7702.39
317.849	5986.23
318.303	5651.47
318.757	5311.82
319.211	5858.01
319.665	5127.86
320.119	5140.81
320.572	7317.09
321.026	6817.63
321.48	5652.06
321.934	6107.42
322.387	6092.61
322.841	6583.18
323.295	5961.82
323.748	6824.24
324.202	6941.17
324.655	8388.02
325.108	11851.87
325.562	8417.01
326.015	10051.72
326.468	7652.35
326.921	8612.1
327.374	8089.03
327.827	8494.33
328.28	9670.24
328.733	6561.2
329.186	5803.92
329.639	5554.51
330.092	4688.56
330.545	4505.2
330.997	4590.73
331.45	5075.22
331.903	6010.42
332.355	10401.92
332.808	10172.17
333.26	8450.63
333.713	9272.46
334.165	9425.79
334.617	12667.35
335.069	10278.39
335.522	18722.73
335.974	20901.1
336.426	19171.44
336.878	13344.87
337.33	6827.79
337.782	6734.22
338.234	8531.75
338.686	10235.66
339.137	12169.51
339.589	11474.38
340.041	9032.59
340.493	7780.76
340.944	7961.86
341.396	8631.6
341.847	7286.79
342.299	8592.38
342.75	10464.62
343.201	9084.33
343.653	10375.12
344.104	12675.62
344.555	9944.16
345.006	15375.02
345.457	11783.55
345.908	9315.54
346.359	8761.29
346.81	7084.2
347.261	7421.97
347.712	7279.9
348.163	7785.73
348.613	7959.15
349.064	7459.02
349.515	6549.24
349.965	6765.88
350.416	8134.7
350.866	8938.97
351.317	10067.08
351.767	16831.78
352.217	21434.65
352.668	17934.41
353.118	16491.79
353.568	15901.96
354.018	12673.8
354.468	13463.38
354.918	9735.91
355.368	8559.21
355.818	12181.33
356.268	35192.67
356.718	148238.26
357.168	37153.77
357.617	18697.44
358.067	20898.6
358.517	19692.99
358.966	23242.02
359.416	26333.8
359.865	28522.84
360.315	34176.02
360.764	16017.44
361.213	9061.48
361.663	8582.11
362.112	10633.71
362.561	17287.59
363.01	13105.9
363.459	11083.77
363.908	12008.62
364.357	10253.88
364.806	17329.06
365.255	11988.13
365.703	11074.66
366.152	11140.02
366.601	9115.18
367.05	7460.21
367.498	6837.1
367.947	7157.06
368.395	7465.27
368.844	6667.18
369.292	8050.21
369.74	5607.55
370.189	8614.56
370.637	10149.15
371.085	8778.34
371.533	10715.24
371.981	10294.32
372.429	9830.63
372.877	10334.84
373.325	8719.41
373.773	8907.35
374.221	7940.11
374.669	9886.74
375.116	8560.97
375.564	8616.17
376.012	9645.09
376.459	7967.44
376.907	9574.71
377.354	11611.86
377.801	10905.18
378.249	12588.82
378.696	16188.22
379.143	19773.96
379.591	21146.83
380.038	36076.23
380.485	26448.51
380.932	28920.61
381.379	26897.63
381.826	20118.25
382.273	14495.36
382.72	12824.75
383.166	12697.88
383.613	8360.5
384.06	7668.84
384.506	9074.11
384.953	6808.61
385.4	7018.38
385.846	6331.17
386.292	6366.17
386.739	6487.61
387.185	6700.58
387.631	7031.97
388.078	7189.53
388.524	8101.42
388.97	7839.46
389.416	6781.4
389.862	7437.43
390.308	7276.07
390.754	7698.37
391.2	8827.42
391.645	9645.15
392.091	9912.53
392.537	10255.71
392.983	10911.55
393.428	11302.37
393.874	12929.81
394.319	14225.7
394.765	15165.95
395.21	17790.74
395.655	19086.59
396.101	20348.02
396.546	20817
396.991	23869.61
397.436	25128.05
397.881	27574.88
398.326	29820.85
398.771	31817.17
399.216	31284.33
399.661	31322.99
400.106	34270.74
400.551	38261.33
400.995	37197.2
401.44	39552.79
401.885	39623.74
402.329	42399.86
402.774	42738.12
403.218	43103.89
403.663	43505.6
404.107	46613.29
404.551	48870.11
404.995	46719.97
405.44	46857.81
405.884	49305.02
406.328	49298.74
406.772	50557.46
407.216	47343.38
407.66	47168.56
408.104	46287.73
408.547	44335.72
408.991	43750.76
409.435	42793.15
409.879	42626.47
410.322	42534.22
410.766	41461.23
411.209	39885.62
411.653	38866.2
412.096	38524.09
412.54	39072.77
412.983	39272.33
413.426	39738.03
413.869	40214.76
414.312	39914.23
414.756	39092.36
415.199	37855.01
415.642	37232.68
416.085	37750.76
416.527	37939.81
416.97	39019.3
417.413	37236.35
417.856	37039.48
418.298	36755.91
418.741	36564.19
419.184	36535.31
419.626	38160.69
420.069	38095.05
420.511	38333.09
420.953	37472.72
421.396	37212.81
421.838	36428.55
422.28	37391.28
422.722	37822.42
423.164	38875.9
423.606	38685.77
424.048	39105.74
424.49	37385.82
424.932	37608.46
425.374	37444.72
425.816	38443.78
426.258	39225.49
426.699	39431.85
427.141	38440.52
427.582	38812.28
428.024	38437.73
428.465	38264.18
428.907	37457.75
429.348	37303.13
429.789	37438.15
430.231	36745.38
430.672	37321.86
431.113	36733.61
431.554	36691.7
431.995	36655.64
432.436	35864.06
432.877	35611.67
433.318	35303.98
433.759	35569.31
434.2	35885.11
434.64	35872.93
435.081	36319.13
435.522	34874.27
435.962	34050.63
436.403	33763.1
436.843	34706.52
437.284	34457.95
437.724	33969.81
438.164	34533.34
438.604	34036.74
439.045	32842.22
439.485	31543.04
439.925	31123.95
440.365	30539.66
440.805	30311.17
441.245	29885.99
441.685	28816.98
442.125	28655.45
442.564	28840.86
443.004	28089.92
443.444	28027.91
443.883	28089.94
444.323	28088.33
444.762	28363.65
445.202	28810.57
445.641	29253.32
446.081	29319.12
446.52	29477.2
446.959	29178.02
447.398	28457.17
447.837	28166.14
448.276	27696.02
448.716	27950.93
449.154	28199.75
449.593	27342.83
450.032	27094.24
450.471	26559.56
450.91	26416.68
451.349	26130.98
451.787	25876.69
452.226	26051.7
452.664	25845.76
453.103	25666.03
453.541	25413.48
453.98	24945.06
454.418	24829.92
454.856	24097.21
455.295	23813.18
455.733	23660.41
456.171	23568.98
456.609	23309.18
457.047	22999.36
457.485	23043.67
457.923	22850.94
458.361	22413.26
458.798	22440.45
459.236	22316.07
459.674	22530
460.111	22575.84
460.549	22393.31
460.987	22403.24
461.424	22380.42
461.862	22367.92
462.299	22093.32
462.736	22070.06
463.173	22225.24
463.611	21927.75
464.048	21930.33
464.485	22155.65
464.922	22067.94
465.359	22087.45
465.796	21513.37
466.233	21474.08
466.67	21311.05
467.106	21331.59
467.543	21307.83
467.98	21158.22
468.416	20839.73
468.853	20826.23
469.29	20311.73
469.726	20174.74
470.162	19698.11
470.599	19781.32
471.035	19663.58
471.471	19252.84
471.907	19235.84
472.344	19121.21
472.78	19087.94
473.216	19277.25
473.652	18939.69
474.088	18817.37
474.523	18591.27
474.959	18641.51
475.395	18334.87
475.831	18039.31
476.266	17984.67
476.702	17773.17
477.138	17382.27
477.573	17154.53
478.008	16879.13
478.444	16713.15
478.879	16596.25
479.314	16465.13
479.75	16233.05
480.185	16117.34
480.62	16056.66
481.055	15929
481.49	15792.01
481.925	15777.03
482.36	15719.84
482.795	15898.98
483.229	16085.58
483.664	16156.7
484.099	15966.08
484.534	15944.4
484.968	15858.13
485.403	15694.36
485.837	15501.16
486.271	15298.14
486.706	15154.12
487.14	14919.15
487.574	14567.29
488.009	14333.79
488.443	14113.94
488.877	14112.27
489.311	14055.57
489.745	14090.79
490.179	14090.65
490.613	14172.03
491.046	14183.46
491.48	14180.36
491.914	14076.05
492.348	14074.27
492.781	14053.46
493.215	14006.78
493.648	13985.96
494.082	14013.97
494.515	13936.43
494.948	13981.83
495.382	14015.62
495.815	13993.92
496.248	13983.08
496.681	14124.31
497.114	14237.56
497.547	14291.58
497.98	14369.6
498.413	14301.7
498.846	14317.71
499.279	14335.74
499.711	14291.1
500.144	14194.45
500.577	14212.35
501.009	14263.9
501.442	14260.21
501.874	14112.6
502.306	14031.18
502.739	13979.85
503.171	14125.84
503.603	14042.74
504.036	14048.97
504.468	13978.98
504.9	13998.66
505.332	13954.95
505.764	13856.9
506.196	13811.57
506.627	13863.2
507.059	13876.12
507.491	13876.35
507.923	13633.61
508.354	13656.84
508.786	13620.7
509.217	13676.19
509.649	13686.68
510.08	13750.66
510.512	13754.7
510.943	13746.88
511.374	13691.65
511.805	13741.82
512.237	13784.16
512.668	13994.53
513.099	14114.31
513.53	14197.78
513.961	14183.46
514.391	14295.22
514.822	14389.89
515.253	14541.52
515.684	14572.7
516.114	14651.04
516.545	14628.95
516.975	14659.82
517.406	14606.24
517.836	14419.04
518.267	14290.42
518.697	14283.8
519.127	14152.59
519.558	14058.56
519.988	13925.1
520.418	13860.63
520.848	13864.87
521.278	13791.37
521.708	13430.69
522.138	13400
522.567	13524.98
522.997	13583.05
523.427	13553.88
523.857	13526.98
524.286	13466.37
524.716	13452.25
525.145	13471.17
525.575	13434.84
526.004	13443.69
526.433	13599
526.863	13497.83
527.292	13315.39
527.721	13284.89
528.15	13284.16
528.579	13241.58
529.008	13274.44
529.437	13394.8
529.866	13432.48
530.295	13491.01
530.724	13497.33
531.152	13626.34
531.581	13657.21
532.01	13733.73
532.438	13741.56
532.867	13795.82
533.295	13878.48
533.723	13872.4
534.152	13811.81
534.58	13771.2
535.008	13622.46
535.436	13603.18
535.865	13634.04
536.293	13715.74
536.721	13793.73
537.149	13932.83
537.576	13905.2
538.004	13972.8
538.432	14018.09
538.86	13993.42
539.287	14043.4
539.715	14136.89
540.143	14172.11
540.57	14156.67
540.998	14152.08
541.425	13994.56
541.852	13883.37
542.28	13916.23
542.707	13841.63
543.134	13774.18
543.561	13776.2
543.988	13753.13
544.415	13788.79
544.842	13781.52
545.269	13754.52
545.696	13792.03
546.123	13939.35
546.549	13894.52
546.976	13824.39
547.403	13845.66
547.829	13893.71
548.256	13949.59
548.682	13951.97
549.108	13921.93
549.535	13952.05
549.961	13999.71
550.387	13925.93
550.813	13899.68
551.24	13975.61
551.666	14013.57
552.092	13966.58
552.518	13944.85
552.943	13910.52
553.369	13996.38
553.795	14061.91
554.221	14079.93
554.646	14070.8
555.072	14147.2
555.498	14200.36
555.923	14271.08
556.349	14381.43
556.774	14447.25
557.199	14456.06
557.625	14525.58
558.05	14480.17
558.475	14570.73
558.9	14570.77
559.325	14510.72
559.75	14483.81
560.175	14449.99
560.6	14423.49
561.025	14428.27
561.449	14451.21
561.874	14503.09
562.299	14521.92
562.723	14582.28
563.148	14495.4
563.572	14524.1
563.997	14606.71
564.421	14653.81
564.846	14653.02
565.27	14661.01
565.694	14629.37
566.118	14702.93
566.542	14741.27
566.966	14679.37
567.39	14621.33
567.814	14520.59
568.238	14510.33
568.662	14549.69
569.086	14571.93
569.509	14655.01
569.933	14558.62
570.357	14551.51
570.78	14437.16
571.204	14382.58
571.627	14372.49
572.05	14441.46
572.474	14523.94
572.897	14524.05
573.32	14553.81
573.743	14588.54
574.166	14526.58
574.589	14641.68
575.012	14677.95
575.435	14782.66
575.858	14823.75
576.281	14847.2
576.704	14837.5
577.126	14865.33
577.549	14890.05
577.972	14937.22
578.394	14956.02
578.817	14990.93
579.239	14945.82
579.661	14940.37
580.084	14892.28
580.506	14890.96
580.928	14974.25
581.35	14982.5
581.772	15042.27
582.194	15007.9
582.616	14969.85
583.038	14929.31
583.46	14934.21
583.882	14976.2
584.303	15103.41
584.725	15153.4
585.147	15166.9
585.568	15298.06
585.99	15422.27
586.411	15493.3
586.833	15652.1
587.254	15687.4
587.675	15857.17
588.096	16015.85
588.518	15992.15
588.939	15842.78
589.36	15842.94
589.781	15845.38
590.202	15564.79
590.623	15541.04
591.043	15578.11
591.464	15488.08
591.885	15471.24
592.305	15432.16
592.726	15295.01
593.147	15300.15
593.567	15238.99
593.987	15146.49
594.408	15070.8
594.828	15063.62
595.248	14949.97
595.669	14700.34
596.089	14582.88
596.509	14480.36
596.929	14277.87
597.349	14223.22
597.769	14060.46
598.189	13924.08
598.608	13869.13
599.028	13815.54
599.448	13753.72
599.867	13580.07
600.287	13504.61
600.706	13408.6
601.126	13260.31
601.545	13207.6
601.965	13168.92
602.384	13096.85
602.803	13111.59
603.222	13047.05
603.641	12983.7
604.061	12939.68
604.48	12912.9
604.898	13000.04
605.317	13070.53
605.736	13115.16
606.155	13107.71
606.574	13045.37
606.992	13129.72
607.411	13114.48
607.829	13092.21
608.248	13111.41
608.666	13146.67
609.085	13186.64
609.503	13149.98
609.921	13137.97
610.339	13212.16
610.758	13272.6
611.176	13287.13
611.594	13255.5
612.012	13287.59
612.43	13366.11
612.847	13487.61
613.265	13535.17
613.683	13640.93
614.101	13715.86
614.518	13751.1
614.936	13716.64
615.353	13626.58
615.771	13656.33
616.188	13723.01
616.606	13749.97
617.023	13746.19
617.44	13659.2
617.857	13670.46
618.274	13645
618.691	13629.7
619.108	13582.76
619.525	13565.99
619.942	13672.96
620.359	13737.52
620.776	13716.89
621.192	13689.63
621.609	13686.16
622.026	13769.33
622.442	13847.42
622.859	13902.8
623.275	13848.99
623.691	13924.55
624.108	14065.11
624.524	14244.47
624.94	14257.22
625.356	14379.39
625.772	14551.13
626.188	14703.84
626.604	14739.84
627.02	14709.23
627.436	14693.03
627.852	14768.3
628.268	14905.22
628.683	14824.85
629.099	14751.36
629.514	14734.32
629.93	14807.13
630.345	14888.75
630.761	14882.83
631.176	14963.61
631.591	14916.14
632.007	14895.76
632.422	14950.06
632.837	14889.16
633.252	14908.67
633.667	14859.62
634.082	14818.74
634.497	14742.05
634.911	14575.78
635.326	14619.76
635.741	14508
636.155	14506.09
636.57	14610.76
636.984	14709.65
637.399	14821.57
637.813	14949.47
638.228	15054.61
638.642	15245.72
639.056	15255.5
639.47	15416.55
639.884	15452.12
640.298	15522.83
640.712	15653.06
641.126	15652.31
641.54	15707.96
641.954	15837.57
642.368	15829.22
642.781	15846.27
643.195	15764.95
643.609	15929.95
644.022	16009.94
644.436	16113.7
644.849	16110.69
645.262	16101.71
645.676	16293.06
646.089	16357
646.502	16241.1
646.915	16303.3
647.328	16220.64
647.741	16312.74
648.154	16235.72
648.567	16253.97
648.98	16141.82
649.393	16250.34
649.805	16296.39
650.218	16276.69
650.631	16098.21
651.043	16098.35
651.456	16074.06
651.868	16160.35
652.28	16509.24
652.693	16777.32
653.105	16930.32
653.517	17102.45
653.929	17106.88
654.341	17222.25
654.753	17047.12
655.165	17233.35
655.577	17276.77
655.989	17314.23
656.401	17315.91
656.813	16805.04
657.224	16624.99
657.636	16355.86
658.047	16233.8
658.459	16100.76
658.87	16162.22
659.282	16159.37
659.693	15938.81
660.104	15828.14
660.515	15739.29
660.926	15864.28
661.338	15993.38
661.749	16042.93
662.159	15992.76
662.57	16090.75
662.981	16155.92
663.392	16142.42
663.803	16354.33
664.213	16467.47
664.624	16533.69
665.035	16737.5
665.445	16588.11
665.855	16535.59
666.266	16451.24
666.676	16516.38
667.086	16419.58
667.497	16467.86
667.907	16415.49
668.317	16288.69
668.727	16188.06
669.137	16263.81
669.547	16246.12
669.956	16343.2
670.366	16417
670.776	16475.39
671.186	16585.33
671.595	16653.41
672.005	16755.62
672.414	16715.94
672.824	16653.56
673.233	16825.54
673.642	16849.71
674.052	16874.37
674.461	16864.86
674.87	16951.52
675.279	16843.44
675.688	16872.55
676.097	16841.86
676.506	16726.25
676.915	17016.81
677.323	17043.18
677.732	16963.93
678.141	16920.25
678.549	16671.55
678.958	16629.43
679.366	16570.33
679.775	16657.6
680.183	16726.81
680.592	16783.8
681	16810.84
681.408	16552.21
681.816	16595.41
682.224	16654.26
682.632	16652.24
683.04	17054.81
683.448	17306.64
683.856	17592.36
684.264	17908.56
684.671	18194.04
685.079	18546.87
685.487	18918.43
685.894	19556.99
686.302	19934.69
686.709	20066.3
687.116	20295.18
687.524	20300.8
687.931	20197.82
688.338	20040.65
688.745	19832.34
689.152	19633.97
689.559	19554.45
689.966	19413.39
690.373	18971
690.78	18764.35
691.187	18817.35
691.593	18662.18
692	18442.13
692.407	18425.1
692.813	18506.06
693.22	18443.7
693.626	18435.26
694.032	18282.42
694.439	18379.5
694.845	18353.65
695.251	18457.71
695.657	18483.14
696.063	18791.4
696.469	18867.33
696.875	18901.44
697.281	18733.73
697.687	18614.54
698.093	18426.5
698.498	18517.65
698.904	18503.47
699.31	18683.97
699.715	18676.11
700.12	18890.28
700.526	18642.28
700.931	18752.91
701.337	18750.22
701.742	18654.48
702.147	18875.53
702.552	18787
702.957	18887.42
703.362	18758.54
703.767	18690.38
704.172	18713.44
704.577	18251.22
704.981	18319.89
705.386	18205.64
705.791	17980.36
706.195	18193.59
706.6	18067.92
707.004	18324.52
707.408	18001.06
707.813	17979.6
708.217	17758.35
708.621	17621.31
709.025	17957.14
709.43	17807.98
709.834	17963.08
710.237	18178.04
710.641	17978.38
711.045	17953.99
711.449	17797.5
711.853	17796.07
712.256	17879.49
712.66	17944.41
713.064	18170.87
713.467	18216.49
713.87	18568.42
714.274	18596.95
714.677	18883.32
715.08	19379.74
715.484	19883.6
715.887	20484.64
716.29	21106.83
716.693	21710.73
717.096	22439.27
717.499	22747.7
717.901	22701.31
718.304	22732.19
718.707	22811.77
719.109	22415.04
719.512	22341.93
719.915	21820.77
720.317	21667.05
720.719	21872.36
721.122	21783.11
721.524	21599.18
721.926	21401.64
722.328	21759.16
722.731	21637.65
723.133	21650.25
723.535	22311.61
723.937	22261.58
724.338	22369.22
724.74	22412.18
725.142	21827.41
725.544	21772.21
725.945	21765.25
726.347	21728.77
726.748	21658.87
727.15	21675.93
727.551	21463.96
727.952	21317.89
728.354	21181.51
728.755	21178.22
729.156	21041.65
729.557	21261.42
729.958	20812.46
730.359	20696.78
730.76	20670.63
731.161	20492.91
731.562	20451.1
731.962	20546.31
732.363	20342.19
732.763	20139.64
733.164	20325.45
733.564	20079.78
733.965	19715.25
734.365	19592.16
734.766	19711.41
735.166	19551.3
735.566	19321.86
735.966	19205.43
736.366	19160.99
736.766	18915.54
737.166	19044.46
737.566	18880.51
737.966	18778.39
738.365	18926.73
738.765	18892.4
739.165	18593.23
739.564	18499.01
739.964	18694.6
740.363	18536.11
740.763	18559.05
741.162	18525.42
741.561	18411.15
741.96	18244.51
742.36	18352.97
742.759	18402.6
743.158	18595.84
743.557	18692.65
743.955	18875.85
744.354	18710.17
744.753	18963.34
745.152	18804.3
745.55	19054.12
745.949	19035.18
746.348	19044.93
746.746	19115.98
747.144	18930.81
747.543	18826.63
747.941	18993.61
748.339	18687.91
748.737	18633.84
749.136	18547.21
749.534	18771.87
749.932	18606.01
750.33	18655.11
750.727	18830.21
751.125	18672.86
751.523	18564.46
751.921	18652.1
752.318	18454.18
752.716	18609.31
753.113	18600.37
753.511	18635.78
753.908	18570.15
754.305	18424
754.703	18600.83
755.1	18761.06
755.497	18935.39
755.894	19571.62
756.291	20096.14
756.688	21003.69
757.085	21966.07
757.482	23109.9
757.878	24113.26
758.275	24800.8
758.672	26209.79
759.068	27080.49
759.465	28608.53
759.861	30544.35
760.258	32709.83
760.654	33139.98
761.05	31985.64
761.447	30561.91
761.843	29268.59
762.239	28152.39
762.635	28187.91
763.031	28049.01
763.427	27285.36
763.822	26434.24
764.218	25654.98
764.614	24272.74
765.01	23556.07
765.405	23281.96
765.801	23149.5
766.196	22638.35
766.592	22533.37
766.987	21851.95
767.382	21451.81
767.778	21437.15
768.173	21203.25
768.568	21120.71
768.963	20786.85
769.358	20977.81
769.753	20899.82
770.148	20657.53
770.542	20736.87
770.937	20674.71
771.332	21084.71
771.726	21200.45
772.121	20962.81
772.515	21208.55
772.91	21183.79
773.304	21507.85
773.699	21270.31
774.093	21512.57
774.487	21748.52
774.881	21928.62
775.275	21915.55
775.669	21760.41
776.063	21940.37
776.457	22100.67
776.851	21796.66
777.245	21749.43
777.638	21859.85
778.032	22315.49
778.425	22145.81
778.819	22282.29
779.212	22084.29
779.606	21906.65
779.999	21966.23
780.392	21865.62
780.786	22172.01
781.179	22228.02
781.572	22372.07
781.965	22397.19
782.358	22129.2
782.751	22317.93
783.143	22106.85
783.536	22355.55
783.929	22476.08
784.322	22864.74
784.714	22935.57
785.107	22845.2
785.499	23038.44
785.891	22853.33
786.284	22673.71
786.676	23104.46
787.068	22905.43
787.46	22977.32
787.852	22937.71
788.245	23142.82
788.636	23142.1
789.028	23269
789.42	23291.42
789.812	23213.85
790.204	23472.76
790.595	23737.82
790.987	22939.63
791.378	22951.67
791.77	23352.85
792.161	23766.16
792.553	23874
792.944	23373.5
793.335	23035.03
793.726	23197.34
794.117	23420.76
794.508	23830.12
794.899	23648.92
795.29	24069.78
795.681	24186.47
796.072	23599.25
796.463	22775.11
796.853	22692.89
797.244	23123.33
797.634	23132.32
798.025	23022.85
798.415	22952.33
798.806	23103.68
799.196	23234.38
799.586	23219.8
799.976	22920.21
800.366	23504.67
800.756	24211.13
801.146	23933.88
801.536	23880.08
801.926	23966.73
802.316	23913.83
802.706	24006.62
803.095	23507.49
803.485	23721.09
803.874	23754.31
804.264	24449.13
804.653	24239.97
805.043	24536.02
805.432	24721.7
805.821	24567.58
806.21	24459.99
806.599	24622.47
806.988	24527.68
807.377	24600.4
807.766	24705.95
808.155	25216.37
808.544	24166.8
808.933	23893.6
809.321	23489.95
809.71	23928.42
810.098	23932.89
810.487	24684.42
810.875	25388.95
811.264	24883.53
811.652	24949.39
812.04	24653.93
812.428	24361.39
812.816	25373.44
813.204	25518.98
813.592	25925.62
813.98	25888.2
814.368	25027.08
814.756	25348.81
815.144	24634.94
815.531	25028.31
815.919	24519.13
816.306	24730.34
816.694	23918.7
817.081	23878.03
817.469	24488.8
817.856	24577.32
818.243	25151.26
818.63	25932.98
819.017	25153.81
819.404	25122.22
819.791	25494.59
820.178	26191.86
820.565	26293.95
820.952	27633.98
821.339	26583.97
821.725	26669.47
822.112	25165.39
822.498	24819.26
822.885	24778.97
823.271	24506.8
823.657	25222.56
824.044	25392.76
824.43	25658.61
824.816	25635.01
825.202	24822.5
825.588	26266.4
825.974	26007.32
826.36	26517.01
826.746	26268.18
827.132	26529.88
827.517	26164.76
827.903	24652.14
828.289	24411.63
828.674	23018.89
829.06	22682.06
829.445	23102.71
829.83	23466.06
830.216	23994.89
830.601	24357.47
830.986	23634.51
831.371	23323.91
831.756	24011.93
832.141	23319.84
832.526	23240.57
832.911	23576.24
833.295	23379.19
833.68	24006.94
834.065	23124.14
834.449	21849.39
834.834	21741.55
835.218	21724.42
835.603	22158.65
835.987	21821.09
836.371	22923.07
836.755	22730.05
837.139	23222.21
837.524	23485.84
837.908	23152.79
838.291	23147.84
838.675	23144.8
839.059	23339.27
839.443	23231.9
839.827	22827.18
840.21	23347.13
840.594	23012.51
840.977	23134.97
841.361	22973.42
841.744	23329.44
842.127	23003.52
842.511	23203.54
842.894	23846.39
843.277	24204.45
843.66	24749.26
844.043	24721.03
844.426	23595.91
844.809	23108.1
845.191	23042.45
845.574	22364.73
845.957	21784.56
846.339	21488.27
846.722	20658.82
847.104	20521.27
847.487	20112.23
847.869	19940.48
848.252	20079.45
848.634	20277.01
849.016	20401.98
849.398	20367.42
849.78	21132.7
850.162	20956.06
850.544	21195.72
850.926	21626.92
851.307	21272.56
851.689	21290.28
852.071	21511.14
852.452	21625.46
852.834	21411.99
853.215	21627.81
853.597	21620.73
853.978	21764.24
854.359	22083.97
854.741	21063.24
855.122	21004.94
855.503	20798.71
855.884	21026.53
856.265	21019.98
856.646	21137.71
857.026	20720.95
857.407	20607.91
857.788	20692.59
858.169	20902.48
858.549	19975.62
858.93	20494.39
859.31	20428.34
859.69	20517.19
860.071	20002.4
860.451	19677.55
860.831	18861.73
861.211	19855.72
861.591	20245.46
861.971	20091.51
862.351	20108.25
862.731	20251
863.111	20230.7
863.491	20250.52
863.87	20750.23
864.25	20792.21
864.629	20186.94
865.009	20389.75
865.388	20877.86
865.768	22155.7
866.147	21853.14
866.526	20503.07
866.905	20674.5
867.284	21814.2
867.663	20726.61
868.042	19875.65
868.421	19802.8
868.8	20118.38
869.179	20293.27
869.558	19076.81
869.936	17551.49
870.315	17834.78
870.693	18210.21
871.072	19573.81
871.45	18575.72
871.828	18742.87
872.207	19635.64
872.585	19257.04
872.963	19690.97
873.341	18920.41
873.719	18614.52
874.097	18305.48
874.475	18573.22
874.853	18926.19
875.23	18073.79
875.608	18768.51
875.986	20219.36
876.363	19264.65
876.741	19778.62
877.118	19199.62
877.495	20054.83
877.873	20291.53
878.25	21237.05
878.627	20269.47
879.004	20438.95
879.381	20235.96
879.758	19606.41
880.135	18172.16
880.512	19110.66
880.889	18508.3
881.265	18232.65
881.642	18009.61
882.019	18251.12
882.395	17830.65
882.772	18465.73
883.148	17591.86
883.524	17430.77
883.901	17235.1
884.277	17397.99
884.653	17193.52
885.029	17600.73
885.405	19405.43
885.781	19154.24
886.157	18259.68
886.532	18379.28
886.908	18281.9
887.284	20247.32
887.659	20820.18
888.035	21384.24
888.411	21838.99
888.786	22027
889.161	22680.14
889.537	22111.94
889.912	22659.23
890.287	22473.22
890.662	22856.03
891.037	22223.45
891.412	20496.82
891.787	20036.44
892.162	19058.34
892.536	19196.53
892.911	18153.34
893.286	17420.09
893.66	16376.09
894.035	16423.08
894.409	17459.32
894.784	16375.22
895.158	16252.96
895.532	16789.18
895.906	16801.6
896.281	16746.37
896.655	16060.73
897.029	17926.49
897.402	18266.28
897.776	19939.96
898.15	19528.16
898.524	19002.56
898.898	18953.87
899.271	20933.27
899.645	17936.81
900.018	17138.92
900.392	17791.61
900.765	18026.02
901.138	16798.45
901.511	16717.38
901.884	15546.73
902.258	14548.66
902.631	15278.16
903.003	17830.57
903.376	16307.76
903.749	18499.42
904.122	19964.2
904.495	22027.16
904.867	22248.24
905.24	19189.57
905.612	17695.93
905.985	17836.7
906.357	18349.66
906.729	17189.31
907.102	14398.67
907.474	13579.79
907.846	13412.31
908.218	13017.4
908.59	11369.04
908.962	10887.75
909.334	11639.85
909.705	12154.88
910.077	11744.87
910.449	12137.64
910.82	12403
911.192	13601.94
911.563	14087.53
911.935	15037.62
912.306	15012.01
912.677	15386.63
913.048	15126.9
913.419	16280.9
913.79	16261.23
914.161	17334.48
914.532	16530.27
914.903	15142.8
915.274	14325.97
915.645	14060.18
916.015	12359.91
916.386	11795.76
916.756	12621.55
917.127	13106.07
917.497	11829.05
917.868	13005.38
918.238	12501.49
918.608	12997.59
918.978	13413.33
919.348	14384.5
919.718	15061.89
920.088	14651.12
920.458	15365.03
920.828	16262.2
921.198	15470.27
921.567	16520.31
921.937	12754.16
922.306	12798.13
922.676	13736.31
923.045	11431.21
923.415	10802.64
923.784	9771.4
924.153	9988.64
924.522	9903.24
924.891	9237.71
925.26	9804.76
925.629	9473.48
925.998	10755.83
926.367	10366.97
926.736	9731.51
927.104	11334.87
927.473	11878.5
927.842	13930.09
928.21	13340.47
928.578	13495.95
928.947	12255.63
929.315	11803.59
929.683	13187.54
930.051	12652.73
930.42	13935.45
930.788	11246.57
931.156	10556.14
931.523	9366.62
931.891	8168.93
932.259	7410.13
932.627	8131.29
932.994	10885.67
933.362	8593.57
933.729	7173.74
934.097	6605.75
934.464	5422.95
934.831	6086.13
935.199	5882.68
935.566	5639.7
935.933	5693.32
936.3	6975.13
936.667	5526.83
937.034	5233.91
937.401	5350.62
937.767	4819.92
938.134	4494.35
938.501	6625.49
938.867	7447.38
939.234	13208.41
939.6	11803.41
939.967	13725.71
940.333	9547.5
940.699	8398.83
941.065	6815.55
941.431	9150.5
941.798	8956.91
942.163	11874.81
942.529	7452.65
942.895	6843.75
943.261	4434.46
943.627	5805.57
943.992	5035.18
944.358	5004.23
944.723	5001.82
945.089	4816.49
945.454	4417.32
945.82	4656.74
946.185	4417.99
946.55	5123.71
946.915	4591.73
947.28	5385.86
947.645	4745.66
948.01	4392.26
948.375	4576.47
948.74	5461.13
949.104	6425.47
949.469	9174.59
949.834	16305
950.198	15704.43
950.562	9370.29
950.927	7791.88
951.291	9308.41
951.655	7865.98
952.02	7310.59
952.384	5530.98
952.748	4843.6
953.112	4738.39
953.476	4125.94
953.839	3782.25
954.203	3714.25
954.567	4632.25
954.931	7252.92
955.294	6252.78
955.658	6303.96
956.021	10759.59
956.385	18246.83
956.748	26914.84
957.111	41400.6
957.474	46438.85
957.837	52337.59
958.2	39535.6
958.563	14264.5
958.926	9730.35
959.289	14748.2
959.652	16546.7
960.015	12477.24
960.377	17946.72
960.74	20508.4
961.102	35459.07
961.465	38565.17
961.827	21307.49
962.189	41356.85
962.552	29039.06
962.914	23446.56
963.276	15339.5
963.638	12823.5
964	12788.51
964.362	8718.22
964.724	8511.22
965.085	6156.82
965.447	5089.53
965.809	5753.74
966.17	5795.16
966.532	6330.07
966.893	5910.41
967.255	5474.71
967.616	6548.68
967.977	5377.32
968.338	6005.68
968.699	5060.16
969.061	5167.1
969.421	5313.57
969.782	6089.2
970.143	5267.34
970.504	5593.91
970.865	6432.4
971.225	6679.8
971.586	6601.09
971.946	9424.21
972.307	8231.19
972.667	10725.82
973.027	11037.12
973.388	13317.66
973.748	9008.23
974.108	9749.29
974.468	12948.46
974.828	9988.42
975.188	7595.97
975.548	6939.35
975.907	5821.24
976.267	6468.17
976.627	5461.92
976.986	5650.93
977.346	5396.38
977.705	5219.3
978.064	4753.62
978.424	3992.55
978.783	4112.49
979.142	4724.73
979.501	4556.24
979.86	4833.92
980.219	4685.89
980.578	6053.47
980.937	6815.89
981.296	6129.84
981.654	6351.18
982.013	9970.09
982.371	13074.37
982.73	12346.71
983.088	14121.73
983.447	15226.32
983.805	21981.53
984.163	46438.9
984.521	51958.69
984.879	76678.25
985.237	-125673.57
985.595	122621.5
985.953	30693.04
986.311	17848.27
986.669	10437.08
987.026	9026.12
987.384	12166.15
987.741	12618.43
988.099	9111.74
988.456	7288
988.814	6898.41
989.171	6036.69
989.528	5949.27
989.885	6284.29
990.242	4992.3
990.599	6234.84
990.956	5130.39
991.313	3602.8
991.67	2985.33
992.027	3212.4
992.383	2869.18
992.74	2536.07
993.096	2678.76
993.453	2791.47
993.809	2908.51
994.165	3896.17
994.522	3636.69
994.878	4025.98
995.234	5081.09
995.59	5004.56
995.946	4682.7
996.302	5352.85
996.658	6184.64
997.013	6797.93
997.369	8075.47
997.725	10428.99
998.08	6758.26
998.436	10256.16
998.791	14193.49
999.147	14312.74
999.502	15712.71
999.857	11469.36
1000.212	18815.07
1000.567	26886.92
1000.922	15593.29
1001.277	10018.18
1001.632	7444.71
1001.987	9645.3
1002.342	6977.59
1002.696	5600
1003.051	4450.44
1003.406	5416.19
1003.76	5394.95
1004.114	5320.46
1004.469	4479.31
1004.823	3716.6
1005.177	4011.15
1005.531	3187.9
1005.885	2849.79
1006.239	3232.12
1006.593	4069.38
1006.947	5495.36
1007.301	4117.23
1007.655	4518.71
1008.008	3356.73
1008.362	3785.79
1008.715	5440.04
1009.069	4916.05
1009.422	7517.36
1009.776	15114.6
1010.129	10060.45
1010.482	8431.78
1010.835	7141.68
1011.188	15004.11
1011.541	14131.97
1011.894	-86963.29
1012.247	259112.61
1012.6	17680.38
1012.952	11353.84
1013.305	5786.71
1013.657	4195.62
1014.01	4010.06
1014.362	3336.02
1014.715	3008.43
1015.067	2653.4
1015.419	2617.43
1015.771	2321.07
1016.123	2073.15
1016.475	2155.16
1016.827	2307.19
1017.179	2527.97
1017.531	2567.65
1017.883	2623.6
1018.234	2576.39
1018.586	3271.86
1018.938	3488.34
1019.289	4847.22
1019.64	5579.49
1019.992	5218.58
1020.343	4803.73
1020.694	3814.83
1021.045	3386.47
1021.396	3869
1021.747	4185.45
1022.098	5038.9
1022.449	3675.54
1022.8	3441.64
1023.151	2429.45
1023.501	2174.33
1023.852	2370.57
1024.202	2487.79
1024.553	2750.16
1024.903	2721.69
1025.253	2375.66
1025.604	2159.36
1025.954	2664.7
1026.304	3233.47
1026.654	3753.88
1027.004	5543.75
1027.354	8972.12
1027.703	8532.1
1028.053	11230.63
1028.403	16468.45
1028.753	23727.57
1029.102	32184.92
1029.452	166077.9
1029.801	7271.52
1030.15	4738.65
1030.499	4048.1
897.758	2682.15
901.051	2633.6
904.343	2671.96
907.636	2672.74
910.928	2737.08
914.22	2646.55
917.511	2652.26
920.803	2714.62
924.094	2734.58
927.384	2715.82
930.675	2680.28
933.965	2631.86
937.255	2642.36
940.544	2607.28
943.834	2546.75
947.123	2491.29
950.411	2588.1
953.7	2562.02
956.988	2532.15
960.276	2469.85
963.563	2551.79
966.851	2546.51
970.138	2603.63
973.424	2599.74
976.711	2548.26
979.997	2681.83
983.283	2716.66
986.568	2621.37
989.853	2635.15
993.138	2663.2
996.423	2747.62
999.708	2682.14
1002.992	2749.01
1006.275	2584.19
1009.559	2629.91
1012.842	2746.7
1016.125	2679.12
1019.408	2656.6
1022.69	2744.32
1025.972	2765.75
1029.254	2738.95
1032.536	2671.95
1035.817	2700.69
1039.098	2641.26
1042.379	2789.17
1045.659	2785.42
1048.939	2720.02
1052.219	2742.05
1055.498	2753.21
1058.778	2738.04
1062.057	2723.7
1065.335	2743.62
1068.614	2764.44
1071.892	2746.23
1075.17	2820.55
1078.447	2812.09
1081.724	2804.61
1085.001	2841.13
1088.278	2811.69
1091.554	2826.12
1094.83	2823.6
1098.106	2851.63
1101.382	2897.15
1104.657	2897.23
1107.932	2892.19
1111.206	2859.26
1114.481	2813.16
1117.755	2814.73
1121.029	2795.16
1124.302	2847.33
1127.575	2800.14
1130.848	2786.32
1134.121	2746.25
1137.393	2695.79
1140.665	2763.69
1143.937	2739.66
1147.208	2699.3
1150.48	2738.13
1153.75	2724.54
1157.021	2754.71
1160.291	2727.93
1163.561	2772.34
1166.831	2761.93
1170.101	2794.51
1173.37	2768.11
1176.639	2710.33
1179.907	2770.4
1183.176	2775.82
1186.444	2784.7
1189.711	2812.33
1192.979	2825.15
1196.246	2780.58
1199.513	2798.41
1202.78	2796.41
1206.046	2805.84
1209.312	2832.6
1212.578	2859.06
1215.843	2810.86
1219.108	2784.66
1222.373	2808.38
1225.638	2770.71
1228.902	2754.55
1232.166	2717.58
1235.43	2701.47
1238.693	2723.68
1241.956	2720.96
1245.219	2760.44
1248.482	2751.18
1251.744	2744.97
1255.006	2894.55
1258.268	2850.62
1261.529	2794.85
1264.79	2801.21
1268.051	2903.46
1271.312	2922.19
1274.572	2883.46
1277.832	2873.11
1281.092	2862.71
1284.351	2836.15
1287.61	2814.87
1290.869	2732.85
1294.128	2705.88
1297.386	2797.21
1300.644	2786.62
1303.902	2804.1
1307.159	2654.61
1310.416	2712.99
1313.673	2738.84
1316.93	2724.41
1320.186	2771.01
1323.442	2816.19
1326.697	2802.35
1329.953	2792.91
1333.208	2818.57
1336.463	2796.15
1339.717	2734.47
1342.972	2873.68
1346.226	2849.59
1349.479	2781.36
1352.733	2752.71
1355.986	2773.58
1359.238	2748
1362.491	2754.47
1365.743	2756.92
1368.995	2751.21
1372.247	2764.78
1375.498	2788.53
1378.749	2804.54
1382	2756.35
1385.251	2810.78
1388.501	2770.89
1391.751	2756.61
1395	2727.84
1398.25	2758.36
1401.499	2766.46
1404.748	2691.02
1407.996	2681.34
1411.244	2665.66
1414.492	2647.39
1417.74	2628.26
1420.987	2634.76
1424.234	2694.08
1427.481	2673.47
1430.728	2733
1433.974	2706.67
1437.22	2722.39
1440.465	2723.56
1443.711	2686.9
1446.956	2725.35
1450.201	2711.34
1453.445	2755.33
1456.689	2736.56
1459.933	2745.81
1463.177	2779.99
1466.42	2750.48
1469.663	2730.89
1472.906	2723.65
1476.148	2800.48
1479.391	2761.27
1482.633	2728.76
1485.874	2741.2
1489.115	2727.71
1492.356	2730.18
1495.597	2706.43
1498.838	2708.93
1502.078	2678.29
1505.318	2627.76
1508.557	2671.74
1511.797	2647.85
1515.036	2716.57
1518.274	2707.19
1521.513	2679.41
1524.751	2698.9
1527.989	2715.39
1531.227	2730.74
1534.464	2723.89
1537.701	2745.85
1540.938	2764.76
1544.174	2717.49
1547.41	2715.21
1550.646	2758.78
1553.882	2791.45
1557.117	2846.79
1560.352	2863.8
1563.587	2819.81
1566.821	2777.63
1570.055	2814.86
1573.289	2783.01
1576.523	2859.35
1579.756	2865.38
1582.989	2884.98
1586.222	2843.02
1589.454	2887.92
1592.686	2854.74
1595.918	2884.11
1599.15	2870.99
1602.381	2948.83
1605.612	2901.48
1608.843	3000.25
1612.073	2912.77
1615.303	2897.2
1618.533	2890.01
1621.762	2893.79
1624.992	2874.93
1628.221	2865.13
1631.449	2847.13
1634.678	2906.16
1637.906	2857.54
1641.134	2895.77
1644.361	2851.48
1647.588	2842.47
1650.815	2859.37
1654.042	2836.03
1657.269	2865.86
1660.495	2820.33
1663.72	2841.12
1666.946	2807.07
1670.171	2749.59
1673.396	2724.85
1676.621	2714.09
1679.845	2734.48
1683.069	2751.57
1686.293	2796.19
1689.517	2765.72
1692.74	2694.57
1695.963	2726.62
1699.185	2743.36
1702.408	2714.66
1705.63	2759.86
1708.852	2770.37
1712.073	2740.3
1715.294	2724.9
1718.515	2786.49
1721.736	2733.67
1724.956	2728.77
1728.176	2756.15
1731.396	2776.91
1734.616	2763.74
1737.835	2792.61
1741.054	2770.62
1744.272	2763.12
1747.491	2797.12
1750.709	2849.74
1753.927	2754.31
1757.144	2800.85
1760.361	2842.98
1763.578	2834.38
1766.795	2774.18
1770.011	2780.5
1773.227	2821.83
1776.443	2856.6
1779.658	2901.86
1782.874	2843.42
1786.089	2823.84
1789.303	2826.62
1792.518	2828.97
1795.732	2815.56
1798.945	2826.9
1802.159	2875.76
1805.372	2778.31
1808.585	2763.96
1811.797	2762.73
1815.01	2816.64
1818.222	2818
1821.434	2789.72
1824.645	2850.54
1827.856	2835.56
1831.067	2874.57
1834.278	2826.85
1837.488	2814.78
1840.698	2965.88
1843.908	2889.06
1847.117	2850.31
1850.326	2729.94
1853.535	2837.56
1856.744	2860.72
1859.952	2771.35
1863.16	2773.96
1866.368	2794.68
1869.575	2903.46
1872.782	2784.11
1875.989	2720.07
1879.196	2806.94
1882.402	2799.33
1885.608	2843.21
1888.814	2741.44
1892.019	2635.42
1895.224	2689.67
1898.429	2669.81
1901.634	2647.43
1904.838	2621.65
1908.042	2671.78
1911.246	2681.01
1914.449	2609.11
1917.652	2606.17
1920.855	2586.18
1924.058	2638.72
1927.26	2676.77
1930.462	2704.69
1933.664	2729.98
1936.865	2668.04
1940.066	2677.74
1943.267	2626.23
1946.467	2639.99
1949.668	2668.63
1952.868	2737.26
1956.067	2714.57
1959.267	2642.45
1962.466	2671.45
1965.665	2654.82
1968.863	2650.58
1972.061	2664.87
1975.259	2665.67
1978.457	2742.87
1981.654	2702.48
1984.852	2700.95
1988.048	2633.88
1991.245	2635.68
1994.441	2720.75
1997.637	2707.45
2000.833	2687.79
2004.028	2727.93
2007.223	2779.49
2010.418	2754.95
2013.613	2717.82
2016.807	2686.7
2020.001	2698.09
2023.194	2741.68
2026.388	2718.83
2029.581	2666.43
2032.774	2715
2035.966	2721.08
2039.158	2649.74
2042.35	2682.22
2045.542	2607
2048.733	2705.45
2051.924	2729.9
2055.115	2755.17
2058.306	2698.29
2061.496	2758.86
2064.686	2823.76
2067.875	2735.96
2071.065	2749.55
2074.254	2779.72
2077.442	2729.44
2080.631	2819.84
2083.819	2712.3
2087.007	2695.22
2090.195	2666.62
2093.382	2702.24
2096.569	2681.02
2099.756	2634.59
2102.942	2660.36
2106.128	2669.17
2109.314	2659.85
2112.5	2622.77
2115.685	2599
2118.87	2609.48
2122.055	2672.61
2125.239	2639.04
2128.424	2614.17
2131.608	2716.86
2134.791	2696.06
2137.974	2753.8
2141.157	2739.84
2144.34	2691.51
2147.523	2705.37
2150.705	2719.22
2153.887	2699.32
2157.068	2648.9
2160.25	2650.44
2163.431	2688.05
2166.611	2634.57
2169.792	2651.7
2172.972	2547
2176.152	2625.15
2179.331	2657.49
2182.511	2641.76
2185.69	2673.33
2188.868	2667.04
2192.047	2723.47
2195.225	2713.42
2198.403	2663.08
2201.58	2652.61
2204.758	2648.77
2207.935	2728.96
2211.111	2620.51
2214.288	2604.45
2217.464	2643.95
2220.64	2613.47
2223.815	2670.12
2226.991	2590.3
2230.166	2610.97
2233.34	2639.72
2236.515	2667.56
2239.689	2739.38
2242.863	2684.44
2246.036	2735.96
2249.209	2740.87
2252.382	2773.7
2255.555	2759.54
2258.727	2695.85
2261.9	2737.19
2265.071	2728.32
2268.243	2732.46
2271.414	2663.54
2274.585	2625.83
2277.756	2696.35
2280.926	2653.83
2284.096	2691.88
2287.266	2599.75
2290.436	2657.17
2293.605	2685.12
2296.774	2714.62
2299.942	2738.26
2303.111	2751.57
2306.279	2802.1
2309.447	2787.37
2312.614	2756.97
2315.781	2777.1
2318.948	2747.16
2322.115	2785.56
2325.281	2686.84
2328.447	2707.36
2331.613	2683.07
2334.779	2652.41
2337.944	2656.49
2341.109	2653.48
2344.274	2638.49
2347.438	2605.31
2350.602	2627.07
2353.766	2645.17
2356.929	2631.42
2360.092	2672.11
2363.255	2623.65
2366.418	2554.74
2369.58	2671.65
2372.742	2456.29
2375.904	2470.83
2379.066	2444.33
2382.227	2482.89
2385.388	2445.29
2388.548	2373.27
2391.709	2427.99
2394.869	2408.2
2398.029	2509.26
2401.188	2523.57
2404.347	2454.06
2407.506	2599.5
2410.665	2626.99
2413.823	2634.29
2416.981	2589.45
2420.139	2623.59
2423.296	2669.91
2426.453	2643.32
2429.61	2666.64
2432.767	2597.51
2435.923	2637.13
2439.079	2600.11
2442.235	2649.61
2445.391	2577.52
2448.546	2607.18
2451.701	2656.04
2454.855	2627.66
2458.009	2683.26
2461.163	2685.49
2464.317	2643.52
2467.471	2677.93
2470.624	2718.81
2473.777	2687.82
2476.929	2701.49
2480.082	2727.28
2483.234	2689.73
2486.385	2646.67
2489.537	2638.27
2492.688	2596.14
2495.839	2614.82
2498.989	2627.02
2502.14	2611.57
2505.29	2590.91
2508.439	2620.74
2511.589	2541.18
2514.738	2555.37
2517.887	2586.89
2521.035	2651.28
2524.183	2632.61
2527.331	2614.44
2530.479	2587.4
2533.627	2598.94
