Data from C_3_DEC_CT_2N_Splice17_13-01-16-212.txt Node
Date: Sat Mar 14 13:01:16 EDT 2020
User: sa697716
Spectrometer: FLMS03696
Trigger mode: 0
Integration Time (sec): 3.180400E-1
Scans to average: 20
Electric dark correction enabled: true
Nonlinearity correction enabled: true
Boxcar width: 5
XAxis mode: Wavelengths
Number of Pixels in Spectrum: 2048
>>>>>Begin Spectral Data<<<<<
187.83	-247586.02
188.298	1835.63
188.766	1022
189.233	958.91
189.701	1292.14
190.169	1787.65
190.636	633.38
191.104	529.92
191.571	35.58
192.039	-128.95
192.506	-109.85
192.974	412.33
193.441	-816.56
193.908	-241.79
194.375	-22.1
194.842	3.94
195.31	112.99
195.777	183.92
196.244	443.03
196.711	570.74
197.177	741.68
197.644	1083.64
198.111	1886.78
198.578	2697.11
199.045	2160.14
199.511	3512.56
199.978	4147.29
200.445	3528.16
200.911	3909.84
201.378	4400.52
201.844	3968.8
202.31	6766.28
202.777	7065.25
203.243	3921.88
203.709	3709.66
204.176	4429.12
204.642	3669.75
205.108	3413.63
205.574	2798.08
206.04	2561.14
206.506	2398.47
206.972	2301.26
207.438	2228.31
207.903	2551.07
208.369	2248.93
208.835	2248.23
209.301	2360.36
209.766	2435.83
210.232	2418.03
210.697	2990.73
211.163	3709.64
211.628	5642.62
212.094	4717.4
212.559	5818.56
213.024	3628.69
213.49	4416.4
213.955	4337.39
214.42	4291.3
214.885	4006.39
215.35	3856.39
215.815	3700.51
216.28	3949
216.745	3256.23
217.21	3575.68
217.675	3367.51
218.14	3860.27
218.604	4412.3
219.069	5144.61
219.534	5453.72
219.998	6456.49
220.463	7964.19
220.927	10010.98
221.392	9554.18
221.856	9772.34
222.32	12443.91
222.785	15424.15
223.249	19509.44
223.713	21905.51
224.177	21997.17
224.642	28399.91
225.106	35086.12
225.57	38433.4
226.034	28550.61
226.497	43517.4
226.961	39306.46
227.425	45750.84
227.889	50869.16
228.353	50979.07
228.816	105384.55
229.28	100850.42
229.744	85241.75
230.207	51819.31
230.671	51079.38
231.134	84822.05
231.597	97731.69
232.061	97794.57
232.524	95606.56
232.987	65911.86
233.45	59322.54
233.914	53199
234.377	54576.66
234.84	49922.89
235.303	58907.28
235.766	65692.43
236.229	67829.47
236.691	42756.41
237.154	48034.67
237.617	36087.72
238.08	36984.5
238.542	43290.54
239.005	30947.17
239.468	30711.59
239.93	28924.74
240.393	26268.17
240.855	23034.24
241.317	23598
241.78	28712.05
242.242	29683.59
242.704	32016.06
243.166	27841.38
243.629	25239.09
244.091	29057.99
244.553	31810.26
245.015	34201.21
245.477	44242.68
245.939	64894.37
246.4	68878.75
246.862	66933.6
247.324	63092.93
247.786	70714.56
248.247	92738.2
248.709	95870.98
249.17	71709.98
249.632	67542.96
250.093	78235.1
250.555	67548.16
251.016	41219.08
251.477	39074.58
251.939	42182.39
252.4	44307.9
252.861	52694.55
253.322	49003.15
253.783	58428.08
254.244	75831.63
254.705	59824.8
255.166	53274.44
255.627	52530.37
256.088	74047.62
256.549	78656.15
257.009	67797.28
257.47	82278.01
257.931	67050.59
258.391	50243.23
258.852	51760.5
259.312	54370.39
259.773	67220.74
260.233	56728.52
260.694	47841.25
261.154	54334.93
261.614	43563.43
262.074	38998.98
262.534	40506.34
262.994	38165.8
263.455	50941.8
263.915	42945.51
264.374	40446.44
264.834	44197.91
265.294	49083.67
265.754	50871.92
266.214	48151.55
266.673	45209.65
267.133	57078.7
267.593	56703.99
268.052	69400.93
268.512	60370.9
268.971	72751.17
269.431	79804.06
269.89	71523.93
270.349	107212.11
270.809	119552.86
271.268	107549.45
271.727	241383.68
272.186	156419.41
272.645	117366.39
273.104	84817.71
273.563	122829.48
274.022	96691.35
274.481	82240.03
274.94	63310.75
275.399	47115.19
275.857	54919.53
276.316	74345.53
276.775	66184.23
277.233	65198.79
277.692	60984.88
278.15	68992.18
278.609	70947.74
279.067	65691.21
279.525	61020.41
279.984	78873.49
280.442	94685.93
280.9	93250.57
281.358	61345.34
281.816	57124.63
282.274	55918.46
282.732	57798.98
283.19	58083.82
283.648	50142.64
284.106	53421.02
284.564	54317.04
285.021	50356.02
285.479	37544.13
285.937	34166.49
286.394	29944.12
286.852	30845.95
287.309	32400.72
287.767	31280.41
288.224	29702.81
288.682	32589.61
289.139	35753.4
289.596	32707.99
290.053	33982.06
290.511	42881.74
290.968	51991.66
291.425	70626.86
291.882	58699.82
292.339	51074.46
292.796	50715.66
293.252	47815.59
293.709	37917.33
294.166	33990.36
294.623	37591.77
295.079	36081.09
295.536	36251.1
295.992	32904.6
296.449	32529.01
296.905	33812.02
297.362	32399.71
297.818	34087.41
298.274	35353.06
298.731	36071.86
299.187	35680.48
299.643	38308.26
300.099	46289.15
300.555	50715.49
301.011	42367.26
301.467	40770.22
301.923	47779.57
302.379	46680.01
302.835	45844.31
303.291	45864.82
303.746	52191.16
304.202	65943.61
304.658	66205.26
305.113	44564.38
305.569	43695.19
306.024	46584.36
306.479	44379.5
306.935	37343.62
307.39	40800.14
307.845	37652.3
308.301	37902.05
308.756	36952.67
309.211	35585.63
309.666	36442.25
310.121	45197.75
310.576	45858.7
311.031	45527.62
311.486	52221.56
311.94	52269.71
312.395	69906.55
312.85	131302.68
313.305	645337.59
313.759	3334055.2
314.214	241515.93
314.668	191236.34
315.123	160537.85
315.577	57525.88
316.032	51159.66
316.486	64001.3
316.94	50387.64
317.394	35026.21
317.849	27253.98
318.303	25804.25
318.757	24354.71
319.211	26902.99
319.665	23547.41
320.119	23867.56
320.572	34238.05
321.026	31928.84
321.48	26564.52
321.934	29026.68
322.387	29112.46
322.841	31399.36
323.295	28158.43
323.748	32494.74
324.202	32967.72
324.655	39563.66
325.108	55169.03
325.562	38958.54
326.015	46321.57
326.468	35008.95
326.921	39065.49
327.374	36378.18
327.827	37850.43
328.28	42840.2
328.733	28639.01
329.186	25159.2
329.639	23946.68
330.092	20188.59
330.545	19214.18
330.997	19363.49
331.45	21131.24
331.903	24724.5
332.355	42548.11
332.808	41348.23
333.26	34097.24
333.713	37003.68
334.165	37261.53
334.617	49822.57
335.069	40322.47
335.522	72940.06
335.974	80711.42
336.426	73777.65
336.878	51193.6
337.33	25966.45
337.782	25346.67
338.234	31736.07
338.686	37988.58
339.137	45017.35
339.589	42384.68
340.041	33157.75
340.493	28500.62
340.944	29207.99
341.396	31409.07
341.847	26376.12
342.299	31054.98
342.75	37854.69
343.201	33156.05
343.653	38101.48
344.104	46878.57
344.555	36870.24
345.006	57449.92
345.457	43907.21
345.908	34870.04
346.359	32807.13
346.81	26716.16
347.261	28176.59
347.712	27767.25
348.163	29731.2
348.613	30059.57
349.064	28019.86
349.515	24524.93
349.965	25131.27
350.416	30229.76
350.866	33183.62
351.317	37534.25
351.767	62141.32
352.217	78444.95
352.668	65100.99
353.118	59630.03
353.568	57576.77
354.018	45512.59
354.468	48001.02
354.918	34391.47
355.368	30123.36
355.818	42558.28
356.268	122510.33
356.718	512382.07
357.168	127480.67
357.617	63955.84
358.067	71138.54
358.517	66564.58
358.966	78005.87
359.416	87312.69
359.865	94481.51
360.315	112607.03
360.764	52570.88
361.213	29441.45
361.663	27905.62
362.112	34475.25
362.561	55676.19
363.01	41999.39
363.459	35382.94
363.908	38314.09
364.357	32550.89
364.806	54972.25
365.255	37782.52
365.703	34523.05
366.152	34545.74
366.601	28009.53
367.05	22703.47
367.498	20606.09
367.947	21510.27
368.395	22355.37
368.844	19758.62
369.292	23847.5
369.74	16462.19
370.189	25226.55
370.637	29611.78
371.085	25572.52
371.533	31109.35
371.981	30023.46
372.429	28588.47
372.877	29769.69
373.325	24929.32
373.773	25425.3
374.221	22619.94
374.669	28061.8
375.116	24236.24
375.564	24393.12
376.012	27238.02
376.459	22452.32
376.907	26797.87
377.354	32431.78
377.801	30185.65
378.249	34576.82
378.696	44163.2
379.143	53473.93
379.591	56966.86
380.038	96201.43
380.485	69484.8
380.932	74867.87
381.379	68275.19
381.826	50136.19
382.273	35575.46
382.72	31144.72
383.166	30352.61
383.613	19669.9
384.06	17702.68
384.506	20467.78
384.953	15018.36
385.4	15116.24
385.846	13252.64
386.292	12934.94
386.739	12661.85
387.185	12525.09
387.631	12510.37
388.078	12110.95
388.524	12941.61
388.97	11931.03
389.416	9926.46
389.862	10539.66
390.308	9974.12
390.754	10095.11
391.2	10937.35
391.645	11182.08
392.091	10644.7
392.537	10269
392.983	10281.1
393.428	10061.55
393.874	10781.14
394.319	10800.8
394.765	10206.9
395.21	10458.33
395.655	9793.45
396.101	9148.92
396.546	8239.34
396.991	8316.32
397.436	7714.75
397.881	7444.5
398.326	7059.29
398.771	6658.33
399.216	5807.81
399.661	5224.67
400.106	5192.31
400.551	5310.09
400.995	4759.13
401.44	4704.46
401.885	4414.68
402.329	4453.46
402.774	4267.97
403.218	4119.65
403.663	3963.81
404.107	4068.27
404.551	4093.6
404.995	3758.38
405.44	3622.12
405.884	3678.69
406.328	3560.47
406.772	3551.66
407.216	3230.09
407.66	3120.08
408.104	2966.37
408.547	2775.73
408.991	2688.1
409.435	2589.06
409.879	2551.04
410.322	2514.24
410.766	2423.16
411.209	2297.45
411.653	2200.87
412.096	2155.32
412.54	2153.84
412.983	2139.19
413.426	2141.96
413.869	2139.13
414.312	2097.52
414.756	2018.94
415.199	1924.07
415.642	1868.97
416.085	1873.08
416.527	1862.89
416.97	1889.75
417.413	1792.12
417.856	1771.5
418.298	1756.07
418.741	1743.45
419.184	1738.83
419.626	1813.35
420.069	1815.12
420.511	1821.45
420.953	1779.48
421.396	1758.78
421.838	1714.62
422.28	1753.18
422.722	1762.78
423.164	1789.39
423.606	1759.74
424.048	1758.45
424.49	1669.2
424.932	1662.15
425.374	1641.42
425.816	1673.35
426.258	1709.53
426.699	1729.57
427.141	1704.06
427.582	1732.56
428.024	1721.79
428.465	1711.48
428.907	1666.84
429.348	1648.57
429.789	1647.86
430.231	1611.91
430.672	1631.31
431.113	1592.83
431.554	1568.05
431.995	1529
432.436	1471.98
432.877	1438.88
433.318	1413.84
433.759	1406.98
434.2	1406.02
434.64	1390.31
435.081	1394.47
435.522	1321.86
435.962	1272.22
436.403	1244.42
436.843	1262.58
437.284	1234.26
437.724	1202.71
438.164	1207.04
438.604	1182.22
439.045	1136.64
439.485	1087.86
439.925	1063.74
440.365	1037.44
440.805	1023.07
441.245	1010.66
441.685	972.38
442.125	965.38
442.564	968.47
443.004	946.25
443.444	942.16
443.883	942.41
444.323	936.19
444.762	937.55
445.202	948.05
445.641	962.71
446.081	956.94
446.52	963.27
446.959	953.57
447.398	930.74
447.837	916.97
448.276	899.92
448.716	906.19
449.154	911.59
449.593	888.74
450.032	885.44
450.471	868.27
450.91	866.95
451.349	862.91
451.787	857.51
452.226	868.26
452.664	868.32
453.103	868.42
453.541	866.65
453.98	864.04
454.418	869.48
454.856	853.29
455.295	851.1
455.733	855.95
456.171	860.17
456.609	859.32
457.047	858.55
457.485	869.09
457.923	869.44
458.361	856.28
458.798	858.97
459.236	856.51
459.674	863.13
460.111	865.74
460.549	857.42
460.987	854.14
461.424	851.01
461.862	845.89
462.299	832.43
462.736	830.38
463.173	834.33
463.611	824.43
464.048	820.97
464.485	826.07
464.922	817.31
465.359	811.78
465.796	798.97
466.233	791.56
466.67	782.22
467.106	779.74
467.543	772.64
467.98	761.16
468.416	740.67
468.853	735.79
469.29	713.15
469.726	706.69
470.162	688.05
470.599	679.4
471.035	674.22
471.471	659.73
471.907	656.24
472.344	651.35
472.78	652.57
473.216	659.65
473.652	650.38
474.088	648.86
474.523	645.73
474.959	650.77
475.395	644.9
475.831	640.28
476.266	643.7
476.702	640.09
477.138	632.03
477.573	629.4
478.008	626.84
478.444	628.87
478.879	634.19
479.314	636.54
479.75	635.67
480.185	638.21
480.62	643.36
481.055	644.95
481.49	649.23
481.925	658.88
482.36	669.64
482.795	688.03
483.229	705.07
483.664	717.88
484.099	719.04
484.534	728.94
484.968	734.03
485.403	735.35
485.837	733.26
486.271	730.67
486.706	729.47
487.14	719.27
487.574	705.53
488.009	696.86
488.443	689.17
488.877	694.68
489.311	694.66
489.745	700.76
490.179	705.12
490.613	715.49
491.046	718.51
491.48	721.2
491.914	719.58
492.348	722.62
492.781	725.29
493.215	724.14
493.648	722.03
494.082	724.43
494.515	721.78
494.948	726.07
495.382	727.62
495.815	729.08
496.248	731.17
496.681	740.81
497.114	748.79
497.547	754.55
497.98	763.8
498.413	766.31
498.846	772.76
499.279	778
499.711	777.28
500.144	775.86
500.577	782.36
501.009	787.69
501.442	792.36
501.874	788.81
502.306	786.38
502.739	789.5
503.171	798.58
503.603	797.11
504.036	801.2
504.468	802.87
504.9	808.5
505.332	810.23
505.764	811.24
506.196	813.97
506.627	824.09
507.059	832.82
507.491	836.93
507.923	831.86
508.354	841.24
508.786	846.63
509.217	858.75
509.649	869.55
510.08	883.68
510.512	896.17
510.943	907.03
511.374	914.85
511.805	929.91
512.237	945.26
512.668	971.37
513.099	993.99
513.53	1016.52
513.961	1034.53
514.391	1060.58
514.822	1089.02
515.253	1119.92
515.684	1141.91
516.114	1167.59
516.545	1187.18
516.975	1210.52
517.406	1227.85
517.836	1231.04
518.267	1239.95
518.697	1257.44
519.127	1263.76
519.558	1271.6
519.988	1276.29
520.418	1288.24
520.848	1305.52
521.278	1316.56
521.708	1344.21
522.138	1358.82
522.567	1390.49
522.997	1415.33
523.427	1432.3
523.857	1450.59
524.286	1463.77
524.716	1481.71
525.145	1502.94
525.575	1516.97
526.004	1534.65
526.433	1524.84
526.863	1527.88
527.292	1522.56
527.721	1532.38
528.15	1541.78
528.579	1545.75
529.008	1559.32
529.437	1583.68
529.866	1599.63
530.295	1619.1
530.724	1632.41
531.152	1660.11
531.581	1677.33
532.01	1697.31
532.438	1706.86
532.867	1723.2
533.295	1744.17
533.723	1751.73
534.152	1751.72
534.58	1752.21
535.008	1738.13
535.436	1741.72
535.865	1750.57
536.293	1765.59
536.721	1781.27
537.149	1808.28
537.576	1811.43
538.004	1824.03
538.432	1832.91
538.86	1832.07
539.287	1840.22
539.715	1856.31
540.143	1860.55
540.57	1857.32
540.998	1854.85
541.425	1833.39
541.852	1811.77
542.28	1811.42
542.707	1796.6
543.134	1784.21
543.561	1781.51
543.988	1776.19
544.415	1774.9
544.842	1769.93
545.269	1763.8
545.696	1765.68
546.123	1779.52
546.549	1771.41
546.976	1760.29
547.403	1761.63
547.829	1764.06
548.256	1767.43
548.682	1765.09
549.108	1758.94
549.535	1760.13
549.961	1763.93
550.387	1752.78
550.813	1746.88
551.24	1754.71
551.666	1756.85
552.092	1748.57
552.518	1743.17
552.943	1737.69
553.369	1744.16
553.795	1750.22
554.221	1752.1
554.646	1748.71
555.072	1758.76
555.498	1765.2
555.923	1773.8
556.349	1786.79
556.774	1793.45
557.199	1794.13
557.625	1798.26
558.05	1792.36
558.475	1800.75
558.9	1797.31
559.325	1787.84
559.75	1779.88
560.175	1769.9
560.6	1761.82
561.025	1757.48
561.449	1755.7
561.874	1758.31
562.299	1760.74
562.723	1764.27
563.148	1751.33
563.572	1752.49
563.997	1759.09
564.421	1761.41
564.846	1759.06
565.27	1758.05
565.694	1752.59
566.118	1760.45
566.542	1763.88
566.966	1754.05
567.39	1746.1
567.814	1732.52
568.238	1727.32
568.662	1727.89
569.086	1726.02
569.509	1729.14
569.933	1711.16
570.357	1700.25
570.78	1677.11
571.204	1661.53
571.627	1647.2
572.05	1642.54
572.474	1639.97
572.897	1625.44
573.32	1615.88
573.743	1604.29
574.166	1584.25
574.589	1581.65
575.012	1572.84
575.435	1569.05
575.858	1558.87
576.281	1548.62
576.704	1530.9
577.126	1517.86
577.549	1506.15
577.972	1496.25
578.394	1484.77
578.817	1478.91
579.239	1460.77
579.661	1447.07
580.084	1432.9
580.506	1419.76
580.928	1414.09
581.35	1403.85
581.772	1398.99
582.194	1388.21
582.616	1375.1
583.038	1362.84
583.46	1351.86
583.882	1347.81
584.303	1351.5
584.725	1346.49
585.147	1349.27
585.568	1358.3
585.99	1369.11
586.411	1374.21
586.833	1386.33
587.254	1388.05
587.675	1399.72
588.096	1410.76
588.518	1406.03
588.939	1390.79
589.36	1388.07
589.781	1377.15
590.202	1351.83
590.623	1343.58
591.043	1340.38
591.464	1328.26
591.885	1324.53
592.305	1318.63
592.726	1305.84
593.147	1306.86
593.567	1302.07
593.987	1295.49
594.408	1289.71
594.828	1287.02
595.248	1281.43
595.669	1264.84
596.089	1258.86
596.509	1252.22
596.929	1239.61
597.349	1239.99
597.769	1230.19
598.189	1223.52
598.608	1224.32
599.028	1224.86
599.448	1223.67
599.867	1212.11
600.287	1208.03
600.706	1202.93
601.126	1193.99
601.545	1192.68
601.965	1190.51
602.384	1185.15
602.803	1186.19
603.222	1180.87
603.641	1173.92
604.061	1170.82
604.48	1165.82
604.898	1171.16
605.317	1173.36
605.736	1173.97
606.155	1169.95
606.574	1160.59
606.992	1164.21
607.411	1159.84
607.829	1156.87
608.248	1153.71
608.666	1150.02
609.085	1149.45
609.503	1142.11
609.921	1136.48
610.339	1136.99
610.758	1135.37
611.176	1130.55
611.594	1122.98
612.012	1118.65
612.43	1115.62
612.847	1120.21
613.265	1119.95
613.683	1122.62
614.101	1122.48
614.518	1118.19
614.936	1108.7
615.353	1096.84
615.771	1094.23
616.188	1092.51
616.606	1089.58
617.023	1083.76
617.44	1072.04
617.857	1065.6
618.274	1058.06
618.691	1053.69
619.108	1046.55
619.525	1041.79
619.942	1047.35
620.359	1049.25
620.776	1046.5
621.192	1043.31
621.609	1040.91
622.026	1046.62
622.442	1052.51
622.859	1054.92
623.275	1047.99
623.691	1052.49
624.108	1062.15
624.524	1073.76
624.94	1074.53
625.356	1081.96
625.772	1092.82
626.188	1103.67
626.604	1105.44
627.02	1102.46
627.436	1100.52
627.852	1106.95
628.268	1117.22
628.683	1108.86
629.099	1102.74
629.514	1097.51
629.93	1101.43
630.345	1105.81
630.761	1102.28
631.176	1105.72
631.591	1100.56
632.007	1096.15
632.422	1094.28
632.837	1084.73
633.252	1084.05
633.667	1073.52
634.082	1066.83
634.497	1056.02
634.911	1039.71
635.326	1036.24
635.741	1022.05
636.155	1014.49
636.57	1015.96
636.984	1015.95
637.399	1018.72
637.813	1018.02
638.228	1019.6
638.642	1024.38
639.056	1016.26
639.47	1016.58
639.884	1009.82
640.298	1003.89
640.712	1003.41
641.126	994.15
641.54	987.7
641.954	983.3
642.368	975.29
642.781	969.78
643.195	955.27
643.609	957.93
644.022	954.94
644.436	953.1
644.849	944.49
645.262	935.29
645.676	937.91
646.089	936.11
646.502	925.69
646.915	922.78
647.328	909.52
647.741	909.19
648.154	898.71
648.567	898.71
648.98	889.75
649.393	891.55
649.805	891.22
650.218	885.48
650.631	872.12
651.043	867.06
651.456	862.77
651.868	863.51
652.28	879.79
652.693	891.99
653.105	896.97
653.517	904.89
653.929	906.4
654.341	910.94
654.753	902.93
655.165	910.8
655.577	910.27
655.989	907.94
656.401	902.96
656.813	873.16
657.224	857.15
657.636	834.27
658.047	821.72
658.459	806.94
658.87	801.02
659.282	793.28
659.693	777.3
660.104	767.33
660.515	757.7
660.926	760.17
661.338	760.38
661.749	759.37
662.159	754.57
662.57	754.14
662.981	753.53
663.392	750.71
663.803	758.04
664.213	760.87
664.624	760.77
665.035	768.15
665.445	757.37
665.855	754.68
666.266	749.87
666.676	751.16
667.086	745.81
667.497	748.86
667.907	747.25
668.317	741.19
668.727	739.34
669.137	743.53
669.547	743.13
669.956	748.88
670.366	752.3
670.776	755.89
671.186	762.22
671.595	766.87
672.005	771.32
672.414	771.26
672.824	769.89
673.233	774.5
673.642	776.66
674.052	780.01
674.461	781.83
674.87	786.63
675.279	784.02
675.688	784.53
676.097	786.22
676.506	783.67
676.915	796.85
677.323	799.3
677.732	797.53
678.141	795.75
678.549	784.58
678.958	783.54
679.366	782.51
679.775	787.3
680.183	796.02
680.592	800.33
681	802.85
681.408	794.96
681.816	800.88
682.224	806.54
682.632	812.78
683.04	836.67
683.448	856.85
683.856	881.26
684.264	909.61
684.671	934.71
685.079	964.76
685.487	997.86
685.894	1045.71
686.302	1079.98
686.709	1107.62
687.116	1141.01
687.524	1167.38
687.931	1184.8
688.338	1198.9
688.745	1208.46
689.152	1222.41
689.559	1247.47
689.966	1274.22
690.373	1282.31
690.78	1309.36
691.187	1355.5
691.593	1390.71
692	1420.69
692.407	1469.91
692.813	1533.72
693.22	1584.12
693.626	1639.87
694.032	1687.1
694.439	1758.02
694.845	1816.8
695.251	1889.48
695.657	1957.93
696.063	2057.02
696.469	2136.04
696.875	2212.11
697.281	2261.12
697.687	2321.41
698.093	2373.86
698.498	2461.21
698.904	2533.17
699.31	2635.57
699.715	2717.07
700.12	2824.17
700.526	2861.62
700.931	2952.41
701.337	3027.15
701.742	3083.85
702.147	3189.72
702.552	3243.63
702.957	3326.04
703.362	3370.32
703.767	3423.07
704.172	3486.91
704.577	3462.79
704.981	3535.29
705.386	3572.36
705.791	3587.17
706.195	3690.95
706.6	3724.09
707.004	3834.87
707.408	3826.39
707.813	3877.42
708.217	3886.23
708.621	3909.44
709.025	4041.26
709.43	4064.9
709.834	4157.17
710.237	4256.27
710.641	4259.63
711.045	4305.62
711.449	4318.75
711.853	4372.4
712.256	4443.17
712.66	4507.4
713.064	4618.84
713.467	4686.36
713.87	4838.97
714.274	4913.38
714.677	5065.59
715.08	5277.08
715.484	5500.68
715.887	5766.2
716.29	6029.28
716.693	6301.91
717.096	6613.85
717.499	6793.68
717.901	6849.48
718.304	6905.33
718.707	6957.5
719.109	6848.16
719.512	6831.6
719.915	6683.97
720.317	6632.64
720.719	6705.97
721.122	6687.8
721.524	6645.37
721.926	6609.55
722.328	6753.25
722.731	6759.49
723.133	6812.37
723.535	7077.96
723.937	7119.27
724.338	7201.42
724.74	7269.29
725.142	7182.84
725.544	7197.91
725.945	7242.28
726.347	7254.63
726.748	7257.38
727.15	7287.1
727.551	7248.07
727.952	7223.93
728.354	7201.58
728.755	7214.26
729.156	7172.53
729.557	7186.99
729.958	7034.67
730.359	6977.7
730.76	6963.46
731.161	6894.3
731.562	6871.15
731.962	6888.32
732.363	6811.4
732.763	6735.65
733.164	6791.24
733.564	6707.12
733.965	6587.19
734.365	6549.23
734.766	6593.82
735.166	6546.56
735.566	6478.05
735.966	6449.03
736.366	6444.86
736.766	6367.88
737.166	6413.93
737.566	6361.91
737.966	6332.66
738.365	6389.81
738.765	6387.56
739.165	6290.6
739.564	6258.91
739.964	6323.3
740.363	6265.36
740.763	6266.84
741.162	6255.83
741.561	6214.35
741.96	6156.75
742.36	6185.12
742.759	6193.65
743.158	6244.71
743.557	6268.58
743.955	6327.16
744.354	6270.97
744.753	6347.99
745.152	6294.74
745.55	6371.57
745.949	6368.87
746.348	6375.98
746.746	6407.6
747.144	6355.81
747.543	6333.86
747.941	6402.27
748.339	6309.42
748.737	6301.04
749.136	6293.04
749.534	6383.81
749.932	6348.7
750.33	6379.23
750.727	6454.9
751.125	6421.55
751.523	6407.13
751.921	6464.86
752.318	6418.8
752.716	6501.29
753.113	6519.88
753.511	6555.27
753.908	6556.32
754.305	6530.22
754.703	6614.71
755.1	6698.61
755.497	6782.63
755.894	7038.63
756.291	7280.85
756.688	7728.36
757.085	8323.39
757.482	9159.28
757.878	10076.27
758.275	10898.77
758.672	12042.76
759.068	12974.57
759.465	14293.96
759.861	15989.61
760.258	17966.99
760.654	18993.07
761.05	18841.44
761.447	17980.37
761.843	16743.53
762.239	15455.83
762.635	14885.01
763.031	14328.82
763.427	13521.34
763.822	12686.11
764.218	11854.71
764.614	10769.11
765.01	10045.18
765.405	9579.75
765.801	9219.28
766.196	8767.93
766.592	8517.09
766.987	8086.87
767.382	7795.21
767.778	7674.4
768.173	7493.36
768.568	7393.76
768.963	7225.77
769.358	7249.49
769.753	7184.62
770.148	7074.18
770.542	7071.9
770.937	7030.62
771.332	7156.53
771.726	7185.84
772.121	7101.16
772.515	7176.04
772.91	7159.77
773.304	7258.16
773.699	7170.03
774.093	7244.99
774.487	7320.79
774.881	7376
775.275	7370.3
775.669	7310.43
776.063	7367.13
776.457	7418.15
776.851	7317.06
777.245	7306.69
777.638	7350.95
778.032	7506.47
778.425	7453.3
778.819	7504.97
779.212	7449.57
779.606	7393.2
779.999	7422.74
780.392	7403.58
780.786	7515.43
781.179	7544.7
781.572	7603.99
781.965	7621.36
782.358	7543.93
782.751	7621.57
783.143	7562.59
783.536	7662.8
783.929	7722.91
784.322	7876.72
784.714	7917.49
785.107	7913.27
785.499	8012.76
785.891	7981.15
786.284	7959.4
786.676	8152.97
787.068	8127.03
787.46	8199.29
787.852	8224.45
788.245	8343.6
788.636	8387.48
789.028	8481.09
789.42	8535.6
789.812	8547.7
790.204	8681.21
790.595	8814.56
790.987	8548.51
791.378	8583.58
791.77	8756.94
792.161	8946.71
792.553	9018.74
792.944	8869.9
793.335	8779.48
793.726	8879.55
794.117	8999.05
794.508	9184.95
794.899	9142.09
795.29	9336.86
795.681	9419.01
796.072	9228.98
796.463	8968.33
796.853	8983.51
797.244	9195.68
797.634	9241.09
798.025	9235.11
798.415	9256.28
798.806	9378.57
799.196	9495.01
799.586	9563.81
799.976	9508.66
800.366	9826.66
800.756	10168.2
801.146	10117.52
801.536	10156.14
801.926	10255.27
802.316	10296.54
802.706	10394.95
803.095	10230.37
803.485	10373.64
803.874	10430.51
804.264	10784.59
804.653	10742.86
805.043	10936.7
805.432	11080.32
805.821	11084.32
806.21	11115.4
806.599	11275.85
806.988	11341.95
807.377	11487.62
807.766	11663.67
808.155	12046.81
808.544	11689.77
808.933	11720.11
809.321	11694.21
809.71	12101.37
810.098	12320.72
810.487	12951.69
810.875	13608.59
811.264	13634.12
811.652	14024.41
812.04	14227.53
812.428	14449.54
812.816	15496.34
813.204	16059.87
813.592	16806.58
813.98	17274.3
814.368	17146.79
814.756	17809.22
815.144	17695.19
815.531	18331.17
815.919	18234.64
816.306	18652.52
816.694	18238.79
817.081	18305.93
817.469	18771.53
817.856	18779.73
818.243	19144.47
818.63	19677.55
819.017	19094.28
819.404	19185.87
819.791	19706.28
820.178	20548.2
820.565	20883.57
820.952	22155.9
821.339	21483.38
821.725	21748
822.112	20730.2
822.498	20667.02
822.885	20850.94
823.271	20728.21
823.657	21299.28
824.044	21309.98
824.43	21406.85
824.816	21358.86
825.202	20757.04
825.588	22148.97
825.974	22165.95
826.36	22874.06
826.746	22923.46
827.132	23407.62
827.517	23365.4
827.903	22294.38
828.289	22344.89
828.674	21292.26
829.06	21151.41
829.445	21694.37
829.83	22180.3
830.216	22829.96
830.601	23315.05
830.986	22755.64
831.371	22571.06
831.756	23341.54
832.141	22749.02
832.526	22742.79
832.911	23116.41
833.295	22966.16
833.68	23605.15
834.065	22755.28
834.449	21513.15
834.834	21413.77
835.218	21405.82
835.603	21863.05
835.987	21564.74
836.371	22698.19
836.755	22550.31
837.139	23096.25
837.524	23422.88
837.908	23171.35
838.291	23248.65
838.675	23338.26
839.059	23619.08
839.443	23603.49
839.827	23288.87
840.21	23936.68
840.594	23728.34
840.977	24005.59
841.361	23973.04
841.744	24473.02
842.127	24264.29
842.511	24595.35
842.894	25396.76
843.277	25904.56
843.66	26645.2
844.043	26750.66
844.426	25660.75
844.809	25247.15
845.191	25286.11
845.574	24654.79
845.957	24162.83
846.339	24006.94
846.722	23293.7
847.104	23383.79
847.487	23155.59
847.869	23161.94
848.252	23535.82
848.634	23986.53
849.016	24339.85
849.398	24507.58
849.78	25672
850.162	25674.25
850.544	26245.83
850.926	27093.35
851.307	26964.87
851.689	27337.85
852.071	27960.87
852.452	28399.33
852.834	28367.36
853.215	28904.61
853.597	29109.98
853.978	29498.53
854.359	30106.34
854.741	28759.25
855.122	28634.18
855.503	28259.78
855.884	28447.13
856.265	28345.7
856.646	28504.44
857.026	27960.19
857.407	27866.08
857.788	28086.57
858.169	28477
858.549	27329.47
858.93	28170.11
859.31	28232.24
859.69	28508.51
860.071	27961.46
860.451	27680.17
860.831	26681.36
861.211	28258.9
861.591	29007.54
861.971	28979.39
862.351	29233.9
862.731	29771.5
863.111	30132.45
863.491	30591.76
863.87	31781.19
864.25	32265
864.629	31721.89
865.009	32424.58
865.388	33578.16
865.768	35989.65
866.147	35847.7
866.526	33877.29
866.905	34280.06
867.284	36211.45
867.663	34374.99
868.042	32934.53
868.421	32819.48
868.8	33368.42
869.179	33691.95
869.558	31735.14
869.936	29246.9
870.315	29771.56
870.693	30487.18
871.072	32869.85
871.45	31322.42
871.828	31723.57
872.207	33371.64
872.585	32866.65
872.963	33772.55
873.341	32622
873.719	32226.53
874.097	31856.89
874.475	32456.75
874.853	33202.99
875.23	31824.28
875.608	33143.11
875.986	35853.49
876.363	34288.45
876.741	35336.54
877.118	34447.57
877.495	36126.12
877.873	36731.77
878.25	38638.45
878.627	37062.44
879.004	37592.49
879.381	37415.27
879.758	36416.38
880.135	33899.83
880.512	35843.3
880.889	34899.08
881.265	34530.8
881.642	34254.19
882.019	34837.36
882.395	34116.49
882.772	35461.17
883.148	33915
883.524	33779.6
883.901	33594.42
884.277	34091.5
884.653	33868.82
885.029	34838.75
885.405	38575.89
885.781	38267.58
886.157	36685.19
886.532	37145.94
886.908	37130.62
887.284	41289.87
887.659	42634.52
888.035	43961.55
888.411	45095.86
888.786	45686.9
889.161	47262.23
889.537	46396.87
889.912	47871.83
890.287	47833.92
890.662	49060.1
891.037	48160.59
891.412	44894.02
891.787	44446.61
892.162	42879.42
892.536	43873.76
892.911	42211.89
893.286	41312.26
893.66	39621.07
894.035	40627.71
894.409	44239.01
894.784	42444.04
895.158	43142.96
895.532	45688.93
895.906	46907.98
896.281	48003.12
896.655	47238.45
897.029	53994.32
897.402	56224.88
897.776	62611.49
898.15	62397.4
898.524	61695.14
898.898	62518.57
899.271	69983.48
899.645	60623.28
900.018	58265.85
900.392	60429.45
900.765	60914.62
901.138	56342.18
901.511	55510.37
901.884	50952.87
902.258	46985.55
902.631	48559.99
903.003	55877.67
903.376	50445.17
903.749	56564.33
904.122	60518.94
904.495	66658.89
904.867	67509.06
905.24	58634.02
905.612	54583.38
905.985	55833.6
906.357	58399.95
906.729	55737.87
907.102	47636.45
907.474	45803.75
907.846	46112.98
908.218	45523.41
908.59	40227.78
908.962	38923.58
909.334	41937.8
909.705	44054.02
910.077	42783.93
910.449	44553.18
910.82	45817.54
911.192	50409.17
911.563	52388.66
911.935	56068.56
912.306	56183.95
912.677	58035.24
913.048	57423.35
913.419	62298.47
913.79	62684.69
914.161	67214.9
914.532	64226.62
914.903	59042.05
915.274	56083.58
915.645	55274.74
916.015	48658.75
916.386	46384.32
916.756	49391.31
917.127	50981.15
917.497	45551.3
917.868	49567.26
918.238	47112.05
918.608	48495.95
918.978	49499.89
919.348	52428.68
919.718	54197.83
920.088	52215.08
920.458	54260.06
920.828	57092.49
921.198	54122.92
921.567	57825.58
921.937	44776.26
922.306	45215.27
922.676	48749.78
923.045	40639.69
923.415	38631.52
923.784	35176.98
924.153	36142.64
924.522	36091.39
924.891	33905.94
925.26	36298.37
925.629	35450.42
925.998	40765.1
926.367	39786.8
926.736	37881.45
927.104	45129.46
927.473	48482.73
927.842	58543.07
928.21	58011.89
928.578	60975.74
928.947	57680.04
929.315	58035.69
929.683	68015.73
930.051	68528.51
930.42	79569.11
930.788	68003.46
931.156	67508.23
931.523	63231.84
931.891	58381.42
932.259	56063.47
932.627	64963.55
932.994	91885.47
933.362	75911.79
933.729	65944.84
934.097	63155.62
934.464	53432.95
934.831	61630.29
935.199	60770.87
935.566	58940.25
935.933	59818.96
936.3	72459.62
936.667	56422.57
937.034	50837.93
937.401	50303.9
937.767	43414.05
938.134	38631.41
938.501	54514.25
938.867	58102
939.234	98216.97
939.6	83856.16
939.967	92269.72
940.333	61762.24
940.699	52568.27
941.065	42257.89
941.431	55411.87
941.798	53374.14
942.163	70087.45
942.529	43775.52
942.895	40332.79
943.261	26086.55
943.627	34245.14
943.992	30003.04
944.358	30067.47
944.723	30189.14
945.089	29446.78
945.454	27229.75
945.82	29102.56
946.185	27985.24
946.55	32425.34
946.915	29073.66
947.28	34119.62
947.645	30053.03
948.01	27733.52
948.375	28899.55
948.74	34657
949.104	40424.51
949.469	58431.09
949.834	103163.33
950.198	97705.54
950.562	58535.07
950.927	48782.15
951.291	58681.48
951.655	50000.86
952.02	46996.16
952.384	35559.47
952.748	30948.13
953.112	30144.61
953.476	26215.03
953.839	24264.46
954.203	24010.73
954.567	30025.38
954.931	47284.88
955.294	40455.89
955.658	40662.24
956.021	69091.92
956.385	117135.74
956.748	172880.87
957.111	268377.58
957.474	301124.96
957.837	339097.36
958.2	256793.22
958.563	92395.13
958.926	62467.57
959.289	94820.46
959.652	106027.14
960.015	79565.21
960.377	114141.99
960.74	130307.73
961.102	225032.53
961.465	241624.87
961.827	129285.37
962.189	248130.85
962.552	172153.06
962.914	138090.71
963.276	89615.61
963.638	74073.66
964	73351.12
964.362	49579.21
964.724	47940.89
965.085	34174.21
965.447	28000.01
965.809	31957.96
966.17	32012.1
966.532	34620.46
966.893	31741.75
967.255	28888.4
967.616	34075.48
967.977	27272.37
968.338	29792.08
968.699	24457.88
969.061	24474.54
969.421	24633.68
969.782	27642.91
970.143	23334.58
970.504	24158.53
970.865	27478.04
971.225	28057.19
971.586	27460.93
971.946	39183.71
972.307	34017.38
972.667	44481.9
973.027	45799.61
973.388	55588.99
973.748	37782.59
974.108	41142.47
974.468	55725.95
974.828	42921.69
975.188	33086.94
975.548	30376.35
975.907	25483.1
976.267	28592.75
976.627	24012.47
976.986	24911.27
977.346	23753.82
977.705	22853.23
978.064	20802.83
978.424	17306.73
978.783	17920.07
979.142	20431.87
979.501	19534.32
979.86	20643.67
980.219	19886.33
980.578	25676.19
980.937	28729.81
981.296	25577.22
981.654	26306.41
982.013	41006.21
982.371	53176.03
982.73	49626.7
983.088	56198.22
983.447	60088.11
983.805	86003.58
984.163	179890.09
984.521	199662.61
984.879	292906.43
985.237	-476568.51
985.595	459321.99
985.953	114109.49
986.311	65954.64
986.669	38321.26
987.026	33065.66
987.384	44450
987.741	45939.13
988.099	32789.97
988.456	26126.09
988.814	24437.89
989.171	21258.35
989.528	21011.98
989.885	22178.06
990.242	17548.57
990.599	21846.08
990.956	17870.13
991.313	12508.35
991.67	10254.6
992.027	10844.1
992.383	9632.12
992.74	8436.74
993.096	8855.21
993.453	9175.46
993.809	9516.9
994.165	12684.72
994.522	11597.41
994.878	12789.24
995.234	16030.08
995.59	15838.28
995.946	15037.86
996.302	17154.68
996.658	19836.31
997.013	21838.82
997.369	25875.06
997.725	33084.74
998.08	21432.83
998.436	33176.74
998.791	45806.49
999.147	45735.63
999.502	49943.02
999.857	36267.69
1000.212	59085.04
1000.567	84263.76
1000.922	48615.63
1001.277	30894.61
1001.632	22949.88
1001.987	29546.08
1002.342	21203.03
1002.696	16948.77
1003.051	13520.31
1003.406	16354.99
1003.76	16303.18
1004.114	16093.35
1004.469	13520.66
1004.823	11203.29
1005.177	12115.56
1005.531	9605.32
1005.885	8523.95
1006.239	9618.51
1006.593	12053.58
1006.947	16164.92
1007.301	12151.87
1007.655	13246.51
1008.008	9732.37
1008.362	10935.27
1008.715	15602.06
1009.069	14137.99
1009.422	21221.88
1009.776	42549.85
1010.129	28213.4
1010.482	23594.84
1010.835	19958.16
1011.188	41485.65
1011.541	39096.2
1011.894	-238654.53
1012.247	703266.84
1012.6	47840.25
1012.952	30205.34
1013.305	15624.29
1013.657	11276.28
1014.01	10686.62
1014.362	8825.39
1014.715	7808.92
1015.067	6792.2
1015.419	6637.62
1015.771	5875.02
1016.123	5217.76
1016.475	5359.25
1016.827	5711.03
1017.179	6113.8
1017.531	6174.12
1017.883	6301.12
1018.234	6045.9
1018.586	7640.45
1018.938	8071.66
1019.289	11144.94
1019.64	12776.85
1019.992	11920.25
1020.343	10907.77
1020.694	8608.87
1021.045	7603.8
1021.396	8674.51
1021.747	9288.42
1022.098	11200.2
1022.449	8115.81
1022.8	7535.4
1023.151	5246.61
1023.501	4650.94
1023.852	5064.33
1024.202	5236.91
1024.553	5767.59
1024.903	5616.77
1025.253	4767.72
1025.604	4292.59
1025.954	5329.19
1026.304	6536.59
1026.654	7614.2
1027.004	11190.37
1027.354	18170.9
1027.703	17087.09
1028.053	22603.96
1028.403	32741.48
1028.753	47920.21
1029.102	65717.69
1029.452	338756.86
1029.801	14636.11
1030.15	9425.44
1030.499	8028.34
897.758	2663.02
901.051	2621.09
904.343	2656.45
907.636	2657.12
910.928	2720.55
914.22	2632
917.511	2642.42
920.803	2701.06
924.094	2718.81
927.384	2701.56
930.675	2666.93
933.965	2620.3
937.255	2630.69
940.544	2597.54
943.834	2538.94
947.123	2484.11
950.411	2580.65
953.7	2551.14
956.988	2524.32
960.276	2465.28
963.563	2545.55
966.851	2540.03
970.138	2598.48
973.424	2592.1
976.711	2540.35
979.997	2673.89
983.283	2709.29
986.568	2614.26
989.853	2630.64
993.138	2657.2
996.423	2742.17
999.708	2679.7
1002.992	2746.02
1006.275	2580.64
1009.559	2625.51
1012.842	2741.8
1016.125	2672.62
1019.408	2652.61
1022.69	2740.9
1025.972	2760.79
1029.254	2736.71
1032.536	2670.43
1035.817	2696.92
1039.098	2641.53
1042.379	2786.7
1045.659	2785.87
1048.939	2722.87
1052.219	2742.46
1055.498	2752.95
1058.778	2739.6
1062.057	2723.92
1065.335	2745.48
1068.614	2765.37
1071.892	2751.23
1075.17	2825.06
1078.447	2816.38
1081.724	2806.59
1085.001	2842.37
1088.278	2818.01
1091.554	2831.09
1094.83	2826.81
1098.106	2856.7
1101.382	2902.11
1104.657	2902.14
1107.932	2897.62
1111.206	2863.9
1114.481	2818.29
1117.755	2823.05
1121.029	2803.03
1124.302	2859.38
1127.575	2811.72
1130.848	2798.4
1134.121	2758.29
1137.393	2708.14
1140.665	2775.85
1143.937	2749.55
1147.208	2708.73
1150.48	2752.61
1153.75	2737.26
1157.021	2769.34
1160.291	2738.2
1163.561	2785.34
1166.831	2773.73
1170.101	2808.62
1173.37	2778.07
1176.639	2721.87
1179.907	2782.19
1183.176	2787.34
1186.444	2798.11
1189.711	2827.59
1192.979	2839.26
1196.246	2794.21
1199.513	2811.99
1202.78	2811.38
1206.046	2820.09
1209.312	2847.2
1212.578	2873.55
1215.843	2825.22
1219.108	2800.19
1222.373	2820.57
1225.638	2784.7
1228.902	2768.75
1232.166	2731.39
1235.43	2712.61
1238.693	2734.7
1241.956	2730.86
1245.219	2773.1
1248.482	2766.87
1251.744	2760.63
1255.006	2910.86
1258.268	2865.23
1261.529	2807.53
1264.79	2814.63
1268.051	2921.68
1271.312	2940.51
1274.572	2904.95
1277.832	2892.95
1281.092	2881.98
1284.351	2852.52
1287.61	2831.68
1290.869	2750.11
1294.128	2727.1
1297.386	2812.99
1300.644	2802.31
1303.902	2815.9
1307.159	2669.19
1310.416	2725.26
1313.673	2752.97
1316.93	2738.67
1320.186	2784.9
1323.442	2827.49
1326.697	2813.05
1329.953	2802.67
1333.208	2828.46
1336.463	2805.82
1339.717	2743.27
1342.972	2878.46
1346.226	2854.05
1349.479	2783.45
1352.733	2754.32
1355.986	2774.53
1359.238	2749.76
1362.491	2755.43
1365.743	2753.61
1368.995	2746.77
1372.247	2757.38
1375.498	2783.3
1378.749	2801.5
1382	2748.91
1385.251	2803.9
1388.501	2761.4
1391.751	2745.02
1395	2717.41
1398.25	2746.79
1401.499	2754.29
1404.748	2682.81
1407.996	2672.99
1411.244	2656.9
1414.492	2634.64
1417.74	2615.84
1420.987	2624.37
1424.234	2683.62
1427.481	2663.75
1430.728	2721.06
1433.974	2692.45
1437.22	2707.48
1440.465	2709.45
1443.711	2673.28
1446.956	2710.37
1450.201	2697.18
1453.445	2744.28
1456.689	2725.11
1459.933	2736.56
1463.177	2767.12
1466.42	2740.51
1469.663	2723.85
1472.906	2719.99
1476.148	2795.43
1479.391	2757.08
1482.633	2724.26
1485.874	2738.19
1489.115	2723.14
1492.356	2726.43
1495.597	2703.34
1498.838	2707.31
1502.078	2676.38
1505.318	2625.59
1508.557	2670.72
1511.797	2647.5
1515.036	2718.23
1518.274	2709.23
1521.513	2681.41
1524.751	2702.65
1527.989	2716.62
1531.227	2731.66
1534.464	2729.15
1537.701	2749.91
1540.938	2769.19
1544.174	2720.92
1547.41	2719.52
1550.646	2760.17
1553.882	2796.96
1557.117	2850.82
1560.352	2868.08
1563.587	2827.33
1566.821	2785.47
1570.055	2820.02
1573.289	2791.57
1576.523	2869.79
1579.756	2877.43
1582.989	2899.21
1586.222	2861.06
1589.454	2902.57
1592.686	2875.16
1595.918	2902.73
1599.15	2892.48
1602.381	2969.37
1605.612	2924.95
1608.843	3025.59
1612.073	2936.67
1615.303	2919.8
1618.533	2911.43
1621.762	2914.95
1624.992	2899.76
1628.221	2887.61
1631.449	2872
1634.678	2926.01
1637.906	2879.36
1641.134	2919.3
1644.361	2873.49
1647.588	2861.51
1650.815	2880.44
1654.042	2857.57
1657.269	2886.17
1660.495	2839.96
1663.72	2859.68
1666.946	2825.18
1670.171	2770.52
1673.396	2743.04
1676.621	2730.44
1679.845	2748.25
1683.069	2768.54
1686.293	2812.36
1689.517	2781.84
1692.74	2710.79
1695.963	2738.85
1699.185	2759.05
1702.408	2728.06
1705.63	2771.52
1708.852	2783.54
1712.073	2755.76
1715.294	2742.13
1718.515	2801.46
1721.736	2746.11
1724.956	2738.24
1728.176	2766.59
1731.396	2790.06
1734.616	2772.96
1737.835	2803.65
1741.054	2782.43
1744.272	2775.33
1747.491	2806.7
1750.709	2860.49
1753.927	2765.56
1757.144	2810.99
1760.361	2856.99
1763.578	2845.67
1766.795	2785.56
1770.011	2789.96
1773.227	2832.37
1776.443	2865.15
1779.658	2911.47
1782.874	2851.31
1786.089	2828.52
1789.303	2831.14
1792.518	2834.35
1795.732	2820.04
1798.945	2833.2
1802.159	2881.99
1805.372	2788.75
1808.585	2772.16
1811.797	2772.19
1815.01	2820.42
1818.222	2823.53
1821.434	2795.97
1824.645	2853.85
1827.856	2840.7
1831.067	2877.85
1834.278	2826.68
1837.488	2811.79
1840.698	2961.28
1843.908	2883.79
1847.117	2847.79
1850.326	2730.92
1853.535	2835.5
1856.744	2859.27
1859.952	2772.13
1863.16	2773.94
1866.368	2793.63
1869.575	2899.77
1872.782	2779.84
1875.989	2715.52
1879.196	2798.81
1882.402	2788.71
1885.608	2828.99
1888.814	2727.66
1892.019	2622.25
1895.224	2674.1
1898.429	2652.53
1901.634	2629.71
1904.838	2606.84
1908.042	2658
1911.246	2664.52
1914.449	2595.73
1917.652	2593.94
1920.855	2574.35
1924.058	2624.75
1927.26	2660.6
1930.462	2688.34
1933.664	2715.16
1936.865	2652.03
1940.066	2660.15
1943.267	2606.05
1946.467	2620.42
1949.668	2648.98
1952.868	2716.65
1956.067	2695.61
1959.267	2626.8
1962.466	2654.9
1965.665	2640.89
1968.863	2636.72
1972.061	2652.15
1975.259	2650.64
1978.457	2730.37
1981.654	2690.18
1984.852	2688.74
1988.048	2621.36
1991.245	2624.57
1994.441	2710.54
1997.637	2694.36
2000.833	2672.75
2004.028	2713.05
2007.223	2768.05
2010.418	2745.81
2013.613	2706.16
2016.807	2677.46
2020.001	2682.74
2023.194	2728.78
2026.388	2704.4
2029.581	2649.08
2032.774	2699.45
2035.966	2706.53
2039.158	2637.9
2042.35	2663.81
2045.542	2592.53
2048.733	2691.56
2051.924	2712.16
2055.115	2744.71
2058.306	2684.97
2061.496	2745.08
2064.686	2808.59
2067.875	2722.33
2071.065	2737.23
2074.254	2764.41
2077.442	2716.08
2080.631	2805.93
2083.819	2699.8
2087.007	2683.83
2090.195	2651.68
2093.382	2686.93
2096.569	2665.83
2099.756	2619.55
2102.942	2645.26
2106.128	2649.68
2109.314	2643.23
2112.5	2606.31
2115.685	2579.92
2118.87	2589.71
2122.055	2655.13
2125.239	2622.89
2128.424	2595.63
2131.608	2699.45
2134.791	2679.36
2137.974	2739.05
2141.157	2726.53
2144.34	2674.11
2147.523	2689.9
2150.705	2705.01
2153.887	2683.7
2157.068	2632.56
2160.25	2634.74
2163.431	2672.72
2166.611	2616.61
2169.792	2636.85
2172.972	2529.16
2176.152	2607.22
2179.331	2642.76
2182.511	2626.21
2185.69	2654.83
2188.868	2650.01
2192.047	2705.44
2195.225	2693.89
2198.403	2648.55
2201.58	2640.06
2204.758	2633.22
2207.935	2716.55
2211.111	2605.69
2214.288	2590.14
2217.464	2628.79
2220.64	2598.75
2223.815	2655.09
2226.991	2575.51
2230.166	2596.88
2233.34	2622.2
2236.515	2650.43
2239.689	2725.65
2242.863	2665.74
2246.036	2722.52
2249.209	2721.87
2252.382	2758.96
2255.555	2745.34
2258.727	2682.95
2261.9	2722.7
2265.071	2714.74
2268.243	2716.94
2271.414	2645.38
2274.585	2606.2
2277.756	2678.45
2280.926	2633.22
2284.096	2672.43
2287.266	2576.44
2290.436	2633.57
2293.605	2661.31
2296.774	2692.44
2299.942	2711.81
2303.111	2728.37
2306.279	2778.88
2309.447	2764.23
2312.614	2737.37
2315.781	2757.41
2318.948	2726.1
2322.115	2763.8
2325.281	2666.71
2328.447	2684.64
2331.613	2659.73
2334.779	2632.91
2337.944	2637.49
2341.109	2635.07
2344.274	2619.49
2347.438	2584.72
2350.602	2606.83
2353.766	2628.7
2356.929	2615.48
2360.092	2656.42
2363.255	2609.36
2366.418	2543.06
2369.58	2656.7
2372.742	2442.54
2375.904	2458.07
2379.066	2434.13
2382.227	2469.43
2385.388	2432.77
2388.548	2354.57
2391.709	2409.81
2394.869	2393
2398.029	2490.39
2401.188	2500.19
2404.347	2434.41
2407.506	2576.62
2410.665	2606.17
2413.823	2611.82
2416.981	2569.6
2420.139	2603.13
2423.296	2654.37
2426.453	2628.54
2429.61	2646.45
2432.767	2582.81
2435.923	2625.75
2439.079	2586.15
2442.235	2634.91
2445.391	2559.86
2448.546	2590.14
2451.701	2637.61
2454.855	2607.29
2458.009	2661.49
2461.163	2662.06
2464.317	2621.68
2467.471	2654.23
2470.624	2693.01
2473.777	2665.29
2476.929	2677.91
2480.082	2705.04
2483.234	2668.44
2486.385	2623.18
2489.537	2617.76
2492.688	2575.73
2495.839	2593.96
2498.989	2607.68
2502.14	2592.65
2505.29	2573.17
2508.439	2599.35
2511.589	2522.68
2514.738	2532.99
2517.887	2563.63
2521.035	2627.69
2524.183	2609.13
2527.331	2591.95
2530.479	2564.91
2533.627	2575.58
