Data from C_3_DEC_NC_4N_Splice17_13-06-03-582.txt Node
Date: Sat Mar 14 13:06:03 EDT 2020
User: sa697716
Spectrometer: FLMS03696
Trigger mode: 0
Integration Time (sec): 3.180400E-1
Scans to average: 20
Electric dark correction enabled: true
Nonlinearity correction enabled: true
Boxcar width: 5
XAxis mode: Wavelengths
Number of Pixels in Spectrum: 2048
>>>>>Begin Spectral Data<<<<<
187.83	-345526.46
188.298	2580.71
188.766	1334.46
189.233	1147.1
189.701	1600.08
190.169	2047.3
190.636	761.3
191.104	599.47
191.571	46.41
192.039	-124.22
192.506	-169.52
192.974	226.73
193.441	-373.23
193.908	-25.02
194.375	-96.23
194.842	16.59
195.31	-8.96
195.777	146.56
196.244	367.55
196.711	420.63
197.177	546.52
197.644	766.85
198.111	1352.72
198.578	1940.59
199.045	1565.41
199.511	2575.62
199.978	2958.35
200.445	2516.56
200.911	2759.23
201.378	3080.95
201.844	2818.76
202.31	4813.57
202.777	5047.27
203.243	2811.8
203.709	2660.97
204.176	3190.31
204.642	2654.56
205.108	2491.19
205.574	2034.31
206.04	1863.57
206.506	1738.37
206.972	1641.11
207.438	1574.52
207.903	1794.82
208.369	1581.3
208.835	1596.55
209.301	1661.07
209.766	1694.21
210.232	1666.93
210.697	2057.39
211.163	2521.61
211.628	3783.78
212.094	3148.89
212.559	3898.54
213.024	2396.92
213.49	2900.42
213.955	2792.65
214.42	2713.04
214.885	2513.71
215.35	2404.47
215.815	2333.2
216.28	2474.68
216.745	2016.32
217.21	2190.01
217.675	1980.94
218.14	2236.51
218.604	2479.83
219.069	2835.87
219.534	2987.02
219.998	3460.38
220.463	4207.1
220.927	5153.85
221.392	4850.87
221.856	4928.19
222.32	6177.52
222.785	7656.73
223.249	9623.41
223.713	10760.29
224.177	10735.03
224.642	13715.26
225.106	16867.75
225.57	18373.66
226.034	13671.7
226.497	20787.67
226.961	18797.59
227.425	21925.86
227.889	24277.64
228.353	24246.97
228.816	50032.65
229.28	47913
229.744	40426.85
230.207	24545.36
230.671	24128.95
231.134	39860.41
231.597	45994.31
232.061	45841.21
232.524	44669.8
232.987	30724.33
233.45	27655.03
233.914	24787.45
234.377	25361.15
234.84	23198.03
235.303	27354.49
235.766	30562.13
236.229	31546.6
236.691	19855.66
237.154	22318.74
237.617	16771.95
238.08	17207.01
238.542	20143.51
239.005	14408.77
239.468	14290.92
239.93	13461.59
240.393	12240.43
240.855	10731.67
241.317	10999.23
241.78	13369.81
242.242	13810.34
242.704	14925.95
243.166	12975.67
243.629	11799.48
244.091	13572.49
244.553	14889.7
245.015	16025.64
245.477	20752.19
245.939	30420.95
246.4	32314.47
246.862	31418.28
247.324	29669.53
247.786	33241.16
248.247	43668.96
248.709	45055.14
249.17	33741.11
249.632	31796.29
250.093	36863.08
250.555	31859.33
251.016	19457.66
251.477	18461.73
251.939	19955.98
252.4	20932.82
252.861	24876.81
253.322	23149.73
253.783	27544.57
254.244	35742.01
254.705	28227.91
255.166	25122.24
255.627	24747.44
256.088	34981.42
256.549	37121.85
257.009	31988.28
257.47	38817.33
257.931	31588.25
258.391	23641.58
258.852	24392.89
259.312	25576.83
259.773	31579.32
260.233	26718.03
260.694	22530.6
261.154	25524.43
261.614	20511.08
262.074	18327.22
262.534	19049.61
262.994	17966.12
263.455	23965.65
263.915	20191.61
264.374	19010.95
264.834	20763.12
265.294	22992.11
265.754	23814.16
266.214	22539.26
266.673	21117.57
267.133	26654.61
267.593	26421.01
268.052	32326.27
268.512	28110.22
268.971	33928.29
269.431	37225
269.89	33333.98
270.349	49992.93
270.809	55720.67
271.268	50087
271.727	112287.81
272.186	72694.96
272.645	54524.92
273.104	39332.15
273.563	56887.6
274.022	44695.97
274.481	37999.59
274.94	29268.46
275.399	21748.65
275.857	25314.83
276.316	34221.73
276.775	30460.14
277.233	30007.09
277.692	28095.41
278.15	31790.44
278.609	32720.96
279.067	30257.23
279.525	28118.11
279.984	36282.99
280.442	43555.51
280.9	42948.4
281.358	28277.44
281.816	26362.41
282.274	25783.96
282.732	26659.54
283.19	26793.63
283.648	23133.78
284.106	24663.68
284.564	25102.01
285.021	23276.73
285.479	17339.27
285.937	15760.07
286.394	13826.37
286.852	14215.32
287.309	14958.75
287.767	14446.05
288.224	13735.65
288.682	15079.36
289.139	16540.07
289.596	15121.52
290.053	15734.98
290.511	19866.6
290.968	24117.39
291.425	32748.01
291.882	27261.5
292.339	23698.09
292.796	23517.05
293.252	22165.12
293.709	17593.04
294.166	15769.94
294.623	17418.13
295.079	16676.24
295.536	16761.5
295.992	15214.34
296.449	15015.18
296.905	15576.36
297.362	14933.78
297.818	15689.82
298.274	16277.5
298.731	16568.19
299.187	16380.28
299.643	17604.77
300.099	21322.08
300.555	23340.96
301.011	19496.94
301.467	18819.76
301.923	22060.89
302.379	21538.34
302.835	21172.09
303.291	21190.17
303.746	24126.78
304.202	30521.84
304.658	30610.29
305.113	20566.51
305.569	20195.9
306.024	21510.68
306.479	20451.69
306.935	17235.62
307.39	18848.01
307.845	17400.69
308.301	17509.68
308.756	17058.04
309.211	16423.08
309.666	16828.03
310.121	20909.27
310.576	21177.64
311.031	21008.77
311.486	24061.24
311.94	24031.58
312.395	32101.37
312.85	60321.12
313.305	295684.43
313.759	1530934.29
314.214	110834.61
314.668	87895.33
315.123	73930.81
315.577	26535.62
316.032	23630.78
316.486	29603.28
316.94	23392.66
317.394	16306.38
317.849	12664.65
318.303	12016.14
318.757	11349.52
319.211	12543.97
319.665	10962.27
320.119	11085.32
320.572	15885.79
321.026	14842.71
321.48	12351.6
321.934	13443.59
322.387	13474.75
322.841	14549.9
323.295	13085.46
323.748	15061.72
324.202	15298.01
324.655	18384.51
325.108	25714.52
325.562	18188.01
326.015	21618.08
326.468	16334.12
326.921	18270.06
327.374	17023.63
327.827	17747.17
328.28	20070.19
328.733	13462.83
329.186	11823.93
329.639	11268.54
330.092	9508.53
330.545	9049.79
330.997	9120.05
331.45	9980.65
331.903	11708.41
332.355	20126.95
332.808	19533.81
333.26	16112.51
333.713	17469.53
334.165	17596.67
334.617	23520.4
335.069	18920.23
335.522	34253.19
335.974	37979.34
336.426	34716.5
336.878	23988.49
337.33	12190.25
337.782	11906.73
338.234	14925.96
338.686	17845.76
339.137	21177.53
339.589	19931.15
340.041	15668.42
340.493	13446.06
340.944	13749.8
341.396	14816.88
341.847	12506.93
342.299	14751.18
342.75	18051.66
343.201	15766.84
343.653	18164.64
344.104	22361.72
344.555	17600.74
345.006	27367.85
345.457	21051.38
345.908	16754.58
346.359	15769.07
346.81	12837.05
347.261	13538.13
347.712	13317.59
348.163	14289.74
348.613	14478.66
349.064	13497.31
349.515	11803.1
349.965	12123.66
350.416	14563.52
350.866	15989.5
351.317	18057.09
351.767	29910.52
352.217	37863.37
352.668	31428.69
353.118	28760.47
353.568	27692.18
354.018	21883.84
354.468	23146.98
354.918	16628.32
355.368	14543.7
355.818	20530.04
356.268	59073.5
356.718	247719.98
357.168	61488.02
357.617	30877.38
358.067	34388.9
358.517	32199.25
358.966	37834.95
359.416	42465.32
359.865	45873.99
360.315	54660.36
360.764	25544.39
361.213	14324.81
361.663	13545.88
362.112	16762.42
362.561	27077.23
363.01	20456.4
363.459	17270.71
363.908	18689.23
364.357	15868.71
364.806	26741.51
365.255	18345.61
365.703	16801.32
366.152	16854.11
366.601	13675
367.05	11105.83
367.498	10075.41
367.947	10523.23
368.395	10916.23
368.844	9662.59
369.292	11624.42
369.74	8051.36
370.189	12341.56
370.637	14466.01
371.085	12448.49
371.533	15105.14
371.981	14496.11
372.429	13820.89
372.877	14380.7
373.325	12027.55
373.773	12256.08
374.221	10919.49
374.669	13524.09
375.116	11683.88
375.564	11755.27
376.012	13136.36
376.459	10863.91
376.907	12980.49
377.354	15729.08
377.801	14669.99
378.249	16902.4
378.696	21547.06
379.143	26082.12
379.591	27813.7
380.038	47073.87
380.485	33962.89
380.932	36716.92
381.379	33581.45
381.826	24758.55
382.273	17565.35
382.72	15326.88
383.166	14882.01
383.613	9660.47
384.06	8705.79
384.506	10057.06
384.953	7374.42
385.4	7449.22
385.846	6509.66
386.292	6328.57
386.739	6174.97
387.185	6095.81
387.631	6103.16
388.078	5935.32
388.524	6349.12
388.97	5872.41
389.416	4880.74
389.862	5187.88
390.308	4902.39
390.754	4978.21
391.2	5400.14
391.645	5526.02
392.091	5289.67
392.537	5101.14
392.983	5100.7
393.428	5018.41
393.874	5366.41
394.319	5407.13
394.765	5125.86
395.21	5269.06
395.655	4932.54
396.101	4618.84
396.546	4175.98
396.991	4202.66
397.436	3906.22
397.881	3773.54
398.326	3560.84
398.771	3368.76
399.216	2937.94
399.661	2646.19
400.106	2637.52
400.551	2703.26
400.995	2426.98
401.44	2399.56
401.885	2256.83
402.329	2281.34
402.774	2189.35
403.218	2127.49
403.663	2047.7
404.107	2107.34
404.551	2122.75
404.995	1943.01
405.44	1869.52
405.884	1893.32
406.328	1824.37
406.772	1816.72
407.216	1651.53
407.66	1592.41
408.104	1506.16
408.547	1406.66
408.991	1358.59
409.435	1305
409.879	1288.06
410.322	1268.98
410.766	1225.71
411.209	1166.79
411.653	1122.39
412.096	1100.85
412.54	1100.29
412.983	1093.45
413.426	1098.58
413.869	1097.18
414.312	1077.2
414.756	1035.64
415.199	989.97
415.642	960.64
416.085	964.04
416.527	955.28
416.97	969.16
417.413	919.15
417.856	908.13
418.298	897.84
418.741	890.79
419.184	888.45
419.626	925.03
420.069	923.86
420.511	930.98
420.953	911.39
421.396	902.45
421.838	878.52
422.28	898.33
422.722	906.73
423.164	918.75
423.606	904.48
424.048	903.11
424.49	858.92
424.932	855.27
425.374	841.79
425.816	855.59
426.258	874.72
426.699	884.99
427.141	873.64
427.582	883.9
428.024	878.92
428.465	872.66
428.907	851.61
429.348	841.82
429.789	842.62
430.231	826.5
430.672	836.43
431.113	813.27
431.554	801.47
431.995	779.95
432.436	753.99
432.877	738.53
433.318	729.67
433.759	723.99
434.2	723.71
434.64	717.2
435.081	718.75
435.522	682.01
435.962	658.25
436.403	644.97
436.843	655.18
437.284	642.65
437.724	624.56
438.164	622.78
438.604	610.36
439.045	587.19
439.485	565.06
439.925	553.16
440.365	540.15
440.805	532.4
441.245	527.34
441.685	508.28
442.125	502.33
442.564	504.77
443.004	495.03
443.444	493.05
443.883	494.57
444.323	488.37
444.762	488.32
445.202	494.44
445.641	506.12
446.081	500.92
446.52	505.23
446.959	500.2
447.398	489.46
447.837	483.89
448.276	476.36
448.716	481.59
449.154	485.21
449.593	474.87
450.032	474.22
450.471	463.14
450.91	463.18
451.349	461.96
451.787	461.06
452.226	467.73
452.664	466.88
453.103	468.05
453.541	466.56
453.98	466.88
454.418	470
454.856	463.01
455.295	462.53
455.733	466.49
456.171	467.4
456.609	466.33
457.047	467.11
457.485	475.08
457.923	476.12
458.361	469.83
458.798	469.77
459.236	468.37
459.674	470.02
460.111	471.15
460.549	467.07
460.987	466.71
461.424	466.03
461.862	464.03
462.299	456.17
462.736	456.2
463.173	457.75
463.611	454.82
464.048	453.45
464.485	458.66
464.922	456.05
465.359	452.66
465.796	450.29
466.233	447.64
466.67	444.2
467.106	442.93
467.543	437.91
467.98	433.2
468.416	422.02
468.853	418.64
469.29	405.86
469.726	401.4
470.162	392.87
470.599	385.52
471.035	382.13
471.471	373
471.907	371.21
472.344	369.64
472.78	370.42
473.216	374.98
473.652	371.3
474.088	369.68
474.523	369.07
474.959	372.27
475.395	368.19
475.831	366.16
476.266	367.58
476.702	366.85
477.138	362.56
477.573	361.64
478.008	359.7
478.444	361.73
478.879	366.22
479.314	368.1
479.75	367.91
480.185	369.91
480.62	372.82
481.055	374.77
481.49	377.98
481.925	383.56
482.36	390.16
482.795	401.28
483.229	411.6
483.664	419.61
484.099	420.83
484.534	426.56
484.968	431.76
485.403	432.82
485.837	432
486.271	430.35
486.706	430.65
487.14	425.53
487.574	418.31
488.009	414.64
488.443	411.46
488.877	416.51
489.311	418.04
489.745	422.56
490.179	427.45
490.613	437.08
491.046	441.75
491.48	445.52
491.914	446.68
492.348	451.32
492.781	455.04
493.215	456.25
493.648	458.34
494.082	463.56
494.515	464.85
494.948	471.36
495.382	475.17
495.815	479
496.248	484.18
496.681	494.94
497.114	504.34
497.547	513
497.98	524.42
498.413	530.64
498.846	538.72
499.279	546.82
499.711	551.59
500.144	555.07
500.577	566.29
501.009	576.95
501.442	586.32
501.874	590.47
502.306	595.12
502.739	605.37
503.171	618.85
503.603	625.09
504.036	636.12
504.468	644.47
504.9	656.73
505.332	664.91
505.764	672.51
506.196	681.88
506.627	696.62
507.059	711.04
507.491	720.44
507.923	723.11
508.354	738.45
508.786	751.26
509.217	769.42
509.649	786.17
510.08	805.35
510.512	822.56
510.943	839.38
511.374	853.45
511.805	874.03
512.237	894.21
512.668	925.27
513.099	951.06
513.53	977.6
513.961	999.42
514.391	1029.83
514.822	1062.41
515.253	1097.3
515.684	1122.81
516.114	1152.88
516.545	1176.5
516.975	1202.43
517.406	1222.16
517.836	1231.02
518.267	1241.39
518.697	1261.85
519.127	1269.59
519.558	1279.14
519.988	1286.12
520.418	1297.94
520.848	1316.28
521.278	1325.78
521.708	1355.63
522.138	1369.43
522.567	1399.95
522.997	1424.92
523.427	1440.74
523.857	1459.71
524.286	1471.44
524.716	1487.58
525.145	1507.94
525.575	1520.64
526.004	1537.07
526.433	1523.64
526.863	1526.12
527.292	1519.01
527.721	1526.06
528.15	1533.78
528.579	1535.37
529.008	1547.86
529.437	1570.09
529.866	1584.97
530.295	1601.85
530.724	1614
531.152	1640.53
531.581	1655.34
532.01	1672.54
532.438	1681.51
532.867	1695.27
533.295	1713.6
533.723	1719.49
534.152	1717.81
534.58	1717.3
535.008	1702.75
535.436	1704.88
535.865	1711.82
536.293	1725.42
536.721	1739.57
537.149	1763.22
537.576	1766.17
538.004	1777.45
538.432	1784.86
538.86	1785
539.287	1792.14
539.715	1805.09
540.143	1807.63
540.57	1803.66
540.998	1799.86
541.425	1778.42
541.852	1758.9
542.28	1756.27
542.707	1740.86
543.134	1727.71
543.561	1722.53
543.988	1714.69
544.415	1713.65
544.842	1708.78
545.269	1703.2
545.696	1705.86
546.123	1719.72
546.549	1709.66
546.976	1699.1
547.403	1699.33
547.829	1700.74
548.256	1703.3
548.682	1700.66
549.108	1694.86
549.535	1695.95
549.961	1697.76
550.387	1685.89
550.813	1679.9
551.24	1686.48
551.666	1687.92
552.092	1679.2
552.518	1674.36
552.943	1668.99
553.369	1675.36
553.795	1680.47
554.221	1680.26
554.646	1677.77
555.072	1687.55
555.498	1692.71
555.923	1701.22
556.349	1715.16
556.774	1723.28
557.199	1723.6
557.625	1729.37
558.05	1724.85
558.475	1733.68
558.9	1732.73
559.325	1725.22
559.75	1718.15
560.175	1710.32
560.6	1703.1
561.025	1698.78
561.449	1697.55
561.874	1702.68
562.299	1704.81
562.723	1708.77
563.148	1698.05
563.572	1700.19
563.997	1707.38
564.421	1710.98
564.846	1710.38
565.27	1712.69
565.694	1709.87
566.118	1719.37
566.542	1723.72
566.966	1716.2
567.39	1710.8
567.814	1698.77
568.238	1695.98
568.662	1698.93
569.086	1698.37
569.509	1702.44
569.933	1686.56
570.357	1677.61
570.78	1655.19
571.204	1641.49
571.627	1628.47
572.05	1624.54
572.474	1621.57
572.897	1608.38
573.32	1598.68
573.743	1587.82
574.166	1569.53
574.589	1566.79
575.012	1558.21
575.435	1556.19
575.858	1545.76
576.281	1535.96
576.704	1520.69
577.126	1509.72
577.549	1498.31
577.972	1488.79
578.394	1478.6
578.817	1470.86
579.239	1452.56
579.661	1439.11
580.084	1425.13
580.506	1412.63
580.928	1406.93
581.35	1395.66
581.772	1391.09
582.194	1378.1
582.616	1365.13
583.038	1352.57
583.46	1343.17
583.882	1340.39
584.303	1342.51
584.725	1337.17
585.147	1340.16
585.568	1348.99
585.99	1359.63
586.411	1363.55
586.833	1375.45
587.254	1376.19
587.675	1386.15
588.096	1395.21
588.518	1388.85
588.939	1373.91
589.36	1370.51
589.781	1357.63
590.202	1332.31
590.623	1322.99
591.043	1319.19
591.464	1306.82
591.885	1301.78
592.305	1295.25
592.726	1283.56
593.147	1284.37
593.567	1277.66
593.987	1270.68
594.408	1264.82
594.828	1261.32
595.248	1256.28
595.669	1240.83
596.089	1234.52
596.509	1228.43
596.929	1217.21
597.349	1216.59
597.769	1207.49
598.189	1203.11
598.608	1203.84
599.028	1205.77
599.448	1205.78
599.867	1192.95
600.287	1187.71
600.706	1183.79
601.126	1174.79
601.545	1173.27
601.965	1171.54
602.384	1165.21
602.803	1165.73
603.222	1161.37
603.641	1154.34
604.061	1149.74
604.48	1146.34
604.898	1152.95
605.317	1156.34
605.736	1157.54
606.155	1154.43
606.574	1145.3
606.992	1149.08
607.411	1145.17
607.829	1136.29
608.248	1132.79
608.666	1130.37
609.085	1128.35
609.503	1120.38
609.921	1113.51
610.339	1114.46
610.758	1112.15
611.176	1107.12
611.594	1099.56
612.012	1095.73
612.43	1098.73
612.847	1102.88
613.265	1103.23
613.683	1106.74
614.101	1107.16
614.518	1103.74
614.936	1094.7
615.353	1082.53
615.771	1079.62
616.188	1079.14
616.606	1075.29
617.023	1068.25
617.44	1055.93
617.857	1046.83
618.274	1037.65
618.691	1030.54
619.108	1020.75
619.525	1014.43
619.942	1018.29
620.359	1020.1
620.776	1014.3
621.192	1010.4
621.609	1008.54
622.026	1013.7
622.442	1019.73
622.859	1022.22
623.275	1016.51
623.691	1021.84
624.108	1030.92
624.524	1042.1
624.94	1040.77
625.356	1049.17
625.772	1059.18
626.188	1067.35
626.604	1068.98
627.02	1065.36
627.436	1063.57
627.852	1068.59
628.268	1078
628.683	1070.49
629.099	1062.75
629.514	1058.83
629.93	1060.65
630.345	1063.44
630.761	1058.42
631.176	1059.06
631.591	1053.21
632.007	1047.39
632.422	1045.12
632.837	1034.39
633.252	1030.95
633.667	1021.38
634.082	1012.35
634.497	1000.62
634.911	983.33
635.326	977.72
635.741	962.02
636.155	951.09
636.57	949.52
636.984	946.34
637.399	944.48
637.813	939.38
638.228	934.69
638.642	933.8
639.056	921.55
639.47	917.85
639.884	908.31
640.298	898.95
640.712	894.17
641.126	880.29
641.54	868.42
641.954	859.97
642.368	847.92
642.781	839.33
643.195	822.2
643.609	819.54
644.022	811.49
644.436	805.14
644.849	793.53
645.262	782
645.676	779.73
646.089	773.68
646.502	760.68
646.915	754.45
647.328	739.54
647.741	736.55
648.154	725.17
648.567	721.97
648.98	711.73
649.393	711.18
649.805	707.95
650.218	701.72
650.631	691.01
651.043	685.7
651.456	681.02
651.868	680.34
652.28	692.03
652.693	701.36
653.105	704.39
653.517	711.06
653.929	710.7
654.341	714.21
654.753	705.86
655.165	709.13
655.577	706.72
655.989	702.66
656.401	696.18
656.813	671.29
657.224	656.65
657.636	636.51
658.047	622.83
658.459	608.3
658.87	600.75
659.282	591.9
659.693	577.13
660.104	566.95
660.515	556.39
660.926	554.31
661.338	550.6
661.749	543.92
662.159	536.54
662.57	532.45
662.981	528.69
663.392	522.96
663.803	524.19
664.213	521.05
664.624	517.26
665.035	518.59
665.445	509.43
665.855	504.48
666.266	500.57
666.676	498.91
667.086	492.85
667.497	491.99
667.907	488.01
668.317	482.24
668.727	481.96
669.137	482.53
669.547	481.3
669.956	482.44
670.366	483.87
670.776	484.87
671.186	488.04
671.595	490.62
672.005	493.18
672.414	494
672.824	494.18
673.233	496.14
673.642	498.45
674.052	501.7
674.461	504.73
674.87	509.08
675.279	509.71
675.688	510.57
676.097	514.17
676.506	513.3
676.915	522.84
677.323	526.28
677.732	528.21
678.141	530.06
678.549	525.27
678.958	526.24
679.366	527.03
679.775	531.01
680.183	541.85
680.592	547.18
681	554.43
681.408	552.7
681.816	559.42
682.224	566.55
682.632	576.44
683.04	599.31
683.448	620.27
683.856	645.88
684.264	675.82
684.671	701.56
685.079	734.59
685.487	770.16
685.894	820.8
686.302	864.17
686.709	901.67
687.116	944.67
687.524	983.79
687.931	1018.57
688.338	1049.7
688.745	1076.23
689.152	1107.17
689.559	1148.41
689.966	1192.22
690.373	1217.2
690.78	1258.8
691.187	1317.14
691.593	1364.5
692	1404.53
692.407	1463.19
692.813	1533.9
693.22	1592.74
693.626	1655.54
694.032	1706.04
694.439	1777.01
694.845	1836.04
695.251	1908.75
695.657	1976.41
696.063	2073.13
696.469	2149.23
696.875	2218.21
697.281	2262.22
697.687	2313.99
698.093	2356.89
698.498	2433.75
698.904	2496.39
699.31	2586.64
699.715	2652.99
700.12	2745.8
700.526	2769.29
700.931	2842.15
701.337	2897.67
701.742	2933.81
702.147	3019.75
702.552	3055.84
702.957	3117.25
703.362	3142.32
703.767	3172.69
704.172	3216.94
704.577	3176.06
704.981	3225.73
705.386	3245.24
705.791	3243.96
706.195	3321.11
706.6	3333.13
707.004	3412.96
707.408	3388.7
707.813	3418.85
708.217	3411.16
708.621	3418.03
709.025	3518.06
709.43	3523.13
709.834	3584.77
710.237	3657.36
710.641	3646.18
711.045	3672.73
711.449	3671.17
711.853	3702.06
712.256	3745.3
712.66	3785.98
713.064	3860.46
713.467	3901.77
713.87	4012.18
714.274	4059.93
714.677	4169.84
715.08	4332.19
715.484	4495.79
715.887	4697.14
716.29	4895.21
716.693	5101.06
717.096	5339.28
717.499	5468.52
717.901	5496.21
718.304	5527.84
718.707	5554.86
719.109	5454.96
719.512	5424.06
719.915	5294.63
720.317	5243.18
720.719	5290.97
721.122	5264.9
721.524	5217.69
721.926	5181.75
722.328	5284.22
722.731	5276.82
723.133	5306.86
723.535	5499.08
723.937	5519.68
724.338	5570.59
724.74	5609.14
725.142	5547.82
725.544	5547.73
725.945	5575.76
726.347	5570.79
726.748	5563.46
727.15	5577.91
727.551	5541.47
727.952	5513.48
728.354	5485.12
728.755	5488.28
729.156	5448.52
729.557	5434.74
729.958	5313.49
730.359	5258.95
730.76	5241.61
731.161	5182.25
731.562	5157.27
731.962	5160.84
732.363	5101.06
732.763	5039.32
733.164	5076.39
733.564	5008.96
733.965	4914.39
734.365	4882.65
734.766	4912.73
735.166	4874.29
735.566	4821.94
735.966	4794.85
736.366	4789.43
736.766	4726.71
737.166	4761.06
737.566	4718.43
737.966	4693.86
738.365	4732.02
738.765	4724.7
739.165	4647.52
739.564	4622.17
739.964	4666.1
740.363	4621.36
740.763	4617.63
741.162	4604.84
741.561	4570.48
741.96	4525.88
742.36	4547.17
742.759	4553.32
743.158	4590.76
743.557	4606.38
743.955	4646.61
744.354	4601.16
744.753	4659.04
745.152	4619.07
745.55	4674.37
745.949	4669.89
746.348	4672.55
746.746	4685.74
747.144	4645.98
747.543	4624.06
747.941	4672.15
748.339	4600.03
748.737	4592.53
749.136	4582.03
749.534	4644.97
749.932	4619.32
750.33	4640.8
750.727	4693.61
751.125	4671.55
751.523	4656.43
751.921	4700.73
752.318	4665.87
752.716	4727.82
753.113	4739.97
753.511	4765.57
753.908	4765.17
754.305	4748.02
754.703	4810.16
755.1	4870.91
755.497	4930.4
755.894	5120.15
756.291	5295.45
756.688	5620.14
757.085	6046.86
757.482	6654.82
757.878	7312.9
758.275	7910.32
758.672	8729.19
759.068	9397.01
759.465	10347.21
759.861	11573.05
760.258	12991.7
760.654	13721.24
761.05	13608.53
761.447	12985.67
761.843	12085.04
762.239	11169.08
762.635	10747.31
763.031	10345.71
763.427	9763.52
763.822	9162.37
764.218	8566.72
764.614	7783.12
765.01	7263.89
765.405	6925.32
765.801	6672.2
766.196	6344
766.592	6159.52
766.987	5853.68
767.382	5646.12
767.778	5558.78
768.173	5431.38
768.568	5357.31
768.963	5237.48
769.358	5254.77
769.753	5211.41
770.148	5127.96
770.542	5128.18
770.937	5097.86
771.332	5187.38
771.726	5203.98
772.121	5143.6
772.515	5197.63
772.91	5185.27
773.304	5253.59
773.699	5186.9
774.093	5237.35
774.487	5290.25
774.881	5332.71
775.275	5324.75
775.669	5282.41
776.063	5324.51
776.457	5359.33
776.851	5282.96
777.245	5274.02
777.638	5303.93
778.032	5415.42
778.425	5381.29
778.819	5423.89
779.212	5381.05
779.606	5344.33
779.999	5365.63
780.392	5351.42
780.786	5428.94
781.179	5448.97
781.572	5490.29
781.965	5503.58
782.358	5449.86
782.751	5502.82
783.143	5455.15
783.536	5529.28
783.929	5571.06
784.322	5681.69
784.714	5708.95
785.107	5707.6
785.499	5778.2
785.891	5757.01
786.284	5740.05
786.676	5875.89
787.068	5858.63
787.46	5908.2
787.852	5926.05
788.245	6012.77
788.636	6040.35
789.028	6107.31
789.42	6144.66
789.812	6153.09
790.204	6248.17
790.595	6348.14
790.987	6158.43
791.378	6182.38
791.77	6309.37
792.161	6441.4
792.553	6491.43
792.944	6385.79
793.335	6319.55
793.726	6390.41
794.117	6477.31
794.508	6609.59
794.899	6578.37
795.29	6718.97
795.681	6772.04
796.072	6633.1
796.463	6457.39
796.853	6471.59
797.244	6625.39
797.634	6660.75
798.025	6663.97
798.415	6679.11
798.806	6767.1
799.196	6848.63
799.586	6895.05
799.976	6856.29
800.366	7082.84
800.756	7316.54
801.146	7275.73
801.536	7304.62
801.926	7378.35
802.316	7400.6
802.706	7471.78
803.095	7356.19
803.485	7459.27
803.874	7501.25
804.264	7764.1
804.653	7738.62
805.043	7881.98
805.432	7991.83
805.821	7989.19
806.21	8014.43
806.599	8135.1
806.988	8177.36
807.377	8283.59
807.766	8411.43
808.155	8691.79
808.544	8426.97
808.933	8445.63
809.321	8419.3
809.71	8706.57
810.098	8865.95
810.487	9314.11
810.875	9781.65
811.264	9807.44
811.652	10089.65
812.04	10230.39
812.428	10388.66
812.816	11141.39
813.204	11549.02
813.592	12093.63
813.98	12423.58
814.368	12330.66
814.756	12799.39
815.144	12723.32
815.531	13181.75
815.919	13104.52
816.306	13407.07
816.694	13105.78
817.081	13157.93
817.469	13495.41
817.856	13498.83
818.243	13764.32
818.63	14155.88
819.017	13748.69
819.404	13808.89
819.791	14182.22
820.178	14788.38
820.565	15030.34
820.952	15951.51
821.339	15474.06
821.725	15660.96
822.112	14927.52
822.498	14888.68
822.885	15015.12
823.271	14913.21
823.657	15328.44
824.044	15331.41
824.43	15403.72
824.816	15378.63
825.202	14944.47
825.588	15939.66
825.974	15953.84
826.36	16462.55
826.746	16497.34
827.132	16843.33
827.517	16829.45
827.903	16049.01
828.289	16092.55
828.674	15328.9
829.06	15224.65
829.445	15608.63
829.83	15952.89
830.216	16412.64
830.601	16766.8
830.986	16367.24
831.371	16231.52
831.756	16776.79
832.141	16363.71
832.526	16348.65
832.911	16629.06
833.295	16512.83
833.68	16966.22
834.065	16357.56
834.449	15467.12
834.834	15393.23
835.218	15385.45
835.603	15719.85
835.987	15506.61
836.371	16319.37
836.755	16213.43
837.139	16596.78
837.524	16829.61
837.908	16662.5
838.291	16714.19
838.675	16779.66
839.059	16982.6
839.443	16965.27
839.827	16732.19
840.21	17192.75
840.594	17037.68
840.977	17250.43
841.361	17222.98
841.744	17580.78
842.127	17419.87
842.511	17659.8
842.894	18233.65
843.277	18597.58
843.66	19129.72
844.043	19208.97
844.426	18432.57
844.809	18133.81
845.191	18155.67
845.574	17712.3
845.957	17358.64
846.339	17254.66
846.722	16744.51
847.104	16808.69
847.487	16646.04
847.869	16651.77
848.252	16922.1
848.634	17237.79
849.016	17491.34
849.398	17611.2
849.78	18430.07
850.162	18438.26
850.544	18839.8
850.926	19443.54
851.307	19361.37
851.689	19623.99
852.071	20068.36
852.452	20382.84
852.834	20361.11
853.215	20754.01
853.597	20898.54
853.978	21189.88
854.359	21623.97
854.741	20665.81
855.122	20577.22
855.503	20295
855.884	20426.57
856.265	20355.88
856.646	20468.27
857.026	20082.89
857.407	20020.42
857.788	20176.78
858.169	20451.5
858.549	19630.3
858.93	20232.89
859.31	20283.08
859.69	20481.56
860.071	20088.29
860.451	19883.51
860.831	19166.27
861.211	20299.78
861.591	20818.96
861.971	20785.92
862.351	20973.29
862.731	21355.48
863.111	21613.36
863.491	21935.08
863.87	22790.4
864.25	23131.21
864.629	22736.28
865.009	23234.58
865.388	24056.42
865.768	25787.41
866.147	25705.25
866.526	24299.21
866.905	24581.13
867.284	25956.53
867.663	24642.58
868.042	23611.49
868.421	23542.63
868.8	23945.93
869.179	24181.38
869.558	22783
869.936	20997.67
870.315	21362.7
870.693	21875.66
871.072	23598.05
871.45	22484.68
871.828	22774.76
872.207	23951.73
872.585	23586.65
872.963	24226.05
873.341	23392.43
873.719	23103.02
874.097	22829.89
874.475	23262.8
874.853	23787.54
875.23	22784.01
875.608	23736.78
875.986	25666.79
876.363	24545.5
876.741	25296.41
877.118	24666.46
877.495	25881.71
877.873	26313.31
878.25	27683.81
878.627	26564.79
879.004	26942.64
879.381	26820.65
879.758	26115.28
880.135	24323.02
880.512	25720.1
880.889	25028.46
881.265	24763.25
881.642	24552.51
882.019	24967.57
882.395	24459.78
882.772	25414.57
883.148	24306.16
883.524	24212.38
883.901	24065.13
884.277	24419.71
884.653	24263.75
885.029	24968.39
885.405	27658.02
885.781	27436.75
886.157	26302.36
886.532	26612.89
886.908	26594.75
887.284	29578.5
887.659	30543.19
888.035	31482.79
888.411	32283.87
888.786	32697.51
889.161	33816.59
889.537	33172.56
889.912	34235.56
890.287	34211.82
890.662	35106.23
891.037	34466.37
891.412	32120.88
891.787	31787.99
892.162	30665.73
892.536	31375.08
892.911	30200.53
893.286	29562.32
893.66	28356.82
894.035	29064.94
894.409	31629.18
894.784	30336.44
895.158	30830.33
895.532	32650.31
895.906	33533.5
896.281	34330.79
896.655	33780.98
897.029	38596.98
897.402	40183.74
897.776	44737.05
898.15	44602.6
898.524	44132.1
898.898	44732.39
899.271	50090.2
899.645	43381.94
900.018	41696.25
900.392	43232.12
900.765	43588.24
901.138	40334.12
901.511	39718.22
901.884	36480.48
902.258	33638.26
902.631	34759.9
903.003	39993.16
903.376	36099.38
903.749	40481.53
904.122	43307.43
904.495	47704.87
904.867	48309.65
905.24	41928.54
905.612	39049.58
905.985	39922.39
906.357	41753.55
906.729	39848.64
907.102	34032.33
907.474	32729.71
907.846	32951.06
908.218	32499.24
908.59	28718.37
908.962	27765.78
909.334	29902.68
909.705	31411.89
910.077	30498.79
910.449	31755.37
910.82	32631.42
911.192	35925.09
911.563	37309.21
911.935	39924.48
912.306	39985.46
912.677	41281.87
913.048	40867.46
913.419	44342.76
913.79	44610.46
914.161	47826.04
914.532	45689.17
914.903	42003.23
915.274	39887.7
915.645	39324.82
916.015	34616.1
916.386	33036.68
916.756	35163.54
917.127	36281.52
917.497	32420.32
917.868	35268.77
918.238	33533.7
918.608	34512.89
918.978	35219.98
919.348	37298.81
919.718	38526.51
920.088	37116.16
920.458	38563.77
920.828	40591.52
921.198	38493.35
921.567	41116.98
921.937	31843.77
922.306	32148.7
922.676	34665.96
923.045	28939.44
923.415	27493.24
923.784	25043.72
924.153	25750.12
924.522	25709.15
924.891	24170.75
925.26	25877.49
925.629	25276.29
925.998	29064.94
926.367	28387.07
926.736	27018.9
927.104	32176.86
927.473	34612.66
927.842	41809
928.21	41400.01
928.578	43518.35
928.947	41134.03
929.315	41405.43
929.683	48546.8
930.051	48957.84
930.42	56800.26
930.788	48591.96
931.156	48201.22
931.523	45168.54
931.891	41742.94
932.259	40103.73
932.627	46529.2
932.994	65858.16
933.362	54416.68
933.729	47256
934.097	45202.05
934.464	38251.55
934.831	44130.64
935.199	43514.25
935.566	42198.99
935.933	42697.54
936.3	51715.7
936.667	40200.75
937.034	36280.03
937.401	35894.5
937.767	30970.53
938.134	27579.72
938.501	38924.31
938.867	41498.86
939.234	70160.78
939.6	59826.44
939.967	66027.1
940.333	44180.49
940.699	37659.06
941.065	30196.81
941.431	39614.01
941.798	38223.03
942.163	50197.46
942.529	31358.75
942.895	28853.06
943.261	18686.34
943.627	24543.68
943.992	21493.96
944.358	21531.24
944.723	21643.48
945.089	21131.45
945.454	19522.81
945.82	20851.41
946.185	20041.65
946.55	23227.54
946.915	20866.06
947.28	24514.76
947.645	21584.19
948.01	19937.38
948.375	20792.11
948.74	24873.25
949.104	28979.52
949.469	41894.77
949.834	74065.37
950.198	70259.52
950.562	42053.22
950.927	34972.68
951.291	42023.24
951.655	35823.34
952.02	33674.58
952.384	25442.85
952.748	22172.49
953.112	21634.94
953.476	18791.73
953.839	17368.1
954.203	17181.76
954.567	21524.42
954.931	33924.91
955.294	29035.99
955.658	29180.31
956.021	49555.33
956.385	84105.48
956.748	124109.35
957.111	192358.88
957.474	216003.62
957.837	243187.94
958.2	183954.42
958.563	66051.26
958.926	44620.15
959.289	67627.7
959.652	75486.88
960.015	56625.87
960.377	81214.38
960.74	92634.89
961.102	159945.93
961.465	171632.13
961.827	91936.73
962.189	176372.8
962.552	122432.2
962.914	98250.04
963.276	63754.6
963.638	52694.38
964	52151.5
964.362	35249.27
964.724	34040.73
965.085	24275.83
965.447	19904.72
965.809	22667.26
966.17	22673.65
966.532	24523.89
966.893	22487.53
967.255	20468.89
967.616	24186.53
967.977	19375.71
968.338	21177.5
968.699	17410.98
969.061	17417.08
969.421	17533.57
969.782	19689.55
970.143	16637.3
970.504	17206.17
970.865	19551.89
971.225	19973.97
971.586	19537.78
971.946	27857.08
972.307	24183.45
972.667	31600.73
973.027	32542.25
973.388	39476.6
973.748	26836.17
974.108	29236.96
974.468	39588.44
974.828	30544.22
975.188	23501.34
975.548	21558.99
975.907	18103.98
976.267	20301.07
976.627	17064.48
976.986	17678.38
977.346	16855.48
977.705	16211.56
978.064	14772.33
978.424	12303.37
978.783	12715.49
979.142	14528.95
979.501	13916.45
979.86	14700.71
980.219	14154.98
980.578	18255.77
980.937	20439.5
981.296	18204.86
981.654	18733.44
982.013	29132.23
982.371	37785.25
982.73	35326.66
983.088	39952.5
983.447	42703.03
983.805	61047.18
984.163	127560.52
984.521	141514.07
984.879	207557.06
985.237	-337582.31
985.595	325410.47
985.953	80812.36
986.311	46650.8
986.669	27061.31
987.026	23392.93
987.384	31413.43
987.741	32427.67
988.099	23206.89
988.456	18509.75
988.814	17337.03
989.171	15072.28
989.528	14905.38
989.885	15748.56
990.242	12484.81
990.599	15551.01
990.956	12700.66
991.313	8886.28
991.67	7304.08
992.027	7727.42
992.383	6868.1
992.74	6018.7
993.096	6304.91
993.453	6526.72
993.809	6770.98
994.165	9020.79
994.522	8264.48
994.878	9105.09
995.234	11435.66
995.59	11286.04
995.946	10700.79
996.302	12178.68
996.658	14067.66
997.013	15512.75
997.369	18409.66
997.725	23571.63
998.08	15292.99
998.436	23576.74
998.791	32597.31
999.147	32512.37
999.502	35492.01
999.857	25759.73
1000.212	42078.44
1000.567	60040.18
1000.922	34630.64
1001.277	21993.2
1001.632	16312.05
1001.987	20983.04
1002.342	15030.01
1002.696	12003.79
1003.051	9563.67
1003.406	11586.85
1003.76	11560.31
1004.114	11371.05
1004.469	9570.66
1004.823	7925.53
1005.177	8547.53
1005.531	6778.69
1005.885	6004.64
1006.239	6785.5
1006.593	8500.79
1006.947	11415.19
1007.301	8579.96
1007.655	9345.77
1008.008	6880.08
1008.362	7718.72
1008.715	11046.67
1009.069	10046.88
1009.422	15094.22
1009.776	30272.62
1010.129	20108.86
1010.482	16804.66
1010.835	14197.87
1011.188	29491.77
1011.541	27749.22
1011.894	-170054.4
1012.247	500591.35
1012.6	34002.79
1012.952	21362.83
1013.305	11034.7
1013.657	7966.75
1014.01	7554.17
1014.362	6263.56
1014.715	5568.32
1015.067	4842.03
1015.419	4724.68
1015.771	4178.76
1016.123	3709.21
1016.475	3810.42
1016.827	4072.6
1017.179	4377.07
1017.531	4394.94
1017.883	4479.61
1018.234	4324.79
1018.586	5468.61
1018.938	5797.67
1019.289	7999.55
1019.64	9124.01
1019.992	8500.07
1020.343	7822.22
1020.694	6192.08
1021.045	5483.23
1021.396	6311.81
1021.747	6778.59
1022.098	8113.18
1022.449	5869.68
1022.8	5467.94
1023.151	3818.59
1023.501	3393.05
1023.852	3695.36
1024.202	3822.28
1024.553	4190.85
1024.903	4082.43
1025.253	3480.87
1025.604	3143.86
1025.954	3900.43
1026.304	4746.92
1026.654	5532.12
1027.004	8093.68
1027.354	13107.11
1027.703	12302.57
1028.053	16171.01
1028.403	23382.51
1028.753	33884.85
1029.102	45818.14
1029.452	233259.01
1029.801	10009.14
1030.15	6457.36
1030.499	5425.9
897.758	2686.77
901.051	2638.87
904.343	2674.8
907.636	2675.55
910.928	2741.46
914.22	2650.84
917.511	2659.85
920.803	2723.56
924.094	2742.54
927.384	2723.62
930.675	2685.67
933.965	2636.22
937.255	2646.92
940.544	2614.56
943.834	2553.26
947.123	2496.09
950.411	2593.47
953.7	2567.51
956.988	2535.81
960.276	2475.16
963.563	2556.06
966.851	2554
970.138	2610.89
973.424	2606.89
976.711	2552.5
979.997	2688.96
983.283	2723.67
986.568	2628.22
989.853	2643.38
993.138	2670.72
996.423	2755.79
999.708	2690.03
1002.992	2754.48
1006.275	2589.05
1009.559	2636.08
1012.842	2756.99
1016.125	2685.02
1019.408	2663.64
1022.69	2751.34
1025.972	2771.46
1029.254	2745.59
1032.536	2676.64
1035.817	2707.21
1039.098	2648.74
1042.379	2796.82
1045.659	2791.44
1048.939	2722.56
1052.219	2745.92
1055.498	2758.51
1058.778	2742.72
1062.057	2727.71
1065.335	2747.47
1068.614	2769.42
1071.892	2751.05
1075.17	2828.1
1078.447	2818.9
1081.724	2810.63
1085.001	2845.15
1088.278	2818.47
1091.554	2832.46
1094.83	2829.54
1098.106	2857.21
1101.382	2904.3
1104.657	2901.08
1107.932	2898.2
1111.206	2862.73
1114.481	2816.56
1117.755	2818.58
1121.029	2800.81
1124.302	2855.65
1127.575	2805.49
1130.848	2791.83
1134.121	2753.49
1137.393	2701.05
1140.665	2771.73
1143.937	2743.05
1147.208	2702.42
1150.48	2743.68
1153.75	2730.53
1157.021	2763.25
1160.291	2731.8
1163.561	2778.09
1166.831	2769.01
1170.101	2799.73
1173.37	2774.12
1176.639	2716.27
1179.907	2779.3
1183.176	2784.61
1186.444	2791.6
1189.711	2820.35
1192.979	2829.09
1196.246	2786.83
1199.513	2805.11
1202.78	2801.64
1206.046	2811.45
1209.312	2840.07
1212.578	2865.91
1215.843	2814.9
1219.108	2789.67
1222.373	2813.72
1225.638	2776.35
1228.902	2762.98
1232.166	2723.98
1235.43	2706.1
1238.693	2730.99
1241.956	2729.1
1245.219	2764.81
1248.482	2755.67
1251.744	2752.09
1255.006	2903.26
1258.268	2858.63
1261.529	2801.48
1264.79	2809.23
1268.051	2914.1
1271.312	2930.57
1274.572	2892.62
1277.832	2879.25
1281.092	2870.43
1284.351	2844.35
1287.61	2821.42
1290.869	2736.83
1294.128	2711.8
1297.386	2802.62
1300.644	2789.53
1303.902	2804.97
1307.159	2658.81
1310.416	2714.72
1313.673	2743.17
1316.93	2727.51
1320.186	2773.16
1323.442	2817.08
1326.697	2804.64
1329.953	2794.89
1333.208	2821.34
1336.463	2800.19
1339.717	2737.45
1342.972	2876.91
1346.226	2852.08
1349.479	2782.24
1352.733	2753.76
1355.986	2776.94
1359.238	2752.57
1362.491	2757.34
1365.743	2761.44
1368.995	2753.86
1372.247	2766.18
1375.498	2792.35
1378.749	2806.89
1382	2762.32
1385.251	2815.32
1388.501	2776.08
1391.751	2759.35
1395	2732.79
1398.25	2762.93
1401.499	2770.47
1404.748	2695.4
1407.996	2688.48
1411.244	2671.29
1414.492	2653.14
1417.74	2629.74
1420.987	2639.88
1424.234	2697.84
1427.481	2680.23
1430.728	2737.49
1433.974	2712.64
1437.22	2726.79
1440.465	2728.35
1443.711	2690.08
1446.956	2729.37
1450.201	2714.79
1453.445	2761.77
1456.689	2739.54
1459.933	2755.13
1463.177	2787.04
1466.42	2757.11
1469.663	2738.32
1472.906	2733.09
1476.148	2810.43
1479.391	2769.91
1482.633	2737.04
1485.874	2749.7
1489.115	2735.29
1492.356	2740.82
1495.597	2711.88
1498.838	2716.69
1502.078	2686.43
1505.318	2634.82
1508.557	2677.74
1511.797	2654.83
1515.036	2725.81
1518.274	2714.01
1521.513	2687.5
1524.751	2709.59
1527.989	2722.88
1531.227	2739.47
1534.464	2729.73
1537.701	2752.22
1540.938	2770.96
1544.174	2724.29
1547.41	2721.26
1550.646	2763.82
1553.882	2800.54
1557.117	2853.79
1560.352	2869.85
1563.587	2828.65
1566.821	2784.9
1570.055	2824.02
1573.289	2791.39
1576.523	2869.59
1579.756	2875.33
1582.989	2894.57
1586.222	2853.75
1589.454	2896.22
1592.686	2867.36
1595.918	2892.69
1599.15	2880.52
1602.381	2957.73
1605.612	2908.54
1608.843	3010.4
1612.073	2920.43
1615.303	2904.51
1618.533	2897.2
1621.762	2896.89
1624.992	2882.94
1628.221	2869.51
1631.449	2855.72
1634.678	2911.27
1637.906	2865.42
1641.134	2904.66
1644.361	2858.6
1647.588	2849.57
1650.815	2866.69
1654.042	2844.13
1657.269	2877.44
1660.495	2826.75
1663.72	2848.28
1666.946	2810.86
1670.171	2754.53
1673.396	2728.14
1676.621	2717.64
1679.845	2737.84
1683.069	2756.52
1686.293	2800
1689.517	2769.21
1692.74	2697.42
1695.963	2731.19
1699.185	2746.99
1702.408	2720.43
1705.63	2765.19
1708.852	2775.38
1712.073	2746.63
1715.294	2731.29
1718.515	2792.79
1721.736	2739.28
1724.956	2734.7
1728.176	2761.21
1731.396	2783.27
1734.616	2768.67
1737.835	2796.79
1741.054	2777.27
1744.272	2771.05
1747.491	2804.64
1750.709	2858.97
1753.927	2762.54
1757.144	2810.05
1760.361	2853.15
1763.578	2843.8
1766.795	2780.75
1770.011	2790.7
1773.227	2833.84
1776.443	2867.2
1779.658	2913.36
1782.874	2855.21
1786.089	2831.61
1789.303	2834.94
1792.518	2837.43
1795.732	2823.36
1798.945	2836
1802.159	2888.34
1805.372	2788.26
1808.585	2773.18
1811.797	2772.66
1815.01	2823.94
1818.222	2824.01
1821.434	2797.61
1824.645	2858.34
1827.856	2842.37
1831.067	2881.36
1834.278	2835.38
1837.488	2817.79
1840.698	2969.9
1843.908	2891.59
1847.117	2853.6
1850.326	2733.36
1853.535	2841.59
1856.744	2865.47
1859.952	2777.22
1863.16	2780.94
1866.368	2800.93
1869.575	2908.32
1872.782	2790.54
1875.989	2728.36
1879.196	2814.19
1882.402	2807.25
1885.608	2850.7
1888.814	2747.94
1892.019	2642.16
1895.224	2694.87
1898.429	2675.34
1901.634	2652.5
1904.838	2627.76
1908.042	2679.01
1911.246	2686.18
1914.449	2615.38
1917.652	2612.29
1920.855	2592.97
1924.058	2644.99
1927.26	2682.98
1930.462	2711.33
1933.664	2737.55
1936.865	2674.17
1940.066	2680.82
1943.267	2627.4
1946.467	2644.76
1949.668	2673.9
1952.868	2740.75
1956.067	2718.53
1959.267	2648.62
1962.466	2677.89
1965.665	2659.52
1968.863	2654.56
1972.061	2670.59
1975.259	2673.05
1978.457	2753.79
1981.654	2710.64
1984.852	2708.92
1988.048	2641.63
1991.245	2644.94
1994.441	2730.2
1997.637	2715.13
2000.833	2700.14
2004.028	2740.66
2007.223	2792.11
2010.418	2766.15
2013.613	2729.61
2016.807	2698.44
2020.001	2706.21
2023.194	2752.26
2026.388	2728.02
2029.581	2674.58
2032.774	2723.84
2035.966	2727.63
2039.158	2656.63
2042.35	2690.64
2045.542	2616.78
2048.733	2716.22
2051.924	2737.35
2055.115	2767.91
2058.306	2709.3
2061.496	2769.58
2064.686	2834
2067.875	2749.43
2071.065	2761.94
2074.254	2792.3
2077.442	2740.97
2080.631	2832.25
2083.819	2722.61
2087.007	2707.23
2090.195	2675.87
2093.382	2712.34
2096.569	2691.75
2099.756	2646.6
2102.942	2668.99
2106.128	2679.57
2109.314	2669.4
2112.5	2633.37
2115.685	2605.67
2118.87	2616.74
2122.055	2683.44
2125.239	2648.9
2128.424	2622.62
2131.608	2727.62
2134.791	2704.76
2137.974	2764.27
2141.157	2747.99
2144.34	2698.29
2147.523	2712.97
2150.705	2730.37
2153.887	2707.37
2157.068	2654.71
2160.25	2657.58
2163.431	2699.38
2166.611	2641.96
2169.792	2660.56
2172.972	2552.56
2176.152	2632.34
2179.331	2667.02
2182.511	2649.81
2185.69	2680.88
2188.868	2675.4
2192.047	2732.49
2195.225	2722.98
2198.403	2668
2201.58	2661.22
2204.758	2655.22
2207.935	2736.94
2211.111	2626.52
2214.288	2610.82
2217.464	2650.5
2220.64	2619.25
2223.815	2676.34
2226.991	2596.7
2230.166	2615.05
2233.34	2644.44
2236.515	2672.11
2239.689	2748.86
2242.863	2693.09
2246.036	2744.45
2249.209	2747.58
2252.382	2783.51
2255.555	2768.06
2258.727	2704.58
2261.9	2746.06
2265.071	2738.52
2268.243	2740.38
2271.414	2670.36
2274.585	2629.63
2277.756	2701.67
2280.926	2658.48
2284.096	2697.52
2287.266	2600.67
2290.436	2661.58
2293.605	2688.62
2296.774	2718.79
2299.942	2743.71
2303.111	2759.61
2306.279	2809.04
2309.447	2794.16
2312.614	2765.77
2315.781	2787.15
2318.948	2756.07
2322.115	2797.73
2325.281	2696.26
2328.447	2717.46
2331.613	2692.03
2334.779	2660.99
2337.944	2663.12
2341.109	2660.3
2344.274	2644.77
2347.438	2610.42
2350.602	2633.29
2353.766	2651.49
2356.929	2635.79
2360.092	2677.66
2363.255	2629.39
2366.418	2559.61
2369.58	2677.15
2372.742	2462.18
2375.904	2477.06
2379.066	2450.91
2382.227	2487.09
2385.388	2451.76
2388.548	2376.86
2391.709	2432.75
2394.869	2412.58
2398.029	2513.22
2401.188	2528.46
2404.347	2458.17
2407.506	2602.9
2410.665	2631.68
2413.823	2639.14
2416.981	2595.14
2420.139	2628.1
2423.296	2676.09
2426.453	2649.3
2429.61	2674.65
2432.767	2606.51
2435.923	2645.29
2439.079	2609.01
2442.235	2659.75
2445.391	2585.98
2448.546	2617.45
2451.701	2666.44
2454.855	2637.09
2458.009	2693.05
2461.163	2695.5
2464.317	2653.16
2467.471	2686.48
2470.624	2724.09
2473.777	2695.01
2476.929	2708.74
2480.082	2733.44
2483.234	2694.01
2486.385	2651.14
2489.537	2642.75
2492.688	2601.35
2495.839	2620.94
2498.989	2630.85
2502.14	2617.83
2505.29	2598.65
2508.439	2626.51
2511.589	2547.09
2514.738	2563.11
2517.887	2594.4
2521.035	2658.93
2524.183	2638.26
2527.331	2620.36
2530.479	2592.07
2533.627	2603.75
