Data from C_3_DIV_PA_2N_Splice17_13-15-39-909.txt Node
Date: Sat Mar 14 13:15:39 EDT 2020
User: sa697716
Spectrometer: FLMS03696
Trigger mode: 0
Integration Time (sec): 3.180400E-1
Scans to average: 20
Electric dark correction enabled: true
Nonlinearity correction enabled: true
Boxcar width: 5
XAxis mode: Wavelengths
Number of Pixels in Spectrum: 2048
>>>>>Begin Spectral Data<<<<<
187.83	-323038.51
188.298	2326.99
188.766	1263.93
189.233	1139.47
189.701	1631.33
190.169	2272.72
190.636	843.48
191.104	719.71
191.571	84.72
192.039	-89.57
192.506	-135.56
192.974	362.65
193.441	-629.3
193.908	-91.5
194.375	-32.56
194.842	31.24
195.31	160.64
195.777	194.97
196.244	361.61
196.711	215.95
197.177	228.91
197.644	211.05
198.111	325.82
198.578	400.81
199.045	295.39
199.511	424.86
199.978	439.59
200.445	406.45
200.911	387.2
201.378	355.14
201.844	362.07
202.31	511.78
202.777	581.48
203.243	341.42
203.709	319.89
204.176	368.81
204.642	330.97
205.108	318.93
205.574	222.57
206.04	184.56
206.506	183.12
206.972	138.27
207.438	127.27
207.903	137.84
208.369	134.45
208.835	157.14
209.301	167.62
209.766	143.93
210.232	133.14
210.697	135.71
211.163	135.37
211.628	129.46
212.094	140.73
212.559	270.01
213.024	184.13
213.49	254.28
213.955	229.29
214.42	197.33
214.885	212.37
215.35	229.81
215.815	349.41
216.28	397.35
216.745	336.36
217.21	407.87
217.675	333.42
218.14	375.02
218.604	372.44
219.069	431.34
219.534	484.33
219.998	532.63
220.463	615.89
220.927	631.54
221.392	574.08
221.856	588.43
222.32	659.89
222.785	845.88
223.249	1044.05
223.713	1193.38
224.177	1189.68
224.642	1454.41
225.106	1751.96
225.57	1926.44
226.034	1551.43
226.497	2430.26
226.961	2241.98
227.425	2698.93
227.889	2953.42
228.353	2933.75
228.816	5977.74
229.28	5862.3
229.744	4998.69
230.207	3160.17
230.671	3135.2
231.134	4941.78
231.597	5782.24
232.061	5766.88
232.524	5549.75
232.987	3865.73
233.45	3564.85
233.914	3235.39
234.377	3201.44
234.84	2940.52
235.303	3448.34
235.766	3881.06
236.229	4064.61
236.691	2526.9
237.154	2812.15
237.617	2158.31
238.08	2196.67
238.542	2554.02
239.005	1837.33
239.468	1858.03
239.93	1760.7
240.393	1606.93
240.855	1420.66
241.317	1438.66
241.78	1741.24
242.242	1837.05
242.704	2030.04
243.166	1786.73
243.629	1678.63
244.091	1951.99
244.553	2162.34
245.015	2360.52
245.477	3043.07
245.939	4442.41
246.4	4796.15
246.862	4690.19
247.324	4457.27
247.786	4940.73
248.247	6502.86
248.709	6550.29
249.17	4922.56
249.632	4759.34
250.093	5593.09
250.555	4887.64
251.016	3047.19
251.477	2917.68
251.939	3200.05
252.4	3333.74
252.861	3946.74
253.322	3710.29
253.783	4427.99
254.244	5777.31
254.705	4512.03
255.166	3975.52
255.627	3907.64
256.088	5546.9
256.549	5897.37
257.009	5058.94
257.47	6167.04
257.931	5052.16
258.391	3809.14
258.852	3935.68
259.312	4132.92
259.773	5133
260.233	4425.65
260.694	3794.16
261.154	4283.37
261.614	3514.53
262.074	3156.26
262.534	3338.54
262.994	3169.42
263.455	4206.36
263.915	3594.07
264.374	3390.7
264.834	3706.43
265.294	4088.27
265.754	4273.71
266.214	4055.36
266.673	3801.12
267.133	4809.42
267.593	4742.87
268.052	5843.72
268.512	5106.09
268.971	6265.97
269.431	6911.8
269.89	6213.31
270.349	9379.77
270.809	10488.21
271.268	9494.15
271.727	21213.42
272.186	13813.49
272.645	10430.46
273.104	7514.92
273.563	10928.23
274.022	8509.19
274.481	7312.27
274.94	5678.55
275.399	4211.54
275.857	4899.6
276.316	6620.09
276.775	5940.53
277.233	5881.73
277.692	5581.47
278.15	6369.96
278.609	6635.3
279.067	6147.07
279.525	5765
279.984	7438.52
280.442	9028.39
280.9	9044.72
281.358	5998.03
281.816	5594.34
282.274	5472.07
282.732	5609.65
283.19	5641.71
283.648	4854.74
284.106	5201.06
284.564	5247.95
285.021	4934.77
285.479	3678.8
285.937	3301.83
286.394	2926.48
286.852	3013.16
287.309	3199.66
287.767	3143.92
288.224	3003.77
288.682	3316.49
289.139	3688.38
289.596	3416.61
290.053	3551.42
290.511	4488.81
290.968	5509.49
291.425	7488.98
291.882	6347.16
292.339	5583.13
292.796	5535.85
293.252	5249.66
293.709	4232.38
294.166	3807.17
294.623	4211.76
295.079	4036.97
295.536	4106.91
295.992	3746.14
296.449	3709.13
296.905	3863.58
297.362	3744.63
297.818	3925.82
298.274	4118.02
298.731	4166.29
299.187	4113.87
299.643	4428.72
300.099	5404.61
300.555	5916.89
301.011	4949.86
301.467	4849.65
301.923	5633.55
302.379	5482.63
302.835	5428.55
303.291	5428.1
303.746	6226.04
304.202	7867.71
304.658	7900.9
305.113	5306.15
305.569	5204.64
306.024	5543.61
306.479	5211.93
306.935	4430.18
307.39	4801.31
307.845	4445.89
308.301	4489.62
308.756	4345.61
309.211	4208.5
309.666	4316.87
310.121	5398.16
310.576	5476.19
311.031	5416.39
311.486	6199.64
311.94	6162.61
312.395	8272.26
312.85	15400.41
313.305	74889.29
313.759	395620.99
314.214	28770.21
314.668	22955.63
315.123	19413.45
315.577	7022.47
316.032	6300.02
316.486	7913.53
316.94	6330.68
317.394	4439.39
317.849	3484.6
318.303	3305.52
318.757	3119.78
319.211	3465.45
319.665	3043.9
320.119	3094.83
320.572	4405.68
321.026	4143.78
321.48	3465.47
321.934	3763.14
322.387	3756.08
322.841	4092.46
323.295	3758.24
323.748	4275.94
324.202	4347.7
324.655	5269.72
325.108	7411.73
325.562	5296.92
326.015	6291.04
326.468	4781.55
326.921	5359.11
327.374	5050.4
327.827	5270.47
328.28	5940.27
328.733	4022.52
329.186	3556
329.639	3369.64
330.092	2830.59
330.545	2705.42
330.997	2742.02
331.45	3019.41
331.903	3564.88
332.355	6095.16
332.808	5903.97
333.26	4845.43
333.713	5270.58
334.165	5274.8
334.617	7029.43
335.069	5611.32
335.522	10032.66
335.974	11094.78
336.426	10018.42
336.878	6854.67
337.33	3509.7
337.782	3409.77
338.234	4332.85
338.686	5144.48
339.137	6108.77
339.589	5735.3
340.041	4535.01
340.493	3918.64
340.944	4012.99
341.396	4352.99
341.847	3725.53
342.299	4436.3
342.75	5524.32
343.201	4763.27
343.653	5498.63
344.104	6759.8
344.555	5370.92
345.006	8296.41
345.457	6508.64
345.908	5193.49
346.359	4933.25
346.81	4007.32
347.261	4195.22
347.712	4096.24
348.163	4415.63
348.613	4553.36
349.064	4279.89
349.515	3742.19
349.965	3895.84
350.416	4658.2
350.866	5096.1
351.317	5724.55
351.767	9504.95
352.217	12001.02
352.668	9990.74
353.118	9172.78
353.568	8704.73
354.018	6893.21
354.468	7315.19
354.918	5268.08
355.368	4570.7
355.818	6487.53
356.268	18554.86
356.718	78252.3
357.168	19693.59
357.617	9823.65
358.067	10894.05
358.517	10244.63
358.966	12103.22
359.416	13658.8
359.865	14663.6
360.315	17485.57
360.764	8163.89
361.213	4621.82
361.663	4342.09
362.112	5308.93
362.561	8659.33
363.01	6549.32
363.459	5514.23
363.908	5951.03
364.357	5090.33
364.806	8558.93
365.255	5839.13
365.703	5405.35
366.152	5455.48
366.601	4443.08
367.05	3641.82
367.498	3310.88
367.947	3468.91
368.395	3600.13
368.844	3193.49
369.292	3795.82
369.74	2654.33
370.189	4093.62
370.637	4783.75
371.085	4121.94
371.533	5030.56
371.981	4831.2
372.429	4655.89
372.877	4846.65
373.325	4094.38
373.773	4159.19
374.221	3713.94
374.669	4594.82
375.116	3989.07
375.564	4024.37
376.012	4483.08
376.459	3712.53
376.907	4422.8
377.354	5293.92
377.801	4977.73
378.249	5777.51
378.696	7357.51
379.143	8942.57
379.591	9535.34
380.038	16262.78
380.485	11828.18
380.932	12832.48
381.379	11858.97
381.826	8851.68
382.273	6332.81
382.72	5507.53
383.166	5379.87
383.613	3507.23
384.06	3165.12
384.506	3690.31
384.953	2708.69
385.4	2716.24
385.846	2378.77
386.292	2286.64
386.739	2215.15
387.185	2170.9
387.631	2178.97
388.078	2108.66
388.524	2258.35
388.97	2079.51
389.416	1734.87
389.862	1845.42
390.308	1757.54
390.754	1783.66
391.2	1932.83
391.645	1971.04
392.091	1926.65
392.537	1861.51
392.983	1853.2
393.428	1849.77
393.874	1969.52
394.319	1986.9
394.765	1888.95
395.21	1923.74
395.655	1801.03
396.101	1683.55
396.546	1521.28
396.991	1508.22
397.436	1394.57
397.881	1342.37
398.326	1245.32
398.771	1185.18
399.216	1020.72
399.661	906.98
400.106	906.55
400.551	930.37
400.995	835.18
401.44	826.18
401.885	771.32
402.329	780.79
402.774	750.43
403.218	743.22
403.663	713.51
404.107	737.69
404.551	744.79
404.995	673.09
405.44	642.72
405.884	648.59
406.328	622.04
406.772	615.83
407.216	558.58
407.66	537.39
408.104	495.27
408.547	462.67
408.991	446.03
409.435	427.86
409.879	426.6
410.322	421.07
410.766	410.16
411.209	393.03
411.653	379.48
412.096	374.75
412.54	370.5
412.983	369.99
413.426	375.03
413.869	370.5
414.312	366.31
414.756	350.95
415.199	334.62
415.642	322.79
416.085	321.64
416.527	317.39
416.97	318.03
417.413	304.24
417.856	298.64
418.298	293.59
418.741	289.42
419.184	286.72
419.626	295.13
420.069	293.76
420.511	297.28
420.953	294.84
421.396	295.56
421.838	287.41
422.28	295.13
422.722	300.25
423.164	301.18
423.606	298.8
424.048	293.68
424.49	283.1
424.932	280.5
425.374	273.63
425.816	274.18
426.258	276.56
426.699	281.61
427.141	279.31
427.582	280.99
428.024	281.08
428.465	276.66
428.907	272.26
429.348	267.25
429.789	271
430.231	270
430.672	275
431.113	268.35
431.554	264.03
431.995	254.95
432.436	248.96
432.877	243.55
433.318	243.21
433.759	241.1
434.2	240.14
434.64	235.04
435.081	233.15
435.522	220.72
435.962	212.17
436.403	208.43
436.843	207.35
437.284	197.94
437.724	189.22
438.164	184.68
438.604	180.05
439.045	175.22
439.485	170.57
439.925	167.01
440.365	161.85
440.805	159.77
441.245	158.86
441.685	154.2
442.125	153.73
442.564	154.87
443.004	153.7
443.444	153.37
443.883	153.69
444.323	147.9
444.762	143.42
445.202	144.04
445.641	148.84
446.081	143.33
446.52	144.78
446.959	143.92
447.398	142.26
447.837	139.16
448.276	135.87
448.716	136.86
449.154	137.36
449.593	136.83
450.032	137.22
450.471	130.62
450.91	130.44
451.349	131.57
451.787	129.5
452.226	129.5
452.664	128.83
453.103	129.27
453.541	126.28
453.98	130.67
454.418	131.21
454.856	130.31
455.295	130
455.733	132.18
456.171	131.51
456.609	132.83
457.047	133.62
457.485	138.74
457.923	141.29
458.361	139.84
458.798	137.95
459.236	136.91
459.674	136.07
460.111	137.18
460.549	136.23
460.987	135.12
461.424	133.87
461.862	132.76
462.299	128.95
462.736	128.09
463.173	129.59
463.611	132
464.048	134
464.485	136.66
464.922	135.91
465.359	134.57
465.796	143.88
466.233	145.09
466.67	147.09
467.106	148.72
467.543	146.74
467.98	143.83
468.416	137.18
468.853	134.43
469.29	129.57
469.726	127.83
470.162	123.91
470.599	113.52
471.035	110.5
471.471	106.22
471.907	103.12
472.344	102.17
472.78	103.51
473.216	104.28
473.652	102.82
474.088	101.66
474.523	102.42
474.959	103.87
475.395	102.84
475.831	102.58
476.266	103.6
476.702	103.39
477.138	102.62
477.573	102.39
478.008	102.52
478.444	104.58
478.879	108.15
479.314	109.67
479.75	110.15
480.185	110.9
480.62	111.57
481.055	111.54
481.49	113.3
481.925	115.44
482.36	119.92
482.795	122.59
483.229	124.52
483.664	126.38
484.099	126.54
484.534	129.05
484.968	130.89
485.403	130.89
485.837	129.82
486.271	129.27
486.706	128.44
487.14	124.69
487.574	122.81
488.009	121.65
488.443	119.5
488.877	120.68
489.311	120.19
489.745	121.07
490.179	123.21
490.613	127.61
491.046	127.22
491.48	128.21
491.914	128.11
492.348	128.87
492.781	129.94
493.215	129.43
493.648	127.39
494.082	127.76
494.515	127.47
494.948	128.33
495.382	126.52
495.815	127.28
496.248	127.54
496.681	128.11
497.114	128.16
497.547	128.55
497.98	131.44
498.413	133.6
498.846	134.54
499.279	133.85
499.711	132.12
500.144	131.41
500.577	132.96
501.009	132.31
501.442	133.65
501.874	133.31
502.306	131.14
502.739	133.43
503.171	133.36
503.603	132.14
504.036	132.09
504.468	131.93
504.9	131.68
505.332	129.62
505.764	129.39
506.196	128.03
506.627	128.11
507.059	129.09
507.491	123.78
507.923	122.02
508.354	122.47
508.786	121.68
509.217	122
509.649	122.61
510.08	122.68
510.512	123.21
510.943	123.45
511.374	123.1
511.805	122.88
512.237	123.2
512.668	123.69
513.099	123.07
513.53	123.8
513.961	124.07
514.391	124.55
514.822	127.9
515.253	129.66
515.684	129.79
516.114	130.76
516.545	131.45
516.975	131.86
517.406	131.11
517.836	129.27
518.267	128.91
518.697	129.81
519.127	128.9
519.558	126.4
519.988	124.13
520.418	123.05
520.848	122.14
521.278	119.98
521.708	160.93
522.138	162.31
522.567	163.26
522.997	163.96
523.427	162.79
523.857	162.77
524.286	162.85
524.716	163.58
525.145	165.13
525.575	165.77
526.004	166.55
526.433	124.8
526.863	122.62
527.292	123.25
527.721	123.6
528.15	123.08
528.579	122.32
529.008	122.44
529.437	122.34
529.866	121.75
530.295	121.65
530.724	123.19
531.152	125.44
531.581	127.77
532.01	128.37
532.438	127.43
532.867	127.96
533.295	129.74
533.723	130.02
534.152	130.04
534.58	130.47
535.008	129.94
535.436	131.32
535.865	131.54
536.293	130.69
536.721	130.71
537.149	133.59
537.576	135.33
538.004	136.12
538.432	135.68
538.86	136.93
539.287	137.05
539.715	137.59
540.143	135.33
540.57	135.25
540.998	135.04
541.425	136.08
541.852	134.18
542.28	133.46
542.707	131.97
543.134	132
543.561	131.29
543.988	130.97
544.415	131.15
544.842	131.27
545.269	130.8
545.696	132.52
546.123	133.32
546.549	133.19
546.976	133.05
547.403	133.78
547.829	133.39
548.256	133.38
548.682	134.15
549.108	135.55
549.535	136.13
549.961	136.49
550.387	135.19
550.813	135.72
551.24	136.6
551.666	136.19
552.092	135.96
552.518	136.29
552.943	137.48
553.369	137.77
553.795	137.94
554.221	138.6
554.646	138.87
555.072	141.65
555.498	140.16
555.923	140.22
556.349	142.34
556.774	142.8
557.199	143.11
557.625	142.41
558.05	142.86
558.475	143.79
558.9	144.12
559.325	145.35
559.75	145.1
560.175	145.03
560.6	145.58
561.025	144.56
561.449	146.06
561.874	146.95
562.299	149.33
562.723	150.04
563.148	149.42
563.572	150.02
563.997	150.76
564.421	150.59
564.846	151.28
565.27	152.48
565.694	154
566.118	155.04
566.542	158.2
566.966	157.9
567.39	158.66
567.814	159.07
568.238	160.73
568.662	161.28
569.086	162.71
569.509	164.21
569.933	165.49
570.357	165.82
570.78	164.88
571.204	165.81
571.627	165.71
572.05	166.9
572.474	168.9
572.897	168.07
573.32	169.88
573.743	168.96
574.166	169.09
574.589	168.46
575.012	168.31
575.435	168.82
575.858	167.52
576.281	167.72
576.704	166.35
577.126	164.07
577.549	163.72
577.972	162.29
578.394	163.22
578.817	165.96
579.239	164.4
579.661	164.94
580.084	166.09
580.506	165.6
580.928	164.96
581.35	164.68
581.772	166.06
582.194	165.49
582.616	163.84
583.038	161.45
583.46	158.02
583.882	158.58
584.303	157.83
584.725	155.75
585.147	161.77
585.568	164.54
585.99	166.7
586.411	167.96
586.833	170.31
587.254	172.08
587.675	174.64
588.096	176.32
588.518	176.55
588.939	176.04
589.36	177.39
589.781	169.49
590.202	169.94
590.623	168.59
591.043	167.23
591.464	166.03
591.885	166.63
592.305	165.74
592.726	164.26
593.147	164.36
593.567	163.82
593.987	162.67
594.408	161.41
594.828	157.27
595.248	158.32
595.669	157.94
596.089	157.06
596.509	155.25
596.929	154.01
597.349	155.1
597.769	153.75
598.189	153.22
598.608	154.01
599.028	155.6
599.448	155.25
599.867	152.87
600.287	151.8
600.706	152.86
601.126	153.07
601.545	154.7
601.965	154.04
602.384	153.75
602.803	153.84
603.222	153.04
603.641	152.04
604.061	153.06
604.48	152.46
604.898	153.5
605.317	153.25
605.736	152.73
606.155	152.37
606.574	151.32
606.992	152.3
607.411	152.62
607.829	151.48
608.248	151.37
608.666	150.35
609.085	151.78
609.503	151.42
609.921	152.11
610.339	153.53
610.758	152.93
611.176	153.1
611.594	152.82
612.012	152.77
612.43	154.59
612.847	155.62
613.265	157.9
613.683	158.49
614.101	158.73
614.518	157.49
614.936	156.61
615.353	156.35
615.771	156.91
616.188	157.35
616.606	157.18
617.023	156.61
617.44	155.35
617.857	153.74
618.274	152.32
618.691	152.89
619.108	152.44
619.525	151.94
619.942	153.59
620.359	155.18
620.776	154.83
621.192	155.81
621.609	156.17
622.026	158.27
622.442	159.89
622.859	160.28
623.275	159.1
623.691	159.63
624.108	161.6
624.524	163.4
624.94	162.75
625.356	164.3
625.772	164.62
626.188	165.53
626.604	165.9
627.02	165.4
627.436	165.78
627.852	168.47
628.268	171.89
628.683	169.98
629.099	168.13
629.514	167.04
629.93	167.82
630.345	169.63
630.761	169.2
631.176	169.76
631.591	171.04
632.007	171.05
632.422	169.1
632.837	165.76
633.252	167.9
633.667	167.29
634.082	166.98
634.497	167
634.911	166.88
635.326	168.09
635.741	166.36
636.155	164.46
636.57	166.91
636.984	168.74
637.399	173.08
637.813	172.81
638.228	174.38
638.642	176.12
639.056	175.41
639.47	176.12
639.884	176.65
640.298	178.43
640.712	180.61
641.126	180.54
641.54	180.56
641.954	178.69
642.368	179.79
642.781	183.47
643.195	183.09
643.609	185.36
644.022	185.52
644.436	185.95
644.849	184.67
645.262	183.79
645.676	184.81
646.089	185.84
646.502	187.55
646.915	187.37
647.328	184.91
647.741	186.44
648.154	186.04
648.567	190.5
648.98	190.47
649.393	192.28
649.805	194.04
650.218	193.58
650.631	192.53
651.043	191.89
651.456	192.79
651.868	192.67
652.28	195.65
652.693	198.94
653.105	198.47
653.517	199.99
653.929	200.68
654.341	201.48
654.753	201.43
655.165	203.03
655.577	202.66
655.989	201.77
656.401	200.04
656.813	197.18
657.224	193.94
657.636	188.37
658.047	188.02
658.459	185.07
658.87	183.93
659.282	181.13
659.693	180.08
660.104	179.08
660.515	177.51
660.926	178.35
661.338	177.46
661.749	176.57
662.159	177.33
662.57	176.35
662.981	177.33
663.392	177.31
663.803	180.08
664.213	179.09
664.624	177.61
665.035	179.03
665.445	177.38
665.855	177.29
666.266	177.31
666.676	176.14
667.086	173.79
667.497	174.43
667.907	173.22
668.317	171.05
668.727	173.78
669.137	174.29
669.547	173.4
669.956	173.12
670.366	172.93
670.776	172.53
671.186	173.42
671.595	174.89
672.005	173.89
672.414	174.33
672.824	174.87
673.233	171.34
673.642	170.99
674.052	172.56
674.461	172.68
674.87	172.45
675.279	173.22
675.688	171.92
676.097	172.52
676.506	172.19
676.915	173.94
677.323	173.5
677.732	173.33
678.141	172.38
678.549	168.02
678.958	166.39
679.366	165.59
679.775	163.9
680.183	167.82
680.592	167.52
681	167.3
681.408	164.15
681.816	164.19
682.224	163.47
682.632	166.5
683.04	172
683.448	176.4
683.856	181.39
684.264	187.48
684.671	189.26
685.079	192.01
685.487	196.97
685.894	205.72
686.302	209.84
686.709	215.17
687.116	218.06
687.524	220.92
687.931	223.28
688.338	222.54
688.745	219.31
689.152	217.14
689.559	220.36
689.966	221.82
690.373	217.87
690.78	219.12
691.187	220.67
691.593	220.71
692	218.77
692.407	219.45
692.813	226.28
693.22	228.12
693.626	229.92
694.032	230.2
694.439	232.49
694.845	233.44
695.251	233.92
695.657	235.73
696.063	238.79
696.469	240.23
696.875	241.41
697.281	236.42
697.687	235.83
698.093	234.71
698.498	235.92
698.904	235.77
699.31	239.52
699.715	245.48
700.12	249.03
700.526	248.68
700.931	251.6
701.337	253.64
701.742	254.56
702.147	259.46
702.552	260.48
702.957	262.19
703.362	261.5
703.767	261.42
704.172	258.19
704.577	251.1
704.981	251.23
705.386	250.63
705.791	246.73
706.195	248.06
706.6	245.86
707.004	247.22
707.408	241.48
707.813	243
708.217	240.56
708.621	240.19
709.025	244.92
709.43	246.03
709.834	248.96
710.237	252.95
710.641	251.22
711.045	252.26
711.449	253.38
711.853	260.61
712.256	260.86
712.66	261.32
713.064	264.63
713.467	267.85
713.87	272.73
714.274	273.86
714.677	278.62
715.08	287.78
715.484	296.12
715.887	309.86
716.29	313.68
716.693	326.42
717.096	340.68
717.499	345.47
717.901	344.8
718.304	343.55
718.707	343.13
719.109	337.97
719.512	335.16
719.915	329.56
720.317	323
720.719	324.35
721.122	319.47
721.524	317.27
721.926	320.5
722.328	325.45
722.731	322.97
723.133	324.49
723.535	333.66
723.937	334.17
724.338	335.77
724.74	338.1
725.142	408.09
725.544	413.22
725.945	431.1
726.347	425.39
726.748	425.36
727.15	428.82
727.551	430.39
727.952	426.73
728.354	422.2
728.755	420.4
729.156	415.36
729.557	342.17
729.958	330.04
730.359	310.31
730.76	309.05
731.161	305.16
731.562	301.52
731.962	297.23
732.363	295.62
732.763	293.06
733.164	293.43
733.564	290.67
733.965	288.73
734.365	288.84
734.766	290.91
735.166	288.35
735.566	286.2
735.966	286.53
736.366	287.11
736.766	282.41
737.166	283.77
737.566	282.19
737.966	280.1
738.365	282.3
738.765	282.95
739.165	277.83
739.564	275.57
739.964	276.81
740.363	272.79
740.763	271.22
741.162	273.04
741.561	270.48
741.96	268.25
742.36	267.82
742.759	268.32
743.158	267.68
743.557	267.68
743.955	271.42
744.354	269.2
744.753	271.33
745.152	271.05
745.55	272.07
745.949	272.68
746.348	272.21
746.746	272.45
747.144	272.27
747.543	270.84
747.941	273.79
748.339	269.9
748.737	271.45
749.136	273.75
749.534	274.9
749.932	276.32
750.33	277.79
750.727	280.46
751.125	281.87
751.523	279.24
751.921	287.56
752.318	286.81
752.716	292.26
753.113	292
753.511	292.17
753.908	294.85
754.305	298.56
754.703	302.92
755.1	308.95
755.497	312.33
755.894	322.25
756.291	327.77
756.688	344.63
757.085	364.46
757.482	397.04
757.878	435.47
758.275	466.1
758.672	495.21
759.068	525.73
759.465	568.63
759.861	623.96
760.258	689.22
760.654	719.35
761.05	713.96
761.447	681.7
761.843	637.47
762.239	587.32
762.635	563.71
763.031	545.93
763.427	519.1
763.822	492.21
764.218	466.34
764.614	430.45
765.01	405.17
765.405	388.05
765.801	378.51
766.196	364.14
766.592	356.21
766.987	343.37
767.382	333.78
767.778	331.84
768.173	326.29
768.568	323.03
768.963	318.49
769.358	322.43
769.753	323.13
770.148	320.43
770.542	319.03
770.937	317.57
771.332	323.79
771.726	325.83
772.121	326.57
772.515	329.24
772.91	329.61
773.304	333.71
773.699	329.5
774.093	331.22
774.487	333.4
774.881	336.4
775.275	337.42
775.669	334.5
776.063	336.32
776.457	336.83
776.851	333.24
777.245	334.04
777.638	335.47
778.032	341.48
778.425	342.32
778.819	351.17
779.212	353.7
779.606	353.37
779.999	353.17
780.392	355.52
780.786	357.93
781.179	358.77
781.572	360.97
781.965	363.28
782.358	360.65
782.751	361.11
783.143	350.41
783.536	351.51
783.929	351.24
784.322	358.7
784.714	357.95
785.107	358.4
785.499	366.04
785.891	367.11
786.284	363.18
786.676	369.91
787.068	372.95
787.46	377.29
787.852	376.39
788.245	379.74
788.636	379.63
789.028	386.52
789.42	388.96
789.812	386.76
790.204	389
790.595	398.38
790.987	386.33
791.378	384.48
791.77	390.71
792.161	397.71
792.553	401.51
792.944	393.94
793.335	384.34
793.726	387.6
794.117	393.27
794.508	399.07
794.899	394.09
795.29	401.36
795.681	403.95
796.072	395.33
796.463	412.56
796.853	418.46
797.244	429.57
797.634	432.1
798.025	430.92
798.415	428.04
798.806	437.54
799.196	444.51
799.586	451.81
799.976	451.78
800.366	466.45
800.756	448.4
801.146	440.9
801.536	441.69
801.926	446.32
802.316	449.89
802.706	456.4
803.095	447.02
803.485	450.12
803.874	447.84
804.264	461.32
804.653	459.16
805.043	473.12
805.432	482.22
805.821	485.3
806.21	488.01
806.599	489.99
806.988	490.99
807.377	491.26
807.766	498.5
808.155	513.19
808.544	494.5
808.933	493.32
809.321	490.96
809.71	500.31
810.098	505.52
810.487	526.33
810.875	552.19
811.264	550.62
811.652	582.26
812.04	585.97
812.428	597.07
812.816	633.05
813.204	655.01
813.592	675.46
813.98	690.02
814.368	689.88
814.756	715.3
815.144	710.21
815.531	738.82
815.919	717.15
816.306	732.16
816.694	711.91
817.081	718.98
817.469	741.78
817.856	740.98
818.243	757.59
818.63	771.29
819.017	749.57
819.404	756.18
819.791	768.97
820.178	796.1
820.565	811.7
820.952	874.61
821.339	846.74
821.725	854.07
822.112	819.89
822.498	818.09
822.885	819.81
823.271	809.77
823.657	823
824.044	826.32
824.43	831.06
824.816	842.23
825.202	808.85
825.588	861.45
825.974	863.96
826.36	886.53
826.746	885.95
827.132	906.71
827.517	912.17
827.903	872.63
828.289	879.57
828.674	840.12
829.06	822.04
829.445	836.68
829.83	850.76
830.216	869.39
830.601	891.12
830.986	881.77
831.371	874.66
831.756	903.35
832.141	891.65
832.526	888.46
832.911	902.41
833.295	896.1
833.68	922.8
834.065	893.22
834.449	843.77
834.834	842.08
835.218	838.26
835.603	857.09
835.987	838.94
836.371	872.97
836.755	867.19
837.139	882.51
837.524	891.02
837.908	875.69
838.291	883.28
838.675	887.2
839.059	891.73
839.443	882.87
839.827	864.7
840.21	884.36
840.594	882.37
840.977	892.22
841.361	896.58
841.744	915.81
842.127	910.37
842.511	916.3
842.894	945.25
843.277	963.53
843.66	989.83
844.043	996.04
844.426	965.58
844.809	939.45
845.191	940.32
845.574	914.62
845.957	895.67
846.339	896.78
846.722	872.56
847.104	870.41
847.487	857.54
847.869	860.19
848.252	875.28
848.634	890.38
849.016	905.19
849.398	908.39
849.78	944.28
850.162	947.18
850.544	957.76
850.926	981.37
851.307	977.21
851.689	991.64
852.071	1003.34
852.452	1015.97
852.834	1009.83
853.215	1035.99
853.597	1043.73
853.978	1068.3
854.359	1084.82
854.741	1041.62
855.122	1036.81
855.503	1023.79
855.884	1031.41
856.265	1034.25
856.646	1031.68
857.026	1014.69
857.407	1007.15
857.788	1012.6
858.169	1014.18
858.549	986.25
858.93	1016.48
859.31	1020.21
859.69	1036.7
860.071	1019.62
860.451	1010.97
860.831	979.6
861.211	1031.78
861.591	1053.31
861.971	1045.61
862.351	1059.32
862.731	1063.24
863.111	1076.59
863.491	1097.36
863.87	1136.31
864.25	1146.47
864.629	1129.88
865.009	1153.85
865.388	1202.98
865.768	1288.63
866.147	1296.19
866.526	1225.48
866.905	1245.9
867.284	1307.07
867.663	1231.15
868.042	1176.17
868.421	1172.42
868.8	1182.31
869.179	1199.76
869.558	1124.9
869.936	1038.51
870.315	1046.9
870.693	1075.82
871.072	1156.67
871.45	1097.7
871.828	1123.6
872.207	1182.3
872.585	1165.74
872.963	1194.72
873.341	1163.59
873.719	1159.24
874.097	1146.07
874.475	1170.21
874.853	1190.27
875.23	1140.84
875.608	1197.53
875.986	1291.22
876.363	1232.83
876.741	1283.37
877.118	1270.69
877.495	1324.04
877.873	1337.07
878.25	1400
878.627	1341.23
879.004	1359.84
879.381	1355.28
879.758	1328.15
880.135	1232.62
880.512	1305.29
880.889	1253.95
881.265	1233.49
881.642	1215.6
882.019	1233.73
882.395	1225.63
882.772	1287.04
883.148	1234.13
883.524	1232.69
883.901	1223.07
884.277	1239.55
884.653	1229.48
885.029	1279.93
885.405	1425.46
885.781	1416.66
886.157	1357.67
886.532	1361.35
886.908	1353.25
887.284	1499.95
887.659	1551.41
888.035	1590.23
888.411	1631
888.786	1658.01
889.161	1706.18
889.537	1655.75
889.912	1712.49
890.287	1714.84
890.662	1751.86
891.037	1707.59
891.412	1593.87
891.787	1560.02
892.162	1508.29
892.536	1541.88
892.911	1480.8
893.286	1442.25
893.66	1385.94
894.035	1417.58
894.409	1532.61
894.784	1479.04
895.158	1506.03
895.532	1595.23
895.906	1648.5
896.281	1690.96
896.655	1668.29
897.029	1901.27
897.402	1975.67
897.776	2197.69
898.15	2188.4
898.524	2169.09
898.898	2194.36
899.271	2468.35
899.645	2152.6
900.018	2066.93
900.392	2134.2
900.765	2140.22
901.138	1982.39
901.511	1954.55
901.884	1812.72
902.258	1681.28
902.631	1752.31
903.003	2016.05
903.376	1810.54
903.749	2018.93
904.122	2158.39
904.495	2376.23
904.867	2405.28
905.24	2094.01
905.612	1952.18
905.985	1971.42
906.357	2051.6
906.729	1949.58
907.102	1662.78
907.474	1614.75
907.846	1627.99
908.218	1603.62
908.59	1431.82
908.962	1386.78
909.334	1499.28
909.705	1581.58
910.077	1539.57
910.449	1592.25
910.82	1640.85
911.192	1808.82
911.563	1873.27
911.935	1985.65
912.306	1984.85
912.677	2035.7
913.048	2036.15
913.419	2193.77
913.79	2186.31
914.161	2338.43
914.532	2272.16
914.903	2086.66
915.274	1980.83
915.645	1950.9
916.015	1712.78
916.386	1638.29
916.756	1751.57
917.127	1779.69
917.497	1603.92
917.868	1764.42
918.238	1681.07
918.608	1712.07
918.978	1740.26
919.348	1823.56
919.718	1888.56
920.088	1835.84
920.458	1918.37
920.828	1991.6
921.198	1914.37
921.567	2045.5
921.937	1594.36
922.306	1599.23
922.676	1725.34
923.045	1462.36
923.415	1417.87
923.784	1286.35
924.153	1341.45
924.522	1342.97
924.891	1269.15
925.26	1357.83
925.629	1312.02
925.998	1483.02
926.367	1455.45
926.736	1419.47
927.104	1663.84
927.473	1759.01
927.842	2123.78
928.21	2071.36
928.578	2143.56
928.947	2034.31
929.315	2048.72
929.683	2433.31
930.051	2471.76
930.42	2883.17
930.788	2430.43
931.156	2411.95
931.523	2321.08
931.891	2139.3
932.259	2069.58
932.627	2410.74
932.994	3389.53
933.362	2821.9
933.729	2444.04
934.097	2334.93
934.464	1986.69
934.831	2263.84
935.199	2224.79
935.566	2133.49
935.933	2127.67
936.3	2580.07
936.667	2017.42
937.034	1953.01
937.401	1927.33
937.767	1669.79
938.134	1495.01
938.501	2078.42
938.867	2254.66
939.234	3788.45
939.6	3166.23
939.967	3605.87
940.333	2427.59
940.699	2058.14
941.065	1513.2
941.431	1981.96
941.798	1981.32
942.163	2619.19
942.529	1618.88
942.895	1469.67
943.261	970.66
943.627	1285.06
943.992	1137.84
944.358	1134.64
944.723	1165.2
945.089	1140.67
945.454	1073.38
945.82	1090.89
946.185	1027.92
946.55	1221.11
946.915	1078.7
947.28	1270.48
947.645	1132.14
948.01	1061.46
948.375	1116.52
948.74	1293.04
949.104	1489.78
949.469	2013.25
949.834	3585.85
950.198	3641.79
950.562	2205.51
950.927	1879.83
951.291	2257.44
951.655	1908.06
952.02	1719.52
952.384	1283.8
952.748	1183.74
953.112	1216.28
953.476	1088.2
953.839	996.92
954.203	977.95
954.567	1203.53
954.931	1833.35
955.294	1580.45
955.658	1596.77
956.021	2734.72
956.385	4624.4
956.748	6804.03
957.111	10106.27
957.474	11235.13
957.837	12428.18
958.2	9018.94
958.563	3248.08
958.926	2268.49
959.289	3393.52
959.652	3804.15
960.015	2887.05
960.377	4131.72
960.74	4638.81
961.102	7824.19
961.465	8638.09
961.827	5298.78
962.189	10222.12
962.552	7196.55
962.914	5736.28
963.276	3740.4
963.638	3094.72
964	3040.74
964.362	2098.64
964.724	1989.9
965.085	1454.18
965.447	1206.35
965.809	1245.88
966.17	1231.94
966.532	1312.1
966.893	1199.94
967.255	1078.53
967.616	1254
967.977	1009.12
968.338	1085.17
968.699	926.51
969.061	919.6
969.421	910.31
969.782	1019.97
970.143	885.21
970.504	968.67
970.865	1134.25
971.225	1210.5
971.586	1184.53
971.946	1662.91
972.307	1442.66
972.667	1825.68
973.027	1894.32
973.388	2270.27
973.748	1566.9
974.108	1728.18
974.468	2186.21
974.828	1737.74
975.188	1293.3
975.548	1189.19
975.907	1023.91
976.267	1130.75
976.627	982.54
976.986	996.47
977.346	936.03
977.705	892.71
978.064	801.4
978.424	686.88
978.783	649.89
979.142	748.98
979.501	740.27
979.86	797.06
980.219	762.99
980.578	944.11
980.937	1062.72
981.296	976.66
981.654	1005.95
982.013	1539.33
982.371	1999.93
982.73	1916.39
983.088	2133.57
983.447	2239.06
983.805	3190.04
984.163	6768.14
984.521	7663.49
984.879	11213.1
985.237	-18356.57
985.595	18239.31
985.953	4508.94
986.311	2503.51
986.669	1481.55
987.026	1297.61
987.384	1724.25
987.741	1712.82
988.099	1316.13
988.456	1050.93
988.814	1011.17
989.171	864.49
989.528	802.88
989.885	838.65
990.242	711.04
990.599	842.31
990.956	687.09
991.313	490.13
991.67	411.08
992.027	477.9
992.383	424.03
992.74	377.58
993.096	409.94
993.453	428.58
993.809	438.45
994.165	563.42
994.522	603.45
994.878	661
995.234	814.49
995.59	798.82
995.946	656.06
996.302	756.01
996.658	837.34
997.013	898.99
997.369	1137.07
997.725	1522.37
998.08	979.53
998.436	1211.23
998.791	1718.9
999.147	1777.41
999.502	1898.74
999.857	1336.86
1000.212	2165.1
1000.567	3137.05
1000.922	1850.33
1001.277	1128
1001.632	823.53
1001.987	1069.72
1002.342	807.89
1002.696	636.16
1003.051	524.67
1003.406	676.65
1003.76	674.07
1004.114	666.95
1004.469	583.18
1004.823	473.11
1005.177	474.66
1005.531	374.6
1005.885	356.19
1006.239	424.02
1006.593	557.32
1006.947	747.34
1007.301	525.51
1007.655	580.89
1008.008	431.5
1008.362	481.92
1008.715	684.09
1009.069	626.19
1009.422	1059.6
1009.776	1953.17
1010.129	1230.67
1010.482	982.69
1010.835	732.9
1011.188	1474.98
1011.541	1358.18
1011.894	-7727.6
1012.247	22616.57
1012.6	1429.71
1012.952	975.06
1013.305	364.02
1013.657	317.99
1014.01	313.4
1014.362	240.93
1014.715	317.97
1015.067	306.48
1015.419	305.81
1015.771	305.67
1016.123	285.93
1016.475	318.77
1016.827	333.2
1017.179	401.22
1017.531	381.43
1017.883	375.21
1018.234	436.51
1018.586	515.21
1018.938	600.04
1019.289	827.61
1019.64	851.38
1019.992	747.27
1020.343	633.53
1020.694	575.82
1021.045	483.17
1021.396	531.28
1021.747	605.93
1022.098	584.74
1022.449	381.35
1022.8	337.37
1023.151	266.04
1023.501	280.23
1023.852	289.96
1024.202	332.31
1024.553	328.16
1024.903	377.19
1025.253	373.09
1025.604	344.65
1025.954	428.44
1026.304	507.03
1026.654	558.81
1027.004	740.7
1027.354	1007.92
1027.703	1075.18
1028.053	1248.49
1028.403	1917.99
1028.753	2012.81
1029.102	1882.16
1029.452	6267.57
1029.801	225.5
1030.15	132.88
1030.499	45.93
897.758	2769.9
901.051	2726.33
904.343	2763.65
907.636	2760.44
910.928	2825.5
914.22	2732.67
917.511	2741.03
920.803	2804.71
924.094	2828.32
927.384	2801.19
930.675	2766.71
933.965	2716.54
937.255	2720.33
940.544	2686.45
943.834	2616.33
947.123	2561.68
950.411	2657.64
953.7	2628.9
956.988	2593.14
960.276	2530.1
963.563	2619.06
966.851	2606.75
970.138	2668.92
973.424	2661.99
976.711	2609.79
979.997	2755.93
983.283	2786.83
986.568	2687.33
989.853	2708.28
993.138	2733.05
996.423	2818.38
999.708	2743.46
1002.992	2818.37
1006.275	2639.8
1009.559	2691.87
1012.842	2808.15
1016.125	2734.96
1019.408	2713.49
1022.69	2804.61
1025.972	2816.94
1029.254	2791.82
1032.536	2714.06
1035.817	2747.18
1039.098	2684.49
1042.379	2841.73
1045.659	2833.58
1048.939	2763.04
1052.219	2784.29
1055.498	2798.82
1058.778	2779.38
1062.057	2767.96
1065.335	2784.13
1068.614	2804.05
1071.892	2780.86
1075.17	2859.74
1078.447	2839.85
1081.724	2831.09
1085.001	2869.91
1088.278	2841.69
1091.554	2854.69
1094.83	2854.1
1098.106	2873.46
1101.382	2921.86
1104.657	2919.66
1107.932	2915.4
1111.206	2875.6
1114.481	2838.11
1117.755	2839.13
1121.029	2812.13
1124.302	2863.24
1127.575	2809.01
1130.848	2792.35
1134.121	2754.89
1137.393	2700.42
1140.665	2769.36
1143.937	2741.48
1147.208	2705.7
1150.48	2737.36
1153.75	2719.72
1157.021	2762.22
1160.291	2728.23
1163.561	2771.73
1166.831	2764.77
1170.101	2794.05
1173.37	2774.81
1176.639	2716.11
1179.907	2778.9
1183.176	2778.5
1186.444	2788.78
1189.711	2816.88
1192.979	2822.48
1196.246	2784.8
1199.513	2800.16
1202.78	2797.4
1206.046	2804.8
1209.312	2829.94
1212.578	2856.7
1215.843	2806.57
1219.108	2783.06
1222.373	2803.53
1225.638	2769.06
1228.902	2751.9
1232.166	2723.04
1235.43	2705.18
1238.693	2729.76
1241.956	2731.16
1245.219	2766.68
1248.482	2759.98
1251.744	2753.68
1255.006	2905.72
1258.268	2868.07
1261.529	2808.6
1264.79	2814.22
1268.051	2913.21
1271.312	2931.63
1274.572	2888.9
1277.832	2877.7
1281.092	2870.45
1284.351	2839.57
1287.61	2815.59
1290.869	2728.81
1294.128	2695.86
1297.386	2797.97
1300.644	2785.62
1303.902	2798.49
1307.159	2659.52
1310.416	2715.33
1313.673	2739.62
1316.93	2722.29
1320.186	2771.41
1323.442	2816.54
1326.697	2805.9
1329.953	2803.84
1333.208	2820.52
1336.463	2805.77
1339.717	2740.37
1342.972	2883.5
1346.226	2862.4
1349.479	2793.24
1352.733	2763.08
1355.986	2793.76
1359.238	2772.36
1362.491	2774.32
1365.743	2778.56
1368.995	2775.91
1372.247	2795.63
1375.498	2820.74
1378.749	2830.17
1382	2792.94
1385.251	2848.36
1388.501	2817.14
1391.751	2798.49
1395	2773.61
1398.25	2808.15
1401.499	2816.43
1404.748	2742.22
1407.996	2733.43
1411.244	2719.94
1414.492	2700.16
1417.74	2679.54
1420.987	2693.57
1424.234	2747.71
1427.481	2731.28
1430.728	2790.31
1433.974	2763.93
1437.22	2782.31
1440.465	2784.51
1443.711	2740.33
1446.956	2778.55
1450.201	2767.48
1453.445	2811.8
1456.689	2785.84
1459.933	2798.15
1463.177	2829.33
1466.42	2797.43
1469.663	2779.07
1472.906	2767.46
1476.148	2845.83
1479.391	2801.65
1482.633	2770.85
1485.874	2777.62
1489.115	2756.64
1492.356	2765.79
1495.597	2741.68
1498.838	2741.39
1502.078	2708.82
1505.318	2652.19
1508.557	2691.94
1511.797	2660.67
1515.036	2734.04
1518.274	2723.58
1521.513	2698.13
1524.751	2720.25
1527.989	2727.42
1531.227	2734.07
1534.464	2720.56
1537.701	2746.19
1540.938	2764.59
1544.174	2719.28
1547.41	2718.04
1550.646	2753.84
1553.882	2784.87
1557.117	2836.28
1560.352	2848.52
1563.587	2805.54
1566.821	2764.87
1570.055	2802.72
1573.289	2768.02
1576.523	2844.21
1579.756	2847.75
1582.989	2863.01
1586.222	2823
1589.454	2860.24
1592.686	2829.43
1595.918	2852.18
1599.15	2835.67
1602.381	2920.49
1605.612	2868.9
1608.843	2960.54
1612.073	2872.2
1615.303	2855.58
1618.533	2845.04
1621.762	2851.19
1624.992	2842.24
1628.221	2822.34
1631.449	2807.76
1634.678	2869.28
1637.906	2815.8
1641.134	2857.48
1644.361	2813.28
1647.588	2806
1650.815	2819.45
1654.042	2803.19
1657.269	2831.74
1660.495	2777.86
1663.72	2807.77
1666.946	2774.57
1670.171	2714.3
1673.396	2690.59
1676.621	2682.85
1679.845	2705.98
1683.069	2729.9
1686.293	2775.72
1689.517	2742.3
1692.74	2668.46
1695.963	2701.64
1699.185	2709.09
1702.408	2686.53
1705.63	2729.68
1708.852	2741.52
1712.073	2714.3
1715.294	2697.37
1718.515	2760.11
1721.736	2705.2
1724.956	2706.55
1728.176	2735.89
1731.396	2756.26
1734.616	2748.43
1737.835	2773.22
1741.054	2754.78
1744.272	2750.83
1747.491	2778.01
1750.709	2837.99
1753.927	2734.91
1757.144	2788.46
1760.361	2823.47
1763.578	2820.4
1766.795	2762.03
1770.011	2773.99
1773.227	2815.91
1776.443	2853.74
1779.658	2894.78
1782.874	2844.89
1786.089	2821.48
1789.303	2823.79
1792.518	2830.85
1795.732	2820.58
1798.945	2828.82
1802.159	2880.98
1805.372	2775.39
1808.585	2759.31
1811.797	2760.07
1815.01	2816.58
1818.222	2812.75
1821.434	2785.83
1824.645	2848.65
1827.856	2826.65
1831.067	2864.58
1834.278	2831.28
1837.488	2816.14
1840.698	2972.84
1843.908	2897.78
1847.117	2860.44
1850.326	2736.44
1853.535	2852.39
1856.744	2885.69
1859.952	2800.67
1863.16	2804.04
1866.368	2833.01
1869.575	2936.44
1872.782	2825.96
1875.989	2770.54
1879.196	2866.54
1882.402	2863.98
1885.608	2913.57
1888.814	2810.64
1892.019	2704.5
1895.224	2761.47
1898.429	2748.67
1901.634	2726.35
1904.838	2707.83
1908.042	2762.64
1911.246	2767.32
1914.449	2691.84
1917.652	2697.11
1920.855	2677.33
1924.058	2732.17
1927.26	2770.03
1930.462	2799.41
1933.664	2822.73
1936.865	2757.32
1940.066	2759.76
1943.267	2708.23
1946.467	2726.39
1949.668	2755.1
1952.868	2821.61
1956.067	2796.55
1959.267	2724.91
1962.466	2753.71
1965.665	2735.79
1968.863	2734.16
1972.061	2751.95
1975.259	2752.93
1978.457	2830.11
1981.654	2789.45
1984.852	2789.69
1988.048	2714.11
1991.245	2721.13
1994.441	2803.92
1997.637	2794.63
2000.833	2778.54
2004.028	2815.81
2007.223	2869.3
2010.418	2844.84
2013.613	2808.63
2016.807	2772.52
2020.001	2782.88
2023.194	2828.54
2026.388	2805.02
2029.581	2753.67
2032.774	2796.76
2035.966	2801.37
2039.158	2731.26
2042.35	2760.11
2045.542	2685.66
2048.733	2789.33
2051.924	2816.87
2055.115	2845.3
2058.306	2786.74
2061.496	2845.16
2064.686	2909.66
2067.875	2824.38
2071.065	2842.06
2074.254	2871.11
2077.442	2820.92
2080.631	2913.79
2083.819	2796.36
2087.007	2775.73
2090.195	2745.96
2093.382	2783.74
2096.569	2761.32
2099.756	2714.53
2102.942	2737.54
2106.128	2740.35
2109.314	2730.92
2112.5	2689.29
2115.685	2666.12
2118.87	2676.57
2122.055	2743.48
2125.239	2705.23
2128.424	2676.89
2131.608	2790.41
2134.791	2770.06
2137.974	2834.11
2141.157	2817.96
2144.34	2766.25
2147.523	2785.11
2150.705	2797.82
2153.887	2777.84
2157.068	2723.96
2160.25	2728.4
2163.431	2770.73
2166.611	2711.36
2169.792	2728.51
2172.972	2616.01
2176.152	2700.84
2179.331	2738.26
2182.511	2718.17
2185.69	2748.84
2188.868	2743.32
2192.047	2805.14
2195.225	2792.01
2198.403	2741.82
2201.58	2735.4
2204.758	2730.36
2207.935	2818.03
2211.111	2701.63
2214.288	2685.68
2217.464	2727.43
2220.64	2699.15
2223.815	2756.15
2226.991	2674.21
2230.166	2693.56
2233.34	2720.06
2236.515	2746.51
2239.689	2826.3
2242.863	2768.97
2246.036	2825.85
2249.209	2828.81
2252.382	2863.73
2255.555	2850.19
2258.727	2784.19
2261.9	2824.03
2265.071	2817.76
2268.243	2823.04
2271.414	2751.27
2274.585	2704.65
2277.756	2773.63
2280.926	2727.96
2284.096	2771.13
2287.266	2675.07
2290.436	2732.69
2293.605	2765.29
2296.774	2797.4
2299.942	2822.07
2303.111	2838.04
2306.279	2886.81
2309.447	2873.29
2312.614	2849.83
2315.781	2869.94
2318.948	2837.91
2322.115	2879
2325.281	2778.94
2328.447	2800.21
2331.613	2774.08
2334.779	2743.28
2337.944	2751.06
2341.109	2749.65
2344.274	2732.7
2347.438	2696.52
2350.602	2722.06
2353.766	2739.92
2356.929	2724.31
2360.092	2767.92
2363.255	2717.11
2366.418	2644.24
2369.58	2769.32
2372.742	2532.78
2375.904	2550.96
2379.066	2525.29
2382.227	2564.71
2385.388	2527.87
2388.548	2447.59
2391.709	2507.23
2394.869	2486.14
2398.029	2590.75
2401.188	2610.39
2404.347	2537.04
2407.506	2695.64
2410.665	2721.31
2413.823	2733.36
2416.981	2684.36
2420.139	2717.47
2423.296	2771.58
2426.453	2744.21
2429.61	2768.94
2432.767	2697.76
2435.923	2733.38
2439.079	2690.54
2442.235	2741.99
2445.391	2666.89
2448.546	2691.82
2451.701	2746.83
2454.855	2715.77
2458.009	2771.77
2461.163	2778.81
2464.317	2731.59
2467.471	2766.41
2470.624	2810.22
2473.777	2786.6
2476.929	2798.98
2480.082	2827.02
2483.234	2789.03
2486.385	2740.77
2489.537	2733.94
2492.688	2692.31
2495.839	2707.35
2498.989	2720.42
2502.14	2705.23
2505.29	2683.62
2508.439	2708.06
2511.589	2627.14
2514.738	2641.79
2517.887	2676.66
2521.035	2739.64
2524.183	2725.42
2527.331	2703.06
2530.479	2672.25
2533.627	2684.65
