Data from C_3_DIV_WI_4N_Splice17_12-56-19-408.txt Node
Date: Sat Mar 14 12:56:19 EDT 2020
User: sa697716
Spectrometer: FLMS03696
Trigger mode: 0
Integration Time (sec): 3.180400E-1
Scans to average: 20
Electric dark correction enabled: true
Nonlinearity correction enabled: true
Boxcar width: 5
XAxis mode: Wavelengths
Number of Pixels in Spectrum: 2048
>>>>>Begin Spectral Data<<<<<
187.83	-337373.95
188.298	2559.05
188.766	1296.02
189.233	1100.23
189.701	1641.6
190.169	2294.37
190.636	894.97
191.104	718.54
191.571	116.69
192.039	-86.54
192.506	-121.21
192.974	437.85
193.441	-629.05
193.908	-309.17
194.375	-142.95
194.842	-48.8
195.31	87.86
195.777	179.83
196.244	397.16
196.711	435.7
197.177	526.72
197.644	746.92
198.111	1275.14
198.578	1811.01
199.045	1447.44
199.511	2357.11
199.978	2734.75
200.445	2316.17
200.911	2531.13
201.378	2794.41
201.844	2556.71
202.31	4349.12
202.777	4537.82
203.243	2529.23
203.709	2406.37
204.176	2885
204.642	2385.75
205.108	2258.08
205.574	1837.39
206.04	1688.66
206.506	1591.17
206.972	1500.13
207.438	1452.72
207.903	1648.5
208.369	1445.04
208.835	1432.34
209.301	1486.77
209.766	1506.4
210.232	1471.07
210.697	1810.86
211.163	2220.42
211.628	3323.9
212.094	2798.55
212.559	3438.76
213.024	2139.24
213.49	2587.9
213.955	2499.15
214.42	2454.86
214.885	2271.23
215.35	2182.41
215.815	2126.1
216.28	2252.25
216.745	1811.12
217.21	1924.98
217.675	1736.94
218.14	1927.5
218.604	2101
219.069	2372.94
219.534	2436.04
219.998	2772.02
220.463	3282.8
220.927	3895.38
221.392	3598.03
221.856	3618.21
222.32	4485.46
222.785	5488.85
223.249	6811.56
223.713	7552.17
224.177	7473.76
224.642	9505.86
225.106	11656.88
225.57	12676.89
226.034	9457.76
226.497	14339.77
226.961	12897.14
227.425	14963.93
227.889	16474.56
228.353	16447.95
228.816	33869.55
229.28	32347.81
229.744	27279.04
230.207	16604.14
230.671	16291.48
231.134	26854.95
231.597	31065.36
232.061	30961.26
232.524	30122.26
232.987	20760.81
233.45	18685.29
233.914	16783.91
234.377	17154.95
234.84	15659.5
235.303	18395.96
235.766	20537.95
236.229	21176.25
236.691	13288.46
237.154	14935.95
237.617	11276.33
238.08	11565.4
238.542	13506.89
239.005	9648.95
239.468	9596.73
239.93	9043.72
240.393	8225.44
240.855	7220.56
241.317	7362.46
241.78	8939.53
242.242	9245.38
242.704	9993.93
243.166	8674.3
243.629	7905.71
244.091	9105.78
244.553	9949.76
245.015	10703.61
245.477	13815.54
245.939	20236.29
246.4	21529.52
246.862	20928.98
247.324	19697.41
247.786	22007.95
248.247	28864.96
248.709	29674.77
249.17	22162
249.632	20960.88
250.093	24318.17
250.555	21039.55
251.016	12867.32
251.477	12232.12
251.939	13209.9
252.4	13877.48
252.861	16443.37
253.322	15304.35
253.783	18207.78
254.244	23589.07
254.705	18581.77
255.166	16501.44
255.627	16250.12
256.088	22903.65
256.549	24330.56
257.009	20952.31
257.47	25428.45
257.931	20738.54
258.391	15563.52
258.852	16069.12
259.312	16871.63
259.773	20819.25
260.233	17627.39
260.694	14879.46
261.154	16852.98
261.614	13522.45
262.074	12079.94
262.534	12540.84
262.994	11818.64
263.455	15729.59
263.915	13256.21
264.374	12461.35
264.834	13614.75
265.294	15066.84
265.754	15593.2
266.214	14737.68
266.673	13808.25
267.133	17429.05
267.593	17253.02
268.052	21106.66
268.512	18339.71
268.971	22148.87
269.431	24289.85
269.89	21690.84
270.349	32481.62
270.809	36184.54
271.268	32523.08
271.727	72765.56
272.186	47067.19
272.645	35322.61
273.104	25442.83
273.563	36801.09
274.022	28837.11
274.481	24572.76
274.94	18964.89
275.399	14094.84
275.857	16398.26
276.316	22230.82
276.775	19800.72
277.233	19498.71
277.692	18291.43
278.15	20745.76
278.609	21394.75
279.067	19818.74
279.525	18415.49
279.984	23774.11
280.442	28558.97
280.9	28201.72
281.358	18531.04
281.816	17277.64
282.274	16921.59
282.732	17458.81
283.19	17526.12
283.648	15104.68
284.106	16064.85
284.564	16340.9
285.021	15183.65
285.479	11323.44
285.937	10283.24
286.394	9039.13
286.852	9308.07
287.309	9806.35
287.767	9515.58
288.224	9063.85
288.682	9949.95
289.139	10957.21
289.596	10024.89
290.053	10395.07
290.511	13108.71
290.968	15938.74
291.425	21567.22
291.882	18005.2
292.339	15686.73
292.796	15508.38
293.252	14595.27
293.709	11603.79
294.166	10394.12
294.623	11485.86
295.079	11011.37
295.536	11097.33
295.992	10055.56
296.449	9959.92
296.905	10325.88
297.362	9899.43
297.818	10409.78
298.274	10807.1
298.731	11002.88
299.187	10875.62
299.643	11650.72
300.099	14114.02
300.555	15432.47
301.011	12900.48
301.467	12470.33
301.923	14564.66
302.379	14200.68
302.835	13964.08
303.291	13966.93
303.746	15862.89
304.202	20062.49
304.658	20167.62
305.113	13567.84
305.569	13302.42
306.024	14186.73
306.479	13445.08
306.935	11380.74
307.39	12433.54
307.845	11485.01
308.301	11594.82
308.756	11326.37
309.211	10900.04
309.666	11162.6
310.121	13880.47
310.576	14118.65
311.031	14015.94
311.486	16028.93
311.94	16000.58
312.395	21400.61
312.85	40103.02
313.305	196756.63
313.759	1022051.17
314.214	74211.21
314.668	59028.66
315.123	49703.03
315.577	17862.85
316.032	15883.07
316.486	20001.41
316.94	15784.24
317.394	11001.72
317.849	8572.62
318.303	8096.27
318.757	7638.87
319.211	8451.56
319.665	7382.58
320.119	7464.49
320.572	10667.93
321.026	9984.81
321.48	8297.54
321.934	9027.43
322.387	9038.5
322.841	9775.84
323.295	8815.21
323.748	10121.93
324.202	10254.8
324.655	12340.55
325.108	17283.68
325.562	12230.65
326.015	14504.92
326.468	10978.23
326.921	12321.8
327.374	11518.17
327.827	12010.78
328.28	13590.91
328.733	9129.5
329.186	8044.08
329.639	7677.09
330.092	6462.46
330.545	6175.7
330.997	6253.88
331.45	6845.33
331.903	8038.82
332.355	13812.21
332.808	13415.73
333.26	11063.51
333.713	12022.64
334.165	12095.09
334.617	16085.76
335.069	12938.85
335.522	23244.62
335.974	25676.27
336.426	23460.49
336.878	16166.82
337.33	8197.87
337.782	8007.2
338.234	10094.21
338.686	12049.07
339.137	14283.22
339.589	13481.66
340.041	10621.9
340.493	9153.15
340.944	9407.56
341.396	10141.16
341.847	8549.77
342.299	10103.45
342.75	12351.11
343.201	10734.01
343.653	12339.67
344.104	15143.9
344.555	11910.04
345.006	18466.73
345.457	14168.86
345.908	11200.16
346.359	10529.1
346.81	8577.95
347.261	9022.89
347.712	8864.68
348.163	9481.95
348.613	9626.94
349.064	8997.18
349.515	7864.97
349.965	8069.69
350.416	9699.1
350.866	10638.04
351.317	12013.31
351.767	19881.44
352.217	25105.41
352.668	20817.17
353.118	19075.71
353.568	18312.93
354.018	14517.14
354.468	15394.5
354.918	11048.57
355.368	9648.81
355.818	13637.12
356.268	39101.9
356.718	164387.05
357.168	40975.7
357.617	20554.95
358.067	22837.61
358.517	21397
358.966	25101.03
359.416	28107.22
359.865	30411.78
360.315	36215.44
360.764	16948.84
361.213	9526.57
361.663	8975.93
362.112	11073.61
362.561	17869.38
363.01	13496.31
363.459	11382.89
363.908	12300.31
364.357	10477.88
364.806	17664.77
365.255	12137.6
365.703	11153.6
366.152	11196.14
366.601	9058.55
367.05	7393.46
367.498	6739.69
367.947	7042.21
368.395	7313.45
368.844	6485.73
369.292	7771.49
369.74	5400.25
370.189	8294.29
370.637	9706.43
371.085	8373.66
371.533	10223.03
371.981	9824.01
372.429	9381.16
372.877	9793.45
373.325	8212.81
373.773	8357.56
374.221	7453.96
374.669	9208.21
375.116	7957.55
375.564	8015.3
376.012	8967.3
376.459	7402.98
376.907	8828.24
377.354	10651.7
377.801	9949.26
378.249	11472.2
378.696	14617.12
379.143	17678.7
379.591	18841.21
380.038	31937.01
380.485	23251.95
380.932	25085.04
381.379	23081.43
381.826	17058.41
382.273	12122.45
382.72	10596.17
383.166	10347.69
383.613	6760.44
384.06	6116.29
384.506	7098.23
384.953	5209.45
385.4	5206.6
385.846	4567.08
386.292	4436.99
386.739	4340.49
387.185	4296.84
387.631	4306.39
388.078	4191.86
388.524	4473.22
388.97	4138.75
389.416	3459.21
389.862	3694.91
390.308	3510.85
390.754	3565.27
391.2	3871.85
391.645	3965.17
392.091	3834.03
392.537	3711.61
392.983	3710.4
393.428	3684.26
393.874	3943.33
394.319	3966.46
394.765	3767.95
395.21	3875.38
395.655	3628.6
396.101	3396.82
396.546	3069.66
396.991	3074.61
397.436	2854.56
397.881	2749.08
398.326	2579.25
398.771	2442.71
399.216	2126.67
399.661	1906.7
400.106	1903.54
400.551	1963.08
400.995	1761.34
401.44	1743.63
401.885	1636.05
402.329	1652.08
402.774	1587.6
403.218	1550.01
403.663	1491.56
404.107	1535.19
404.551	1550.74
404.995	1418.46
405.44	1355.34
405.884	1371.37
406.328	1322.51
406.772	1315.99
407.216	1194.55
407.66	1149.4
408.104	1078.49
408.547	1009.11
408.991	975.23
409.435	936.44
409.879	925.99
410.322	916.98
410.766	890.69
411.209	848.11
411.653	812.81
412.096	799.97
412.54	800.21
412.983	798.16
413.426	802.37
413.869	801.42
414.312	787.52
414.756	754.97
415.199	717.37
415.642	693.81
416.085	695.65
416.527	690.07
416.97	696.22
417.413	663.31
417.856	653.98
418.298	644.1
418.741	636.44
419.184	631.46
419.626	654.27
420.069	654.57
420.511	658.84
420.953	643.56
421.396	640.59
421.838	624.59
422.28	635.73
422.722	641.35
423.164	651.44
423.606	643.25
424.048	641.09
424.49	613.56
424.932	608.1
425.374	595.71
425.816	603.26
426.258	611.63
426.699	618.98
427.141	613.44
427.582	618.96
428.024	613.49
428.465	610.27
428.907	598.35
429.348	590.71
429.789	594.63
430.231	587.53
430.672	596.13
431.113	580.88
431.554	573.72
431.995	557.18
432.436	542.03
432.877	531.9
433.318	524.57
433.759	520.35
434.2	518.92
434.64	512.53
435.081	512.95
435.522	486.77
435.962	470.29
436.403	461.52
436.843	467.01
437.284	455.1
437.724	443.64
438.164	441.54
438.604	432.86
439.045	419.23
439.485	404.18
439.925	394.79
440.365	384.61
440.805	380.46
441.245	375
441.685	362.44
442.125	358.28
442.564	359.16
443.004	351.53
443.444	350.76
443.883	351.01
444.323	346.53
444.762	345.11
445.202	349.56
445.641	358.07
446.081	354.26
446.52	357.62
446.959	354.02
447.398	346.69
447.837	343.49
448.276	335.82
448.716	337.75
449.154	337.99
449.593	331.47
450.032	330.74
450.471	321.68
450.91	321.35
451.349	320.17
451.787	319.18
452.226	321.32
452.664	319.39
453.103	320.34
453.541	319.48
453.98	321.2
454.418	322.31
454.856	318.5
455.295	317.58
455.733	320.83
456.171	321.49
456.609	321.29
457.047	320.88
457.485	327.21
457.923	327.92
458.361	323.02
458.798	323.28
459.236	322.35
459.674	322.25
460.111	323.71
460.549	320.98
460.987	319.49
461.424	318.79
461.862	318.29
462.299	313.7
462.736	313.44
463.173	314.76
463.611	313.87
464.048	314.6
464.485	317.56
464.922	314.87
465.359	312.13
465.796	315.55
466.233	313.57
466.67	311.82
467.106	310.88
467.543	307.38
467.98	303.2
468.416	293.82
468.853	290.06
469.29	281.51
469.726	278.16
470.162	270.17
470.599	260.34
471.035	256.82
471.471	250.17
471.907	246.68
472.344	245.19
472.78	244.91
473.216	246.43
473.652	243.23
474.088	241.99
474.523	241.47
474.959	243.67
475.395	241.66
475.831	241.24
476.266	241.99
476.702	241.41
477.138	238.87
477.573	238.36
478.008	237.35
478.444	239.26
478.879	242.22
479.314	242.59
479.75	242.13
480.185	242.73
480.62	243.92
481.055	245.07
481.49	247.14
481.925	250.01
482.36	256.13
482.795	262.84
483.229	268.44
483.664	273.49
484.099	274.35
484.534	278.64
484.968	281.14
485.403	281.5
485.837	279.96
486.271	279.28
486.706	278.64
487.14	273.92
487.574	269.78
488.009	267.23
488.443	264.39
488.877	267.51
489.311	267.66
489.745	270.99
490.179	273.47
490.613	280.71
491.046	282.63
491.48	285.63
491.914	285.99
492.348	288.84
492.781	291.65
493.215	292.54
493.648	293.29
494.082	296.58
494.515	296.94
494.948	302.02
495.382	303.32
495.815	306.72
496.248	309.84
496.681	316.02
497.114	321.17
497.547	326.72
497.98	335
498.413	340.07
498.846	346.37
499.279	351.95
499.711	354.18
500.144	356.42
500.577	363.6
501.009	370.46
501.442	379.03
501.874	382.72
502.306	385.37
502.739	393.54
503.171	402.25
503.603	406.43
504.036	413.77
504.468	420.12
504.9	429.43
505.332	435.22
505.764	440.91
506.196	446.62
506.627	457.3
507.059	467.81
507.491	472.76
507.923	475.89
508.354	487.67
508.786	496.41
509.217	509.94
509.649	521.1
510.08	535.13
510.512	548.96
510.943	561.21
511.374	571.69
511.805	586.54
512.237	602.54
512.668	624.61
513.099	643.39
513.53	664.32
513.961	680.95
514.391	705.21
514.822	730.69
515.253	756.82
515.684	776.79
516.114	799.41
516.545	818.28
516.975	838.57
517.406	854.99
517.836	862.93
518.267	873.26
518.697	890.5
519.127	898.83
519.558	907.49
519.988	914.34
520.418	925.16
520.848	941
521.278	951.35
521.708	984.89
522.138	998.58
522.567	1022.4
522.997	1042.63
523.427	1056.18
523.857	1072.24
524.286	1083.94
524.716	1099
525.145	1117
525.575	1128.98
526.004	1143.02
526.433	1127.5
526.863	1131.31
527.292	1130.22
527.721	1138.14
528.15	1146.1
528.579	1148.66
529.008	1159.34
529.437	1176.71
529.866	1189.26
530.295	1203.52
530.724	1214.86
531.152	1235.37
531.581	1246.87
532.01	1260.83
532.438	1268.19
532.867	1279.71
533.295	1294.76
533.723	1298.98
534.152	1299.27
534.58	1299.25
535.008	1289.34
535.436	1292.45
535.865	1299.46
536.293	1310.26
536.721	1320.94
537.149	1340.02
537.576	1343.66
538.004	1352.86
538.432	1359.7
538.86	1359.47
539.287	1364.95
539.715	1374.98
540.143	1376.22
540.57	1373.53
540.998	1371.22
541.425	1356.35
541.852	1341.59
542.28	1339.9
542.707	1329.29
543.134	1320.45
543.561	1318.01
543.988	1314.23
544.415	1314.44
544.842	1311.09
545.269	1306.33
545.696	1308.44
546.123	1318.3
546.549	1311.51
546.976	1303.27
547.403	1303.27
547.829	1304.64
548.256	1307.04
548.682	1304.28
549.108	1300.71
549.535	1301.34
549.961	1303.37
550.387	1294.95
550.813	1291.92
551.24	1297.06
551.666	1296.58
552.092	1290.18
552.518	1285.64
552.943	1280.7
553.369	1286.52
553.795	1289.06
554.221	1289.23
554.646	1285.48
555.072	1293.28
555.498	1296.04
555.923	1301.46
556.349	1313.24
556.774	1318.24
557.199	1318.46
557.625	1321.13
558.05	1315.71
558.475	1322.11
558.9	1320.31
559.325	1314.95
559.75	1308.21
560.175	1301.21
560.6	1294.14
561.025	1290.65
561.449	1290.07
561.874	1291.8
562.299	1293.16
562.723	1296.28
563.148	1286.42
563.572	1286.52
563.997	1290.05
564.421	1290.34
564.846	1287.41
565.27	1287.87
565.694	1283.17
566.118	1287.35
566.542	1289.98
566.966	1282.13
567.39	1274.7
567.814	1264.48
568.238	1260.6
568.662	1260.65
569.086	1259.26
569.509	1260.71
569.933	1247.3
570.357	1237.75
570.78	1219.95
571.204	1206.59
571.627	1195.3
572.05	1191.2
572.474	1187.46
572.897	1175.42
573.32	1166.36
573.743	1156.46
574.166	1140.79
574.589	1136.72
575.012	1129.45
575.435	1125.94
575.858	1117.93
576.281	1108.32
576.704	1094.46
577.126	1082.9
577.549	1073.71
577.972	1065.1
578.394	1055.96
578.817	1050.95
579.239	1036.6
579.661	1026.16
580.084	1013.88
580.506	1002.41
580.928	997.48
581.35	988.76
581.772	984.88
582.194	974.6
582.616	964.84
583.038	952.75
583.46	943.35
583.882	939.43
584.303	939.11
584.725	934.16
585.147	937.51
585.568	942.89
585.99	949.6
586.411	951.81
586.833	960.25
587.254	959.22
587.675	968.32
588.096	974.47
588.518	970.24
588.939	958.84
589.36	957.72
589.781	946.48
590.202	930.39
590.623	922.84
591.043	919.91
591.464	911.01
591.885	908.85
592.305	904.51
592.726	894.99
593.147	894.69
593.567	891.36
593.987	885.3
594.408	881.59
594.828	877.59
595.248	874.39
595.669	863.72
596.089	857.74
596.509	853.1
596.929	843.34
597.349	843.83
597.769	838.04
598.189	833.44
598.608	833.89
599.028	834.01
599.448	833.53
599.867	824.35
600.287	821.08
600.706	818.83
601.126	812.21
601.545	811.49
601.965	809.63
602.384	804.54
602.803	805.15
603.222	801.55
603.641	796.44
604.061	793.44
604.48	789.83
604.898	792.34
605.317	792.85
605.736	792.21
606.155	789.94
606.574	783.27
606.992	785.34
607.411	780.69
607.829	773.17
608.248	769.83
608.666	766.02
609.085	764.37
609.503	757.96
609.921	753.9
610.339	754.03
610.758	750.09
611.176	745.82
611.594	739.27
612.012	735.39
612.43	736.16
612.847	737.67
613.265	737.07
613.683	737.63
614.101	737.06
614.518	732.17
614.936	725.09
615.353	715.81
615.771	712.63
616.188	711
616.606	707.86
617.023	702.73
617.44	693.78
617.857	687.91
618.274	681.44
618.691	676.51
619.108	670.15
619.525	664.44
619.942	667.13
620.359	666.43
620.776	662.51
621.192	659.95
621.609	658.5
622.026	661.81
622.442	664.3
622.859	665.06
623.275	659.9
623.691	662.55
624.108	667.91
624.524	675.19
624.94	674.93
625.356	679.77
625.772	685.9
626.188	690.76
626.604	690.46
627.02	687.76
627.436	687.08
627.852	691.71
628.268	697.15
628.683	692.06
629.099	686.11
629.514	683.03
629.93	684.64
630.345	686.22
630.761	682.6
631.176	684.05
631.591	681.76
632.007	678.32
632.422	675.64
632.837	668.7
633.252	668.05
633.667	661.79
634.082	655.72
634.497	647.78
634.911	637.67
635.326	634.68
635.741	623.89
636.155	615.8
636.57	614.9
636.984	613.02
637.399	612.66
637.813	609.32
638.228	606.73
638.642	606.44
639.056	598.47
639.47	595.72
639.884	589.89
640.298	585.07
640.712	582.77
641.126	574.62
641.54	567.53
641.954	561.03
642.368	553.32
642.781	549.73
643.195	539.91
643.609	538.82
644.022	534.04
644.436	529.21
644.849	521.18
645.262	512.69
645.676	510.32
646.089	505.96
646.502	498.65
646.915	493.22
647.328	482.9
647.741	480.3
648.154	472.45
648.567	471.66
648.98	464.84
649.393	463.41
649.805	462.38
650.218	458.32
650.631	450.99
651.043	447.06
651.456	444.4
651.868	443.04
652.28	449.47
652.693	454.4
653.105	453.81
653.517	457.92
653.929	458.08
654.341	458.71
654.753	451.81
655.165	454.63
655.577	453.59
655.989	450.92
656.401	445.85
656.813	430.64
657.224	420.26
657.636	405.54
658.047	396.58
658.459	387.5
658.87	381.21
659.282	375.55
659.693	366.3
660.104	358.67
660.515	352.14
660.926	351.83
661.338	348.6
661.749	344.81
662.159	342.08
662.57	339.07
662.981	336.87
663.392	334.14
663.803	335.83
664.213	333.31
664.624	330.28
665.035	330.02
665.445	322.23
665.855	320.55
666.266	319.39
666.676	318.14
667.086	314.14
667.497	313.02
667.907	311.08
668.317	307.3
668.727	309.43
669.137	309.69
669.547	309.4
669.956	311.31
670.366	311.86
670.776	312.48
671.186	314.92
671.595	317.18
672.005	319.21
672.414	320.25
672.824	320.36
673.233	320.07
673.642	322.51
674.052	325.99
674.461	329.6
674.87	331.8
675.279	332.72
675.688	332.97
676.097	335.75
676.506	335.8
676.915	343.05
677.323	346.14
677.732	346.27
678.141	347.4
678.549	343.28
678.958	342.36
679.366	343.34
679.775	345.55
680.183	354.11
680.592	356.77
681	359.54
681.408	356.51
681.816	359.56
682.224	363.78
682.632	371.07
683.04	385.91
683.448	397.99
683.856	412.41
684.264	429.11
684.671	442.59
685.079	461.32
685.487	482.48
685.894	512.43
686.302	536.94
686.709	559.27
687.116	582.28
687.524	604.51
687.931	625.66
688.338	644.16
688.745	659.69
689.152	677.98
689.559	704.53
689.966	733.89
690.373	750.71
690.78	777.81
691.187	816.23
691.593	849.02
692	878.23
692.407	919.55
692.813	971.35
693.22	1015.77
693.626	1062.49
694.032	1103.04
694.439	1156.95
694.845	1204.36
695.251	1262.74
695.657	1316.72
696.063	1388.93
696.469	1448.07
696.875	1504.17
697.281	1542.54
697.687	1589.77
698.093	1630.37
698.498	1693.69
698.904	1748.71
699.31	1823.02
699.715	1882.34
700.12	1961.41
700.526	1991.15
700.931	2055.79
701.337	2108.41
701.742	2150.43
702.147	2224.37
702.552	2263.16
702.957	2322.39
703.362	2355.08
703.767	2390.98
704.172	2435.11
704.577	2415.12
704.981	2466.77
705.386	2494.95
705.791	2505.4
706.195	2574.2
706.6	2595.42
707.004	2670.12
707.408	2662.51
707.813	2694.69
708.217	2699.97
708.621	2715.99
709.025	2805.93
709.43	2819.49
709.834	2880.96
710.237	2948.63
710.641	2951.35
711.045	2981.56
711.449	2990.58
711.853	3025.95
712.256	3073.79
712.66	3117.09
713.064	3190.11
713.467	3234.26
713.87	3338.3
714.274	3387.25
714.677	3489.46
715.08	3635.4
715.484	3788.19
715.887	3969.3
716.29	4149.41
716.693	4333.62
717.096	4546.92
717.499	4669.82
717.901	4705.66
718.304	4741.48
718.707	4774.01
719.109	4700.65
719.512	4684.83
719.915	4581.25
720.317	4543.4
720.719	4590.43
721.122	4578.06
721.524	4547.56
721.926	4523.84
722.328	4621.66
722.731	4623.18
723.133	4658.88
723.535	4834.89
723.937	4862.41
724.338	4919.35
724.74	4965.37
725.142	4932.59
725.544	4939.79
725.945	4976.26
726.347	4980.09
726.748	4981.42
727.15	5004.52
727.551	4978.64
727.952	4961.08
728.354	4940.88
728.755	4948.51
729.156	4917.16
729.557	4900.37
729.958	4793.92
730.359	4743.33
730.76	4733.1
731.161	4684.53
731.562	4665.87
731.962	4672.3
732.363	4620.72
732.763	4569.61
733.164	4604.7
733.564	4550.49
733.965	4469.19
734.365	4443.7
734.766	4475.38
735.166	4441.49
735.566	4394.86
735.966	4374.12
736.366	4372.92
736.766	4321.66
737.166	4351.21
737.566	4315.74
737.966	4293.61
738.365	4330.81
738.765	4330.82
739.165	4262.37
739.564	4241.55
739.964	4285.5
740.363	4244.01
740.763	4243.55
741.162	4234.11
741.561	4208.6
741.96	4170.23
742.36	4188.89
742.759	4193.38
743.158	4227.8
743.557	4243.44
743.955	4281.3
744.354	4240.02
744.753	4296.27
745.152	4258.46
745.55	4308.2
745.949	4304.9
746.348	4304.27
746.746	4320.67
747.144	4288.92
747.543	4267.69
747.941	4315.24
748.339	4250.45
748.737	4246.67
749.136	4237.9
749.534	4300.35
749.932	4277.13
750.33	4297.28
750.727	4352.35
751.125	4331.84
751.523	4315.57
751.921	4359.9
752.318	4329.32
752.716	4387.75
753.113	4399.69
753.511	4425.13
753.908	4425.5
754.305	4412.37
754.703	4469.26
755.1	4524.76
755.497	4579.39
755.894	4753.66
756.291	4915.69
756.688	5216.34
757.085	5614.63
757.482	6178.91
757.878	6791.31
758.275	7347.36
758.672	8113.9
759.068	8738.48
759.465	9625.93
759.861	10771.63
760.258	12105.77
760.654	12795.46
761.05	12691.55
761.447	12111.74
761.843	11278.61
762.239	10417.86
762.635	10027.74
763.031	9646.01
763.427	9100.51
763.822	8532.36
764.218	7976.09
764.614	7247.52
765.01	6756.99
765.405	6440.3
765.801	6202.75
766.196	5897.78
766.592	5729.79
766.987	5441.82
767.382	5247.02
767.778	5169.32
768.173	5051.71
768.568	4983.09
768.963	4868.36
769.358	4885.61
769.753	4844.13
770.148	4767.7
770.542	4766.58
770.937	4735.45
771.332	4819.43
771.726	4837.55
772.121	4782.17
772.515	4833.17
772.91	4821.72
773.304	4888.43
773.699	4829.54
774.093	4878.13
774.487	4926.21
774.881	4965.9
775.275	4963.23
775.669	4924.43
776.063	4964.54
776.457	4995.03
776.851	4925.66
777.245	4920.03
777.638	4949.29
778.032	5051.76
778.425	5019.84
778.819	5061.11
779.212	5021.85
779.606	4982.81
779.999	5002.4
780.392	4989.83
780.786	5066.08
781.179	5086.72
781.572	5123.81
781.965	5137.35
782.358	5087.44
782.751	5139.1
783.143	5097.02
783.536	5164.32
783.929	5206.95
784.322	5313.73
784.714	5343.78
785.107	5339.84
785.499	5402.29
785.891	5383.33
786.284	5365.1
786.676	5495.77
787.068	5478.51
787.46	5524.44
787.852	5541.39
788.245	5618.88
788.636	5641.31
789.028	5700.13
789.42	5737.97
789.812	5748.17
790.204	5838.13
790.595	5927.48
790.987	5747.08
791.378	5770.43
791.77	5889.09
792.161	6011.19
792.553	6066.17
792.944	5967.43
793.335	5907.62
793.726	5974.23
794.117	6055.51
794.508	6177.01
794.899	6150.29
795.29	6280.27
795.681	6329.78
796.072	6200.94
796.463	6041.02
796.853	6048.45
797.244	6193.14
797.634	6224.43
798.025	6221.84
798.415	6235.18
798.806	6315.34
799.196	6394.98
799.586	6440.23
799.976	6409.37
800.366	6619.55
800.756	6834.47
801.146	6796.32
801.536	6819.8
801.926	6885.1
802.316	6909.81
802.706	6976.05
803.095	6869.05
803.485	6962.69
803.874	7000.18
804.264	7236.65
804.653	7213.05
805.043	7344.42
805.432	7449.09
805.821	7454.51
806.21	7477.7
806.599	7585.06
806.988	7627.73
807.377	7724.32
807.766	7842.69
808.155	8105.45
808.544	7862.4
808.933	7877.78
809.321	7859.77
809.71	8125.83
810.098	8264.97
810.487	8683.73
810.875	9122.96
811.264	9140.86
811.652	9407.82
812.04	9542.85
812.428	9687.79
812.816	10383.82
813.204	10762.88
813.592	11266.35
813.98	11569.77
814.368	11493.94
814.756	11930.86
815.144	11857.5
815.531	12287.78
815.919	12218.26
816.306	12497.67
816.694	12218.05
817.081	12264.22
817.469	12580.85
817.856	12583.54
818.243	12835.52
818.63	13192.06
819.017	12805.91
819.404	12865.74
819.791	13212.71
820.178	13774.18
820.565	14001.22
820.952	14854.87
821.339	14420.06
821.725	14592.69
822.112	13911.9
822.498	13877.9
822.885	14004.55
823.271	13919.32
823.657	14298.65
824.044	14307.15
824.43	14369.94
824.816	14346.8
825.202	13950.74
825.588	14884.34
825.974	14891.92
826.36	15370.75
826.746	15396.63
827.132	15710.82
827.517	15693.82
827.903	14981.75
828.289	15010.62
828.674	14309.48
829.06	14205.65
829.445	14569.32
829.83	14885.41
830.216	15318.98
830.601	15651.07
830.986	15282.99
831.371	15160.13
831.756	15666.12
832.141	15275.57
832.526	15275.74
832.911	15532.71
833.295	15431.62
833.68	15851.88
834.065	15289.59
834.449	14463.89
834.834	14395.91
835.218	14388.39
835.603	14703.35
835.987	14513.84
836.371	15270.2
836.755	15169.17
837.139	15529.85
837.524	15757.79
837.908	15597.89
838.291	15653.56
838.675	15707.32
839.059	15887.12
839.443	15874.69
839.827	15655.05
840.21	16085.11
840.594	15950.55
840.977	16137.04
841.361	16116.98
841.744	16446.81
842.127	16300.1
842.511	16515.12
842.894	17058.2
843.277	17407.24
843.66	17896.84
844.043	17973.44
844.426	17245.52
844.809	16959.8
845.191	16984.3
845.574	16560.66
845.957	16225.48
846.339	16130.74
846.722	15653.25
847.104	15710.82
847.487	15552.55
847.869	15571.28
848.252	15828.92
848.634	16118.07
849.016	16357.09
849.398	16467.66
849.78	17238.91
850.162	17246.66
850.544	17622.15
850.926	18191.37
851.307	18114.97
851.689	18365.84
852.071	18769.52
852.452	19056.46
852.834	19045.87
853.215	19407.02
853.597	19551.84
853.978	19818.98
854.359	20223.61
854.741	19314.41
855.122	19221.75
855.503	18958.65
855.884	19082.65
856.265	19023.36
856.646	19124.69
857.026	18762.94
857.407	18701.11
857.788	18840.23
858.169	19097.65
858.549	18334.21
858.93	18898.71
859.31	18946.92
859.69	19140.12
860.071	18765.22
860.451	18566.47
860.831	17907.04
861.211	18959.39
861.591	19451.92
861.971	19423.24
862.351	19600.28
862.731	19953.3
863.111	20197.88
863.491	20498.98
863.87	21296.41
864.25	21618.39
864.629	21272.24
865.009	21725.28
865.388	22492.28
865.768	24109.51
866.147	24025.57
866.526	22696.33
866.905	22957.78
867.284	24250.03
867.663	23023.91
868.042	22061.07
868.421	21988.44
868.8	22336.16
869.179	22567.37
869.558	21262.22
869.936	19591.94
870.315	19946.09
870.693	20428.96
871.072	22042.72
871.45	20993.89
871.828	21262.99
872.207	22351.23
872.585	22027.59
872.963	22629.54
873.341	21850.34
873.719	21590.7
874.097	21337.15
874.475	21745.09
874.853	22249.25
875.23	21323.13
875.608	22218.47
875.986	24029.16
876.363	22986.35
876.741	23676.88
877.118	23088.48
877.495	24219.03
877.873	24624.91
878.25	25910.25
878.627	24841.09
879.004	25196.12
879.381	25073.57
879.758	24412
880.135	22727.21
880.512	24035.38
880.889	23401.06
881.265	23156.12
881.642	22951.7
882.019	23332.98
882.395	22862.16
882.772	23767.36
883.148	22724.94
883.524	22626.81
883.901	22501.23
884.277	22842.93
884.653	22693.9
885.029	23339.07
885.405	25841.92
885.781	25634.96
886.157	24587.86
886.532	24877.28
886.908	24865.08
887.284	27646.44
887.659	28536.34
888.035	29419.21
888.411	30170.92
888.786	30548.3
889.161	31604.75
889.537	31017.22
889.912	32017.91
890.287	31976.64
890.662	32795.47
891.037	32196.16
891.412	30017.52
891.787	29717.67
892.162	28666.9
892.536	29329.21
892.911	28231.81
893.286	27635.99
893.66	26521.46
894.035	27192.79
894.409	29605.97
894.784	28420.01
895.158	28895.54
895.532	30602.48
895.906	31442.78
896.281	32182.05
896.655	31678.89
897.029	36202.77
897.402	37675.35
897.776	41934.14
898.15	41788.75
898.524	41323.61
898.898	41868.55
899.271	46873.49
899.645	40604.5
900.018	39012.45
900.392	40452.49
900.765	40765.23
901.138	37721.34
901.511	37177.44
901.884	34130.58
902.258	31489.24
902.631	32541.11
903.003	37428.1
903.376	33767.97
903.749	37849.55
904.122	40498.66
904.495	44589.5
904.867	45146.33
905.24	39180.68
905.612	36474.77
905.985	37290.65
906.357	38980.78
906.729	37211.92
907.102	31800.99
907.474	30573.52
907.846	30786.59
908.218	30382.2
908.59	26850.86
908.962	25961.23
909.334	27967.81
909.705	29369.22
910.077	28524.85
910.449	29708.03
910.82	30550.39
911.192	33611.17
911.563	34918.03
911.935	37358.59
912.306	37400.95
912.677	38620.33
913.048	38251.89
913.419	41496.3
913.79	41740.55
914.161	44730.27
914.532	42726.01
914.903	39231.89
915.274	37272.88
915.645	36737.86
916.015	32323.38
916.386	30812.68
916.756	32799.99
917.127	33820.45
917.497	30212.07
917.868	32886.83
918.238	31260.69
918.608	32152.32
918.978	32838.25
919.348	34779.19
919.718	35930.68
920.088	34633.03
920.458	36005.51
920.828	37896.91
921.198	35951.29
921.567	38408.39
921.937	29739.93
922.306	30041.35
922.676	32424.06
923.045	27054.47
923.415	25691.17
923.784	23409.61
924.153	24078.52
924.522	24044.77
924.891	22600.66
925.26	24206.65
925.629	23641.12
925.998	27185.02
926.367	26534.58
926.736	25258.98
927.104	30081.35
927.473	32355.3
927.842	39060.71
928.21	38677.02
928.578	40666.25
928.947	38448.28
929.315	38685.63
929.683	45371.89
930.051	45721.52
930.42	53094.23
930.788	45379.83
931.156	45048.78
931.523	42219.06
931.891	39050.56
932.259	37497.89
932.627	43434.17
932.994	61452.27
933.362	50740.25
933.729	44038.5
934.097	42139.01
934.464	35633.54
934.831	41106.24
935.199	40510.73
935.566	39275.75
935.933	39801.84
936.3	48190.97
936.667	37529.9
937.034	33864.35
937.401	33518.35
937.767	28943.31
938.134	25779.37
938.501	36408.63
938.867	38817.25
939.234	65613.66
939.6	56017.15
939.967	61622.69
940.333	41285.43
940.699	35176.43
941.065	28249.47
941.431	37060.9
941.798	35744.63
942.163	46959.55
942.529	29336.7
942.895	27038.46
943.261	17495.19
943.627	22959.47
943.992	20112.66
944.358	20141.42
944.723	20228.3
945.089	19707.35
945.454	18216.83
945.82	19462.45
946.185	18698.93
946.55	21646.31
946.915	19389.64
947.28	22752.85
947.645	20035.06
948.01	18509.71
948.375	19316.91
948.74	23141.3
949.104	27008.6
949.469	39011.8
949.834	68947.27
950.198	65326.53
950.562	39191.09
950.927	32690.34
951.291	39308.16
951.655	33512.5
952.02	31461.85
952.384	23770.5
952.748	20693.78
953.112	20198.01
953.476	17563.37
953.839	16226.46
954.203	16084.78
954.567	20118.71
954.931	31642.87
955.294	27109.17
955.658	27247.38
956.021	46331.41
956.385	78552.99
956.748	115912.03
957.111	179398.98
957.474	201353.74
957.837	226748.73
958.2	171419.83
958.563	61568.53
958.926	41660.94
959.289	63185.58
959.652	70603.87
960.015	52894.49
960.377	75905.38
960.74	86533.43
961.102	149528.68
961.465	160397.04
961.827	86035.98
962.189	164983
962.552	114480.29
962.914	91731.86
963.276	59460.03
963.638	49121.94
964	48672.77
964.362	32901.95
964.724	31795.49
965.085	22659.94
965.447	18595.78
965.809	21172.82
966.17	21204.8
966.532	22931.91
966.893	21064.3
967.255	19161.69
967.616	22581.69
967.977	18077.12
968.338	19760.69
968.699	16247.32
969.061	16249.97
969.421	16353.92
969.782	18351.1
970.143	15502.06
970.504	16056.16
970.865	18236.02
971.225	18656.92
971.586	18278.44
971.946	26080.3
972.307	22602.89
972.667	29511.96
973.027	30400.91
973.388	36857.19
973.748	25057.93
974.108	27269.82
974.468	36916.18
974.828	28440.89
975.188	21918.43
975.548	20147.24
975.907	16906.44
976.267	18951.58
976.627	15970.64
976.986	16550.22
977.346	15776.83
977.705	15193.01
978.064	13833.93
978.424	11504.65
978.783	11889.86
979.142	13557.28
979.501	12964.42
979.86	13698.47
980.219	13211.16
980.578	17008.28
980.937	19020.42
981.296	16927.71
981.654	17409.49
982.013	27128.8
982.371	35201.46
982.73	32887.73
983.088	37170.32
983.447	39717.33
983.805	56733.7
984.163	118494.33
984.521	131397.94
984.879	192736.02
985.237	-313656.78
985.595	302349.09
985.953	75054.13
986.311	43304.53
986.669	25193.96
987.026	21748.65
987.384	29200.84
987.741	30226.31
988.099	21631.36
988.456	17262.65
988.814	16160.19
989.171	14052.33
989.528	13854.85
989.885	14626.4
990.242	11599.59
990.599	14420.69
990.956	11797.32
991.313	8251.47
991.67	6769.28
992.027	7161.5
992.383	6361.09
992.74	5584.76
993.096	5856.41
993.453	6063.87
993.809	6287.71
994.165	8375.49
994.522	7690.05
994.878	8488.47
995.234	10657.23
995.59	10521.12
995.946	9963.83
996.302	11351.58
996.658	13130
997.013	14466.06
997.369	17174.09
997.725	21984.84
998.08	14238.04
998.436	21934.07
998.791	30244.11
999.147	30146.37
999.502	32851.41
999.857	23849.06
1000.212	38894.55
1000.567	55283.23
1000.922	31884.05
1001.277	20268.64
1001.632	15061.82
1001.987	19416.38
1002.342	13901.76
1002.696	11130.25
1003.051	8897.71
1003.406	10814.83
1003.76	10797.67
1004.114	10650.85
1004.469	8968.9
1004.823	7422.03
1005.177	7999.72
1005.531	6334.56
1005.885	5620.31
1006.239	6354.58
1006.593	7947.9
1006.947	10645.13
1007.301	7955.19
1007.655	8644.93
1008.008	6357.02
1008.362	7136.33
1008.715	10172.09
1009.069	9231.07
1009.422	13901.11
1009.776	27770.51
1010.129	18373.98
1010.482	15375.16
1010.835	12979.86
1011.188	27088.18
1011.541	25555.15
1011.894	-155948
1012.247	457961.33
1012.6	31179.05
1012.952	19670.9
1013.305	10103.53
1013.657	7300.28
1014.01	6929.6
1014.362	5729.52
1014.715	5094.24
1015.067	4427.09
1015.419	4328.28
1015.771	3851.64
1016.123	3432.85
1016.475	3529.97
1016.827	3765.69
1017.179	4051.08
1017.531	4093.25
1017.883	4186.03
1018.234	4037.27
1018.586	5108.45
1018.938	5441.38
1019.289	7542.69
1019.64	8619.77
1019.992	8029.75
1020.343	7366.81
1020.694	5831.83
1021.045	5162.02
1021.396	5872.56
1021.747	6305.58
1022.098	7566.9
1022.449	5480.81
1022.8	5041.92
1023.151	3508.72
1023.501	3111.71
1023.852	3383.82
1024.202	3510.8
1024.553	3849.38
1024.903	3780.38
1025.253	3251.22
1025.604	2923.11
1025.954	3621.53
1026.304	4403
1026.654	5178.96
1027.004	7554.98
1027.354	12223.41
1027.703	11504.18
1028.053	15196.85
1028.403	22379.17
1028.753	32246.37
1029.102	43428.2
1029.452	221121.24
1029.801	9468.65
1030.15	6125.12
1030.499	5143.54
897.758	2677.35
901.051	2634.51
904.343	2669.22
907.636	2669.87
910.928	2734.75
914.22	2643.33
917.511	2652.75
920.803	2712.36
924.094	2732.14
927.384	2710.77
930.675	2676.7
933.965	2631.07
937.255	2638.58
940.544	2605.28
943.834	2545.2
947.123	2488.79
950.411	2584.57
953.7	2557.66
956.988	2525.69
960.276	2467.17
963.563	2547.46
966.851	2540.36
970.138	2600.47
973.424	2595.43
976.711	2545.07
979.997	2679.28
983.283	2713.88
986.568	2619.94
989.853	2634.92
993.138	2664.51
996.423	2745.98
999.708	2682.75
1002.992	2749.61
1006.275	2582.1
1009.559	2626.8
1012.842	2742.33
1016.125	2670.5
1019.408	2651.06
1022.69	2739.11
1025.972	2756.73
1029.254	2733.35
1032.536	2665.53
1035.817	2694.35
1039.098	2637.05
1042.379	2778.74
1045.659	2778.63
1048.939	2711.5
1052.219	2732.35
1055.498	2742.04
1058.778	2726.42
1062.057	2712.09
1065.335	2730.41
1068.614	2748.5
1071.892	2729.99
1075.17	2804.26
1078.447	2797.15
1081.724	2786.36
1085.001	2822.23
1088.278	2798.64
1091.554	2811.45
1094.83	2808.64
1098.106	2834.36
1101.382	2879.01
1104.657	2881.85
1107.932	2877.6
1111.206	2840.61
1114.481	2797.05
1117.755	2798.4
1121.029	2779.74
1124.302	2833.21
1127.575	2782.7
1130.848	2768.55
1134.121	2731.58
1137.393	2681.56
1140.665	2749.24
1143.937	2724.26
1147.208	2684.09
1150.48	2723.89
1153.75	2713.46
1157.021	2741.96
1160.291	2710.35
1163.561	2757.31
1166.831	2748.91
1170.101	2779.92
1173.37	2752.3
1176.639	2694.68
1179.907	2752.47
1183.176	2759.39
1186.444	2768.85
1189.711	2795.43
1192.979	2808.72
1196.246	2765.62
1199.513	2783.97
1202.78	2781.61
1206.046	2791.46
1209.312	2817.05
1212.578	2845.32
1215.843	2797.09
1219.108	2771.34
1222.373	2794.35
1225.638	2757.08
1228.902	2739.75
1232.166	2703.27
1235.43	2687.35
1238.693	2709.24
1241.956	2706.53
1245.219	2748.92
1248.482	2737.85
1251.744	2735.55
1255.006	2888.04
1258.268	2838.54
1261.529	2782.73
1264.79	2788.88
1268.051	2895.92
1271.312	2910.79
1274.572	2872.71
1277.832	2860.73
1281.092	2850.19
1284.351	2823.68
1287.61	2800.92
1290.869	2711.5
1294.128	2690.57
1297.386	2779.7
1300.644	2770.46
1303.902	2781.89
1307.159	2636.83
1310.416	2692.84
1313.673	2719.48
1316.93	2706.19
1320.186	2751.42
1323.442	2794.3
1326.697	2786.51
1329.953	2775.44
1333.208	2801.08
1336.463	2781.81
1339.717	2719.78
1342.972	2857.87
1346.226	2832.51
1349.479	2764.72
1352.733	2733.85
1355.986	2757.28
1359.238	2734.34
1362.491	2736.76
1365.743	2742.11
1368.995	2734.99
1372.247	2746.66
1375.498	2774.06
1378.749	2788.67
1382	2744.2
1385.251	2796.88
1388.501	2757.11
1391.751	2740.57
1395	2713.22
1398.25	2746.06
1401.499	2749.96
1404.748	2679
1407.996	2670.24
1411.244	2655.11
1414.492	2636.16
1417.74	2613.42
1420.987	2625.6
1424.234	2683.69
1427.481	2663.5
1430.728	2720.37
1433.974	2693.93
1437.22	2712.19
1440.465	2711.23
1443.711	2674.9
1446.956	2710.77
1450.201	2697.44
1453.445	2746.47
1456.689	2722.8
1459.933	2735.56
1463.177	2768.14
1466.42	2739.61
1469.663	2722.19
1472.906	2716.02
1476.148	2790.87
1479.391	2752.89
1482.633	2719.32
1485.874	2733.21
1489.115	2717.91
1492.356	2722.28
1495.597	2696.86
1498.838	2697.81
1502.078	2667.77
1505.318	2615.15
1508.557	2657.26
1511.797	2635.08
1515.036	2704.49
1518.274	2692.58
1521.513	2661.53
1524.751	2685.96
1527.989	2697.67
1531.227	2711.94
1534.464	2708.8
1537.701	2726.81
1540.938	2745.57
1544.174	2699.08
1547.41	2695.16
1550.646	2733.58
1553.882	2772.45
1557.117	2828.27
1560.352	2840.75
1563.587	2798.74
1566.821	2758.96
1570.055	2792.12
1573.289	2764.37
1576.523	2840.74
1579.756	2844.81
1582.989	2866.41
1586.222	2825.86
1589.454	2863.79
1592.686	2834.18
1595.918	2859.81
1599.15	2848.94
1602.381	2922.92
1605.612	2876.8
1608.843	2975.21
1612.073	2888.53
1615.303	2873.56
1618.533	2864.45
1621.762	2870.49
1624.992	2855.52
1628.221	2842.77
1631.449	2826.92
1634.678	2882.84
1637.906	2835.11
1641.134	2876.81
1644.361	2830.1
1647.588	2817.89
1650.815	2835.71
1654.042	2812.58
1657.269	2841.77
1660.495	2795.39
1663.72	2820.42
1666.946	2783.82
1670.171	2727.44
1673.396	2705.13
1676.621	2692.27
1679.845	2710.01
1683.069	2730.28
1686.293	2773.67
1689.517	2744.19
1692.74	2674.64
1695.963	2704.28
1699.185	2716.98
1702.408	2693.4
1705.63	2735.29
1708.852	2746.56
1712.073	2718.68
1715.294	2706.45
1718.515	2768.57
1721.736	2715.17
1724.956	2710.2
1728.176	2735.15
1731.396	2757.96
1734.616	2745.17
1737.835	2772.24
1741.054	2753.4
1744.272	2745.59
1747.491	2777.98
1750.709	2832.59
1753.927	2734.99
1757.144	2780.29
1760.361	2823.99
1763.578	2814.91
1766.795	2757.36
1770.011	2765.09
1773.227	2805.76
1776.443	2841.06
1779.658	2886.19
1782.874	2829.65
1786.089	2805.54
1789.303	2809.92
1792.518	2814
1795.732	2801.32
1798.945	2814.44
1802.159	2862.08
1805.372	2765.47
1808.585	2751.98
1811.797	2752.57
1815.01	2801.01
1818.222	2802.1
1821.434	2779.41
1824.645	2837.8
1827.856	2824.78
1831.067	2859.86
1834.278	2814.7
1837.488	2798.99
1840.698	2949.82
1843.908	2871.55
1847.117	2834.32
1850.326	2719.79
1853.535	2822.7
1856.744	2845.86
1859.952	2761.12
1863.16	2761.77
1866.368	2786.79
1869.575	2889.44
1872.782	2773.62
1875.989	2712.75
1879.196	2798.53
1882.402	2790.85
1885.608	2832.08
1888.814	2736.59
1892.019	2628.19
1895.224	2679.74
1898.429	2659.14
1901.634	2634.87
1904.838	2615.72
1908.042	2668.07
1911.246	2674.44
1914.449	2605.08
1917.652	2603.61
1920.855	2585.92
1924.058	2633.45
1927.26	2672.39
1930.462	2700.47
1933.664	2729.67
1936.865	2668.55
1940.066	2675.07
1943.267	2619.42
1946.467	2634.16
1949.668	2662.57
1952.868	2730.04
1956.067	2706.75
1959.267	2638.31
1962.466	2667.71
1965.665	2652.53
1968.863	2648.77
1972.061	2660.2
1975.259	2659.13
1978.457	2740.22
1981.654	2698.91
1984.852	2697.6
1988.048	2629.79
1991.245	2634.13
1994.441	2717.94
1997.637	2704.09
2000.833	2687.55
2004.028	2724.36
2007.223	2783.83
2010.418	2760.81
2013.613	2721.45
2016.807	2691.1
2020.001	2700.88
2023.194	2743.61
2026.388	2718.34
2029.581	2663.8
2032.774	2713.87
2035.966	2716.48
2039.158	2649.46
2042.35	2673.35
2045.542	2599.61
2048.733	2699.98
2051.924	2724.66
2055.115	2750.54
2058.306	2693.99
2061.496	2755.23
2064.686	2819.89
2067.875	2730.58
2071.065	2747.46
2074.254	2775.01
2077.442	2725.8
2080.631	2819.47
2083.819	2710.12
2087.007	2690.11
2090.195	2661.02
2093.382	2695.32
2096.569	2674.76
2099.756	2629.29
2102.942	2655.64
2106.128	2661.91
2109.314	2653.67
2112.5	2617.46
2115.685	2587.73
2118.87	2599.6
2122.055	2664.68
2125.239	2631.55
2128.424	2604.95
2131.608	2707.45
2134.791	2688.43
2137.974	2746.68
2141.157	2730.68
2144.34	2680.93
2147.523	2698.59
2150.705	2714.9
2153.887	2694.59
2157.068	2645.84
2160.25	2646.18
2163.431	2686.89
2166.611	2631.16
2169.792	2648.27
2172.972	2540.57
2176.152	2621.39
2179.331	2657.36
2182.511	2638.21
2185.69	2668.23
2188.868	2662.91
2192.047	2716.37
2195.225	2707.64
2198.403	2655.53
2201.58	2649.49
2204.758	2644.86
2207.935	2729.67
2211.111	2616.23
2214.288	2600.2
2217.464	2639.28
2220.64	2609.08
2223.815	2665.25
2226.991	2587.67
2230.166	2608.05
2233.34	2639.35
2236.515	2664.11
2239.689	2737.18
2242.863	2678.17
2246.036	2735.59
2249.209	2733.7
2252.382	2771.15
2255.555	2757.14
2258.727	2692.5
2261.9	2731.36
2265.071	2723.29
2268.243	2725.57
2271.414	2657.19
2274.585	2620.08
2277.756	2690.68
2280.926	2644.79
2284.096	2688.94
2287.266	2593.96
2290.436	2651.99
2293.605	2681.11
2296.774	2715.34
2299.942	2734.42
2303.111	2749.83
2306.279	2798.55
2309.447	2785.02
2312.614	2760.21
2315.781	2778.84
2318.948	2746.87
2322.115	2784.92
2325.281	2686.35
2328.447	2706.96
2331.613	2677.4
2334.779	2650.87
2337.944	2654.78
2341.109	2655.33
2344.274	2635.36
2347.438	2599.46
2350.602	2623.65
2353.766	2643.01
2356.929	2629.38
2360.092	2668.95
2363.255	2621.01
2366.418	2558.6
2369.58	2674.42
2372.742	2457.97
2375.904	2469.3
2379.066	2448.03
2382.227	2484.99
2385.388	2448.02
2388.548	2370.34
2391.709	2425.87
2394.869	2408.11
2398.029	2506.52
2401.188	2515.54
2404.347	2449.2
2407.506	2593.71
2410.665	2623.71
2413.823	2628.32
2416.981	2585.43
2420.139	2615.8
2423.296	2667.57
2426.453	2639.7
2429.61	2665.97
2432.767	2599.29
2435.923	2641.67
2439.079	2601.8
2442.235	2650.11
2445.391	2576.84
2448.546	2607.1
2451.701	2655.22
2454.855	2630.39
2458.009	2681.54
2461.163	2683.91
2464.317	2640.16
2467.471	2674.92
2470.624	2714.9
2473.777	2685.29
2476.929	2697.17
2480.082	2724.84
2483.234	2689.43
2486.385	2642.4
2489.537	2635.8
2492.688	2596
2495.839	2615.29
2498.989	2628.95
2502.14	2611.14
2505.29	2593.09
2508.439	2621.16
2511.589	2546
2514.738	2553.88
2517.887	2584.51
2521.035	2652.62
2524.183	2633.58
2527.331	2614.79
2530.479	2587.88
2533.627	2595.77
