Data from C_3_DEC_OH_4N_Splice17_13-33-50-044.txt Node
Date: Sat Mar 14 13:33:50 EDT 2020
User: sa697716
Spectrometer: FLMS03696
Trigger mode: 0
Integration Time (sec): 3.180400E-1
Scans to average: 20
Electric dark correction enabled: true
Nonlinearity correction enabled: true
Boxcar width: 5
XAxis mode: Wavelengths
Number of Pixels in Spectrum: 2048
>>>>>Begin Spectral Data<<<<<
187.83	-350044.75
188.298	2534.59
188.766	1361.92
189.233	1255.28
189.701	1732.91
190.169	2344.37
190.636	840.14
191.104	693.9
191.571	55.47
192.039	-155.42
192.506	-181.07
192.974	357.76
193.441	-711.96
193.908	-225.21
194.375	-54.76
194.842	-18.5
195.31	51.13
195.777	133.72
196.244	367.57
196.711	440.55
197.177	572.7
197.644	822.43
198.111	1451.31
198.578	2071.45
199.045	1676.13
199.511	2711.96
199.978	3164.72
200.445	2673.64
200.911	2962.75
201.378	3306.08
201.844	3004.42
202.31	5108.85
202.777	5288.26
203.243	2896.36
203.709	2775.2
204.176	3325.59
204.642	2762.45
205.108	2593.73
205.574	2141.26
206.04	1966.08
206.506	1865.3
206.972	1770.78
207.438	1742.58
207.903	2015.22
208.369	1801.43
208.835	1815.17
209.301	1921.66
209.766	2001.48
210.232	2018.57
210.697	2540.04
211.163	3207.29
211.628	4943.84
212.094	4237.53
212.559	5313.84
213.024	3377
213.49	4203.75
213.955	4158.29
214.42	4143.32
214.885	3938.03
215.35	3853.65
215.815	3782.25
216.28	4117.65
216.745	3481.27
217.21	3932.1
217.675	3848.21
218.14	4608.04
218.604	5516.49
219.069	6727.06
219.534	7449.74
219.998	9128.61
220.463	11585.16
220.927	14935.54
221.392	14490.4
221.856	15038.47
222.32	19454.78
222.785	24406.29
223.249	31180.92
223.713	35195.2
224.177	35519.08
224.642	46036.24
225.106	57083.06
225.57	62771.94
226.034	46796.2
226.497	71596.82
226.961	64825.89
227.425	75767.75
227.889	84448.73
228.353	84753.97
228.816	175695.63
229.28	168388.84
229.744	142344.92
230.207	86433.27
230.671	85117.12
231.134	141358.96
231.597	163013.77
232.061	163369.46
232.524	159498.72
232.987	109909.86
233.45	98892.43
233.914	88686.67
234.377	91049.06
234.84	83375.92
235.303	98541.18
235.766	110043.97
236.229	113711.54
236.691	71704.84
237.154	80568.21
237.617	60565.78
238.08	62028.56
238.542	72609.87
239.005	51845.83
239.468	51365.69
239.93	48317.27
240.393	43829.86
240.855	38420.51
241.317	39352.5
241.78	47918.68
242.242	49494.73
242.704	53346.03
243.166	46412.25
243.629	42084.53
244.091	48490.02
244.553	53150
245.015	57120.42
245.477	74000.72
245.939	108620.28
246.4	115256.51
246.862	111899.89
247.324	105514.72
247.786	118294.49
248.247	155272.14
248.709	160665.36
249.17	120286.07
249.632	113279.54
250.093	131391
250.555	113448.21
251.016	69127.19
251.477	65588.01
251.939	70844.33
252.4	74386.95
252.861	88495.37
253.322	82275
253.783	97994.82
254.244	127169.9
254.705	100359.22
255.166	89300.92
255.627	87969.11
256.088	124097.33
256.549	131896.24
257.009	113663.1
257.47	138134.82
257.931	112637.92
258.391	84509.82
258.852	87218.61
259.312	91608.43
259.773	113472.16
260.233	96015.54
260.694	81133.54
261.154	92283.87
261.614	74097.08
262.074	66420.49
262.534	69072.4
262.994	65190.55
263.455	87071.89
263.915	73475.39
264.374	69343.07
264.834	75842.46
265.294	84276.4
265.754	87412.93
266.214	82926.56
266.673	77903.26
267.133	98560.05
267.593	98005.38
268.052	120118.36
268.512	104640.27
268.971	126171.29
269.431	138493.46
269.89	124156.66
270.349	186300.65
270.809	207955.84
271.268	187018.42
271.727	419780.97
272.186	271878.31
272.645	204051.1
273.104	147391.42
273.563	213491.08
274.022	168214.09
274.481	143014.7
274.94	110180.04
275.399	81980.37
275.857	95516.96
276.316	129325.11
276.775	115208.15
277.233	113539.78
277.692	106213.06
278.15	120080.81
278.609	123436.45
279.067	114261.86
279.525	106195.85
279.984	137250.39
280.442	164759.16
280.9	162181.74
281.358	106644.23
281.816	99320.03
282.274	97229.02
282.732	100568.14
283.19	101095.7
283.648	87328.86
284.106	92995.29
284.564	94549.42
285.021	87571.06
285.479	65255.37
285.937	59467.08
286.394	52119.97
286.852	53651.56
287.309	56382.44
287.767	54402.08
288.224	51708.42
288.682	56786.88
289.139	62373.16
289.596	57143.16
290.053	59533.99
290.511	75312.43
290.968	91400.19
291.425	124462.23
291.882	103576.4
292.339	90287.31
292.796	89824.4
293.252	84868.33
293.709	67370.13
294.166	60431.6
294.623	66876.24
295.079	64213.49
295.536	64496.66
295.992	58598.4
296.449	57922.16
296.905	60236.57
297.362	57674.39
297.818	60693.33
298.274	62912.82
298.731	64216.74
299.187	63588.79
299.643	68290.28
300.099	82562.44
300.555	90598.77
301.011	75737.24
301.467	72812.16
301.923	85383.06
302.379	83472.8
302.835	81998.17
303.291	82126.41
303.746	93516.26
304.202	118134.46
304.658	118681.74
305.113	79855.62
305.569	78221.81
306.024	83438.84
306.479	79698.62
306.935	67100.27
307.39	73309.14
307.845	67647.24
308.301	68060.29
308.756	66321.39
309.211	63876.42
309.666	65400.99
310.121	81104.23
310.576	82426.14
311.031	81789.21
311.486	93753.49
311.94	93810.55
312.395	125458.56
312.85	235937.95
313.305	1160504.67
313.759	5990456.97
314.214	434021
314.668	343624.35
315.123	288627.55
315.577	103303.45
316.032	91757.04
316.486	114896.75
316.94	90473.36
317.394	62977.5
317.849	48941
318.303	46394.6
318.757	43839.7
319.211	48554.1
319.665	42587.3
320.119	43192.71
320.572	62095.95
321.026	58058.35
321.48	48346.76
321.934	52852.6
322.387	53011.55
322.841	57206.52
323.295	51243.98
323.748	59141.1
324.202	59899.7
324.655	71821.59
325.108	100052.43
325.562	70615.98
326.015	83969.89
326.468	63448.37
326.921	70952.85
327.374	66092.96
327.827	68823.78
328.28	78023.11
328.733	52206.19
329.186	45931.73
329.639	43791.24
330.092	37002.73
330.545	35219.89
330.997	35470.45
331.45	38711.91
331.903	45257.42
332.355	78039.57
332.808	75944.35
333.26	62667.82
333.713	67968.09
334.165	68458.08
334.617	91466.64
335.069	73969.37
335.522	133903.81
335.974	148305.25
336.426	135620.97
336.878	94105.48
337.33	47620.44
337.782	46462.46
338.234	58096.72
338.686	69599.91
339.137	82514.21
339.589	77719.45
340.041	60861.01
340.493	52313.07
340.944	53596.88
341.396	57694.05
341.847	48453.02
342.299	57184.45
342.75	69747.6
343.201	61128.26
343.653	70411.55
344.104	86742.09
344.555	68338.85
345.006	106792.63
345.457	81607.85
345.908	65003.57
346.359	61200.61
346.81	49966.03
347.261	52768.65
347.712	52094.02
348.163	55931.84
348.613	56492.51
349.064	52740.83
349.515	46213.69
349.965	47330.28
350.416	57131.62
350.866	62732.25
351.317	71091.74
351.767	117759.84
352.217	148676.91
352.668	123313.88
353.118	112929.74
353.568	109227.37
354.018	86229.09
354.468	90808.49
354.918	65110.27
355.368	56989.86
355.818	80499.82
356.268	231628.95
356.718	968221.95
357.168	240926.74
357.617	121085.12
358.067	134822.32
358.517	126288.07
358.966	148131.76
359.416	166143.78
359.865	179767.95
360.315	214354.49
360.764	100043.04
361.213	56031.27
361.663	53236.68
362.112	65830.04
362.561	106350.91
363.01	80218.03
363.459	67553.56
363.908	73220.96
364.357	62091.62
364.806	105028.53
365.255	72243.29
365.703	66134.3
366.152	66182.37
366.601	53576.09
367.05	43396.01
367.498	39399.64
367.947	41155.31
368.395	42813.96
368.844	37852.99
369.292	45806.2
369.74	31575.31
370.189	48353.83
370.637	56691
371.085	48904.64
371.533	59604.52
371.981	57573.83
372.429	54807.83
372.877	57104.52
373.325	47771.45
373.773	48740.31
374.221	43408.8
374.669	53863.21
375.116	46560.62
375.564	46929.5
376.012	52525.6
376.459	43231.08
376.907	51619.06
377.354	62469.88
377.801	58097.48
378.249	66648.73
378.696	85067.98
379.143	102764.47
379.591	109568.26
380.038	184927.96
380.485	133417.96
380.932	143800.94
381.379	131126.31
381.826	96203.33
382.273	68259.95
382.72	59712.75
383.166	58084.92
383.613	37582.11
384.06	33812.67
384.506	39009.5
384.953	28624.95
385.4	28787.11
385.846	25163.11
386.292	24521.89
386.739	23986.2
387.185	23684.95
387.631	23626.72
388.078	22833.48
388.524	24381.35
388.97	22468.36
389.416	18685.88
389.862	19799.1
390.308	18688.72
390.754	18901.25
391.2	20461.04
391.645	20898.94
392.091	19853.52
392.537	19104.9
392.983	19114.39
393.428	18674.77
393.874	19967.17
394.319	19933.57
394.765	18790.4
395.21	19296.42
395.655	18057.6
396.101	16861.08
396.546	15136.14
396.991	15274.31
397.436	14158.33
397.881	13645.5
398.326	12927.73
398.771	12179.81
399.216	10640.29
399.661	9571.81
400.106	9487.01
400.551	9680.54
400.995	8660.52
401.44	8565.68
401.885	8029.48
402.329	8094.36
402.774	7741.38
403.218	7458.87
403.663	7173.16
404.107	7353.82
404.551	7386.91
404.995	6776.18
405.44	6521.52
405.884	6619.55
406.328	6399.7
406.772	6375.33
407.216	5801.39
407.66	5611.58
408.104	5338.29
408.547	4995.56
408.991	4831.96
409.435	4654.52
409.879	4576.27
410.322	4511.31
410.766	4343.56
411.209	4121.24
411.653	3948.93
412.096	3856.53
412.54	3849.84
412.983	3816.27
413.426	3816.64
413.869	3808.17
414.312	3722.65
414.756	3584.81
415.199	3416.44
415.642	3310.12
416.085	3307.58
416.527	3284.95
416.97	3340.98
417.413	3170.09
417.856	3142.18
418.298	3116.13
418.741	3102.54
419.184	3105.03
419.626	3243.52
420.069	3245.43
420.511	3264.98
420.953	3191.93
421.396	3161.65
421.838	3080.3
422.28	3145.83
422.722	3153.16
423.164	3191.07
423.606	3129.73
424.048	3122.16
424.49	2959.95
424.932	2944.31
425.374	2904.83
425.816	2961.69
426.258	3016.8
426.699	3053.53
427.141	3008.15
427.582	3062.53
428.024	3050.72
428.465	3033.01
428.907	2951.34
429.348	2912.6
429.789	2904.5
430.231	2835.94
430.672	2868.32
431.113	2795.64
431.554	2747.16
431.995	2673.34
432.436	2564.08
432.877	2498.58
433.318	2445.69
433.759	2432.31
434.2	2429.72
434.64	2400.52
435.081	2403.17
435.522	2268.32
435.962	2180.89
436.403	2124.31
436.843	2152.82
437.284	2105.29
437.724	2050.17
438.164	2061.76
438.604	2014.45
439.045	1929.72
439.485	1846.16
439.925	1804.01
440.365	1758.62
440.805	1732.97
441.245	1707.32
441.685	1639.74
442.125	1625.74
442.564	1632.13
443.004	1589.33
443.444	1583.63
443.883	1583.97
444.323	1572.8
444.762	1576.48
445.202	1596.69
445.641	1620.65
446.081	1612.02
446.52	1623.93
446.959	1603.29
447.398	1558.82
447.837	1536.36
448.276	1506.66
448.716	1518.32
449.154	1530.47
449.593	1490.55
450.032	1485.15
450.471	1458.06
450.91	1457.61
451.349	1449.14
451.787	1445
452.226	1466.29
452.664	1465.52
453.103	1465.8
453.541	1465.42
453.98	1458.41
454.418	1471.76
454.856	1443.98
455.295	1441.35
455.733	1451.09
456.171	1460.32
456.609	1459.25
457.047	1457.72
457.485	1475.9
457.923	1475.97
458.361	1453.68
458.798	1457.34
459.236	1448.64
459.674	1459.92
460.111	1464.36
460.549	1448.57
460.987	1442.61
461.424	1438.1
461.862	1430.41
462.299	1407.01
462.736	1403.69
463.173	1406.75
463.611	1388.39
464.048	1382.93
464.485	1390.77
464.922	1377.02
465.359	1368.99
465.796	1342.18
466.233	1328.76
466.67	1311.31
467.106	1306.99
467.543	1294.84
467.98	1278.64
468.416	1247.06
468.853	1238.73
469.29	1202.57
469.726	1189.49
470.162	1158.62
470.599	1150.85
471.035	1142.69
471.471	1119.46
471.907	1115
472.344	1109.36
472.78	1112.62
473.216	1128.7
473.652	1117.71
474.088	1116.33
474.523	1114.11
474.959	1126
475.395	1116.07
475.831	1110.29
476.266	1117.12
476.702	1115.74
477.138	1103.61
477.573	1101.39
478.008	1098.47
478.444	1103.16
478.879	1113.08
479.314	1118.96
479.75	1118.79
480.185	1125.26
480.62	1137.1
481.055	1143.57
481.49	1151.88
481.925	1169.56
482.36	1188.35
482.795	1222.15
483.229	1256.95
483.664	1283.95
484.099	1288.04
484.534	1306.97
484.968	1317.83
485.403	1319.98
485.837	1318.02
486.271	1313.89
486.706	1314.02
487.14	1299.44
487.574	1276.27
488.009	1261.74
488.443	1248.44
488.877	1258.16
489.311	1260.38
489.745	1272.41
490.179	1279.76
490.613	1298.38
491.046	1305.76
491.48	1311.24
491.914	1307.21
492.348	1310.82
492.781	1312.93
493.215	1310.26
493.648	1308.14
494.082	1312.68
494.515	1307.29
494.948	1316.03
495.382	1319.2
495.815	1321.93
496.248	1324.96
496.681	1342.36
497.114	1357.43
497.547	1367.54
497.98	1383.12
498.413	1385.2
498.846	1394.04
499.279	1402.72
499.711	1401.76
500.144	1397.58
500.577	1405.66
501.009	1415.45
501.442	1421.62
501.874	1413.15
502.306	1407.65
502.739	1409.23
503.171	1423.83
503.603	1416.89
504.036	1420.33
504.468	1418.89
504.9	1425.45
505.332	1424.79
505.764	1419.58
506.196	1418.77
506.627	1428.53
507.059	1436.45
507.491	1437.47
507.923	1420.73
508.354	1430.04
508.786	1431.74
509.217	1444.59
509.649	1451.73
510.08	1465.44
510.512	1476.12
510.943	1483.91
511.374	1486.41
511.805	1499.29
512.237	1511.76
512.668	1541.66
513.099	1565.3
513.53	1587.44
513.961	1599.36
514.391	1626.22
514.822	1653.35
515.253	1684.78
515.684	1700.59
516.114	1723.52
516.545	1736.02
516.975	1753.92
517.406	1761.62
517.836	1749.99
518.267	1745.57
518.697	1753.73
519.127	1747.48
519.558	1744.24
519.988	1735.41
520.418	1737.37
520.848	1745.9
521.278	1745.05
521.708	1761.24
522.138	1766.36
522.567	1792.78
522.997	1810.93
523.427	1818.48
523.857	1827.36
524.286	1829.61
524.716	1837.72
525.145	1849.66
525.575	1854.36
526.004	1863.79
526.433	1839.32
526.863	1831.48
527.292	1812.72
527.721	1812.33
528.15	1812.98
528.579	1808.33
529.008	1813.91
529.437	1833.11
529.866	1843.02
530.295	1855.77
530.724	1863.21
531.152	1888.33
531.581	1900.01
532.01	1914.29
532.438	1918.88
532.867	1930.72
533.295	1946.91
533.723	1950.86
534.152	1945.99
534.58	1942.05
535.008	1921.76
535.436	1921.61
535.865	1925.61
536.293	1937.63
536.721	1952.62
537.149	1977.19
537.576	1977.86
538.004	1989.02
538.432	1994.33
538.86	1990.41
539.287	1996.12
539.715	2009.45
540.143	2009.43
540.57	2004.33
540.998	1999.28
541.425	1974.96
541.852	1951.76
542.28	1949.01
542.707	1930.65
543.134	1915.87
543.561	1909.63
543.988	1902.84
544.415	1901.93
544.842	1895.96
545.269	1889.47
545.696	1890.44
546.123	1902.84
546.549	1891.75
546.976	1877.3
547.403	1876.07
547.829	1876.98
548.256	1880.55
548.682	1875.82
549.108	1868.27
549.535	1869.2
549.961	1871.42
550.387	1858.81
550.813	1854.01
551.24	1861.35
551.666	1864.62
552.092	1856.16
552.518	1852.26
552.943	1846.64
553.369	1855.72
553.795	1863.25
554.221	1864.84
554.646	1863.6
555.072	1877.2
555.498	1883.63
555.923	1895.4
556.349	1913.25
556.774	1923.99
557.199	1926.58
557.625	1934.74
558.05	1931.32
558.475	1944.5
558.9	1945.3
559.325	1939.44
559.75	1935.66
560.175	1931.52
560.6	1927.05
561.025	1926.98
561.449	1931.52
561.874	1939.57
562.299	1948.38
562.723	1959.85
563.148	1952.96
563.572	1962.8
563.997	1976.88
564.421	1986.2
564.846	1991.2
565.27	1999.14
565.694	2001.12
566.118	2018.65
566.542	2032.82
566.966	2029.56
567.39	2028.18
567.814	2020.87
568.238	2024.67
568.662	2036.44
569.086	2044.24
569.509	2056.73
569.933	2045
570.357	2042.01
570.78	2022.62
571.204	2012.81
571.627	2007.16
572.05	2010.88
572.474	2015.99
572.897	2006.81
573.32	2003.09
573.743	1996.88
574.166	1981.56
574.589	1987.43
575.012	1983.88
575.435	1988.9
575.858	1983.62
576.281	1975.45
576.704	1962.25
577.126	1955
577.549	1947.84
577.972	1940.27
578.394	1933.97
578.817	1931.53
579.239	1913.91
579.661	1903.57
580.084	1890.68
580.506	1880.01
580.928	1880.77
581.35	1873.05
581.772	1871.19
582.194	1859.52
582.616	1847.9
583.038	1834.23
583.46	1825.13
583.882	1825.96
584.303	1834.92
584.725	1832.54
585.147	1838.85
585.568	1854.22
585.99	1871.78
586.411	1882.45
586.833	1903.18
587.254	1910.33
587.675	1930.55
588.096	1948.7
588.518	1946.02
588.939	1928.66
589.36	1929.24
589.781	1918.16
590.202	1886.87
590.623	1879.05
591.043	1877.52
591.464	1864.76
591.885	1861.59
592.305	1857.31
592.726	1842.54
593.147	1845.41
593.567	1840.34
593.987	1833
594.408	1829.67
594.828	1827.84
595.248	1822.51
595.669	1801.64
596.089	1794.32
596.509	1787.3
596.929	1772.22
597.349	1776.38
597.769	1766.62
598.189	1760.93
598.608	1764.26
599.028	1768.26
599.448	1770.2
599.867	1755.85
600.287	1753.19
600.706	1749.55
601.126	1739.38
601.545	1738.77
601.965	1738.4
602.384	1732.75
602.803	1738.9
603.222	1736.16
603.641	1730.31
604.061	1729.04
604.48	1726.55
604.898	1740.34
605.317	1750.07
605.736	1756.74
606.155	1758.57
606.574	1749.29
606.992	1760.23
607.411	1757.48
607.829	1749.6
608.248	1750.19
608.666	1751.34
609.085	1754.99
609.503	1747.23
609.921	1743.19
610.339	1749.66
610.758	1751.76
611.176	1751.87
611.594	1744.54
612.012	1745
612.43	1754.15
612.847	1766.61
613.265	1773.31
613.683	1784.74
614.101	1790.82
614.518	1791.42
614.936	1782.74
615.353	1768.02
615.771	1767.25
616.188	1771.71
616.606	1771.02
617.023	1765.58
617.44	1750.24
617.857	1743.21
618.274	1734.21
618.691	1730.36
619.108	1720.65
619.525	1715.73
619.942	1728.11
620.359	1734.68
620.776	1731.42
621.192	1727.22
621.609	1726.72
622.026	1738.09
622.442	1748.84
622.859	1755.19
623.275	1746.79
623.691	1755.31
624.108	1773.31
624.524	1793.66
624.94	1795.17
625.356	1808.39
625.772	1828.84
626.188	1845.71
626.604	1847.83
627.02	1843.1
627.436	1839.74
627.852	1849.51
628.268	1866.77
628.683	1854.07
629.099	1843.33
629.514	1837.64
629.93	1844.48
630.345	1850.15
630.761	1845.94
631.176	1852.39
631.591	1844.21
632.007	1838.19
632.422	1837.18
632.837	1823.79
633.252	1820.58
633.667	1807.64
634.082	1796.27
634.497	1780.49
634.911	1756.92
635.326	1754.38
635.741	1734.11
636.155	1724.96
636.57	1732.29
636.984	1737.72
637.399	1745.64
637.813	1752.81
638.228	1759.35
638.642	1773.29
639.056	1766.99
639.47	1776.06
639.884	1772.11
640.298	1772.38
640.712	1779.49
641.126	1768.24
641.54	1762.88
641.954	1764.03
642.368	1754.8
642.781	1750.84
643.195	1733.53
643.609	1742.6
644.022	1741.1
644.436	1744.42
644.849	1733.42
645.262	1724.75
645.676	1737.49
646.089	1740.22
646.502	1725.2
646.915	1724.55
647.328	1707.12
647.741	1711.14
648.154	1696.52
648.567	1698.57
648.98	1682.37
649.393	1689.33
649.805	1689.13
650.218	1681.35
650.631	1658.02
651.043	1652.22
651.456	1648.04
651.868	1650.78
652.28	1684.54
652.693	1713.38
653.105	1729.29
653.517	1751.69
653.929	1757.41
654.341	1769.97
654.753	1754.28
655.165	1771.65
655.577	1774.07
655.989	1772.56
656.401	1769.38
656.813	1712.66
657.224	1686.36
657.636	1644.13
658.047	1620.26
658.459	1594.86
658.87	1591.04
659.282	1578.84
659.693	1550.55
660.104	1533.31
660.515	1517.53
660.926	1522.59
661.338	1527.26
661.749	1523.01
662.159	1513.94
662.57	1515.61
662.981	1514.81
663.392	1507.51
663.803	1524.26
664.213	1528.08
664.624	1528.09
665.035	1542.85
665.445	1524.5
665.855	1517.66
666.266	1509.54
666.676	1513.44
667.086	1502.58
667.497	1505.95
667.907	1498.36
668.317	1485.1
668.727	1479.79
669.137	1484.86
669.547	1482.57
669.956	1490.16
670.366	1495.1
670.776	1498.86
671.186	1507.67
671.595	1513.34
672.005	1521.24
672.414	1517.79
672.824	1513.37
673.233	1523.94
673.642	1525.25
674.052	1527.69
674.461	1527.97
674.87	1534.79
675.279	1527.66
675.688	1529.39
676.097	1529.11
676.506	1520.97
676.915	1548.85
677.323	1550.26
677.732	1544.01
678.141	1540.28
678.549	1516.2
678.958	1512.84
679.366	1507.79
679.775	1512.89
680.183	1524.21
680.592	1530.38
681	1534.73
681.408	1513.99
681.816	1521.29
682.224	1530.89
682.632	1540.81
683.04	1587.42
683.448	1620.38
683.856	1664.31
684.264	1714.03
684.671	1758
685.079	1810.79
685.487	1868.03
685.894	1955.13
686.302	2018.97
686.709	2061.81
687.116	2114.86
687.524	2146.8
687.931	2167.27
688.338	2176.52
688.745	2177.24
689.152	2184.76
689.559	2206.58
689.966	2222.68
690.373	2205.45
690.78	2215.59
691.187	2256.29
691.593	2272.44
692	2281.32
692.407	2316.91
692.813	2369.26
693.22	2399.69
693.626	2428.32
694.032	2443.23
694.439	2491.66
694.845	2520.4
695.251	2567.8
695.657	2604.17
696.063	2679.39
696.469	2723.83
696.875	2761.19
697.281	2765.47
697.687	2781.93
698.093	2793.25
698.498	2842.63
698.904	2872.39
699.31	2934.43
699.715	2969.28
700.12	3035.01
700.526	3026.22
700.931	3070.82
701.337	3096.98
701.742	3104.89
702.147	3163.95
702.552	3170.56
702.957	3205.28
703.362	3203.37
703.767	3208.68
704.172	3225.75
704.577	3160.5
704.981	3184.64
705.386	3180.91
705.791	3155.67
706.195	3208.27
706.6	3200.44
707.004	3255.77
707.408	3210.48
707.813	3219.15
708.217	3192.83
708.621	3180.66
709.025	3254.3
709.43	3241.81
709.834	3283.63
710.237	3335.47
710.641	3309.75
711.045	3317.99
711.449	3303.85
711.853	3321
712.256	3346.62
712.66	3369.65
713.064	3422.8
713.467	3448.64
713.87	3536.17
714.274	3562.99
714.677	3645.39
715.08	3774.48
715.484	3906.12
715.887	4066.58
716.29	4222.85
716.693	4389.38
717.096	4579.36
717.499	4677.63
717.901	4686.73
718.304	4697.29
718.707	4707.77
719.109	4611.61
719.512	4574.69
719.915	4455.19
720.317	4401.61
720.719	4429.03
721.122	4396.36
721.524	4349.12
721.926	4313.61
722.328	4389.83
722.731	4375.01
723.133	4392.47
723.535	4543.21
723.937	4550.57
724.338	4586.32
724.74	4611.43
725.142	4584.56
725.544	4577.5
725.945	4598.05
726.347	4584.21
726.748	4572.93
727.15	4576.89
727.551	4541.17
727.952	4511.99
728.354	4482.61
728.755	4474.54
729.156	4434.41
729.557	4388.87
729.958	4284.77
730.359	4227.61
730.76	4209.5
731.161	4156.11
731.562	4133.71
731.962	4131.51
732.363	4078.15
732.763	4028.11
733.164	4055.31
733.564	3999.94
733.965	3921.68
734.365	3893.38
734.766	3917.14
735.166	3887.08
735.566	3843.11
735.966	3821.26
736.366	3815.29
736.766	3763.84
737.166	3784.55
737.566	3750.39
737.966	3729.02
738.365	3759.67
738.765	3755.24
739.165	3693.68
739.564	3669.21
739.964	3703.09
740.363	3666.86
740.763	3664.4
741.162	3655.82
741.561	3630.73
741.96	3592.26
742.36	3606.45
742.759	3609.13
743.158	3638.26
743.557	3648.4
743.955	3680.25
744.354	3644.7
744.753	3687.68
745.152	3654.76
745.55	3697.63
745.949	3691.61
746.348	3695.18
746.746	3705.91
747.144	3676.18
747.543	3658.01
747.941	3696.22
748.339	3640.39
748.737	3633.94
749.136	3627.96
749.534	3678.13
749.932	3659.1
750.33	3679.12
750.727	3720.39
751.125	3701.82
751.523	3686.94
751.921	3719.84
752.318	3694.55
752.716	3740.85
753.113	3750.03
753.511	3766.93
753.908	3766.46
754.305	3752.84
754.703	3799.06
755.1	3849.21
755.497	3896.4
755.894	4045.56
756.291	4182.84
756.688	4437.03
757.085	4774.72
757.482	5254.97
757.878	5778.71
758.275	6251.63
758.672	6897.24
759.068	7422.19
759.465	8169.13
759.861	9140.65
760.258	10263.13
760.654	10843.58
761.05	10754.97
761.447	10266.55
761.843	9556.12
762.239	8827.6
762.635	8495.25
763.031	8176.16
763.427	7723.6
763.822	7241.23
764.218	6765.57
764.614	6151.03
765.01	5739.52
765.405	5472.68
765.801	5269.44
766.196	5010.43
766.592	4865.13
766.987	4622.17
767.382	4457.67
767.778	4387.77
768.173	4288.93
768.568	4233.47
768.963	4135.21
769.358	4148.7
769.753	4112.47
770.148	4050.49
770.542	4052.81
770.937	4027.58
771.332	4099.91
771.726	4116.79
772.121	4073.52
772.515	4117.25
772.91	4107.74
773.304	4165.04
773.699	4117.13
774.093	4160.47
774.487	4201.08
774.881	4235.52
775.275	4235.32
775.669	4203.54
776.063	4238.45
776.457	4264.5
776.851	4209.44
777.245	4204.66
777.638	4231.91
778.032	4320.53
778.425	4293.82
778.819	4330.08
779.212	4297.82
779.606	4268.48
779.999	4283.74
780.392	4271.54
780.786	4334.87
781.179	4347.33
781.572	4378.87
781.965	4386.65
782.358	4342.17
782.751	4384.47
783.143	4346.95
783.536	4401.82
783.929	4430.56
784.322	4521.26
784.714	4545.25
785.107	4540.41
785.499	4599.03
785.891	4586.72
786.284	4572.99
786.676	4685.33
787.068	4671.91
787.46	4715.85
787.852	4731.55
788.245	4799.27
788.636	4819.1
789.028	4872.48
789.42	4907.02
789.812	4913.05
790.204	4981.94
790.595	5063.08
790.987	4907.43
791.378	4929.64
791.77	5026.89
792.161	5134.33
792.553	5177.17
792.944	5093.54
793.335	5038.6
793.726	5094.34
794.117	5165.06
794.508	5276.7
794.899	5250.83
795.29	5362.21
795.681	5403.81
796.072	5291.33
796.463	5162.57
796.853	5176.27
797.244	5299.81
797.634	5327.37
798.025	5328.27
798.415	5338.28
798.806	5410.37
799.196	5479.5
799.586	5525.6
799.976	5500.11
800.366	5684.67
800.756	5858.52
801.146	5825.45
801.536	5850.26
801.926	5911.74
802.316	5935.76
802.706	5994.5
803.095	5899.58
803.485	5982.07
803.874	6014.17
804.264	6218.02
804.653	6200.36
805.043	6314.88
805.432	6406.16
805.821	6409.88
806.21	6430.47
806.599	6520.32
806.988	6560.57
807.377	6641.85
807.766	6746.45
808.155	6968.51
808.544	6763.48
808.933	6777.53
809.321	6763.75
809.71	6996.19
810.098	7124.69
810.487	7488.03
810.875	7866.04
811.264	7884.13
811.652	8123.26
812.04	8238.57
812.428	8374.35
812.816	8967.03
813.204	9295.75
813.592	9731.83
813.98	9993.5
814.368	9915.86
814.756	10293.45
815.144	10235.18
815.531	10602.43
815.919	10536.1
816.306	10773.43
816.694	10522.83
817.081	10571.83
817.469	10842.31
817.856	10840.61
818.243	11051.79
818.63	11360.76
819.017	11031.71
819.404	11078.84
819.791	11371.92
820.178	11853.44
820.565	12053.98
820.952	12793.99
821.339	12408.19
821.725	12553.66
822.112	11967.21
822.498	11943.28
822.885	12043.39
823.271	11961.58
823.657	12290.81
824.044	12306.04
824.43	12368.28
824.816	12349.17
825.202	12002.1
825.588	12799.94
825.974	12814.85
826.36	13223.18
826.746	13240.67
827.132	13514.41
827.517	13501.21
827.903	12885.32
828.289	12909.56
828.674	12291.98
829.06	12198.95
829.445	12504.05
829.83	12787.15
830.216	13156.41
830.601	13435.86
830.986	13120.42
831.371	13009.84
831.756	13436.07
832.141	13102.46
832.526	13095.68
832.911	13317.57
833.295	13223.49
833.68	13593.54
834.065	13107.57
834.449	12392.32
834.834	12336.26
835.218	12331.59
835.603	12602.47
835.987	12434.55
836.371	13075.23
836.755	12991.45
837.139	13299.41
837.524	13489.98
837.908	13341.63
838.291	13382.39
838.675	13433.7
839.059	13589.69
839.443	13568.15
839.827	13380.18
840.21	13761.85
840.594	13647.32
840.977	13808.48
841.361	13798.66
841.744	14079.97
842.127	13950.68
842.511	14134.6
842.894	14592.54
843.277	14887.86
843.66	15312.44
844.043	15391.04
844.426	14760.19
844.809	14518.67
845.191	14542.58
845.574	14172.88
845.957	13894.93
846.339	13819.63
846.722	13409.69
847.104	13455.18
847.487	13316.45
847.869	13321.64
848.252	13524.93
848.634	13772.71
849.016	13974.88
849.398	14063.47
849.78	14721.55
850.162	14721.85
850.544	15041.86
850.926	15534.32
851.307	15465.69
851.689	15688.53
852.071	16043.48
852.452	16300.14
852.834	16283.14
853.215	16588.42
853.597	16707.77
853.978	16945.74
854.359	17299.95
854.741	16526.85
855.122	16442.57
855.503	16219.96
855.884	16320.56
856.265	16277.33
856.646	16362.21
857.026	16058.1
857.407	16004.1
857.788	16122.25
858.169	16330.07
858.549	15679.94
858.93	16164.71
859.31	16205.82
859.69	16368.86
860.071	16055.7
860.451	15886.14
860.831	15319.6
861.211	16220.16
861.591	16644.43
861.971	16624.58
862.351	16780.83
862.731	17071.1
863.111	17277.87
863.491	17539.98
863.87	18224.5
864.25	18490.24
864.629	18182.23
865.009	18571.09
865.388	19239.62
865.768	20619.25
866.147	20551.43
866.526	19418.38
866.905	19660.11
867.284	20750.56
867.663	19692.74
868.042	18865.87
868.421	18808.65
868.8	19111.94
869.179	19312.77
869.558	18178.64
869.936	16767.71
870.315	17061.67
870.693	17484.93
871.072	18844.38
871.45	17948.39
871.828	18184.19
872.207	19119.81
872.585	18822.07
872.963	19333.06
873.341	18656.05
873.719	18441.79
874.097	18206.12
874.475	18540.2
874.853	18949.5
875.23	18162.71
875.608	18929.54
875.986	20474.22
876.363	19580.31
876.741	20191.01
877.118	19686.84
877.495	20653.53
877.873	20989.14
878.25	22093.35
878.627	21198.28
879.004	21484.71
879.381	21366.05
879.758	20811.56
880.135	19366.8
880.512	20482.01
880.889	19926.34
881.265	19721.43
881.642	19551.22
882.019	19868.97
882.395	19454.95
882.772	20227.18
883.148	19359.3
883.524	19288
883.901	19170.55
884.277	19466.79
884.653	19341.39
885.029	19900.02
885.405	22034.87
885.781	21863.93
886.157	20975.47
886.532	21243.22
886.908	21233.11
887.284	23599.71
887.659	24365.41
888.035	25108.94
888.411	25743.75
888.786	26078.22
889.161	26982.83
889.537	26478.24
889.912	27326.63
890.287	27297.25
890.662	27999.05
891.037	27481.38
891.412	25615.3
891.787	25358.05
892.162	24476.85
892.536	25039.78
892.911	24098.44
893.286	23578.17
893.66	22625.71
894.035	23200.03
894.409	25254.27
894.784	24233.67
895.158	24635.73
895.532	26104.23
895.906	26812.73
896.281	27447.46
896.655	27021.43
897.029	30871.83
897.402	32140.16
897.776	35767.82
898.15	35628.74
898.524	35229
898.898	35664.43
899.271	39921.04
899.645	34573.24
900.018	33208.56
900.392	34427.25
900.765	34687.94
901.138	32097.5
901.511	31610.02
901.884	29039.63
902.258	26786.87
902.631	27696.58
903.003	31874.23
903.376	28766.96
903.749	32254.59
904.122	34516.7
904.495	37997.89
904.867	38453.63
905.24	33386.33
905.612	31078.55
905.985	31746.15
906.357	33198.1
906.729	31681.77
907.102	27078.42
907.474	26037.1
907.846	26206.16
908.218	25863.66
908.59	22859.2
908.962	22118.81
909.334	23824.16
909.705	25036.44
910.077	24327.06
910.449	25344.57
910.82	26056.95
911.192	28660.92
911.563	29778.92
911.935	31864.88
912.306	31906.48
912.677	32963.37
913.048	32661.29
913.419	35431.76
913.79	35645.09
914.161	38215.24
914.532	36488.42
914.903	33524.5
915.274	31860.17
915.645	31399.56
916.015	27633.67
916.386	26357.36
916.756	28052.79
917.127	28931.13
917.497	25839.27
917.868	28114.75
918.238	26740.76
918.608	27533.71
918.978	28111.95
919.348	29762.16
919.718	30757.34
920.088	29631.47
920.458	30797.67
920.828	32405.47
921.198	30708.17
921.567	32829.22
921.937	25441.79
922.306	25663.92
922.676	27659.15
923.045	23079.91
923.415	21924.64
923.784	19959.87
924.153	20529.24
924.522	20510.1
924.891	19266.98
925.26	20642.82
925.629	20138.82
925.998	23151.62
926.367	22598.42
926.736	21537.11
927.104	25637.08
927.473	27548.05
927.842	33278.3
928.21	32923.97
928.578	34585.89
928.947	32700.16
929.315	32877.17
929.683	38575.87
930.051	38835.23
930.42	45052.09
930.788	38467.58
931.156	38154.75
931.523	35790.04
931.891	33050.38
932.259	31748.7
932.627	36792.49
932.994	52053.74
933.362	43055.22
933.729	37377.25
934.097	35777.98
934.464	30270.09
934.831	34899.18
935.199	34387.49
935.566	33347.94
935.933	33715.58
936.3	40847.46
936.667	31771.17
937.034	28698.82
937.401	28346.43
937.767	24449.81
938.134	21764.33
938.501	30738.57
938.867	32759.7
939.234	55420.58
939.6	47211.32
939.967	52140.02
940.333	34853.14
940.699	29651.63
941.065	23728.9
941.431	31122.27
941.798	30009.9
942.163	39387.95
942.529	24550.2
942.895	22608.15
943.261	14623.65
943.627	19176.73
943.992	16794.64
944.358	16836.89
944.723	16931.17
945.089	16517.84
945.454	15262.14
945.82	16282.34
946.185	15648.46
946.55	18153.2
946.915	16259.75
947.28	19046
947.645	16762.13
948.01	15476.87
948.375	16155.1
948.74	19347.06
949.104	22552.61
949.469	32543.5
949.834	57511.45
950.198	54520.57
950.562	32672.4
950.927	27251.23
951.291	32793.43
951.655	27938.22
952.02	26202.38
952.384	19802.65
952.748	17248.21
953.112	16837.95
953.476	14645.48
953.839	13540.54
954.203	13428.92
954.567	16782.87
954.931	26408.81
955.294	22618.21
955.658	22735.52
956.021	38683.67
956.385	65470.05
956.748	96565.11
957.111	149491.57
957.474	167731.79
957.837	188787.47
958.2	142614.69
958.563	51312.54
958.926	34707.76
959.289	52627.1
959.652	58846.47
960.015	44211.2
960.377	63526.76
960.74	72425.02
961.102	125025.14
961.465	134413.52
961.827	72278.76
962.189	138738.44
962.552	96195.23
962.914	77066.5
963.276	49998.79
963.638	41291.34
964	40844.39
964.362	27599.17
964.724	26684.22
965.085	19052.1
965.447	15611.65
965.809	17742.85
966.17	17729.94
966.532	19180.08
966.893	17592.28
967.255	16011.59
967.616	18911.17
967.977	15132.72
968.338	16511.79
968.699	13578.53
969.061	13558.2
969.421	13621.74
969.782	15259.71
970.143	12921.74
970.504	13408.6
970.865	15260.33
971.225	15599.52
971.586	15265.05
971.946	21757.4
972.307	18896.16
972.667	24662.79
973.027	25403.23
973.388	30816.54
973.748	20986.4
974.108	22815.35
974.468	30766.85
974.828	23793.58
975.188	18306.02
975.548	16811.62
975.907	14117.15
976.267	15831.39
976.627	13334.6
976.986	13816.51
977.346	13174.96
977.705	12686.18
978.064	11571.67
978.424	9645.26
978.783	9926.16
979.142	11341.15
979.501	10869.7
979.86	11499.87
980.219	11077.21
980.578	14257.44
980.937	15979.81
981.296	14256.33
981.654	14654.17
982.013	22800.54
982.371	29616.82
982.73	27702.85
983.088	31336.87
983.447	33404.05
983.805	47717.7
984.163	99704.8
984.521	110744.93
984.879	162149.86
985.237	-263863.39
985.595	254336
985.953	63098.37
986.311	36371.68
986.669	21075.52
987.026	18182.4
987.384	24433.38
987.741	25226.43
988.099	18059.02
988.456	14404.91
988.814	13500.34
989.171	11730.59
989.528	11549.82
989.885	12180.62
990.242	9630.73
990.599	12000.18
990.956	9824.69
991.313	6879.53
991.67	5654.64
992.027	6021.31
992.383	5340.07
992.74	4694.04
993.096	4926.39
993.453	5108.01
993.809	5302.99
994.165	7084.68
994.522	6541.76
994.878	7212.19
995.234	9022.38
995.59	8900.26
995.946	8368.92
996.302	9557.58
996.658	10995.17
997.013	12103.88
997.369	14406.28
997.725	18440.27
998.08	11938.83
998.436	18285.21
998.791	25232.33
999.147	25216.06
999.502	27492.54
999.857	19985.92
1000.212	32553.54
1000.567	46638.78
1000.922	26835.52
1001.277	17008.93
1001.632	12620
1001.987	16233
1002.342	11629.99
1002.696	9299.41
1003.051	7447.03
1003.406	9049.47
1003.76	9025.1
1004.114	8905.29
1004.469	7467.7
1004.823	6205.82
1005.177	6703.45
1005.531	5310.48
1005.885	4727.85
1006.239	5355.84
1006.593	6740.3
1006.947	8998.6
1007.301	6735.36
1007.655	7327.24
1008.008	5398.3
1008.362	6082.42
1008.715	8692.26
1009.069	7890.74
1009.422	11895.16
1009.776	23816.64
1010.129	15735.5
1010.482	13068.99
1010.835	11080.48
1011.188	23025.47
1011.541	21701.38
1011.894	-131958.08
1012.247	387612.41
1012.6	26236.54
1012.952	16597.58
1013.305	8567.96
1013.657	6188.47
1014.01	5870.51
1014.362	4851.39
1014.715	4322.34
1015.067	3781.69
1015.419	3714.56
1015.771	3319.77
1016.123	2950.04
1016.475	3045.21
1016.827	3246.36
1017.179	3490.11
1017.531	3521.6
1017.883	3591.29
1018.234	3490.43
1018.586	4400.27
1018.938	4696.74
1019.289	6444.45
1019.64	7339.01
1019.992	6835.31
1020.343	6248.92
1020.694	4940.92
1021.045	4372.79
1021.396	4993.54
1021.747	5375.47
1022.098	6399.41
1022.449	4661.24
1022.8	4290.91
1023.151	3012.94
1023.501	2675.87
1023.852	2935.6
1024.202	3051.04
1024.553	3340.16
1024.903	3274.08
1025.253	2814.42
1025.604	2545.35
1025.954	3162.23
1026.304	3838.87
1026.654	4464.92
1027.004	6508.19
1027.354	10469.49
1027.703	9801.45
1028.053	12924.47
1028.403	19089.71
1028.753	27519.29
1029.102	37012.89
1029.452	188845.07
1029.801	8151.8
1030.15	5254.54
1030.499	4446.97
897.758	3230.51
901.051	3219.69
904.343	3254.01
907.636	3245.63
910.928	3311.27
914.22	3213.84
917.511	3226.8
920.803	3313.15
924.094	3357.32
927.384	3308.99
930.675	3272.48
933.965	3216.12
937.255	3205.39
940.544	3173.22
943.834	3034.1
947.123	2994.63
950.411	3099.46
953.7	3060.91
956.988	3006.82
960.276	2954.39
963.563	3076.57
966.851	3055.64
970.138	3131.46
973.424	3107.08
976.711	3055.25
979.997	3301.26
983.283	3316.93
986.568	3187.73
989.853	3234.66
993.138	3262.57
996.423	3342.83
999.708	3253
1002.992	3366.34
1006.275	3104.56
1009.559	3209.58
1012.842	3346.53
1016.125	3247.94
1019.408	3224.95
1022.69	3350.83
1025.972	3354.02
1029.254	3320.63
1032.536	3214.82
1035.817	3260.25
1039.098	3163.33
1042.379	3423.05
1045.659	3375.06
1048.939	3284.26
1052.219	3328.71
1055.498	3358.68
1058.778	3327.08
1062.057	3319.63
1065.335	3338.88
1068.614	3369
1071.892	3330.55
1075.17	3435.15
1078.447	3408.43
1081.724	3391.99
1085.001	3444.96
1088.278	3410.57
1091.554	3431.47
1094.83	3430.48
1098.106	3450.12
1101.382	3512.64
1104.657	3514.26
1107.932	3509.71
1111.206	3456.73
1114.481	3417.73
1117.755	3426.9
1121.029	3389.31
1124.302	3430.87
1127.575	3363.44
1130.848	3339.45
1134.121	3288.07
1137.393	3219.43
1140.665	3299.78
1143.937	3274.94
1147.208	3190.05
1150.48	3207.65
1153.75	3190.79
1157.021	3259.95
1160.291	3216.97
1163.561	3253.75
1166.831	3275.2
1170.101	3311.37
1173.37	3310.46
1176.639	3231.6
1179.907	3310.06
1183.176	3349.95
1186.444	3360.39
1189.711	3390.89
1192.979	3388.16
1196.246	3351.29
1199.513	3374.03
1202.78	3365.09
1206.046	3370.77
1209.312	3395.26
1212.578	3433.36
1215.843	3359.29
1219.108	3345.25
1222.373	3367.77
1225.638	3315.1
1228.902	3291.5
1232.166	3269.2
1235.43	3245.13
1238.693	3262.95
1241.956	3269.86
1245.219	3297.22
1248.482	3301.11
1251.744	3292.48
1255.006	3475.16
1258.268	3441.67
1261.529	3372.69
1264.79	3387.95
1268.051	3503.58
1271.312	3523.99
1274.572	3478.62
1277.832	3468.52
1281.092	3474.39
1284.351	3420.66
1287.61	3393.2
1290.869	3280.75
1294.128	3226.8
1297.386	3367.71
1300.644	3353.69
1303.902	3363.49
1307.159	3209.95
1310.416	3268.19
1313.673	3287.02
1316.93	3254.97
1320.186	3322.03
1323.442	3378.43
1326.697	3350.12
1329.953	3367.18
1333.208	3376.96
1336.463	3362.91
1339.717	3285.57
1342.972	3387.15
1346.226	3388.19
1349.479	3301.22
1352.733	3252.22
1355.986	3301.15
1359.238	3271.22
1362.491	3270.62
1365.743	3276.81
1368.995	3276.22
1372.247	3290.36
1375.498	3309.01
1378.749	3360.75
1382	3308.96
1385.251	3383.16
1388.501	3359.28
1391.751	3322.46
1395	3305.04
1398.25	3347.52
1401.499	3340.15
1404.748	3251.52
1407.996	3177.49
1411.244	3172.19
1414.492	3144.01
1417.74	3117.32
1420.987	3140.94
1424.234	3193.4
1427.481	3195.06
1430.728	3250.62
1433.974	3225.74
1437.22	3259.12
1440.465	3263.22
1443.711	3258.46
1446.956	3293.08
1450.201	3305.54
1453.445	3349.89
1456.689	3311.42
1459.933	3327.35
1463.177	3355.59
1466.42	3323.05
1469.663	3302.02
1472.906	3266.33
1476.148	3410.44
1479.391	3298.1
1482.633	3285.33
1485.874	3276.47
1489.115	3240.79
1492.356	3268.89
1495.597	3239.48
1498.838	3252.64
1502.078	3200.73
1505.318	3118.93
1508.557	3173.49
1511.797	3084.99
1515.036	3253.11
1518.274	3236.33
1521.513	3227.44
1524.751	3257.84
1527.989	3262.56
1531.227	3264.57
1534.464	3230.38
1537.701	3284.34
1540.938	3313.31
1544.174	3270.26
1547.41	3282.87
1550.646	3318.71
1553.882	3336.98
1557.117	3385.63
1560.352	3411.3
1563.587	3358.27
1566.821	3308.36
1570.055	3370.46
1573.289	3324.61
1576.523	3423.21
1579.756	3420.3
1582.989	3432.8
1586.222	3389.06
1589.454	3441.49
1592.686	3404.44
1595.918	3424.3
1599.15	3399.13
1602.381	3515.6
1605.612	3433.99
1608.843	3535.69
1612.073	3434.07
1615.303	3413.51
1618.533	3392.96
1621.762	3407.43
1624.992	3409.54
1628.221	3369.2
1631.449	3357.22
1634.678	3453.32
1637.906	3389.71
1641.134	3446.97
1644.361	3390.3
1647.588	3376.56
1650.815	3385.98
1654.042	3384.19
1657.269	3421.29
1660.495	3365.15
1663.72	3323.06
1666.946	3306.54
1670.171	3207.2
1673.396	3187.3
1676.621	3184.83
1679.845	3237.95
1683.069	3276.91
1686.293	3337.9
1689.517	3287.15
1692.74	3180.11
1695.963	3200.93
1699.185	3287.63
1702.408	3237.81
1705.63	3295.4
1708.852	3298.38
1712.073	3270.42
1715.294	3228.72
1718.515	3269.57
1721.736	3207.86
1724.956	3185.28
1728.176	3218.84
1731.396	3235.64
1734.616	3237.13
1737.835	3244.25
1741.054	3240.25
1744.272	3239.41
1747.491	3250.16
1750.709	3341.95
1753.927	3229.12
1757.144	3294.79
1760.361	3352.6
1763.578	3366.86
1766.795	3297.58
1770.011	3320.3
1773.227	3384.51
1776.443	3411.4
1779.658	3453.7
1782.874	3404.26
1786.089	3364.64
1789.303	3369.15
1792.518	3385.83
1795.732	3372.69
1798.945	3374.48
1802.159	3437.14
1805.372	3292.43
1808.585	3262.22
1811.797	3266.57
1815.01	3349.31
1818.222	3352.65
1821.434	3236.32
1824.645	3342.82
1827.856	3295.66
1831.067	3344.32
1834.278	3279.65
1837.488	3267.01
1840.698	3449.81
1843.908	3351.84
1847.117	3310.72
1850.326	3136
1853.535	3279.73
1856.744	3398.06
1859.952	3278.04
1863.16	3277.86
1866.368	3305.61
1869.575	3448.42
1872.782	3337.64
1875.989	3286.06
1879.196	3418.42
1882.402	3414.5
1885.608	3468.6
1888.814	3324.95
1892.019	3205.91
1895.224	3261.72
1898.429	3261.77
1901.634	3230.97
1904.838	3219.58
1908.042	3260.59
1911.246	3258.96
1914.449	3149.65
1917.652	3168.13
1920.855	3152.05
1924.058	3230.24
1927.26	3256.06
1930.462	3294.39
1933.664	3305.07
1936.865	3237.31
1940.066	3230.5
1943.267	3179.57
1946.467	3206.2
1949.668	3242.36
1952.868	3306.34
1956.067	3266.85
1959.267	3189.36
1962.466	3222.2
1965.665	3210.84
1968.863	3207.07
1972.061	3240.77
1975.259	3245.29
1978.457	3332.71
1981.654	3283.76
1984.852	3283.5
1988.048	3187.55
1991.245	3208.14
1994.441	3288.5
1997.637	3308.14
2000.833	3288.81
2004.028	3336.34
2007.223	3378.38
2010.418	3341.29
2013.613	3311.07
2016.807	3249.56
2020.001	3272.08
2023.194	3349.76
2026.388	3313.47
2029.581	3261.94
2032.774	3292.87
2035.966	3285.27
2039.158	3195.16
2042.35	3231
2045.542	3159.8
2048.733	3288.66
2051.924	3349.89
2055.115	3395.93
2058.306	3305.35
2061.496	3372.4
2064.686	3457.09
2067.875	3374.23
2071.065	3409.01
2074.254	3447.44
2077.442	3397.66
2080.631	3497.81
2083.819	3332.53
2087.007	3298.31
2090.195	3250.25
2093.382	3310.08
2096.569	3285.3
2099.756	3225.9
2102.942	3227.13
2106.128	3212.04
2109.314	3212.96
2112.5	3146.05
2115.685	3132.08
2118.87	3146.62
2122.055	3222.09
2125.239	3167
2128.424	3123.21
2131.608	3284.03
2134.791	3262.06
2137.974	3349.44
2141.157	3333.08
2144.34	3255.09
2147.523	3282.91
2150.705	3277.69
2153.887	3275.46
2157.068	3195.07
2160.25	3225.35
2163.431	3288.02
2166.611	3197.42
2169.792	3210.36
2172.972	3080.89
2176.152	3196.82
2179.331	3241.13
2182.511	3216.38
2185.69	3250.75
2188.868	3232.87
2192.047	3318.29
2195.225	3277.29
2198.403	3218.96
2201.58	3225.83
2204.758	3226.25
2207.935	3319.87
2211.111	3172.26
2214.288	3152.04
2217.464	3199.67
2220.64	3192.55
2223.815	3257.45
2226.991	3164.62
2230.166	3189.34
2233.34	3204.54
2236.515	3244.34
2239.689	3336.88
2242.863	3268.15
2246.036	3332.19
2249.209	3353.02
2252.382	3405.02
2255.555	3372.56
2258.727	3288.6
2261.9	3339.44
2265.071	3330.37
2268.243	3345.2
2271.414	3253.52
2274.585	3181.05
2277.756	3262.14
2280.926	3217.36
2284.096	3275.16
2287.266	3150.94
2290.436	3220.72
2293.605	3259.24
2296.774	3281.83
2299.942	3323.51
2303.111	3336.36
2306.279	3380.17
2309.447	3371.81
2312.614	3352.1
2315.781	3364.53
2318.948	3322.2
2322.115	3367.22
2325.281	3261.92
2328.447	3302.37
2331.613	3280.76
2334.779	3230.36
2337.944	3247.48
2341.109	3239.56
2344.274	3213.14
2347.438	3175.09
2350.602	3210.21
2353.766	3231.21
2356.929	3211.24
2360.092	3260.91
2363.255	3187.44
2366.418	3076.94
2369.58	3253.3
2372.742	2925.83
2375.904	2963.89
2379.066	2927.09
2382.227	2976.04
2385.388	2932.04
2388.548	2833.25
2391.709	2908.86
2394.869	2875.22
2398.029	3033.48
2401.188	3067.97
2404.347	2963.95
2407.506	3181.8
2410.665	3203.29
2413.823	3235.24
2416.981	3162.51
2420.139	3216.94
2423.296	3277.47
2426.453	3250.43
2429.61	3279.65
2432.767	3163.58
2435.923	3218.46
2439.079	3097.79
2442.235	3190.73
2445.391	3094.99
2448.546	3100.1
2451.701	3173.16
2454.855	3109.1
2458.009	3192.71
2461.163	3212.69
2464.317	3156.07
2467.471	3198.85
2470.624	3239.61
2473.777	3288.52
2476.929	3276.26
2480.082	3305.96
2483.234	3274.65
2486.385	3149.32
2489.537	3151.14
2492.688	3074.7
2495.839	3093.5
2498.989	3093.7
2502.14	3074.3
2505.29	3039.78
2508.439	3071.55
2511.589	2971.07
2514.738	3001.56
2517.887	3031.27
2521.035	3184.35
2524.183	3182.25
2527.331	3150.79
2530.479	3098.91
2533.627	3120.42
