Data from C_3_DEC_OH_4N_Splice17_13-34-07-002.txt Node
Date: Sat Mar 14 13:34:07 EDT 2020
User: sa697716
Spectrometer: FLMS03696
Trigger mode: 0
Integration Time (sec): 3.180400E-1
Scans to average: 20
Electric dark correction enabled: true
Nonlinearity correction enabled: true
Boxcar width: 5
XAxis mode: Wavelengths
Number of Pixels in Spectrum: 2048
>>>>>Begin Spectral Data<<<<<
187.83	-437265.22
188.298	3298.75
188.766	1710.43
189.233	1532.13
189.701	2184.17
190.169	2969.24
190.636	1118.84
191.104	827.96
191.571	98.7
192.039	-133.91
192.506	-117.47
192.974	413.28
193.441	-585.9
193.908	79.39
194.375	32.06
194.842	71.54
195.31	185.5
195.777	229.84
196.244	441.7
196.711	500.5
197.177	588.16
197.644	820.13
198.111	1437.36
198.578	2053.89
199.045	1623.56
199.511	2628.28
199.978	3059.4
200.445	2615.29
200.911	2882.66
201.378	3202.56
201.844	2892.79
202.31	5006.34
202.777	5254.25
203.243	2921.18
203.709	2774.83
204.176	3301.96
204.642	2753.41
205.108	2605.63
205.574	2106.58
206.04	1914.17
206.506	1819.21
206.972	1738.96
207.438	1693.96
207.903	1936.5
208.369	1707.42
208.835	1727.77
209.301	1843.37
209.766	1912.2
210.232	1944.44
210.697	2491.02
211.163	3169.02
211.628	4886.02
212.094	4203.36
212.559	5280.68
213.024	3360.82
213.49	4177.44
213.955	4148.42
214.42	4120.1
214.885	3874.72
215.35	3769.48
215.815	3673.05
216.28	3993
216.745	3369.99
217.21	3792.8
217.675	3685.2
218.14	4412.74
218.604	5292.62
219.069	6458.34
219.534	7141.6
219.998	8778.43
220.463	11104.23
220.927	14313.21
221.392	13912.91
221.856	14420.15
222.32	18665.7
222.785	23421.7
223.249	29925.21
223.713	33770.64
224.177	34062.17
224.642	44150.83
225.106	54728.58
225.57	60285.82
226.034	44940.97
226.497	68685.25
226.961	62243.05
227.425	72612
227.889	80887.57
228.353	81098.47
228.816	167986.98
229.28	160897.06
229.744	136039.09
230.207	82617.13
230.671	81367.36
231.134	135155.48
231.597	155919.59
232.061	156162
232.524	152591.72
232.987	105152.69
233.45	94680.79
233.914	84964.43
234.377	87279.61
234.84	79875.13
235.303	94343.71
235.766	105348.53
236.229	108872.97
236.691	68640.13
237.154	77147.63
237.617	57953.25
238.08	59389.35
238.542	69535.45
239.005	49655.94
239.468	49215.41
239.93	46347.59
240.393	42079.66
240.855	36894.67
241.317	37774.62
241.78	45971.61
242.242	47474.34
242.704	51207.26
243.166	44560.18
243.629	40375.43
244.091	46551.83
244.553	51023.1
245.015	54829.81
245.477	71001.15
245.939	104120.43
246.4	110517.22
246.862	107392.47
247.324	101275.34
247.786	113525.53
248.247	148955.34
248.709	154120.24
249.17	115156.27
249.632	108344.64
250.093	125481.97
250.555	108311.26
251.016	66008.03
251.477	62568.23
251.939	67515.09
252.4	70882.63
252.861	84280.63
253.322	78304.93
253.783	93263.62
254.244	121006.86
254.705	95558.18
255.166	85093.45
255.627	83816.35
256.088	118142.65
256.549	125495.98
257.009	108170.04
257.47	131200.91
257.931	106965.77
258.391	80201.02
258.852	82698.68
259.312	86850.86
259.773	107383.51
260.233	90723.94
260.694	76567.59
261.154	86985.34
261.614	69800.66
262.074	62487.82
262.534	64984.27
262.994	61255.63
263.455	81792.2
263.915	68980.59
264.374	65066.35
264.834	71168.12
265.294	79083.14
265.754	82030.74
266.214	77801.5
266.673	73060.95
267.133	92356.81
267.593	91843.96
268.052	112573.32
268.512	98042.53
268.971	118262.06
269.431	129832.95
269.89	116379.19
270.349	174682.89
270.809	194931.39
271.268	175433.03
271.727	394033.9
272.186	255511.89
272.645	191775.55
273.104	138564.09
273.563	200757.98
274.022	158128.04
274.481	134448.52
274.94	103563.81
275.399	77067.23
275.857	89830.24
276.316	121565.25
276.775	108197.37
277.233	106521.2
277.692	99646.09
278.15	112654.46
278.609	115705.15
279.067	107047.27
279.525	99401.95
279.984	128371.66
280.442	153955.05
280.9	151440.05
281.358	99582.27
281.816	92777.25
282.274	90825.02
282.732	93967.2
283.19	94426.24
283.648	81589.26
284.106	86996.01
284.564	88526.25
285.021	82078.68
285.479	61211.18
285.937	55785.51
286.394	48882.62
286.852	50332.1
287.309	52934.48
287.767	51017.93
288.224	48520.34
288.682	53281.31
289.139	58490.57
289.596	53554.72
290.053	55755.01
290.511	70515.17
290.968	85622.96
291.425	116562.72
291.882	97052.63
292.339	84511.97
292.796	84109.2
293.252	79407.05
293.709	63048.86
294.166	56518.59
294.623	62576.77
295.079	60104.73
295.536	60327.49
295.992	54773.41
296.449	54150.82
296.905	56278.23
297.362	53949.46
297.818	56743.72
298.274	58822.22
298.731	60056.54
299.187	59491.55
299.643	63908.44
300.099	77307.68
300.555	84868.39
301.011	70968.93
301.467	68310.5
301.923	80115.47
302.379	78257.15
302.835	76941.05
303.291	77066.25
303.746	87707.3
304.202	110809.75
304.658	111241.13
305.113	74803.1
305.569	73301.25
306.024	78153.72
306.479	74550.77
306.935	62775.18
307.39	68612.3
307.845	63319.34
308.301	63683.23
308.756	62043.15
309.211	59741.89
309.666	61179.84
310.121	75875.83
310.576	77055.36
311.031	76522.45
311.486	87750.98
311.94	87806.64
312.395	117446.38
312.85	220835.63
313.305	1086559.34
313.759	5612538.3
314.214	406549.13
314.668	322106.73
315.123	270735.97
315.577	96955.88
316.032	86168.86
316.486	107898.73
316.94	84939.76
317.394	59081.37
317.849	45927.44
318.303	43551.2
318.757	41151.01
319.211	45575.99
319.665	39945.31
320.119	40493.06
320.572	58235.82
321.026	54401.66
321.48	45301.81
321.934	49526.78
322.387	49714.7
322.841	53701.22
323.295	48082.83
323.748	55482.81
324.202	56214.62
324.655	67471.79
325.108	94096.23
325.562	66341.48
326.015	78874.2
326.468	59626.64
326.921	66658.68
327.374	62091.37
327.827	64580.83
328.28	73283.61
328.733	49074.72
329.186	43200.02
329.639	41127.43
330.092	34686.22
330.545	33013.94
330.997	33287.45
331.45	36292.9
331.903	42429.31
332.355	73095.74
332.808	71071.57
333.26	58585.09
333.713	63509.51
334.165	63921.21
334.617	85416.95
335.069	69102.8
335.522	125031.8
335.974	138421.18
336.426	126540.78
336.878	87912.34
337.33	44514.07
337.782	43478.87
338.234	54397.8
338.686	65151.67
339.137	77236.89
339.589	72767.82
340.041	57062.11
340.493	49136.01
340.944	50302.66
341.396	54236.25
341.847	45536.67
342.299	53686.03
342.75	65478.14
343.201	57426.93
343.653	66203.85
344.104	81527.22
344.555	64260.03
345.006	100247.7
345.457	76689.84
345.908	61118.97
346.359	57523.01
346.81	46923.38
347.261	49605.11
347.712	48933.31
348.163	52489.33
348.613	52974.94
349.064	49462.93
349.515	43345.54
349.965	44428.86
350.416	53547.9
350.866	58771.69
351.317	66602.78
351.767	110360.98
352.217	139374.49
352.668	115723.86
353.118	106004.99
353.568	102554.13
354.018	80991.44
354.468	85354.79
354.918	61177.85
355.368	53534.28
355.818	75639.58
356.268	217664.88
356.718	909537.07
357.168	226495.81
357.617	113765.64
358.067	126716.69
358.517	118705.29
358.966	139282.37
359.416	156062.1
359.865	168979.91
360.315	201338
360.764	94061.17
361.213	52649.43
361.663	50063.84
362.112	61853.69
362.561	99921.68
363.01	75374.02
363.459	63500.05
363.908	68835.61
364.357	58417.27
364.806	98778.23
365.255	67986.38
365.703	62152.06
366.152	62260.66
366.601	50346.52
367.05	40798.78
367.498	37071.74
367.947	38752.6
368.395	40317.55
368.844	35654.62
369.292	43077.39
369.74	29707.48
370.189	45541.75
370.637	53436.27
371.085	46149.68
371.533	56316.08
371.981	54369.34
372.429	51757.79
372.877	53890.01
373.325	45087.21
373.773	45990.29
374.221	41023.99
374.669	50904.49
375.116	43999.74
375.564	44348.65
376.012	49560.41
376.459	40818.43
376.907	48738.38
377.354	58962.95
377.801	54869.69
378.249	62976.53
378.696	80455.67
379.143	97230.4
379.591	103680.08
380.038	175004.7
380.485	126208.41
380.932	135996.31
381.379	124004.3
381.826	91003.59
382.273	64592.56
382.72	56477.92
383.166	54940.92
383.613	35561.63
384.06	32016.47
384.506	36967.56
384.953	27131.64
385.4	27304.46
385.846	23908.75
386.292	23312.19
386.739	22807.42
387.185	22518.7
387.631	22466.4
388.078	21722.67
388.524	23194.69
388.97	21365.04
389.416	17744.47
389.862	18796.84
390.308	17757.21
390.754	17939.4
391.2	19412.19
391.645	19806.07
392.091	18827.54
392.537	18124.73
392.983	18129.22
393.428	17721.81
393.874	18949.58
394.319	18939.42
394.765	17870.96
395.21	18336.67
395.655	17181.41
396.101	16039.47
396.546	14435.59
396.991	14559.63
397.436	13503.62
397.881	13023.21
398.326	12337.43
398.771	11615.49
399.216	10147.81
399.661	9134.57
400.106	9065.54
400.551	9249.14
400.995	8278.9
401.44	8179.51
401.885	7678.59
402.329	7738.15
402.774	7398.74
403.218	7122.02
403.663	6856.28
404.107	7036.25
404.551	7069.13
404.995	6476.68
405.44	6238.05
405.884	6328.5
406.328	6121.98
406.772	6094.51
407.216	5539.98
407.66	5354.37
408.104	5095.28
408.547	4765.21
408.991	4601.62
409.435	4425.83
409.879	4355.73
410.322	4291.46
410.766	4131.68
411.209	3916.6
411.653	3750.68
412.096	3667.68
412.54	3664.68
412.983	3634.62
413.426	3635.93
413.869	3637.51
414.312	3561.62
414.756	3428.58
415.199	3268.2
415.642	3169.34
416.085	3171.99
416.527	3150.42
416.97	3201.31
417.413	3032.92
417.856	3006.21
418.298	2980.52
418.741	2964.04
419.184	2963.05
419.626	3094.04
420.069	3093.88
420.511	3110.28
420.953	3040.81
421.396	3012.54
421.838	2938.75
422.28	3002.52
422.722	3008.29
423.164	3047.2
423.606	2988.94
424.048	2983.95
424.49	2827.83
424.932	2814.55
425.374	2780.56
425.816	2833.52
426.258	2890.07
426.699	2922.23
427.141	2881.76
427.582	2929.76
428.024	2916.18
428.465	2899.52
428.907	2819.39
429.348	2784.82
429.789	2777.17
430.231	2711.29
430.672	2743.68
431.113	2673.1
431.554	2626.75
431.995	2555.61
432.436	2454.17
432.877	2391.86
433.318	2342.84
433.759	2332.55
434.2	2329.6
434.64	2302.66
435.081	2304.52
435.522	2175.23
435.962	2093.41
436.403	2042.57
436.843	2070.34
437.284	2024.67
437.724	1970.16
438.164	1976.52
438.604	1930.55
439.045	1850.34
439.485	1767.22
439.925	1726.39
440.365	1681.9
440.805	1655.74
441.245	1630.14
441.685	1567.69
442.125	1555.47
442.564	1562.59
443.004	1521.98
443.444	1516.9
443.883	1517.47
444.323	1507.74
444.762	1511.8
445.202	1531.63
445.641	1554.57
446.081	1547.26
446.52	1556.25
446.959	1535.57
447.398	1493.31
447.837	1470.93
448.276	1441.68
448.716	1453.73
449.154	1466.16
449.593	1427.63
450.032	1419.81
450.471	1394.56
450.91	1392.95
451.349	1384.69
451.787	1378.25
452.226	1398.75
452.664	1400.81
453.103	1401.8
453.541	1399.17
453.98	1393.95
454.418	1403.82
454.856	1380.17
455.295	1377.33
455.733	1388.32
456.171	1396.66
456.609	1394.67
457.047	1394.04
457.485	1410.48
457.923	1411.23
458.361	1390.89
458.798	1392.46
459.236	1388.23
459.674	1396.85
460.111	1400.26
460.549	1384.72
460.987	1380.19
461.424	1377.78
461.862	1369.34
462.299	1346.8
462.736	1343.68
463.173	1347.69
463.611	1329.43
464.048	1323.93
464.485	1332.51
464.922	1320.18
465.359	1311.05
465.796	1285.98
466.233	1274.56
466.67	1259
467.106	1254.44
467.543	1240.16
467.98	1223.09
468.416	1194.31
468.853	1184.47
469.29	1149.31
469.726	1135.71
470.162	1107.61
470.599	1098.43
471.035	1090.48
471.471	1067.14
471.907	1064.24
472.344	1058.72
472.78	1061.99
473.216	1077.49
473.652	1065.26
474.088	1065.81
474.523	1063.96
474.959	1074.93
475.395	1067.03
475.831	1061.09
476.266	1068.09
476.702	1067.24
477.138	1058.12
477.573	1056.48
478.008	1052.17
478.444	1058.53
478.879	1067.62
479.314	1073.15
479.75	1072.94
480.185	1079.39
480.62	1091.01
481.055	1097.37
481.49	1104.62
481.925	1121.67
482.36	1140.45
482.795	1174.99
483.229	1208.08
483.664	1234.43
484.099	1239.72
484.534	1259.24
484.968	1271.08
485.403	1274.12
485.837	1273.17
486.271	1270.39
486.706	1270.5
487.14	1256.61
487.574	1234.42
488.009	1221.04
488.443	1208.32
488.877	1217.02
489.311	1217.7
489.745	1227.67
490.179	1235.71
490.613	1253.45
491.046	1259.95
491.48	1264.65
491.914	1260.79
492.348	1264.8
492.781	1267.38
493.215	1264.7
493.648	1263.55
494.082	1269.21
494.515	1264.44
494.948	1272.01
495.382	1275.05
495.815	1276.56
496.248	1279.83
496.681	1297.79
497.114	1311.74
497.547	1322.16
497.98	1337.81
498.413	1339.81
498.846	1347.57
499.279	1354.94
499.711	1354.64
500.144	1350.26
500.577	1359.06
501.009	1368.98
501.442	1373.91
501.874	1365.84
502.306	1359.1
502.739	1359.79
503.171	1373.82
503.603	1367.85
504.036	1372.46
504.468	1370.2
504.9	1377.5
505.332	1377.44
505.764	1372.14
506.196	1370.85
506.627	1380.22
507.059	1388.34
507.491	1390.35
507.923	1375.05
508.354	1384.18
508.786	1385.59
509.217	1398.3
509.649	1405.66
510.08	1418.28
510.512	1428.11
510.943	1436.75
511.374	1439.3
511.805	1453.5
512.237	1465.49
512.668	1494.44
513.099	1517.02
513.53	1539.73
513.961	1551.53
514.391	1577.63
514.822	1605.52
515.253	1636.21
515.684	1653.56
516.114	1677.44
516.545	1689.38
516.975	1707.21
517.406	1715.23
517.836	1706.15
518.267	1701.2
518.697	1711.11
519.127	1704.96
519.558	1701.03
519.988	1694.27
520.418	1693.85
520.848	1701.69
521.278	1700.05
521.708	1717.75
522.138	1723.14
522.567	1746.82
522.997	1765.4
523.427	1772.66
523.857	1781.89
524.286	1784.29
524.716	1792.35
525.145	1805.76
525.575	1810.14
526.004	1818.72
526.433	1795.2
526.863	1788.48
527.292	1772.02
527.721	1772.27
528.15	1772.03
528.579	1766.85
529.008	1774.08
529.437	1792.98
529.866	1802.34
530.295	1815.29
530.724	1824.34
531.152	1847.08
531.581	1856.34
532.01	1871.56
532.438	1876.36
532.867	1888.71
533.295	1904.94
533.723	1907.08
534.152	1901.9
534.58	1897.99
535.008	1878.68
535.436	1878.08
535.865	1882.87
536.293	1894.83
536.721	1907.64
537.149	1930.69
537.576	1930.69
538.004	1941.47
538.432	1947.46
538.86	1942.93
539.287	1947.57
539.715	1960.36
540.143	1961.22
540.57	1955.55
540.998	1949.95
541.425	1925.71
541.852	1902.21
542.28	1898.55
542.707	1879.56
543.134	1863.43
543.561	1858.05
543.988	1850.43
544.415	1848.3
544.842	1840.82
545.269	1833.44
545.696	1836.43
546.123	1848.8
546.549	1839.16
546.976	1826.23
547.403	1826.86
547.829	1829.38
548.256	1831.52
548.682	1828.63
549.108	1821.34
549.535	1821.45
549.961	1824.02
550.387	1810.82
550.813	1806.19
551.24	1812.72
551.666	1815.59
552.092	1806.93
552.518	1801.98
552.943	1797.68
553.369	1805.61
553.795	1812.48
554.221	1815.23
554.646	1812.72
555.072	1825.42
555.498	1830.83
555.923	1842.11
556.349	1858.42
556.774	1867.97
557.199	1871.74
557.625	1879.81
558.05	1876.27
558.475	1888.64
558.9	1890.39
559.325	1884.61
559.75	1881.52
560.175	1878.78
560.6	1874.62
561.025	1875.77
561.449	1880.59
561.874	1888.73
562.299	1897.14
562.723	1906.83
563.148	1901.7
563.572	1909.66
563.997	1924.39
564.421	1932.91
564.846	1936.41
565.27	1945.16
565.694	1946.41
566.118	1963.04
566.542	1976.68
566.966	1972.99
567.39	1974.15
567.814	1967.02
568.238	1970.9
568.662	1981.27
569.086	1989.31
569.509	2003.07
569.933	1990.98
570.357	1988.15
570.78	1970.82
571.204	1960.27
571.627	1954.05
572.05	1957.85
572.474	1962.27
572.897	1954.05
573.32	1952.22
573.743	1946.07
574.166	1930.41
574.589	1936.55
575.012	1933.8
575.435	1937.04
575.858	1933.07
576.281	1926.26
576.704	1912.91
577.126	1904.83
577.549	1897.97
577.972	1890.79
578.394	1883.91
578.817	1882.31
579.239	1864.62
579.661	1854.05
580.084	1842.78
580.506	1832.64
580.928	1833.19
581.35	1825.53
581.772	1825.12
582.194	1813.01
582.616	1802.43
583.038	1789.42
583.46	1779.12
583.882	1779.02
584.303	1788.52
584.725	1786.16
585.147	1791.41
585.568	1807.05
585.99	1824.07
586.411	1834.53
586.833	1855.17
587.254	1860.47
587.675	1881.01
588.096	1900.56
588.518	1897.36
588.939	1879.8
589.36	1879.87
589.781	1869.7
590.202	1838.11
590.623	1829.87
591.043	1828.67
591.464	1815.7
591.885	1813.49
592.305	1808.56
592.726	1793.06
593.147	1796.13
593.567	1791.25
593.987	1783.8
594.408	1779.74
594.828	1779.16
595.248	1773.92
595.669	1754.51
596.089	1747.8
596.509	1741.72
596.929	1727.01
597.349	1730.92
597.769	1721.07
598.189	1714.8
598.608	1717.73
599.028	1722.11
599.448	1724.42
599.867	1710.89
600.287	1706.53
600.706	1703.56
601.126	1693.19
601.545	1692.85
601.965	1691.81
602.384	1687
602.803	1692.53
603.222	1689.49
603.641	1682.39
604.061	1679.76
604.48	1678.07
604.898	1690.12
605.317	1699.36
605.736	1705.28
606.155	1706.36
606.574	1699.81
606.992	1711.29
607.411	1708.81
607.829	1702
608.248	1702.92
608.666	1703.86
609.085	1706.11
609.503	1699.69
609.921	1696.23
610.339	1701.76
610.758	1704.53
611.176	1702.13
611.594	1694.14
612.012	1693.72
612.43	1702.43
612.847	1714.77
613.265	1720.57
613.683	1732.12
614.101	1739.71
614.518	1739.11
614.936	1731.48
615.353	1717.5
615.771	1718.31
616.188	1722.74
616.606	1723.04
617.023	1717.29
617.44	1701.92
617.857	1695.74
618.274	1686.98
618.691	1681.31
619.108	1672.65
619.525	1668.22
619.942	1680.57
620.359	1685.54
620.776	1681.74
621.192	1678.53
621.609	1678.84
622.026	1690.62
622.442	1700.55
622.859	1706.42
623.275	1698.45
623.691	1706.97
624.108	1723.22
624.524	1743.76
624.94	1744.84
625.356	1759.96
625.772	1779.46
626.188	1795.31
626.604	1797.9
627.02	1794.25
627.436	1792.35
627.852	1802.91
628.268	1820.25
628.683	1809.17
629.099	1798.04
629.514	1792.18
629.93	1796.95
630.345	1803.62
630.761	1799.8
631.176	1805.43
631.591	1798.88
632.007	1790.78
632.422	1790.03
632.837	1774.2
633.252	1772.67
633.667	1759.7
634.082	1750.52
634.497	1735.66
634.911	1712.05
635.326	1710.67
635.741	1690.55
636.155	1680.37
636.57	1687.44
636.984	1691.15
637.399	1700.48
637.813	1705.04
638.228	1709.85
638.642	1722.9
639.056	1715.69
639.47	1723.62
639.884	1719.15
640.298	1719.14
640.712	1725.28
641.126	1716.61
641.54	1712.63
641.954	1714.03
642.368	1705.83
642.781	1702.54
643.195	1684.81
643.609	1695.3
644.022	1694.94
644.436	1697.47
644.849	1688.3
645.262	1678.82
645.676	1690.81
646.089	1692.94
646.502	1677.15
646.915	1677.31
647.328	1659.45
647.741	1664.58
648.154	1650
648.567	1651.86
648.98	1637.41
649.393	1644.55
649.805	1646.17
650.218	1638.18
650.631	1616.05
651.043	1611.2
651.456	1605.12
651.868	1609.45
652.28	1640.98
652.693	1667.5
653.105	1682.48
653.517	1701.7
653.929	1704.86
654.341	1716.83
654.753	1700.46
655.165	1716.63
655.577	1717.97
655.989	1715.12
656.401	1710.13
656.813	1654.12
657.224	1626.87
657.636	1586.81
658.047	1563.73
658.459	1539.48
658.87	1534.23
659.282	1523.56
659.693	1495.86
660.104	1478.97
660.515	1465.84
660.926	1470.24
661.338	1475.22
661.749	1473.41
662.159	1463.76
662.57	1463.07
662.981	1462.8
663.392	1455.87
663.803	1470.58
664.213	1472.24
664.624	1471.65
665.035	1484.56
665.445	1466.91
665.855	1459.94
666.266	1451.67
666.676	1453.92
667.086	1444.48
667.497	1447.34
667.907	1440.12
668.317	1426.99
668.727	1424.02
669.137	1428.69
669.547	1424.95
669.956	1432.91
670.366	1437.56
670.776	1440.86
671.186	1448.69
671.595	1454.95
672.005	1461.7
672.414	1457.78
672.824	1452.74
673.233	1461.04
673.642	1463.83
674.052	1467
674.461	1467.26
674.87	1473.94
675.279	1465.33
675.688	1466.63
676.097	1464.64
676.506	1456.32
676.915	1482.9
677.323	1485.13
677.732	1478.91
678.141	1474.29
678.549	1451.41
678.958	1445.97
679.366	1441.25
679.775	1447.82
680.183	1459.86
680.592	1466.42
681	1469.61
681.408	1450.05
681.816	1457.8
682.224	1466.65
682.632	1475.33
683.04	1519.87
683.448	1553.78
683.856	1595.87
684.264	1644.9
684.671	1686.65
685.079	1740.19
685.487	1796.82
685.894	1881.19
686.302	1944.52
686.709	1988.36
687.116	2039.09
687.524	2070.94
687.931	2090
688.338	2099.15
688.745	2098.91
689.152	2108.12
689.559	2127.09
689.966	2144.65
690.373	2129.49
690.78	2138.21
691.187	2177.67
691.593	2195.01
692	2205.2
692.407	2240.86
692.813	2292.61
693.22	2323.54
693.626	2353.66
694.032	2370.45
694.439	2419.45
694.845	2447.68
695.251	2493.21
695.657	2529.96
696.063	2603.97
696.469	2648.08
696.875	2684.7
697.281	2690.27
697.687	2705.47
698.093	2714.77
698.498	2762.8
698.904	2789.95
699.31	2850.73
699.715	2885.63
700.12	2949.1
700.526	2939.85
700.931	2981.8
701.337	3008.24
701.742	3015.38
702.147	3074.36
702.552	3079.64
702.957	3112.69
703.362	3110.8
703.767	3114.59
704.172	3130.96
704.577	3067.08
704.981	3091.03
705.386	3087.27
705.791	3063.32
706.195	3114.33
706.6	3104.39
707.004	3158.87
707.408	3117.8
707.813	3128.08
708.217	3104.93
708.621	3095.68
709.025	3168.77
709.43	3158.31
709.834	3201.75
710.237	3249.77
710.641	3224.83
711.045	3232.45
711.449	3218.19
711.853	3232.86
712.256	3257.01
712.66	3278.52
713.064	3329.21
713.467	3353.68
713.87	3438.46
714.274	3462.81
714.677	3543.84
715.08	3667.74
715.484	3797
715.887	3955.6
716.29	4106.49
716.693	4268.04
717.096	4452.75
717.499	4550.92
717.901	4558.4
718.304	4567.81
718.707	4576.81
719.109	4482.9
719.512	4448.56
719.915	4334.37
720.317	4278.23
720.719	4305.28
721.122	4270.99
721.524	4222.06
721.926	4183.65
722.328	4258.64
722.731	4244.46
723.133	4260.2
723.535	4407.6
723.937	4416.92
724.338	4448.61
724.74	4476.81
725.142	4450.58
725.544	4444.74
725.945	4468.36
726.347	4454.8
726.748	4445.06
727.15	4448.97
727.551	4418.19
727.952	4390.01
728.354	4360.72
728.755	4356.46
729.156	4316.42
729.557	4272.69
729.958	4174.14
730.359	4119.85
730.76	4104.62
731.161	4054.3
731.562	4034.01
731.962	4029.99
732.363	3978.05
732.763	3926.23
733.164	3948.64
733.564	3895.3
733.965	3821.65
734.365	3790.29
734.766	3809.49
735.166	3776.65
735.566	3731.93
735.966	3708.88
736.366	3703.62
736.766	3655.09
737.166	3678.16
737.566	3647.24
737.966	3624.28
738.365	3652.89
738.765	3649.8
739.165	3593.06
739.564	3571.65
739.964	3602.64
740.363	3564.66
740.763	3560.21
741.162	3551.95
741.561	3526.83
741.96	3491.12
742.36	3506.49
742.759	3508.17
743.158	3535.22
743.557	3544.23
743.955	3574.66
744.354	3540.68
744.753	3583.64
745.152	3553.34
745.55	3592.33
745.949	3586.54
746.348	3586.22
746.746	3596.74
747.144	3567.71
747.543	3550.18
747.941	3585.94
748.339	3531.94
748.737	3528.54
749.136	3523.52
749.534	3571.35
749.932	3551.62
750.33	3568.83
750.727	3610.68
751.125	3593.76
751.523	3578.59
751.921	3613.44
752.318	3588.58
752.716	3632.59
753.113	3641.56
753.511	3659.02
753.908	3660.13
754.305	3649.38
754.703	3695.92
755.1	3743.21
755.497	3788.79
755.894	3932.58
756.291	4065.86
756.688	4313.67
757.085	4643.98
757.482	5107.79
757.878	5617.23
758.275	6077.64
758.672	6700.67
759.068	7212.96
759.465	7939.81
759.861	8881.48
760.258	9979.12
760.654	10545.98
761.05	10457.07
761.447	9977.59
761.843	9287.78
762.239	8570.27
762.635	8245.31
763.031	7938.71
763.427	7494.37
763.822	7031.09
764.218	6569.19
764.614	5969.5
765.01	5565.58
765.405	5309.74
765.801	5113.03
766.196	4863.73
766.592	4728.46
766.987	4491.38
767.382	4331.8
767.778	4265.49
768.173	4169.43
768.568	4116.4
768.963	4025.26
769.358	4040.71
769.753	4007.84
770.148	3947.59
770.542	3945.72
770.937	3919.77
771.332	3991.58
771.726	4007.56
772.121	3964.38
772.515	4005.75
772.91	3996.12
773.304	4049.56
773.699	3999.75
774.093	4040.39
774.487	4080.97
774.881	4114.22
775.275	4115.03
775.669	4081.7
776.063	4113.97
776.457	4140.28
776.851	4084.8
777.245	4077.8
777.638	4102.55
778.032	4191.06
778.425	4160.33
778.819	4193.9
779.212	4164.48
779.606	4133.38
779.999	4148.54
780.392	4138.3
780.786	4198.65
781.179	4212.99
781.572	4245.76
781.965	4258.07
782.358	4216.19
782.751	4263.04
783.143	4227.14
783.536	4283.72
783.929	4316.43
784.322	4404.71
784.714	4429.4
785.107	4426.72
785.499	4484.47
785.891	4469.66
786.284	4452.68
786.676	4558.05
787.068	4545.44
787.46	4583.66
787.852	4595.51
788.245	4659.84
788.636	4681.88
789.028	4731.93
789.42	4764.27
789.812	4768.35
790.204	4843.74
790.595	4919.4
790.987	4769.2
791.378	4784.3
791.77	4882.14
792.161	4983.87
792.553	5027.35
792.944	4941.06
793.335	4889.29
793.726	4942.54
794.117	5011.29
794.508	5112.19
794.899	5088.97
795.29	5203.54
795.681	5248.47
796.072	5142.75
796.463	5021.12
796.853	5031.4
797.244	5154.5
797.634	5182.9
798.025	5183.68
798.415	5194.11
798.806	5264.98
799.196	5333.32
799.586	5375.04
799.976	5349.1
800.366	5526.03
800.756	5693.81
801.146	5664.67
801.536	5687.49
801.926	5742.31
802.316	5766.23
802.706	5821.02
803.095	5728.7
803.485	5806.71
803.874	5834.16
804.264	6032.5
804.653	6013.91
805.043	6132.09
805.432	6217.25
805.821	6221.72
806.21	6240
806.599	6327.56
806.988	6366.59
807.377	6447.18
807.766	6545.54
808.155	6763.22
808.544	6561.16
808.933	6574.53
809.321	6558.01
809.71	6783.09
810.098	6907.13
810.487	7262.38
810.875	7636.91
811.264	7657.63
811.652	7886.31
812.04	8001.95
812.428	8131.28
812.816	8714.54
813.204	9037.18
813.592	9459.8
813.98	9721.13
814.368	9651.66
814.756	10019.66
815.144	9954.71
815.531	10312.89
815.919	10251.53
816.306	10488.97
816.694	10252.37
817.081	10301.27
817.469	10564.98
817.856	10553.89
818.243	10755.51
818.63	11050.66
819.017	10730.7
819.404	10772.62
819.791	11058.45
820.178	11526.57
820.565	11713
820.952	12427.84
821.339	12047.23
821.725	12190.3
822.112	11633.11
822.498	11605.42
822.885	11702.72
823.271	11634.03
823.657	11957.45
824.044	11960.12
824.43	12015.39
824.816	11996.01
825.202	11651.46
825.588	12425.58
825.974	12435
826.36	12827.12
826.746	12842.66
827.132	13115.12
827.517	13091.8
827.903	12494.24
828.289	12529.02
828.674	11938.12
829.06	11855.03
829.445	12155.27
829.83	12423.6
830.216	12789.83
830.601	13063.41
830.986	12764.01
831.371	12652.94
831.756	13077.54
832.141	12752.21
832.526	12742.66
832.911	12955.65
833.295	12863.03
833.68	13217.26
834.065	12738.91
834.449	12037.04
834.834	11979.91
835.218	11968.02
835.603	12231.72
835.987	12061.52
836.371	12688.12
836.755	12596.39
837.139	12893.52
837.524	13068.77
837.908	12928.42
838.291	12974.68
838.675	13019.14
839.059	13167.04
839.443	13153.33
839.827	12965.64
840.21	13325.97
840.594	13214.21
840.977	13376.35
841.361	13355.76
841.744	13634.86
842.127	13515.73
842.511	13693.33
842.894	14135.84
843.277	14422.07
843.66	14830.34
844.043	14899.45
844.426	14298.51
844.809	14058.59
845.191	14077.89
845.574	13726.97
845.957	13452.71
846.339	13375.98
846.722	12981.84
847.104	13037.42
847.487	12911.89
847.869	12919.73
848.252	13130.48
848.634	13372.93
849.016	13570.01
849.398	13665.52
849.78	14310.7
850.162	14309.33
850.544	14611.88
850.926	15086.07
851.307	15014.51
851.689	15216.52
852.071	15550
852.452	15789.35
852.834	15768.4
853.215	16065.42
853.597	16180.02
853.978	16397.93
854.359	16752.41
854.741	16008.18
855.122	15934.76
855.503	15717.81
855.884	15810.45
856.265	15762.83
856.646	15844.94
857.026	15559.6
857.407	15502.64
857.788	15624.36
858.169	15836.36
858.549	15192.23
858.93	15669.46
859.31	15706.63
859.69	15878.22
860.071	15590.07
860.451	15437.2
860.831	14885.34
861.211	15755.14
861.591	16175.52
861.971	16147.29
862.351	16301.71
862.731	16600.04
863.111	16797.15
863.491	17046.56
863.87	17706.07
864.25	17966.81
864.629	17664.33
865.009	18051.38
865.388	18693.06
865.768	20039.29
866.147	19971.74
866.526	18856.86
866.905	19077.41
867.284	20140.65
867.663	19120.12
868.042	18304.68
868.421	18244.36
868.8	18548.25
869.179	18724.65
869.558	17617.75
869.936	16232.58
870.315	16511.02
870.693	16926.67
871.072	18256.89
871.45	17393.28
871.828	17624.38
872.207	18542.68
872.585	18259.29
872.963	18743.49
873.341	18101.85
873.719	17918.66
874.097	17705.46
874.475	18044.24
874.853	18452.38
875.23	17691.85
875.608	18429.73
875.986	19925.66
876.363	19047.19
876.741	19630.37
877.118	19156.39
877.495	20098.89
877.873	20426.02
878.25	21491.26
878.627	20615.65
879.004	20893.42
879.381	20770.29
879.758	20226.92
880.135	18833.43
880.512	19924.93
880.889	19389.81
881.265	19174.29
881.642	18995.06
882.019	19296.81
882.395	18903.42
882.772	19644.55
883.148	18787.07
883.524	18714.12
883.901	18610.89
884.277	18878.8
884.653	18751.88
885.029	19286.41
885.405	21351.98
885.781	21190.28
886.157	20321.07
886.532	20560.95
886.908	20555.46
887.284	22862.82
887.659	23618.88
888.035	24341.75
888.411	24974.26
888.786	25289.43
889.161	26175.13
889.537	25700.11
889.912	26534.21
890.287	26507.56
890.662	27196.36
891.037	26705.85
891.412	24892.59
891.787	24631.88
892.162	23776.21
892.536	24327.3
892.911	23426.49
893.286	22921.5
893.66	21994.08
894.035	22539.59
894.409	24545.18
894.784	23556.63
895.158	23942
895.532	25368.5
895.906	26061.87
896.281	26664.92
896.655	26248.35
897.029	29980.52
897.402	31211.43
897.776	34742.92
898.15	34626.83
898.524	34242.56
898.898	34670.9
899.271	38814.96
899.645	33594.87
900.018	32250.05
900.392	33437.84
900.765	33692.25
901.138	31179.76
901.511	30716.9
901.884	28196.38
902.258	26027.86
902.631	26904.14
903.003	30981.34
903.376	27961.39
903.749	31369.85
904.122	33600.95
904.495	36998.67
904.867	37460.31
905.24	32522.18
905.612	30271.51
905.985	30941.77
906.357	32338.07
906.729	30845.96
907.102	26352.27
907.474	25340.35
907.846	25503.7
908.218	25160.55
908.59	22236.84
908.962	21508.52
909.334	23170.69
909.705	24346.44
910.077	23651.75
910.449	24615.72
910.82	25318.18
911.192	27870.48
911.563	28963.98
911.935	30993.69
912.306	31047.48
912.677	32080.04
913.048	31779.33
913.419	34472.37
913.79	34666.36
914.161	37165.71
914.532	35543.08
914.903	32670.12
915.274	31012.88
915.645	30552.43
916.015	26886.87
916.386	25630.89
916.756	27277.77
917.127	28133.57
917.497	25128.91
917.868	27359.5
918.238	26017.66
918.608	26767.41
918.978	27305.83
919.348	28907.36
919.718	29851.94
920.088	28753.73
920.458	29888.33
920.828	31426.66
921.198	29777.44
921.567	31818.15
921.937	24639.44
922.306	24866.43
922.676	26802.58
923.045	22372.07
923.415	21262.06
923.784	19384.16
924.153	19947.88
924.522	19920.74
924.891	18738.16
925.26	20086.11
925.629	19621.98
925.998	22568.58
926.367	22043.02
926.736	21002.41
927.104	25000.7
927.473	26868.19
927.842	32436.67
928.21	32077.37
928.578	33702.24
928.947	31871.78
929.315	32053.65
929.683	37586.95
930.051	37860.33
930.42	43903.56
930.788	37507.84
931.156	37210.32
931.523	34879.35
931.891	32211.75
932.259	30969.71
932.627	35888.98
932.994	50730.37
933.362	41952.85
933.729	36404.35
934.097	34847.58
934.464	29467.59
934.831	33985.03
935.199	33497.55
935.566	32489.4
935.933	32885.26
936.3	39805.64
936.667	30952.79
937.034	27995.41
937.401	27623.01
937.767	23828.55
938.134	21195.36
938.501	29916.43
938.867	31869.7
939.234	53857.29
939.6	45917.09
939.967	50645.59
940.333	33905.92
940.699	28864.97
941.065	23036.64
941.431	30229.16
941.798	29173.2
942.163	38291.25
942.529	23902.24
942.895	22002.62
943.261	14228.56
943.627	18651.36
943.992	16325.1
944.358	16331.55
944.723	16389.12
945.089	15987.16
945.454	14766.39
945.82	15740.94
946.185	15110.85
946.55	17516.52
946.915	15731.04
947.28	18474.26
947.645	16270.72
948.01	15026.18
948.375	15679.54
948.74	18791.7
949.104	21935.05
949.469	31637.01
949.834	55910.76
950.198	53054.48
950.562	31807.64
950.927	26461.57
951.291	31862.41
951.655	27116.09
952.02	25442.48
952.384	19247.12
952.748	16781.4
953.112	16392.06
953.476	14272.58
953.839	13201.12
954.203	13091.26
954.567	16360.84
954.931	25751.99
955.294	22007.96
955.658	22145.58
956.021	37640.73
956.385	63739.64
956.748	94043.38
957.111	145525.9
957.474	163248.3
957.837	183639.23
958.2	138664.23
958.563	49891.9
958.926	33750.52
959.289	51287.41
959.652	57270.97
960.015	43020.93
960.377	61729.2
960.74	70435.9
961.102	121422.27
961.465	130583.7
961.827	70286.8
962.189	134883.8
962.552	93595.24
962.914	75096.45
963.276	48682.95
963.638	40249.68
964	39786.55
964.362	26924.94
964.724	26012.61
965.085	18585
965.447	15232.33
965.809	17305.01
966.17	17332.99
966.532	18726.88
966.893	17169.41
967.255	15624.01
967.616	18427.38
967.977	14775.67
968.338	16115.31
968.699	13257.5
969.061	13264.21
969.421	13344.23
969.782	14964.58
970.143	12653.71
970.504	13147.04
970.865	14960.21
971.225	15317.94
971.586	14999.83
971.946	21391.51
972.307	18549.2
972.667	24231.16
973.027	24935.7
973.388	30252.6
973.748	20554.77
974.108	22374.78
974.468	30161.84
974.828	23258.27
975.188	17853.18
975.548	16410.54
975.907	13770.45
976.267	15459.22
976.627	13016.35
976.986	13489.48
977.346	12846.72
977.705	12374.88
978.064	11272.87
978.424	9386.06
978.783	9691.41
979.142	11076.27
979.501	10595.83
979.86	11191.63
980.219	10788.65
980.578	13895.43
980.937	15546.41
981.296	13860.98
981.654	14244.32
982.013	22124.87
982.371	28716.22
982.73	26805.39
983.088	30274
983.447	32346.05
983.805	46290.77
984.163	96592.82
984.521	106984.14
984.879	157048.14
985.237	-255533.89
985.595	247036.04
985.953	61321.83
986.311	35404.94
986.669	20579.93
987.026	17780.02
987.384	23882.87
987.741	24688.47
988.099	17693.84
988.456	14126.52
988.814	13242.96
989.171	11498.86
989.528	11305.19
989.885	11941.95
990.242	9472.11
990.599	11772.58
990.956	9629.57
991.313	6734.88
991.67	5530.73
992.027	5901.15
992.383	5241.48
992.74	4589.87
993.096	4829.52
993.453	5002.11
993.809	5193.94
994.165	6901.16
994.522	6360.45
994.878	7002.3
995.234	8784.76
995.59	8658.7
995.946	8125.47
996.302	9247.47
996.658	10674.97
997.013	11746.74
997.369	14009.84
997.725	17940.18
998.08	11635.11
998.436	17873.77
998.791	24718.05
999.147	24683.46
999.502	26923.18
999.857	19606.71
1000.212	32044.15
1000.567	45715.18
1000.922	26285.93
1001.277	16642.08
1001.632	12328.64
1001.987	15865.65
1002.342	11359.2
1002.696	9084.16
1003.051	7274.64
1003.406	8806.19
1003.76	8758.61
1004.114	8641.07
1004.469	7271.61
1004.823	6021.64
1005.177	6501.12
1005.531	5159.47
1005.885	4596.49
1006.239	5198.61
1006.593	6529.82
1006.947	8733.14
1007.301	6556.38
1007.655	7113.18
1008.008	5228.78
1008.362	5893.26
1008.715	8430.07
1009.069	7682.14
1009.422	11584.76
1009.776	23204.09
1010.129	15381.63
1010.482	12827.84
1010.835	10801.62
1011.188	22467.53
1011.541	21238.21
1011.894	-129659.38
1012.247	380568.51
1012.6	25896.69
1012.952	16332.65
1013.305	8405.43
1013.657	6078.64
1014.01	5765.75
1014.362	4768.99
1014.715	4279.2
1015.067	3731.72
1015.419	3658.67
1015.771	3250
1016.123	2902.7
1016.475	3004.14
1016.827	3185.26
1017.179	3431.43
1017.531	3442.3
1017.883	3517.49
1018.234	3431.26
1018.586	4317.29
1018.938	4610.14
1019.289	6366.6
1019.64	7253.55
1019.992	6726.17
1020.343	6125.66
1020.694	4873.71
1021.045	4296.39
1021.396	4889.98
1021.747	5261.09
1022.098	6234.09
1022.449	4519.5
1022.8	4179.88
1023.151	2916.1
1023.501	2608.33
1023.852	2842.62
1024.202	2964.08
1024.553	3254.69
1024.903	3196.87
1025.253	2780.11
1025.604	2494.74
1025.954	3090.01
1026.304	3764.29
1026.654	4391.01
1027.004	6419.21
1027.354	10360.31
1027.703	9813.88
1028.053	12790.58
1028.403	18921.39
1028.753	27356.99
1029.102	36718.66
1029.452	188466.5
1029.801	8142.3
1030.15	5256.65
1030.499	4438.89
897.758	3245.27
901.051	3232.36
904.343	3265.12
907.636	3257.84
910.928	3324.68
914.22	3226.62
917.511	3240.83
920.803	3329.71
924.094	3376.92
927.384	3323.08
930.675	3289
933.965	3228.93
937.255	3218.08
940.544	3187.27
943.834	3045.41
947.123	3005.3
950.411	3111.75
953.7	3073.05
956.988	3020.38
960.276	2964.4
963.563	3087.8
966.851	3067.03
970.138	3142.72
973.424	3120.46
976.711	3066.88
979.997	3315.37
983.283	3330.97
986.568	3199.5
989.853	3246.12
993.138	3275.72
996.423	3357.1
999.708	3266.74
1002.992	3381.67
1006.275	3117.95
1009.559	3223.26
1012.842	3362.54
1016.125	3264.41
1019.408	3240.93
1022.69	3367.78
1025.972	3372.31
1029.254	3336.17
1032.536	3229.09
1035.817	3276.91
1039.098	3177.9
1042.379	3439.93
1045.659	3390.36
1048.939	3299.02
1052.219	3343.15
1055.498	3373.63
1058.778	3342.37
1062.057	3335.23
1065.335	3353.67
1068.614	3384.53
1071.892	3342.63
1075.17	3446.14
1078.447	3421.31
1081.724	3405.3
1085.001	3458.96
1088.278	3423.36
1091.554	3446.38
1094.83	3443.62
1098.106	3464.8
1101.382	3527.16
1104.657	3529.53
1107.932	3524.67
1111.206	3473.38
1114.481	3433.01
1117.755	3444.91
1121.029	3405.84
1124.302	3449.56
1127.575	3378.71
1130.848	3355.38
1134.121	3305.34
1137.393	3237.13
1140.665	3318.51
1143.937	3295.94
1147.208	3208.64
1150.48	3227.62
1153.75	3205.96
1157.021	3278.11
1160.291	3234.09
1163.561	3272
1166.831	3294.47
1170.101	3329.68
1173.37	3327.19
1176.639	3247.45
1179.907	3325.44
1183.176	3367.7
1186.444	3375.04
1189.711	3408.97
1192.979	3404.1
1196.246	3368.43
1199.513	3389.33
1202.78	3381.93
1206.046	3386.43
1209.312	3413.39
1212.578	3450.76
1215.843	3377.31
1219.108	3361.32
1222.373	3385.69
1225.638	3334.18
1228.902	3309.21
1232.166	3286.46
1235.43	3264.54
1238.693	3282.91
1241.956	3287.92
1245.219	3314.85
1248.482	3318.36
1251.744	3310.07
1255.006	3496.27
1258.268	3460.92
1261.529	3389.3
1264.79	3404.12
1268.051	3520.34
1271.312	3542.43
1274.572	3493.09
1277.832	3485.61
1281.092	3489.66
1284.351	3436.79
1287.61	3407.17
1290.869	3293.73
1294.128	3241.12
1297.386	3382.35
1300.644	3369.04
1303.902	3378.38
1307.159	3223.6
1310.416	3283.09
1313.673	3300.76
1316.93	3268.81
1320.186	3336.37
1323.442	3393.66
1326.697	3365.39
1329.953	3381.62
1333.208	3390.12
1336.463	3379.59
1339.717	3300.5
1342.972	3399.34
1346.226	3403.96
1349.479	3315.71
1352.733	3269.01
1355.986	3317.61
1359.238	3285.76
1362.491	3286.2
1365.743	3294.03
1368.995	3295.88
1372.247	3309.3
1375.498	3325.91
1378.749	3380.24
1382	3326.49
1385.251	3401.44
1388.501	3377.99
1391.751	3340.23
1395	3324.6
1398.25	3367.28
1401.499	3360.05
1404.748	3268.51
1407.996	3190.47
1411.244	3187.17
1414.492	3159.52
1417.74	3130.72
1420.987	3154.3
1424.234	3204.22
1427.481	3209.3
1430.728	3264.98
1433.974	3237.25
1437.22	3269.82
1440.465	3275.91
1443.711	3272.62
1446.956	3308.19
1450.201	3319.88
1453.445	3367.39
1456.689	3330.09
1459.933	3347.3
1463.177	3371.1
1466.42	3339.75
1469.663	3318.75
1472.906	3282.89
1476.148	3425.6
1479.391	3311.69
1482.633	3298.48
1485.874	3291.47
1489.115	3252.19
1492.356	3282.74
1495.597	3251.05
1498.838	3266.89
1502.078	3213.31
1505.318	3132.41
1508.557	3187.19
1511.797	3098.72
1515.036	3267.68
1518.274	3249.71
1521.513	3240.8
1524.751	3272.7
1527.989	3273.96
1531.227	3278.09
1534.464	3242.06
1537.701	3298.3
1540.938	3327.16
1544.174	3285.53
1547.41	3297.86
1550.646	3334.36
1553.882	3354.64
1557.117	3402.17
1560.352	3428.78
1563.587	3376.32
1566.821	3326.06
1570.055	3389.29
1573.289	3340.93
1576.523	3439.1
1579.756	3436.49
1582.989	3449.33
1586.222	3407.56
1589.454	3458.78
1592.686	3420.84
1595.918	3440.07
1599.15	3415.04
1602.381	3531.62
1605.612	3450.26
1608.843	3553.79
1612.073	3453.49
1615.303	3429.71
1618.533	3409.53
1621.762	3425.61
1624.992	3426.25
1628.221	3389.12
1631.449	3373.95
1634.678	3471.58
1637.906	3405.91
1641.134	3461.51
1644.361	3404.3
1647.588	3391.85
1650.815	3402.39
1654.042	3401.46
1657.269	3434.16
1660.495	3381.76
1663.72	3334.95
1666.946	3321.66
1670.171	3219.93
1673.396	3204.67
1676.621	3201.45
1679.845	3255.46
1683.069	3296.05
1686.293	3357.04
1689.517	3305.47
1692.74	3200.19
1695.963	3218.54
1699.185	3309.62
1702.408	3257.88
1705.63	3316.19
1708.852	3314.56
1712.073	3289.49
1715.294	3247.18
1718.515	3282.6
1721.736	3222.64
1724.956	3197.61
1728.176	3231.38
1731.396	3248.96
1734.616	3248.93
1737.835	3254.78
1741.054	3250.63
1744.272	3251.96
1747.491	3262.94
1750.709	3356.24
1753.927	3245.06
1757.144	3309.22
1760.361	3369.23
1763.578	3383.73
1766.795	3314.02
1770.011	3338.98
1773.227	3401.8
1776.443	3429.47
1779.658	3472.34
1782.874	3422.59
1786.089	3381.95
1789.303	3386.42
1792.518	3400.89
1795.732	3390.47
1798.945	3391.6
1802.159	3454.39
1805.372	3305.39
1808.585	3278.35
1811.797	3282.54
1815.01	3367.15
1818.222	3368.56
1821.434	3249.03
1824.645	3356.99
1827.856	3313.86
1831.067	3361.3
1834.278	3294.19
1837.488	3282.36
1840.698	3467.72
1843.908	3368.88
1847.117	3327.98
1850.326	3150.53
1853.535	3294.59
1856.744	3415.85
1859.952	3296.05
1863.16	3292.19
1866.368	3321.92
1869.575	3469.74
1872.782	3356.52
1875.989	3305.08
1879.196	3438.82
1882.402	3435.98
1885.608	3489.81
1888.814	3346.7
1892.019	3224.75
1895.224	3278.88
1898.429	3280.41
1901.634	3248.1
1904.838	3233.78
1908.042	3274.71
1911.246	3272.84
1914.449	3161.28
1917.652	3180.05
1920.855	3165.32
1924.058	3242.55
1927.26	3269.53
1930.462	3308.52
1933.664	3318.12
1936.865	3252.51
1940.066	3246.07
1943.267	3198.62
1946.467	3225.2
1949.668	3262.43
1952.868	3325.6
1956.067	3284.5
1959.267	3208.52
1962.466	3241.93
1965.665	3229.28
1968.863	3230.49
1972.061	3258.52
1975.259	3264.62
1978.457	3350.73
1981.654	3300.91
1984.852	3299.31
1988.048	3204.03
1991.245	3226.22
1994.441	3308.27
1997.637	3326.19
2000.833	3306.67
2004.028	3351.13
2007.223	3396.74
2010.418	3359.26
2013.613	3325.71
2016.807	3264.57
2020.001	3292.65
2023.194	3367.04
2026.388	3327.14
2029.581	3274.14
2032.774	3305.13
2035.966	3301.24
2039.158	3209.57
2042.35	3243.67
2045.542	3173.32
2048.733	3304.88
2051.924	3367.25
2055.115	3408.25
2058.306	3318.9
2061.496	3387.72
2064.686	3473.21
2067.875	3393.54
2071.065	3424.86
2074.254	3464.31
2077.442	3415.41
2080.631	3514.17
2083.819	3347.94
2087.007	3312.41
2090.195	3264.98
2093.382	3326.35
2096.569	3301.87
2099.756	3240.67
2102.942	3239.04
2106.128	3228.81
2109.314	3225.62
2112.5	3158.1
2115.685	3146.07
2118.87	3160.51
2122.055	3235.61
2125.239	3180.98
2128.424	3134.65
2131.608	3300.65
2134.791	3278.76
2137.974	3364.53
2141.157	3344.26
2144.34	3270.4
2147.523	3295.74
2150.705	3289.13
2153.887	3286.5
2157.068	3205.23
2160.25	3237.06
2163.431	3302.22
2166.611	3208.07
2169.792	3223.11
2172.972	3093.78
2176.152	3212.65
2179.331	3257.89
2182.511	3232.92
2185.69	3269.34
2188.868	3251.26
2192.047	3335.61
2195.225	3292.22
2198.403	3234.81
2201.58	3240.55
2204.758	3242.27
2207.935	3337.3
2211.111	3186.89
2214.288	3164.62
2217.464	3215.79
2220.64	3206.97
2223.815	3273.79
2226.991	3179.36
2230.166	3204.29
2233.34	3217.73
2236.515	3256.38
2239.689	3348.21
2242.863	3279.67
2246.036	3343.71
2249.209	3366.28
2252.382	3418.71
2255.555	3383.2
2258.727	3297.68
2261.9	3354.81
2265.071	3344.29
2268.243	3360.35
2271.414	3269.65
2274.585	3194.98
2277.756	3279.52
2280.926	3233.33
2284.096	3289.63
2287.266	3164.34
2290.436	3231.66
2293.605	3273.45
2296.774	3292.21
2299.942	3337.82
2303.111	3350.88
2306.279	3392.5
2309.447	3385.6
2312.614	3361.02
2315.781	3376.44
2318.948	3334.28
2322.115	3378.9
2325.281	3278.68
2328.447	3317.39
2331.613	3295.55
2334.779	3242.72
2337.944	3259.55
2341.109	3251.7
2344.274	3226.05
2347.438	3189.66
2350.602	3222.19
2353.766	3243.98
2356.929	3224.45
2360.092	3272.53
2363.255	3196.23
2366.418	3086.32
2369.58	3264.06
2372.742	2933.13
2375.904	2974.26
2379.066	2935.87
2382.227	2986.47
2385.388	2943.63
2388.548	2844.86
2391.709	2918.67
2394.869	2887.93
2398.029	3047.89
2401.188	3086.69
2404.347	2980.11
2407.506	3199.71
2410.665	3220.46
2413.823	3248.92
2416.981	3174.42
2420.139	3231.2
2423.296	3289.97
2426.453	3265.87
2429.61	3291.09
2432.767	3175.93
2435.923	3225.73
2439.079	3105.42
2442.235	3200.12
2445.391	3103.88
2448.546	3111.62
2451.701	3184.39
2454.855	3118.58
2458.009	3204.66
2461.163	3224.43
2464.317	3170.17
2467.471	3211.55
2470.624	3253.08
2473.777	3302.5
2476.929	3291.01
2480.082	3321.25
2483.234	3290.1
2486.385	3163.12
2489.537	3163.91
2492.688	3086.66
2495.839	3107.42
2498.989	3107.8
2502.14	3088.75
2505.29	3053.37
2508.439	3086.24
2511.589	2984.46
2514.738	3014.1
2517.887	3043.21
2521.035	3196.21
2524.183	3195.49
2527.331	3163.69
2530.479	3108.03
2533.627	3129.41
