Data from C_3_DIV_WI_4N_Splice17_12-56-28-311.txt Node
Date: Sat Mar 14 12:56:28 EDT 2020
User: sa697716
Spectrometer: FLMS03696
Trigger mode: 0
Integration Time (sec): 3.180400E-1
Scans to average: 20
Electric dark correction enabled: true
Nonlinearity correction enabled: true
Boxcar width: 5
XAxis mode: Wavelengths
Number of Pixels in Spectrum: 2048
>>>>>Begin Spectral Data<<<<<
187.83	-371802.32
188.298	2651.19
188.766	1398.49
189.233	1260.75
189.701	1829.56
190.169	2565.43
190.636	946.46
191.104	743.55
191.571	89.8
192.039	-73.01
192.506	29.17
192.974	807.19
193.441	-1198.99
193.908	-367.66
194.375	-113.07
194.842	-4.95
195.31	149.2
195.777	152.24
196.244	379.89
196.711	436.91
197.177	535.2
197.644	761.46
198.111	1340.78
198.578	1831.03
199.045	1458.86
199.511	2393.54
199.978	2762.73
200.445	2351.01
200.911	2622.59
201.378	2905.52
201.844	2623.52
202.31	4504.18
202.777	4696.64
203.243	2605.15
203.709	2482.45
204.176	2950.71
204.642	2409.8
205.108	2235.99
205.574	1809.5
206.04	1642.94
206.506	1542.75
206.972	1452.2
207.438	1401.41
207.903	1606.71
208.369	1405.59
208.835	1395.63
209.301	1458.65
209.766	1493.37
210.232	1492.42
210.697	1848.87
211.163	2272.36
211.628	3394.04
212.094	2843.11
212.559	3497.12
213.024	2149.04
213.49	2598.31
213.955	2506.57
214.42	2422.94
214.885	2253.88
215.35	2146.31
215.815	2072.53
216.28	2207.53
216.745	1787.93
217.21	1918.02
217.675	1721.24
218.14	1905.21
218.604	2082.85
219.069	2350.95
219.534	2429.18
219.998	2748.91
220.463	3270.61
220.927	3915.09
221.392	3609.92
221.856	3613.02
222.32	4476.21
222.785	5492.32
223.249	6845.25
223.713	7597.82
224.177	7547.55
224.642	9608.58
225.106	11777.68
225.57	12766.66
226.034	9495.48
226.497	14404.54
226.961	13009.17
227.425	15124.6
227.889	16653.48
228.353	16622.39
228.816	34154.93
229.28	32516.29
229.744	27305.96
230.207	16623.52
230.671	16332.17
231.134	26840.14
231.597	30916.25
232.061	30784.64
232.524	29945.95
232.987	20651.42
233.45	18577.22
233.914	16673.22
234.377	17094.05
234.84	15637.43
235.303	18353.87
235.766	20492.82
236.229	21137.92
236.691	13288.61
237.154	14898.93
237.617	11204.8
238.08	11461.38
238.542	13394.52
239.005	9567.84
239.468	9492.14
239.93	8949.27
240.393	8137.41
240.855	7137.17
241.317	7306.23
241.78	8887.2
242.242	9200.57
242.704	9966.97
243.166	8685.36
243.629	7915.65
244.091	9117.01
244.553	9985.39
245.015	10729.75
245.477	13869.09
245.939	20298.38
246.4	21580.65
246.862	20948.77
247.324	19743.82
247.786	22035.46
248.247	28806.33
248.709	29632.74
249.17	22177.62
249.632	20981.66
250.093	24371.4
250.555	21064.93
251.016	12886.28
251.477	12208.91
251.939	13202.45
252.4	13850.52
252.861	16449.06
253.322	15318.55
253.783	18225.44
254.244	23597.08
254.705	18549.72
255.166	16484.95
255.627	16232.72
256.088	22881.02
256.549	24314.35
257.009	20932
257.47	25373.49
257.931	20664.29
258.391	15499.16
258.852	15972.1
259.312	16732.13
259.773	20638.91
260.233	17446.75
260.694	14704.44
261.154	16661.91
261.614	13402.84
262.074	11960.56
262.534	12440.19
262.994	11736.76
263.455	15615.68
263.915	13168.94
264.374	12391.92
264.834	13523.72
265.294	14960.16
265.754	15509.52
266.214	14682.19
266.673	13725.01
267.133	17327.21
267.593	17175.9
268.052	20996.8
268.512	18252.67
268.971	22013.03
269.431	24167.67
269.89	21647.66
270.349	32438.07
270.809	36188.71
271.268	32536.51
271.727	72918.78
272.186	47210.27
272.645	35357.47
273.104	25467.39
273.563	36870.37
274.022	28930.15
274.481	24647.32
274.94	19025.11
275.399	14146.67
275.857	16431.06
276.316	22218.14
276.775	19787.01
277.233	19501.98
277.692	18275.7
278.15	20726.87
278.609	21368.26
279.067	19798.54
279.525	18387.69
279.984	23676.29
280.442	28456.7
280.9	28155.41
281.358	18513.82
281.816	17249.98
282.274	16868.21
282.732	17438.91
283.19	17509
283.648	15110.08
284.106	16092.31
284.564	16374.38
285.021	15197.62
285.479	11328.53
285.937	10255.98
286.394	9007.2
286.852	9270.13
287.309	9759.8
287.767	9463.86
288.224	9021.25
288.682	9894.52
289.139	10865.28
289.596	9932.37
290.053	10313.7
290.511	13000.39
290.968	15824.43
291.425	21481.61
291.882	17896.54
292.339	15585.38
292.796	15412.68
293.252	14507.79
293.709	11520.66
294.166	10318.93
294.623	11392.88
295.079	10927.61
295.536	11002.39
295.992	9993.24
296.449	9875.6
296.905	10275.56
297.362	9857.97
297.818	10360.11
298.274	10725.83
298.731	10926.25
299.187	10804.86
299.643	11601.98
300.099	14065.62
300.555	15401.63
301.011	12854.77
301.467	12448.07
301.923	14530.78
302.379	14182.41
302.835	13934.26
303.291	13966.27
303.746	15914.97
304.202	20163.94
304.658	20258.02
305.113	13608.91
305.569	13360.57
306.024	14220.38
306.479	13492.45
306.935	11415.37
307.39	12466.59
307.845	11539.48
308.301	11643.51
308.756	11340.59
309.211	10923.51
309.666	11209.65
310.121	13956.62
310.576	14149.03
311.031	14052.96
311.486	16065.72
311.94	16027.92
312.395	21415.64
312.85	40214.39
313.305	196929.5
313.759	1021832.18
314.214	74108.16
314.668	58801.78
315.123	49580.36
315.577	17817.65
316.032	15857.16
316.486	19830.64
316.94	15690.76
317.394	10958.53
317.849	8502.93
318.303	8045.94
318.757	7602.69
319.211	8394.46
319.665	7345.35
320.119	7426.78
320.572	10623.81
321.026	9950.14
321.48	8303.45
321.934	9012.3
322.387	9012.98
322.841	9760.22
323.295	8808.14
323.748	10105.04
324.202	10280.63
324.655	12341.18
325.108	17254.36
325.562	12215.53
326.015	14522.15
326.468	10988.79
326.921	12314.39
327.374	11511.88
327.827	11998.49
328.28	13603.4
328.733	9121
329.186	8000.43
329.639	7633.83
330.092	6431.22
330.545	6138.83
330.997	6186.62
331.45	6783.63
331.903	7967.44
332.355	13643.29
332.808	13242.85
333.26	10908.76
333.713	11873.03
334.165	11973.45
334.617	15951.27
335.069	12854.1
335.522	23157.42
335.974	25658.43
336.426	23355.41
336.878	16166.31
337.33	8237.13
337.782	8047.13
338.234	10116.02
338.686	12075.53
339.137	14320.86
339.589	13497.8
340.041	10600.43
340.493	9117.59
340.944	9347.23
341.396	10093.38
341.847	8513.88
342.299	10053.35
342.75	12288.62
343.201	10711.14
343.653	12311.38
344.104	15097.43
344.555	11850.52
345.006	18371.72
345.457	14111.3
345.908	11187.65
346.359	10552.66
346.81	8573.57
347.261	9006.51
347.712	8846.03
348.163	9446.99
348.613	9615.53
349.064	8991.06
349.515	7882.36
349.965	8091.31
350.416	9726.13
350.866	10681.77
351.317	11992.56
351.767	19862.37
352.217	25123.38
352.668	20842.67
353.118	19137.72
353.568	18337.92
354.018	14511.9
354.468	15309.62
354.918	10997.26
355.368	9620.37
355.818	13585.48
356.268	39165.21
356.718	164496.19
357.168	41007.39
357.617	20613.52
358.067	22888.52
358.517	21472.98
358.966	25171.74
359.416	28441.19
359.865	30758.57
360.315	36524.99
360.764	17045.27
361.213	9571.06
361.663	9043.25
362.112	11136.37
362.561	17981.6
363.01	13595.37
363.459	11422.5
363.908	12342.49
364.357	10477.45
364.806	17666.65
365.255	12134.28
365.703	11170.39
366.152	11175.18
366.601	9042.85
367.05	7363.87
367.498	6691.83
367.947	6977.08
368.395	7266.3
368.844	6434.42
369.292	7691.45
369.74	5337.8
370.189	8191.06
370.637	9579.52
371.085	8270.78
371.533	10080.84
371.981	9717.56
372.429	9277.17
372.877	9689.25
373.325	8114.9
373.773	8322.66
374.221	7417.92
374.669	9157.46
375.116	7922
375.564	7982.01
376.012	8920.64
376.459	7362.36
376.907	8806.4
377.354	10685.16
377.801	9988.91
378.249	11541.43
378.696	14716.06
379.143	17878.2
379.591	19087.13
380.038	32399.33
380.485	23525.64
380.932	25405.23
381.379	23401.23
381.826	17252.65
382.273	12229.19
382.72	10683.09
383.166	10414.88
383.613	6770.67
384.06	6129.74
384.506	7146.53
384.953	5247.46
385.4	5259.97
385.846	4611.11
386.292	4467.05
386.739	4372.78
387.185	4314.49
387.631	4319.33
388.078	4213.4
388.524	4494.91
388.97	4138.96
389.416	3444.61
389.862	3662.46
390.308	3475.8
390.754	3536.39
391.2	3846.2
391.645	3918.52
392.091	3798.35
392.537	3674.67
392.983	3670.6
393.428	3642.37
393.874	3909.48
394.319	3943.78
394.765	3766.11
395.21	3873.2
395.655	3635.96
396.101	3401.6
396.546	3083
396.991	3080.42
397.436	2858.85
397.881	2755.82
398.326	2591.97
398.771	2453.68
399.216	2127.86
399.661	1905.34
400.106	1901.39
400.551	1956.05
400.995	1752.38
401.44	1729.14
401.885	1626.63
402.329	1644.67
402.774	1578.39
403.218	1540.07
403.663	1482.31
404.107	1529.73
404.551	1542.4
404.995	1413.49
405.44	1353.25
405.884	1374.42
406.328	1325.55
406.772	1319.16
407.216	1200.12
407.66	1155.77
408.104	1085.94
408.547	1014.28
408.991	981.86
409.435	941.96
409.879	927.39
410.322	917.93
410.766	887.55
411.209	847.34
411.653	813.08
412.096	799.71
412.54	798.08
412.983	796.37
413.426	801.16
413.869	795.41
414.312	781.04
414.756	751.74
415.199	713.22
415.642	692.43
416.085	694.38
416.527	689.34
416.97	695.3
417.413	661.53
417.856	652.47
418.298	643.79
418.741	636.67
419.184	634.3
419.626	658.48
420.069	659.71
420.511	665.15
420.953	651.91
421.396	645.97
421.838	630.04
422.28	645.87
422.722	649.99
423.164	659.19
423.606	651.78
424.048	650.88
424.49	619.02
424.932	616.31
425.374	604.52
425.816	612.11
426.258	624.08
426.699	629.38
427.141	621.24
427.582	627.91
428.024	624.07
428.465	618.78
428.907	602.77
429.348	595.9
429.789	597.68
430.231	589.86
430.672	600.35
431.113	585.14
431.554	576.03
431.995	559.74
432.436	543.48
432.877	532.56
433.318	528.28
433.759	526.98
434.2	528.58
434.64	520.39
435.081	521.58
435.522	492.5
435.962	473.88
436.403	468.15
436.843	472.81
437.284	462.64
437.724	447.33
438.164	443.91
438.604	432.82
439.045	417.18
439.485	402.64
439.925	391.6
440.365	382.15
440.805	377.05
441.245	372.46
441.685	360.83
442.125	355.52
442.564	357.96
443.004	351.09
443.444	351.9
443.883	351.01
444.323	344.15
444.762	342.77
445.202	346.86
445.641	356.79
446.081	352.15
446.52	355.32
446.959	352.63
447.398	345.83
447.837	341.17
448.276	334.11
448.716	337.68
449.154	341.46
449.593	335.29
450.032	333.84
450.471	324.49
450.91	323.35
451.349	320.5
451.787	317.75
452.226	322.4
452.664	321.14
453.103	320.73
453.541	318.69
453.98	320.68
454.418	321.62
454.856	318.01
455.295	316.32
455.733	318.28
456.171	320.13
456.609	320.54
457.047	319.37
457.485	325.97
457.923	327.66
458.361	322.16
458.798	321.57
459.236	319.81
459.674	319.93
460.111	322.33
460.549	320.1
460.987	318.32
461.424	316.8
461.862	315.39
462.299	310.32
462.736	309.87
463.173	312.38
463.611	310.98
464.048	311.7
464.485	315.75
464.922	312.47
465.359	309.84
465.796	312.53
466.233	311.71
466.67	310.71
467.106	310.88
467.543	306.45
467.98	302
468.416	293.5
468.853	290.24
469.29	280.71
469.726	277.99
470.162	270.57
470.599	261.66
471.035	258.14
471.471	251.36
471.907	248.46
472.344	247.28
472.78	247.57
473.216	249.26
473.652	246.41
474.088	244.83
474.523	243.78
474.959	247.1
475.395	245.26
475.831	244.25
476.266	244.44
476.702	243.41
477.138	240.19
477.573	239.83
478.008	237.99
478.444	239.75
478.879	242.68
479.314	244.05
479.75	242.66
480.185	242.24
480.62	243.08
481.055	244.13
481.49	245.45
481.925	249.74
482.36	256.2
482.795	262.65
483.229	268.06
483.664	273.61
484.099	273.75
484.534	278.22
484.968	281.38
485.403	281.73
485.837	281.13
486.271	280.07
486.706	279.54
487.14	273.73
487.574	269.65
488.009	267.1
488.443	263.82
488.877	267.27
489.311	267.2
489.745	270.76
490.179	274.2
490.613	280.33
491.046	282.69
491.48	284.72
491.914	286.34
492.348	289.28
492.781	291.8
493.215	292.98
493.648	293.06
494.082	297.08
494.515	298.55
494.948	303.48
495.382	305.34
495.815	308.03
496.248	311.59
496.681	317.27
497.114	323.31
497.547	329.26
497.98	336.9
498.413	342.33
498.846	348.3
499.279	352.9
499.711	355.68
500.144	358.21
500.577	366.43
501.009	373.3
501.442	380.52
501.874	383.6
502.306	386.59
502.739	395.06
503.171	404.11
503.603	408.07
504.036	415.31
504.468	420.32
504.9	429.19
505.332	434.96
505.764	440.83
506.196	447.47
506.627	458.34
507.059	468.88
507.491	474.21
507.923	477.14
508.354	488.88
508.786	497.64
509.217	512.09
509.649	523.72
510.08	537.79
510.512	551.41
510.943	563.74
511.374	573.71
511.805	588.93
512.237	604.58
512.668	625.93
513.099	644.77
513.53	665.85
513.961	682.14
514.391	705.44
514.822	731.42
515.253	756.96
515.684	777.49
516.114	801.53
516.545	819.3
516.975	839.52
517.406	856.59
517.836	864.12
518.267	873.22
518.697	890.37
519.127	898.9
519.558	907.32
519.988	915.18
520.418	925.9
520.848	940.99
521.278	951.97
521.708	987.07
522.138	1000.96
522.567	1026.14
522.997	1048.2
523.427	1062.44
523.857	1078.43
524.286	1089.34
524.716	1104.14
525.145	1122.06
525.575	1134.52
526.004	1148.23
526.433	1131.56
526.863	1134.95
527.292	1131.95
527.721	1138.63
528.15	1146.02
528.579	1149.62
529.008	1160.17
529.437	1178.02
529.866	1190.68
530.295	1204.34
530.724	1216.14
531.152	1236.73
531.581	1249.03
532.01	1263.85
532.438	1272.49
532.867	1284.53
533.295	1298.99
533.723	1305.11
534.152	1304.29
534.58	1304.96
535.008	1294.71
535.436	1297.62
535.865	1304.64
536.293	1315.56
536.721	1327.22
537.149	1345.39
537.576	1348.36
538.004	1358.42
538.432	1363.67
538.86	1364.63
539.287	1369.66
539.715	1379.54
540.143	1381.07
540.57	1378.66
540.998	1375.75
541.425	1359.91
541.852	1345.11
542.28	1344.43
542.707	1332.28
543.134	1323.41
543.561	1319.91
543.988	1314.46
544.415	1314.58
544.842	1310.35
545.269	1305.14
545.696	1308.16
546.123	1317.39
546.549	1310.29
546.976	1300.79
547.403	1301.67
547.829	1303.17
548.256	1304.72
548.682	1304.26
549.108	1300.45
549.535	1301.33
549.961	1303.62
550.387	1293.64
550.813	1290.69
551.24	1295.34
551.666	1296.42
552.092	1290.18
552.518	1286.26
552.943	1283.34
553.369	1288.47
553.795	1292.73
554.221	1293.31
554.646	1290.48
555.072	1298.58
555.498	1300.99
555.923	1307.43
556.349	1318.33
556.774	1322.27
557.199	1322.31
557.625	1324.24
558.05	1318.54
558.475	1323.82
558.9	1321.06
559.325	1314.46
559.75	1307.95
560.175	1302.54
560.6	1296.22
561.025	1291.89
561.449	1291
561.874	1293
562.299	1294.56
562.723	1296.87
563.148	1287.57
563.572	1287.96
563.997	1291.92
564.421	1292.88
564.846	1289.23
565.27	1288.57
565.694	1283.85
566.118	1288.43
566.542	1289.85
566.966	1281.32
567.39	1274.7
567.814	1264.6
568.238	1261.26
568.662	1260.34
569.086	1258.38
569.509	1259.53
569.933	1246.95
570.357	1238.05
570.78	1219.97
571.204	1208.02
571.627	1197.48
572.05	1192.73
572.474	1188.73
572.897	1176.35
573.32	1168.94
573.743	1158.97
574.166	1144.3
574.589	1139.88
575.012	1132.16
575.435	1128.69
575.858	1119.72
576.281	1109.66
576.704	1096.59
577.126	1085.07
577.549	1075.74
577.972	1066.33
578.394	1057.3
578.817	1052.66
579.239	1038.56
579.661	1028.34
580.084	1017.14
580.506	1006.97
580.928	1001.95
581.35	993.01
581.772	988.57
582.194	978.07
582.616	968.28
583.038	956.96
583.46	945.87
583.882	941.8
584.303	941.89
584.725	937.67
585.147	939.79
585.568	945.96
585.99	952
586.411	955.07
586.833	963.75
587.254	963.23
587.675	971.71
588.096	979.36
588.518	975.12
588.939	964.04
589.36	961.73
589.781	950.78
590.202	933.81
590.623	927.14
591.043	924.8
591.464	916.06
591.885	913.53
592.305	908.17
592.726	899.26
593.147	899.46
593.567	895.19
593.987	888.82
594.408	884.49
594.828	880.2
595.248	877.09
595.669	865.88
596.089	861.09
596.509	856.27
596.929	847.37
597.349	846.49
597.769	839.1
598.189	834.29
598.608	834.51
599.028	835.74
599.448	835.06
599.867	826.19
600.287	821.62
600.706	817.86
601.126	811.38
601.545	811.04
601.965	809.79
602.384	806.54
602.803	807.42
603.222	804.03
603.641	798.96
604.061	796.41
604.48	792.4
604.898	796.22
605.317	797.52
605.736	796.61
606.155	793.37
606.574	785.45
606.992	786.19
607.411	782.13
607.829	774.59
608.248	771.33
608.666	767.61
609.085	766.07
609.503	759.46
609.921	754.71
610.339	754.84
610.758	751.31
611.176	747.11
611.594	740.64
612.012	737.05
612.43	737.75
612.847	738.38
613.265	737.55
613.683	737.27
614.101	735.86
614.518	731.15
614.936	723.65
615.353	714.89
615.771	712.16
616.188	710.62
616.606	707.03
617.023	702.03
617.44	692.59
617.857	687.55
618.274	682.19
618.691	677.84
619.108	672.09
619.525	667.29
619.942	669.69
620.359	670.02
620.776	665.97
621.192	662.93
621.609	661.14
622.026	665.25
622.442	667.97
622.859	668.59
623.275	663.92
623.691	665.09
624.108	670.2
624.524	676.35
624.94	674.99
625.356	679.39
625.772	685.69
626.188	690.56
626.604	690.17
627.02	686.46
627.436	684.74
627.852	689.03
628.268	695.85
628.683	690.7
629.099	686.61
629.514	684.17
629.93	685.87
630.345	687.53
630.761	685.55
631.176	686.83
631.591	684.72
632.007	681.96
632.422	679.26
632.837	671.9
633.252	670.8
633.667	664.05
634.082	658.11
634.497	649.97
634.911	639.76
635.326	635.96
635.741	625.46
636.155	617.94
636.57	617.02
636.984	614.66
637.399	614.76
637.813	612.71
638.228	610.01
638.642	609.85
639.056	603
639.47	599.46
639.884	593.34
640.298	587.71
640.712	584.62
641.126	576.02
641.54	569.58
641.954	562.71
642.368	553.82
642.781	550.49
643.195	539.82
643.609	538.34
644.022	534.52
644.436	530.14
644.849	522.46
645.262	514.48
645.676	512.88
646.089	509.12
646.502	502.19
646.915	498.04
647.328	487.25
647.741	485.25
648.154	478.31
648.567	476.83
648.98	470.67
649.393	470.18
649.805	468.11
650.218	464.18
650.631	456.66
651.043	453.28
651.456	450.07
651.868	448.59
652.28	454.64
652.693	458.51
653.105	458.57
653.517	461.01
653.929	460.37
654.341	461.38
654.753	455.08
655.165	456.02
655.577	453.71
655.989	450.12
656.401	445.24
656.813	429.82
657.224	420.86
657.636	407.26
658.047	398.93
658.459	389.24
658.87	383.64
659.282	376.68
659.693	367.5
660.104	360.02
660.515	352.79
660.926	352.31
661.338	349.11
661.749	344.47
662.159	340.54
662.57	336.26
662.981	334.01
663.392	330.65
663.803	331.04
664.213	329.67
664.624	327.31
665.035	329.05
665.445	321.95
665.855	320.86
666.266	318.94
666.676	318.01
667.086	314.99
667.497	315.89
667.907	313.78
668.317	310.69
668.727	312.13
669.137	311.96
669.547	311.7
669.956	313.46
670.366	314.55
670.776	317.37
671.186	318.92
671.595	322.06
672.005	322.3
672.414	324.01
672.824	325.79
673.233	324.47
673.642	327.06
674.052	329.22
674.461	332.31
674.87	333.63
675.279	333.3
675.688	334.27
676.097	336.64
676.506	337.51
676.915	343.85
677.323	345.2
677.732	346.64
678.141	347.5
678.549	342.9
678.958	342.41
679.366	343.09
679.775	344.06
680.183	351.97
680.592	354.13
681	356.29
681.408	354.46
681.816	358.48
682.224	362.28
682.632	368.94
683.04	383.77
683.448	395.43
683.856	410.39
684.264	428.58
684.671	443.2
685.079	463.16
685.487	484.99
685.894	514.95
686.302	538.72
686.709	561.1
687.116	585.76
687.524	608.21
687.931	628.32
688.338	646.58
688.745	662.54
689.152	680.86
689.559	706.63
689.966	734.12
690.373	750.38
690.78	778.97
691.187	818.41
691.593	850.57
692	881.05
692.407	922.88
692.813	975.85
693.22	1018.98
693.626	1062.81
694.032	1103.16
694.439	1158.72
694.845	1205.19
695.251	1261.52
695.657	1314.02
696.063	1387.24
696.469	1445.44
696.875	1502.79
697.281	1540.91
697.687	1586.18
698.093	1628.09
698.498	1691.24
698.904	1743.18
699.31	1816.99
699.715	1877.36
700.12	1955.65
700.526	1985.39
700.931	2050
701.337	2103.85
701.742	2144.6
702.147	2220.85
702.552	2260.09
702.957	2318.88
703.362	2351.92
703.767	2390.83
704.172	2434.37
704.577	2415.94
704.981	2466.12
705.386	2495.69
705.791	2504.19
706.195	2574.95
706.6	2596.73
707.004	2672.4
707.408	2664.89
707.813	2700.62
708.217	2705.32
708.621	2721.2
709.025	2809.22
709.43	2825.33
709.834	2885.27
710.237	2954.33
710.641	2955.19
711.045	2987.55
711.449	2995.9
711.853	3033.46
712.256	3077.29
712.66	3119.98
713.064	3193.97
713.467	3242.45
713.87	3344.97
714.274	3395.23
714.677	3497.46
715.08	3643.43
715.484	3791.94
715.887	3975.04
716.29	4151.9
716.693	4340.26
717.096	4553.49
717.499	4676.2
717.901	4708.53
718.304	4744.23
718.707	4776.73
719.109	4700.24
719.512	4684.71
719.915	4584.28
720.317	4544.3
720.719	4591.61
721.122	4576.13
721.524	4544.56
721.926	4519.74
722.328	4618.04
722.731	4619.38
723.133	4651.79
723.535	4831.39
723.937	4860.94
724.338	4914
724.74	4959.8
725.142	4925.81
725.544	4936.35
725.945	4971.45
726.347	4975.17
726.748	4978.44
727.15	4998.38
727.551	4973.64
727.952	4954.13
728.354	4932.74
728.755	4939.26
729.156	4908.72
729.557	4893.21
729.958	4785.04
730.359	4736.76
730.76	4726.03
731.161	4675.81
731.562	4658.97
731.962	4665.25
732.363	4612.69
732.763	4561.61
733.164	4599.05
733.564	4540.31
733.965	4459.04
734.365	4435.83
734.766	4467.17
735.166	4432.64
735.566	4388.5
735.966	4367.93
736.366	4366.81
736.766	4317.33
737.166	4346.85
737.566	4311.03
737.966	4293.45
738.365	4331.01
738.765	4326.74
739.165	4259.9
739.564	4241.47
739.964	4284.47
740.363	4242.42
740.763	4242.63
741.162	4231.91
741.561	4205.3
741.96	4167.61
742.36	4186.09
742.759	4192.3
743.158	4229.09
743.557	4243.12
743.955	4279.04
744.354	4237.97
744.753	4293.22
745.152	4257.71
745.55	4307.99
745.949	4303.32
746.348	4304.93
746.746	4321.73
747.144	4288.02
747.543	4270.05
747.941	4317.06
748.339	4257.39
748.737	4250.28
749.136	4244.8
749.534	4306.99
749.932	4283.39
750.33	4307.34
750.727	4357.63
751.125	4337.04
751.523	4324.43
751.921	4365.66
752.318	4335.29
752.716	4388.61
753.113	4404.33
753.511	4426.28
753.908	4422.7
754.305	4408.19
754.703	4464.46
755.1	4520.71
755.497	4575.55
755.894	4746.04
756.291	4908.15
756.688	5207.34
757.085	5606.15
757.482	6166.34
757.878	6781.26
758.275	7345.74
758.672	8109.83
759.068	8731.84
759.465	9623.45
759.861	10770.14
760.258	12099.48
760.654	12781.85
761.05	12685.71
761.447	12108.94
761.843	11271.3
762.239	10411.59
762.635	10010.9
763.031	9630.13
763.427	9090.27
763.822	8522.36
764.218	7961.84
764.614	7237.85
765.01	6754.42
765.405	6437.33
765.801	6195.96
766.196	5888.48
766.592	5717.84
766.987	5430.1
767.382	5239.11
767.778	5159.57
768.173	5042.19
768.568	4976.61
768.963	4863
769.358	4879.82
769.753	4836.65
770.148	4763.12
770.542	4767.05
770.937	4736.27
771.332	4819.02
771.726	4838.75
772.121	4780.23
772.515	4829.49
772.91	4816.97
773.304	4881.68
773.699	4820.4
774.093	4870.47
774.487	4921.95
774.881	4960.46
775.275	4958.86
775.669	4923.9
776.063	4962.84
776.457	4996.79
776.851	4928.36
777.245	4920.7
777.638	4949.95
778.032	5056.12
778.425	5023.65
778.819	5061.34
779.212	5023.06
779.606	4986.35
779.999	5003.86
780.392	4989.12
780.786	5062.67
781.179	5081.47
781.572	5119.42
781.965	5132.42
782.358	5078.95
782.751	5129.68
783.143	5084.77
783.536	5151.76
783.929	5191.58
784.322	5295.49
784.714	5323.01
785.107	5320.99
785.499	5385.15
785.891	5366.83
786.284	5352.22
786.676	5482.57
787.068	5467.83
787.46	5513.76
787.852	5529.66
788.245	5607.37
788.636	5635.63
789.028	5700.5
789.42	5737.44
789.812	5749.07
790.204	5836.56
790.595	5926
790.987	5746.48
791.378	5766.52
791.77	5886.53
792.161	6010.88
792.553	6061.88
792.944	5962.11
793.335	5898.82
793.726	5961.83
794.117	6042.27
794.508	6165.16
794.899	6136.91
795.29	6266.11
795.681	6318.56
796.072	6193.88
796.463	6033.22
796.853	6045.35
797.244	6186.71
797.634	6219.65
798.025	6224.73
798.415	6236.67
798.806	6321.27
799.196	6400.95
799.586	6449.53
799.976	6415.26
800.366	6622.75
800.756	6836.37
801.146	6797.05
801.536	6826.47
801.926	6893.77
802.316	6915.46
802.706	6982.84
803.095	6870.54
803.485	6962.69
803.874	6998.95
804.264	7237.47
804.653	7213.12
805.043	7346.88
805.432	7446.17
805.821	7449.41
806.21	7467.38
806.599	7571.58
806.988	7614.57
807.377	7715.69
807.766	7835.85
808.155	8093.27
808.544	7853.54
808.933	7867.95
809.321	7848.66
809.71	8124.62
810.098	8266.56
810.487	8683.67
810.875	9131.28
811.264	9149.1
811.652	9413.97
812.04	9544.9
812.428	9695.53
812.816	10387.8
813.204	10763.3
813.592	11269.26
813.98	11575.73
814.368	11492.5
814.756	11939.85
815.144	11861.29
815.531	12289.73
815.919	12218.54
816.306	12501.42
816.694	12222
817.081	12275.33
817.469	12598.68
817.856	12596.69
818.243	12840.46
818.63	13198.16
819.017	12810.53
819.404	12874.92
819.791	13220.67
820.178	13779.87
820.565	14010.46
820.952	14861.55
821.339	14406.65
821.725	14578.61
822.112	13894.66
822.498	13862.01
822.885	13979.66
823.271	13898.37
823.657	14281.9
824.044	14297.6
824.43	14372.53
824.816	14342.98
825.202	13949.43
825.588	14883.49
825.974	14900.56
826.36	15381.28
826.746	15406.06
827.132	15741.51
827.517	15711.02
827.903	14989.25
828.289	15021.39
828.674	14305.68
829.06	14208.93
829.445	14569.55
829.83	14892.93
830.216	15319.59
830.601	15652.91
830.986	15281.75
831.371	15153.35
831.756	15670.61
832.141	15281.78
832.526	15270.75
832.911	15531.6
833.295	15423.4
833.68	15849.59
834.065	15284.5
834.449	14453.39
834.834	14377.64
835.218	14376.33
835.603	14683.32
835.987	14480.77
836.371	15223.97
836.755	15128.77
837.139	15494.44
837.524	15715.83
837.908	15544.42
838.291	15602.46
838.675	15664.48
839.059	15856.13
839.443	15842.58
839.827	15628.68
840.21	16069.25
840.594	15939.8
840.977	16127.1
841.361	16102.66
841.744	16439.38
842.127	16299.67
842.511	16514.66
842.894	17053.08
843.277	17399.11
843.66	17887.9
844.043	17958.85
844.426	17221.47
844.809	16934.33
845.191	16959.89
845.574	16538.66
845.957	16206.19
846.339	16111.22
846.722	15635.07
847.104	15700.35
847.487	15542.3
847.869	15554.81
848.252	15807.45
848.634	16105.85
849.016	16341.19
849.398	16457.46
849.78	17228.82
850.162	17230.94
850.544	17596.98
850.926	18167.65
851.307	18087.26
851.689	18331.29
852.071	18736.52
852.452	19029.36
852.834	19007.69
853.215	19376.32
853.597	19518.93
853.978	19788.15
854.359	20200.5
854.741	19310.34
855.122	19218.65
855.503	18947.4
855.884	19080.79
856.265	19024.97
856.646	19138.43
857.026	18785.33
857.407	18723.11
857.788	18861.89
858.169	19119.17
858.549	18350.01
858.93	18904.31
859.31	18946.02
859.69	19143.17
860.071	18771.48
860.451	18578.9
860.831	17902.76
861.211	18950.3
861.591	19451.79
861.971	19421.77
862.351	19594.63
862.731	19948.99
863.111	20197.81
863.491	20497.36
863.87	21287.82
864.25	21617.28
864.629	21247.55
865.009	21715.24
865.388	22490.52
865.768	24096.64
866.147	24003.26
866.526	22672.63
866.905	22958.6
867.284	24248.65
867.663	23039.38
868.042	22086.94
868.421	22004.94
868.8	22381.56
869.179	22603.52
869.558	21293.05
869.936	19635.85
870.315	19991.56
870.693	20484.81
871.072	22073.64
871.45	21027.43
871.828	21286.59
872.207	22382.74
872.585	22059.72
872.963	22652.76
873.341	21872.08
873.719	21615.67
874.097	21348.42
874.475	21749.62
874.853	22251.47
875.23	21335.51
875.608	22223.72
875.986	24042.42
876.363	22977.12
876.741	23657.2
877.118	23069.59
877.495	24207.06
877.873	24599.84
878.25	25889.8
878.627	24829.03
879.004	25176.71
879.381	25054.6
879.758	24398.07
880.135	22708.41
880.512	24020.94
880.889	23390.08
881.265	23137.05
881.642	22944.68
882.019	23332.19
882.395	22852.38
882.772	23755.23
883.148	22711.14
883.524	22605.65
883.901	22471.82
884.277	22813.73
884.653	22664.39
885.029	23310.44
885.405	25826.3
885.781	25617.19
886.157	24565.71
886.532	24861.89
886.908	24859.84
887.284	27643.71
887.659	28551.34
888.035	29443.83
888.411	30196.35
888.786	30585.08
889.161	31645.98
889.537	31048.43
889.912	32034.23
890.287	32005.97
890.662	32815.33
891.037	32199.1
891.412	30016.33
891.787	29709.92
892.162	28666.09
892.536	29329.95
892.911	28228.97
893.286	27618.77
893.66	26493.93
894.035	27178.89
894.409	29575.58
894.784	28390.41
895.158	28868.69
895.532	30577.66
895.906	31405.94
896.281	32143.32
896.655	31624.16
897.029	36133.99
897.402	37642.81
897.776	41914.45
898.15	41742.9
898.524	41296.64
898.898	41850.12
899.271	46841.25
899.645	40577.74
900.018	38967.37
900.392	40397.05
900.765	40722.1
901.138	37697.59
901.511	37111.84
901.884	34070.91
902.258	31430.87
902.631	32477.97
903.003	37368.09
903.376	33721.75
903.749	37808.82
904.122	40469.92
904.495	44551.1
904.867	45114.64
905.24	39161.52
905.612	36456.58
905.985	37276.08
906.357	38988.6
906.729	37224.89
907.102	31798.54
907.474	30571.55
907.846	30765.56
908.218	30366.12
908.59	26846.35
908.962	25962.29
909.334	27947.88
909.705	29357.58
910.077	28503.56
910.449	29657.38
910.82	30482.29
911.192	33543.8
911.563	34859.8
911.935	37310.59
912.306	37369.51
912.677	38572.25
913.048	38207.09
913.419	41459.96
913.79	41726.05
914.161	44744.44
914.532	42763.46
914.903	39290.74
915.274	37320.91
915.645	36780.97
916.015	32369.94
916.386	30859.24
916.756	32870.29
917.127	33898.74
917.497	30292.05
917.868	32940.37
918.238	31325.64
918.608	32228.52
918.978	32914.35
919.348	34861.51
919.718	36001.48
920.088	34685.18
920.458	36059.97
920.828	37935.35
921.198	35964.76
921.567	38436.42
921.937	29788.58
922.306	30058.44
922.676	32417.52
923.045	27044.28
923.415	25688.75
923.784	23426.73
924.153	24090.19
924.522	24049.28
924.891	22603.15
925.26	24211.9
925.629	23639.69
925.998	27180.83
926.367	26538.36
926.736	25283.22
927.104	30097.96
927.473	32353.91
927.842	39070.07
928.21	38685.07
928.578	40666.41
928.947	38474.37
929.315	38705.52
929.683	45369.91
930.051	45719.8
930.42	53110.76
930.788	45390.13
931.156	45048.37
931.523	42234.08
931.891	39000.95
932.259	37456.32
932.627	43429.48
932.994	61368.9
933.362	50742.05
933.729	44040.72
934.097	42134.93
934.464	35636.6
934.831	41110.45
935.199	40502.89
935.566	39290.44
935.933	39866.18
936.3	48300.16
936.667	37595.99
937.034	33965.18
937.401	33582.19
937.767	28996.69
938.134	25833.03
938.501	36439.72
938.867	38848.77
939.234	65750.14
939.6	56087.18
939.967	61697.42
940.333	41307.39
940.699	35160.65
941.065	28185.89
941.431	36995.76
941.798	35676.16
942.163	46837.34
942.529	29235.36
942.895	26901.62
943.261	17405.99
943.627	22864.42
943.992	20031
944.358	20065.2
944.723	20150.01
945.089	19662.31
945.454	18146.15
945.82	19374.44
946.185	18635.48
946.55	21602.41
946.915	19407.35
947.28	22778.61
947.645	20037.68
948.01	18507.02
948.375	19292.97
948.74	23129.27
949.104	26988.55
949.469	39007.69
949.834	68963.11
950.198	65342.65
950.562	39198.73
950.927	32649.48
951.291	39306.55
951.655	33491.28
952.02	31413
952.384	23775.82
952.748	20705.93
953.112	20181.29
953.476	17533.6
953.839	16207.41
954.203	16034.19
954.567	20027.6
954.931	31495.51
955.294	26923.27
955.658	27055.53
956.021	45965.32
956.385	77839.16
956.748	114795.52
957.111	178130.23
957.474	200080.8
957.837	225266.9
958.2	170555.89
958.563	61388.3
958.926	41543.31
959.289	63002.61
959.652	70352.74
960.015	52843.59
960.377	75878.33
960.74	86508.61
961.102	149348.33
961.465	160274.05
961.827	85929.22
962.189	164897.85
962.552	114338.5
962.914	91598.5
963.276	59460.82
963.638	49157.3
964	48666.51
964.362	32884.69
964.724	31779.86
965.085	22653.55
965.447	18591.52
965.809	21175.93
966.17	21180.32
966.532	22922.42
966.893	21059.22
967.255	19152.89
967.616	22618.52
967.977	18090.56
968.338	19760.94
968.699	16251.97
969.061	16246.55
969.421	16335.48
969.782	18335.91
970.143	15470.21
970.504	16011.63
970.865	18202.04
971.225	18614.38
971.586	18203.28
971.946	25967.86
972.307	22512.78
972.667	29440.47
973.027	30327.56
973.388	36777.91
973.748	24994.62
974.108	27231.91
974.468	36849.84
974.828	28407.5
975.188	21842.05
975.548	20043
975.907	16850.76
976.267	18916.86
976.627	15885.25
976.986	16448.96
977.346	15665.84
977.705	15055.74
978.064	13723.99
978.424	11424.61
978.783	11801.78
979.142	13484.48
979.501	12922.75
979.86	13634.67
980.219	13119.99
980.578	16917.47
980.937	18956.71
981.296	16919.35
981.654	17416.84
982.013	27071.69
982.371	35110.37
982.73	32781.72
983.088	37075.56
983.447	39575.09
983.805	56626.05
984.163	118488.55
984.521	131274.24
984.879	192479.26
985.237	-312925.61
985.595	302110.89
985.953	75221.16
986.311	43382.44
986.669	25173.17
987.026	21756.48
987.384	29218.26
987.741	30164.16
988.099	21549.28
988.456	17228.09
988.814	16127.73
989.171	14006.41
989.528	13806.03
989.885	14545.94
990.242	11542.13
990.599	14382.53
990.956	11740.87
991.313	8220.86
991.67	6755.88
992.027	7172.01
992.383	6367.65
992.74	5581.12
993.096	5859.39
993.453	6078.4
993.809	6309.46
994.165	8389.01
994.522	7697.11
994.878	8497.06
995.234	10637.77
995.59	10497.64
995.946	9928.41
996.302	11312.52
996.658	13108.41
997.013	14411.07
997.369	17093.52
997.725	21871.99
998.08	14174.04
998.436	21832.21
998.791	30180.88
999.147	30178.29
999.502	32881.88
999.857	23848.16
1000.212	38889.01
1000.567	55287.67
1000.922	31983.32
1001.277	20329.76
1001.632	15099.08
1001.987	19458.48
1002.342	13931.02
1002.696	11116.49
1003.051	8884.36
1003.406	10767.41
1003.76	10749.84
1004.114	10591.94
1004.469	8899.08
1004.823	7365.29
1005.177	7939.25
1005.531	6301.75
1005.885	5595.17
1006.239	6318.61
1006.593	7922.03
1006.947	10601.68
1007.301	7962.98
1007.655	8675.62
1008.008	6377.47
1008.362	7162.89
1008.715	10230.9
1009.069	9280.02
1009.422	13953.37
1009.776	27915.39
1010.129	18587.25
1010.482	15519.7
1010.835	13098.78
1011.188	27127.69
1011.541	25566.7
1011.894	-156390.69
1012.247	459686.37
1012.6	31239.17
1012.952	19752.17
1013.305	10174.61
1013.657	7320.44
1014.01	6919.04
1014.362	5719.96
1014.715	5096.13
1015.067	4455.65
1015.419	4357.68
1015.771	3861.78
1016.123	3439.23
1016.475	3533.06
1016.827	3761.71
1017.179	4045.21
1017.531	4082.59
1017.883	4159.96
1018.234	4024.32
1018.586	5072.35
1018.938	5377.77
1019.289	7400.66
1019.64	8472.85
1019.992	7906.22
1020.343	7253.06
1020.694	5754.41
1021.045	5069.51
1021.396	5796.65
1021.747	6240.44
1022.098	7449.76
1022.449	5411.12
1022.8	5033.73
1023.151	3512.8
1023.501	3114.12
1023.852	3375.47
1024.202	3505.33
1024.553	3841.73
1024.903	3786.45
1025.253	3239.82
1025.604	2911.21
1025.954	3612.4
1026.304	4393.02
1026.654	5120.3
1027.004	7462.03
1027.354	12018.99
1027.703	11303.55
1028.053	14843.08
1028.403	21790.3
1028.753	31358.95
1029.102	42555.27
1029.452	217908.62
1029.801	9392.08
1030.15	6060.35
1030.499	5105.27
897.758	2675.56
901.051	2631.79
904.343	2664.82
907.636	2666.76
910.928	2732.22
914.22	2640.49
917.511	2650.22
920.803	2710.97
924.094	2728.91
927.384	2708.46
930.675	2675.21
933.965	2628.01
937.255	2635.36
940.544	2602.85
943.834	2542.27
947.123	2484.96
950.411	2582.97
953.7	2554.51
956.988	2522.56
960.276	2464.04
963.563	2542.38
966.851	2536.95
970.138	2596.31
973.424	2592.46
976.711	2543.5
979.997	2674.31
983.283	2711.52
986.568	2615.76
989.853	2629.56
993.138	2658.49
996.423	2740.97
999.708	2678.62
1002.992	2743.67
1006.275	2577.66
1009.559	2621.68
1012.842	2736.44
1016.125	2667.35
1019.408	2646.85
1022.69	2733.61
1025.972	2752.75
1029.254	2729.97
1032.536	2662.32
1035.817	2690.32
1039.098	2633.69
1042.379	2773.97
1045.659	2773.2
1048.939	2706.67
1052.219	2727.49
1055.498	2736.45
1058.778	2722.09
1062.057	2707.86
1065.335	2726.07
1068.614	2742.47
1071.892	2725.28
1075.17	2799.5
1078.447	2792.61
1081.724	2782.72
1085.001	2817.91
1088.278	2793.63
1091.554	2805.42
1094.83	2802.53
1098.106	2828.59
1101.382	2874.43
1104.657	2878.22
1107.932	2874.4
1111.206	2836.41
1114.481	2793.54
1117.755	2793.88
1121.029	2774.89
1124.302	2830.1
1127.575	2780.63
1130.848	2766.69
1134.121	2729.27
1137.393	2678.68
1140.665	2746.43
1143.937	2720.55
1147.208	2682.06
1150.48	2721.34
1153.75	2709.57
1157.021	2742.13
1160.291	2708.75
1163.561	2755.2
1166.831	2745.36
1170.101	2776.76
1173.37	2749.01
1176.639	2691.62
1179.907	2751.24
1183.176	2758.15
1186.444	2767.05
1189.711	2797.09
1192.979	2805.48
1196.246	2765.31
1199.513	2784.31
1202.78	2781.91
1206.046	2792.52
1209.312	2816.16
1212.578	2844.92
1215.843	2795.73
1219.108	2768.04
1222.373	2792.73
1225.638	2754.25
1228.902	2738.89
1232.166	2700.28
1235.43	2684.39
1238.693	2705.35
1241.956	2701.95
1245.219	2745.84
1248.482	2734.01
1251.744	2732.13
1255.006	2882.92
1258.268	2835.36
1261.529	2779.17
1264.79	2783.89
1268.051	2889.96
1271.312	2903.82
1274.572	2869.55
1277.832	2856.73
1281.092	2846.79
1284.351	2820.57
1287.61	2797.48
1290.869	2710.89
1294.128	2687.23
1297.386	2778.14
1300.644	2768.91
1303.902	2780.89
1307.159	2636.78
1310.416	2691.12
1313.673	2717.44
1316.93	2703.5
1320.186	2748.97
1323.442	2790.83
1326.697	2781.82
1329.953	2772.31
1333.208	2797.63
1336.463	2778.35
1339.717	2716.54
1342.972	2854.62
1346.226	2827.99
1349.479	2762.38
1352.733	2731.07
1355.986	2753.51
1359.238	2731.43
1362.491	2734.26
1365.743	2738.32
1368.995	2727.26
1372.247	2742.49
1375.498	2768.24
1378.749	2781.9
1382	2740.21
1385.251	2792.34
1388.501	2752.84
1391.751	2737.33
1395	2707.92
1398.25	2741.11
1401.499	2746.24
1404.748	2676.88
1407.996	2664.77
1411.244	2650.37
1414.492	2632.63
1417.74	2608.51
1420.987	2619.58
1424.234	2679.34
1427.481	2657.47
1430.728	2715.82
1433.974	2691.68
1437.22	2706.73
1440.465	2708.13
1443.711	2671.46
1446.956	2709.44
1450.201	2693.93
1453.445	2742.02
1456.689	2719.26
1459.933	2729.62
1463.177	2765.25
1466.42	2735.25
1469.663	2717.3
1472.906	2712.44
1476.148	2785.06
1479.391	2748.38
1482.633	2713.71
1485.874	2728.78
1489.115	2714.21
1492.356	2719.46
1495.597	2694.35
1498.838	2693.71
1502.078	2665.25
1505.318	2610.99
1508.557	2654.02
1511.797	2633.27
1515.036	2702.18
1518.274	2689.18
1521.513	2660.52
1524.751	2683.58
1527.989	2694.57
1531.227	2707.68
1534.464	2705.56
1537.701	2724.32
1540.938	2742.21
1544.174	2695.47
1547.41	2691.12
1550.646	2729.51
1553.882	2770.22
1557.117	2822.97
1560.352	2837.16
1563.587	2795.15
1566.821	2757.08
1570.055	2788.25
1573.289	2760.95
1576.523	2838
1579.756	2842.6
1582.989	2863.98
1586.222	2824.12
1589.454	2860.53
1592.686	2832.72
1595.918	2857.94
1599.15	2846.59
1602.381	2920.47
1605.612	2876.23
1608.843	2972.18
1612.073	2884.79
1615.303	2870.49
1618.533	2860.5
1621.762	2864.87
1624.992	2851.69
1628.221	2837.55
1631.449	2819.75
1634.678	2878.23
1637.906	2830.5
1641.134	2871.96
1644.361	2826.09
1647.588	2814.28
1650.815	2832.26
1654.042	2808.1
1657.269	2838.67
1660.495	2791.39
1663.72	2815.36
1666.946	2782.01
1670.171	2723.49
1673.396	2701.54
1676.621	2689.43
1679.845	2709.59
1683.069	2729.21
1686.293	2771.66
1689.517	2744.11
1692.74	2674.06
1695.963	2704.77
1699.185	2720.28
1702.408	2694.98
1705.63	2736.31
1708.852	2746.54
1712.073	2717.92
1715.294	2703.44
1718.515	2766.24
1721.736	2713.16
1724.956	2707.72
1728.176	2732.97
1731.396	2754.27
1734.616	2741.16
1737.835	2768.18
1741.054	2751.34
1744.272	2742.92
1747.491	2775.85
1750.709	2831.16
1753.927	2735.18
1757.144	2780.09
1760.361	2825.16
1763.578	2815.31
1766.795	2758.13
1770.011	2764.59
1773.227	2805.34
1776.443	2839.54
1779.658	2886.71
1782.874	2828.76
1786.089	2804.91
1789.303	2809.09
1792.518	2811.2
1795.732	2798.14
1798.945	2812.1
1802.159	2858.94
1805.372	2763.12
1808.585	2749.25
1811.797	2749.6
1815.01	2797.78
1818.222	2798.7
1821.434	2775.22
1824.645	2832.83
1827.856	2820.69
1831.067	2855.55
1834.278	2811.46
1837.488	2797.79
1840.698	2948.23
1843.908	2871.13
1847.117	2834.76
1850.326	2720.58
1853.535	2824.17
1856.744	2846.68
1859.952	2760.53
1863.16	2764.37
1866.368	2787.69
1869.575	2889.99
1872.782	2773.15
1875.989	2708.78
1879.196	2796.4
1882.402	2785.7
1885.608	2827.85
1888.814	2730.99
1892.019	2624.3
1895.224	2677.06
1898.429	2655.58
1901.634	2632.97
1904.838	2612.68
1908.042	2664.19
1911.246	2674.61
1914.449	2603.56
1917.652	2603.11
1920.855	2584.89
1924.058	2633.7
1927.26	2671.93
1930.462	2700.46
1933.664	2728.48
1936.865	2665.88
1940.066	2671.75
1943.267	2617.25
1946.467	2631.86
1949.668	2659.07
1952.868	2727.99
1956.067	2704.42
1959.267	2635.77
1962.466	2665.26
1965.665	2648.66
1968.863	2644.26
1972.061	2657.98
1975.259	2657.25
1978.457	2737.78
1981.654	2693.98
1984.852	2694.13
1988.048	2625.75
1991.245	2628.65
1994.441	2712.22
1997.637	2697.42
2000.833	2681.95
2004.028	2718.73
2007.223	2774.68
2010.418	2753.6
2013.613	2713.71
2016.807	2686.06
2020.001	2695.63
2023.194	2737.41
2026.388	2712.98
2029.581	2659.51
2032.774	2710.05
2035.966	2712.26
2039.158	2646.23
2042.35	2671.6
2045.542	2596.49
2048.733	2697.12
2051.924	2720.83
2055.115	2748.36
2058.306	2692.98
2061.496	2753.96
2064.686	2817.96
2067.875	2730.28
2071.065	2746.47
2074.254	2773.31
2077.442	2725
2080.631	2817.36
2083.819	2708.45
2087.007	2688.77
2090.195	2657.55
2093.382	2692.86
2096.569	2672.97
2099.756	2626.1
2102.942	2651.27
2106.128	2658.49
2109.314	2651.17
2112.5	2614.85
2115.685	2586.13
2118.87	2598.6
2122.055	2664.48
2125.239	2631.38
2128.424	2603.06
2131.608	2706.81
2134.791	2686.97
2137.974	2746.16
2141.157	2728.57
2144.34	2679.31
2147.523	2695.74
2150.705	2713.01
2153.887	2689.4
2157.068	2639.42
2160.25	2641.03
2163.431	2681.22
2166.611	2625.03
2169.792	2644.35
2172.972	2535.02
2176.152	2616.4
2179.331	2651.8
2182.511	2634.03
2185.69	2662.95
2188.868	2659.18
2192.047	2713.22
2195.225	2704.48
2198.403	2654.3
2201.58	2646.41
2204.758	2641.44
2207.935	2726.84
2211.111	2615.63
2214.288	2599.32
2217.464	2638.54
2220.64	2608.75
2223.815	2666.05
2226.991	2586.66
2230.166	2606.34
2233.34	2637.73
2236.515	2662.96
2239.689	2736.34
2242.863	2676.81
2246.036	2732.63
2249.209	2732.23
2252.382	2768.45
2255.555	2753.62
2258.727	2688.99
2261.9	2729.28
2265.071	2721.43
2268.243	2722.08
2271.414	2653.12
2274.585	2615.47
2277.756	2686.91
2280.926	2641.94
2284.096	2683.97
2287.266	2589.16
2290.436	2646.62
2293.605	2675.42
2296.774	2707.68
2299.942	2728.61
2303.111	2744.71
2306.279	2796.08
2309.447	2782.29
2312.614	2755.14
2315.781	2772.31
2318.948	2741.79
2322.115	2781.07
2325.281	2681.57
2328.447	2703.46
2331.613	2674.16
2334.779	2645.54
2337.944	2649.48
2341.109	2649.11
2344.274	2630.3
2347.438	2596.16
2350.602	2619.78
2353.766	2639.1
2356.929	2624.35
2360.092	2664.99
2363.255	2616.66
2366.418	2554.52
2369.58	2669.5
2372.742	2453.89
2375.904	2465.43
2379.066	2442.54
2382.227	2478.87
2385.388	2442.51
2388.548	2364.18
2391.709	2421.17
2394.869	2404.43
2398.029	2501.07
2401.188	2511.88
2404.347	2444.37
2407.506	2590.34
2410.665	2620.87
2413.823	2625.31
2416.981	2582.66
2420.139	2613.02
2423.296	2663.9
2426.453	2635.22
2429.61	2661.9
2432.767	2597.03
2435.923	2636.71
2439.079	2600
2442.235	2646.11
2445.391	2572.53
2448.546	2605.76
2451.701	2652.91
2454.855	2629.59
2458.009	2681.12
2461.163	2681.52
2464.317	2638.01
2467.471	2671.58
2470.624	2711.53
2473.777	2680.44
2476.929	2694.35
2480.082	2718.52
2483.234	2681.07
2486.385	2636.16
2489.537	2628.2
2492.688	2589.42
2495.839	2611.68
2498.989	2623.57
2502.14	2605.96
2505.29	2588.66
2508.439	2617.56
2511.589	2540.48
2514.738	2552.2
2517.887	2582.58
2521.035	2648.69
2524.183	2630.91
2527.331	2610.47
2530.479	2581.85
2533.627	2591.03
