Data from C_3_DEC_OH_4N_Splice17_13-25-51-327.txt Node
Date: Sat Mar 14 13:25:51 EDT 2020
User: sa697716
Spectrometer: FLMS03696
Trigger mode: 0
Integration Time (sec): 3.180400E-1
Scans to average: 20
Electric dark correction enabled: true
Nonlinearity correction enabled: true
Boxcar width: 5
XAxis mode: Wavelengths
Number of Pixels in Spectrum: 2048
>>>>>Begin Spectral Data<<<<<
187.83	-365753.27
188.298	2655.76
188.766	1422.62
189.233	1277.84
189.701	1862.25
190.169	2512.38
190.636	966.1
191.104	757.2
191.571	77.3
192.039	-98.87
192.506	-140.92
192.974	441.13
193.441	-611.55
193.908	6.79
194.375	-23.19
194.842	65.48
195.31	123.8
195.777	166.65
196.244	370.96
196.711	373.74
197.177	436.98
197.644	579.29
198.111	1027.4
198.578	1414.05
199.045	1120.62
199.511	1820.18
199.978	2130.94
200.445	1825.74
200.911	2037.63
201.378	2246.28
201.844	2077.82
202.31	3579.79
202.777	3760.38
203.243	2100.05
203.709	2023.28
204.176	2414.78
204.642	2024.06
205.108	1871.86
205.574	1508.93
206.04	1358.74
206.506	1278.94
206.972	1178.59
207.438	1138.66
207.903	1269.75
208.369	1123.82
208.835	1110.63
209.301	1165.52
209.766	1185.83
210.232	1175.67
210.697	1451.52
211.163	1789.19
211.628	2656.02
212.094	2252.65
212.559	2765.52
213.024	1734.68
213.49	2085.71
213.955	2029.57
214.42	1930.75
214.885	1788.29
215.35	1732.59
215.815	1727.89
216.28	1832.63
216.745	1483.25
217.21	1576.79
217.675	1404.29
218.14	1550.69
218.604	1699.69
219.069	1911.06
219.534	1999.99
219.998	2270.29
220.463	2679.22
220.927	3161.64
221.392	2936.56
221.856	2951.31
222.32	3650.83
222.785	4518.78
223.249	5655.73
223.713	6310.77
224.177	6283.79
224.642	8004.85
225.106	9814.13
225.57	10704.87
226.034	8020.84
226.497	12144.19
226.961	10964.68
227.425	12798.79
227.889	14060.43
228.353	13995.18
228.816	28659.13
229.28	27378.79
229.744	23017.73
230.207	14028.73
230.671	13778.34
231.134	22637.09
231.597	26207.41
232.061	26077.27
232.524	25297.54
232.987	17404.92
233.45	15719.5
233.914	14130.24
234.377	14447.25
234.84	13242.47
235.303	15564.35
235.766	17390.03
236.229	17965.93
236.691	11268.03
237.154	12668.41
237.617	9570.13
238.08	9837.77
238.542	11502.36
239.005	8229.22
239.468	8177.88
239.93	7714.82
240.393	7030.79
240.855	6180.28
241.317	6316.45
241.78	7689.86
242.242	7985.65
242.704	8667.82
243.166	7548.22
243.629	6901.41
244.091	7981.7
244.553	8766.41
245.015	9424.36
245.477	12191.93
245.939	17853.08
246.4	18995.15
246.862	18471.97
247.324	17383.97
247.786	19393.23
248.247	25395.39
248.709	26094.28
249.17	19495.9
249.632	18449.09
250.093	21477.36
250.555	18521.27
251.016	11341.73
251.477	10779.1
251.939	11651.58
252.4	12240.5
252.861	14543.26
253.322	13558.04
253.783	16144.29
254.244	20940.19
254.705	16475.63
255.166	14616.56
255.627	14414.3
256.088	20336.54
256.549	21606.43
257.009	18600.26
257.47	22541.54
257.931	18376.11
258.391	13790.18
258.852	14196.37
259.312	14868.72
259.773	18374.74
260.233	15599.22
260.694	13180.58
261.154	14960.61
261.614	12063.66
262.074	10790.87
262.534	11235.4
262.994	10599.79
263.455	14090.39
263.915	11878.24
264.374	11189.04
264.834	12196.66
265.294	13469.84
265.754	13954.57
266.214	13170.59
266.673	12299.66
267.133	15528.76
267.593	15388.67
268.052	18821.32
268.512	16362.15
268.971	19813.51
269.431	21720.28
269.89	19432.63
270.349	29180.14
270.809	32580.53
271.268	29367.42
271.727	65825.48
272.186	42613.78
272.645	31944.96
273.104	23029.02
273.563	33400.95
274.022	26145.65
274.481	22284.21
274.94	17216.54
275.399	12770.37
275.857	14841.92
276.316	20058.46
276.775	17857.02
277.233	17620.45
277.692	16568.58
278.15	18775.03
278.609	19363.2
279.067	17956.78
279.525	16725.29
279.984	21598.84
280.442	25993.12
280.9	25734.17
281.358	16948.11
281.816	15842.61
282.274	15513.18
282.732	15974.17
283.19	16064.99
283.648	13868.88
284.106	14804.92
284.564	15041.73
285.021	13991.85
285.479	10436.62
285.937	9468.3
286.394	8319.7
286.852	8560.57
287.309	9022.26
287.767	8784.21
288.224	8382.98
288.682	9209.17
289.139	10124.48
289.596	9307.24
290.053	9666.41
290.511	12216.79
290.968	14879.9
291.425	20211.9
291.882	16881.47
292.339	14722.22
292.796	14596.46
293.252	13759.11
293.709	10971.89
294.166	9859.13
294.623	10913.91
295.079	10477.97
295.536	10572.93
295.992	9609.26
296.449	9518.01
296.905	9920.69
297.362	9530.04
297.818	10014.24
298.274	10427.54
298.731	10623.05
299.187	10528.47
299.643	11296.69
300.099	13686.51
300.555	14990.59
301.011	12544.33
301.467	12160.39
301.923	14210.1
302.379	13904.66
302.835	13690.61
303.291	13705.9
303.746	15621.93
304.202	19759.19
304.658	19826.82
305.113	13371.18
305.569	13150.32
306.024	14016.17
306.479	13290.89
306.935	11248.55
307.39	12274.14
307.845	11354.28
308.301	11471.09
308.756	11171.36
309.211	10770.2
309.666	11061.87
310.121	13746.26
310.576	13950.24
311.031	13848.89
311.486	15871.09
311.94	15818.76
312.395	21184.96
312.85	39820.83
313.305	195176.47
313.759	1015749.87
314.214	73656.45
314.668	58642.88
315.123	49501.88
315.577	17817.66
316.032	15911.39
316.486	20001.59
316.94	15859.83
317.394	11077.65
317.849	8634.74
318.303	8178.57
318.757	7722.04
319.211	8549.66
319.665	7468.01
320.119	7555.72
320.572	10820.54
321.026	10129.45
321.48	8439.66
321.934	9188.92
322.387	9208.17
322.841	9967.44
323.295	9017.12
323.748	10367.57
324.202	10530.58
324.655	12681.47
325.108	17801.03
325.562	12599.35
326.015	14928.52
326.468	11321.54
326.921	12686.56
327.374	11854.16
327.827	12358.84
328.28	13991
328.733	9412.22
329.186	8291.13
329.639	7904.56
330.092	6655.87
330.545	6343.08
330.997	6422.83
331.45	7039.48
331.903	8257.87
332.355	14180.31
332.808	13795.67
333.26	11348.74
333.713	12342.84
334.165	12420.39
334.617	16594.57
335.069	13384.54
335.522	24262.58
335.974	26854.14
336.426	24475.83
336.878	16949.57
337.33	8619.18
337.782	8419.82
338.234	10593.63
338.686	12634.26
339.137	15017.89
339.589	14179.73
340.041	11141.26
340.493	9562.06
340.944	9824.25
341.396	10587.84
341.847	8952.84
342.299	10622
342.75	13019.47
343.201	11358.76
343.653	13103.49
344.104	16093.03
344.555	12655.99
345.006	19626.99
345.457	15118.46
345.908	12022.38
346.359	11368.84
346.81	9252.47
347.261	9729.16
347.712	9546.86
348.163	10240.73
348.613	10405.17
349.064	9741.92
349.515	8537.13
349.965	8805.8
350.416	10584.27
350.866	11602.75
351.317	13072.87
351.767	21669.85
352.217	27372.37
352.668	22767.33
353.118	20893.59
353.568	20130.81
354.018	15943.79
354.468	16829.58
354.918	12083.5
355.368	10597.09
355.818	14997.33
356.268	43245.61
356.718	181369.34
357.168	45250.53
357.617	22698.71
358.067	25271.08
358.517	23719.24
358.966	27835
359.416	31331.63
359.865	33844.48
360.315	40252.02
360.764	18877.57
361.213	10598.55
361.663	10033.26
362.112	12397.46
362.561	20067.06
363.01	15146.3
363.459	12755.45
363.908	13846.93
364.357	11813.35
364.806	19944.54
365.255	13733.69
365.703	12598.93
366.152	12642.04
366.601	10269.94
367.05	8358.55
367.498	7607.99
367.947	7960.02
368.395	8268.54
368.844	7342.45
369.292	8833.34
369.74	6143.83
370.189	9405.94
370.637	11016.48
371.085	9490.25
371.533	11592.28
371.981	11153.21
372.429	10679.22
372.877	11120.81
373.325	9338.52
373.773	9512.97
374.221	8454.1
374.669	10478.43
375.116	9060.12
375.564	9136.51
376.012	10226.64
376.459	8454.74
376.907	10086.89
377.354	12164.36
377.801	11423.12
378.249	13172.92
378.696	16820.28
379.143	20393.33
379.591	21721.15
380.038	36903.52
380.485	26809.98
380.932	29000.57
381.379	26592.47
381.826	19680.49
382.273	13999.33
382.72	12178.93
383.166	11842.17
383.613	7682.41
384.06	6939.73
384.506	8053.03
384.953	5903.05
385.4	5913.79
385.846	5167.23
386.292	5020.55
386.739	4914.36
387.185	4853.14
387.631	4868.11
388.078	4741.03
388.524	5065.47
388.97	4683.58
389.416	3903.97
389.862	4153.53
390.308	3941.67
390.754	4021.99
391.2	4354.13
391.645	4450.97
392.091	4295.89
392.537	4143.08
392.983	4147.13
393.428	4113.07
393.874	4388.84
394.319	4427.21
394.765	4211.19
395.21	4327.57
395.655	4054.69
396.101	3802.67
396.546	3440.39
396.991	3453.81
397.436	3213.04
397.881	3096.78
398.326	2922.52
398.771	2783.64
399.216	2424.25
399.661	2187.99
400.106	2186.61
400.551	2247.98
400.995	2022.37
401.44	2002.93
401.885	1880.75
402.329	1905.46
402.774	1833.75
403.218	1786.39
403.663	1718.27
404.107	1775.31
404.551	1789.98
404.995	1639.67
405.44	1575.55
405.884	1600.88
406.328	1548.34
406.772	1549.27
407.216	1414.12
407.66	1370.29
408.104	1294.9
408.547	1215.44
408.991	1175.51
409.435	1133.77
409.879	1125.34
410.322	1117.12
410.766	1081.37
411.209	1032.34
411.653	993.5
412.096	976.69
412.54	976.09
412.983	973.71
413.426	979.35
413.869	978.63
414.312	964.61
414.756	929.82
415.199	885.14
415.642	862.98
416.085	868.94
416.527	861.2
416.97	873.38
417.413	828.58
417.856	820.37
418.298	814.93
418.741	809.79
419.184	805.63
419.626	838.69
420.069	840.08
420.511	842.02
420.953	821.89
421.396	815.74
421.838	794.65
422.28	815.69
422.722	819.77
423.164	828.12
423.606	815.85
424.048	811.78
424.49	771.11
424.932	767.25
425.374	757.51
425.816	769.42
426.258	784.56
426.699	793.92
427.141	784.47
427.582	795.3
428.024	790.84
428.465	783.18
428.907	764.18
429.348	752.48
429.789	753.95
430.231	736.79
430.672	744.71
431.113	726.58
431.554	717.17
431.995	696.91
432.436	674.95
432.877	660.86
433.318	650.73
433.759	647.22
434.2	647.67
434.64	636.95
435.081	640.69
435.522	609.22
435.962	586.61
436.403	571.22
436.843	576.31
437.284	558.92
437.724	539.82
438.164	538.69
438.604	523.82
439.045	504.75
439.485	486.52
439.925	473.82
440.365	461.86
440.805	455.01
441.245	449.68
441.685	433.34
442.125	429.49
442.564	432.3
443.004	422.66
443.444	421.38
443.883	420.82
444.323	414.25
444.762	409.95
445.202	411.22
445.641	418.52
446.081	412.27
446.52	414.2
446.959	409.52
447.398	401.32
447.837	395.44
448.276	388.87
448.716	390.85
449.154	393.35
449.593	386.61
450.032	386.42
450.471	376.78
450.91	376.89
451.349	377.68
451.787	375.09
452.226	378.07
452.664	378.33
453.103	380.13
453.541	378.55
453.98	380.98
454.418	382.55
454.856	378.12
455.295	377
455.733	381.1
456.171	382
456.609	382.25
457.047	381.67
457.485	387.69
457.923	387.81
458.361	383.04
458.798	381.87
459.236	380.36
459.674	379.9
460.111	382.06
460.549	377.83
460.987	373.71
461.424	372.55
461.862	371.17
462.299	364.62
462.736	364.42
463.173	366.09
463.611	364.52
464.048	364.02
464.485	367.7
464.922	363.4
465.359	360.87
465.796	363.64
466.233	361.24
466.67	358.95
467.106	359.37
467.543	353.8
467.98	347.89
468.416	336.96
468.853	333.85
469.29	323.19
469.726	318.9
470.162	309.97
470.599	300.87
471.035	297.64
471.471	290.59
471.907	286.79
472.344	285.78
472.78	286.87
473.216	289.74
473.652	286.53
474.088	285.41
474.523	285.61
474.959	288.1
475.395	285.87
475.831	283.69
476.266	284.43
476.702	283.85
477.138	280.17
477.573	280.35
478.008	278.91
478.444	281.04
478.879	284.71
479.314	285.97
479.75	286.78
480.185	286.81
480.62	289.6
481.055	290.61
481.49	293.27
481.925	298.34
482.36	304.67
482.795	312.29
483.229	319.74
483.664	326.27
484.099	327.36
484.534	332.64
484.968	335.93
485.403	336.6
485.837	335.49
486.271	334.58
486.706	334.07
487.14	328.26
487.574	324.46
488.009	321.66
488.443	318.41
488.877	322.78
489.311	323.07
489.745	327.71
490.179	331.94
490.613	340.14
491.046	342.51
491.48	345.37
491.914	346.72
492.348	349.6
492.781	352.13
493.215	353.14
493.648	352.48
494.082	355.62
494.515	356.53
494.948	360.87
495.382	362.36
495.815	365.44
496.248	369.6
496.681	375.79
497.114	381.29
497.547	386.82
497.98	395.89
498.413	401.79
498.846	408.05
499.279	413.71
499.711	415.86
500.144	417.93
500.577	425.19
501.009	431.14
501.442	438.8
501.874	441.84
502.306	444.42
502.739	451.38
503.171	460.29
503.603	463.93
504.036	469.41
504.468	474.86
504.9	482.52
505.332	487.4
505.764	492.38
506.196	497.37
506.627	506.8
507.059	516.36
507.491	520.59
507.923	521.64
508.354	532.14
508.786	541.33
509.217	553.55
509.649	564.42
510.08	577.27
510.512	589.01
510.943	600.7
511.374	610.15
511.805	624.51
512.237	638.06
512.668	658.73
513.099	676.04
513.53	694.33
513.961	708.87
514.391	730.85
514.822	754.83
515.253	778.55
515.684	796.13
516.114	816.1
516.545	831.89
516.975	850.57
517.406	863.79
517.836	867.73
518.267	874.04
518.697	888.24
519.127	892.65
519.558	898.47
519.988	902.98
520.418	910.78
520.848	924.02
521.278	930.69
521.708	968.76
522.138	978.94
522.567	1000.28
522.997	1018.08
523.427	1029.14
523.857	1042
524.286	1049.77
524.716	1061.72
525.145	1076
525.575	1084.22
526.004	1095.78
526.433	1068.72
526.863	1070.99
527.292	1067.16
527.721	1072.32
528.15	1077.39
528.579	1079.91
529.008	1089.4
529.437	1104.56
529.866	1114.12
530.295	1126.34
530.724	1135.85
531.152	1154.6
531.581	1165.38
532.01	1177.77
532.438	1183.95
532.867	1193.13
533.295	1206
533.723	1208.85
534.152	1208.34
534.58	1209.07
535.008	1198.93
535.436	1200.33
535.865	1205.67
536.293	1213.52
536.721	1223.28
537.149	1239.93
537.576	1243.73
538.004	1251.34
538.432	1256.83
538.86	1255.56
539.287	1259.9
539.715	1269.15
540.143	1270.67
540.57	1268.2
540.998	1266.52
541.425	1252.87
541.852	1238.29
542.28	1236.27
542.707	1225.49
543.134	1217.09
543.561	1214.62
543.988	1210.26
544.415	1209.7
544.842	1206.22
545.269	1202.19
545.696	1204.08
546.123	1213.09
546.549	1206.71
546.976	1198.9
547.403	1199.71
547.829	1201.21
548.256	1202.66
548.682	1200.85
549.108	1197.2
549.535	1196.83
549.961	1197.74
550.387	1189.41
550.813	1186.74
551.24	1191.98
551.666	1192.58
552.092	1186.4
552.518	1182.59
552.943	1179.11
553.369	1183.26
553.795	1187.09
554.221	1188.23
554.646	1186.25
555.072	1193.48
555.498	1194.87
555.923	1200.87
556.349	1211.25
556.774	1216.89
557.199	1217.08
557.625	1221.01
558.05	1218.42
558.475	1224.89
558.9	1224.4
559.325	1219.58
559.75	1215.84
560.175	1212.14
560.6	1207.73
561.025	1205.96
561.449	1206.2
561.874	1209.99
562.299	1212.76
562.723	1217.23
563.148	1209.39
563.572	1210.7
563.997	1216.79
564.421	1218.81
564.846	1218.24
565.27	1220.15
565.694	1217.72
566.118	1223.65
566.542	1227.75
566.966	1222.22
567.39	1217.78
567.814	1209.92
568.238	1209.1
568.662	1210.32
569.086	1210.37
569.509	1213.48
569.933	1202.54
570.357	1196.49
570.78	1181.63
571.204	1173.03
571.627	1165.21
572.05	1162.2
572.474	1162.32
572.897	1153.27
573.32	1147.96
573.743	1140.53
574.166	1128.32
574.589	1127.09
575.012	1121.87
575.435	1120.74
575.858	1113.54
576.281	1105.79
576.704	1095.76
577.126	1085.3
577.549	1077.91
577.972	1071.29
578.394	1064.93
578.817	1061.71
579.239	1049.42
579.661	1040.51
580.084	1031.37
580.506	1022.47
580.928	1020.34
581.35	1013.29
581.772	1010.88
582.194	1002.07
582.616	993.47
583.038	983.67
583.46	974.72
583.882	972
584.303	973.33
584.725	969.75
585.147	973.59
585.568	978.97
585.99	986.17
586.411	991.27
586.833	1000.24
587.254	1000.66
587.675	1009.54
588.096	1018.06
588.518	1015.07
588.939	1004.63
589.36	1002.61
589.781	990.8
590.202	973.57
590.623	967.27
591.043	964.25
591.464	955.49
591.885	953.5
592.305	948.3
592.726	938.84
593.147	939.83
593.567	935.5
593.987	930.5
594.408	927.86
594.828	924.98
595.248	921.25
595.669	909.87
596.089	904.61
596.509	899.59
596.929	891.48
597.349	891.8
597.769	883.73
598.189	879.77
598.608	879.35
599.028	880.61
599.448	879.97
599.867	870.78
600.287	867.37
600.706	864.66
601.126	859.06
601.545	858.53
601.965	856.95
602.384	853.5
602.803	855.47
603.222	853.58
603.641	848.82
604.061	847.21
604.48	844.39
604.898	848.86
605.317	851.55
605.736	851.81
606.155	850.42
606.574	843.92
606.992	847.36
607.411	843.37
607.829	836.58
608.248	833.34
608.666	830.61
609.085	830.59
609.503	825.3
609.921	822.15
610.339	822.98
610.758	820.62
611.176	817.17
611.594	811.12
612.012	809.25
612.43	811.41
612.847	815.18
613.265	815.83
613.683	817.66
614.101	818.12
614.518	813.58
614.936	807.05
615.353	798.24
615.771	796.17
616.188	795.53
616.606	791.91
617.023	787.58
617.44	778.39
617.857	772.66
618.274	766.71
618.691	762.82
619.108	757.21
619.525	752.76
619.942	757.2
620.359	758.78
620.776	754.72
621.192	753.59
621.609	751.16
622.026	755.91
622.442	760.47
622.859	762.52
623.275	758.11
623.691	761.57
624.108	769.03
624.524	776.39
624.94	775.86
625.356	782.46
625.772	789.38
626.188	796.48
626.604	796.77
627.02	793.8
627.436	791.92
627.852	796.34
628.268	802.83
628.683	795.33
629.099	789.45
629.514	785.64
629.93	787.21
630.345	789.3
630.761	786.52
631.176	787.67
631.591	783.42
632.007	780.74
632.422	776.94
632.837	769.35
633.252	769.14
633.667	762.93
634.082	756.6
634.497	748.74
634.911	736.98
635.326	733.37
635.741	721.98
636.155	714.79
636.57	714.13
636.984	712.07
637.399	712.88
637.813	709.37
638.228	706.69
638.642	707.6
639.056	699.03
639.47	696.22
639.884	690.08
640.298	684.37
640.712	681.84
641.126	671.29
641.54	665.5
641.954	657.82
642.368	649.71
642.781	645.31
643.195	633.9
643.609	632.41
644.022	626.82
644.436	621.16
644.849	612.92
645.262	604.11
645.676	603.16
646.089	598.6
646.502	591.07
646.915	586.49
647.328	574.77
647.741	571.96
648.154	563.33
648.567	562.3
648.98	556.23
649.393	555.89
649.805	554.04
650.218	549.3
650.631	540.67
651.043	537.4
651.456	534.16
651.868	533.79
652.28	542.71
652.693	549.93
653.105	551.67
653.517	555.38
653.929	555.36
654.341	557.76
654.753	552.07
655.165	554.28
655.577	551.58
655.989	548.88
656.401	543.66
656.813	525.29
657.224	515.03
657.636	499.02
658.047	490.31
658.459	479.94
658.87	474.19
659.282	466.89
659.693	456.43
660.104	448.61
660.515	440.02
660.926	437.82
661.338	434.24
661.749	429.5
662.159	425.6
662.57	421.38
662.981	417.59
663.392	412.49
663.803	413.89
664.213	411.67
664.624	408.65
665.035	408.76
665.445	401.38
665.855	399.21
666.266	395.77
666.676	392.95
667.086	388.47
667.497	388.34
667.907	385.39
668.317	380.59
668.727	381.31
669.137	380.98
669.547	381.02
669.956	382.16
670.366	382.37
670.776	383.44
671.186	385.99
671.595	387.66
672.005	389.03
672.414	389.45
672.824	390.29
673.233	389.57
673.642	392.16
674.052	394.76
674.461	398.16
674.87	400.26
675.279	399.92
675.688	400.59
676.097	403.28
676.506	402.02
676.915	410.51
677.323	410.89
677.732	411.97
678.141	411.26
678.549	406.45
678.958	406.01
679.366	406.78
679.775	408.88
680.183	417.59
680.592	420.98
681	426.27
681.408	423.69
681.816	430.42
682.224	435.92
682.632	444.48
683.04	461.77
683.448	476.49
683.856	494.63
684.264	516.73
684.671	534.35
685.079	557.72
685.487	584.38
685.894	621.82
686.302	651.16
686.709	678.61
687.116	709.61
687.524	736.82
687.931	760.64
688.338	782.38
688.745	799
689.152	820.96
689.559	849.17
689.966	877.57
690.373	891.75
690.78	919.74
691.187	959.65
691.593	989.93
692	1016.83
692.407	1056.48
692.813	1107.27
693.22	1148.25
693.626	1187.32
694.032	1221.84
694.439	1271.38
694.845	1311.33
695.251	1360.14
695.657	1405.01
696.063	1469.65
696.469	1519.99
696.875	1565.43
697.281	1589.58
697.687	1622.85
698.093	1652.95
698.498	1703.08
698.904	1740.99
699.31	1799.72
699.715	1844.64
700.12	1903.97
700.526	1918.76
700.931	1964.88
701.337	2002.8
701.742	2028.22
702.147	2084.11
702.552	2106.21
702.957	2148.44
703.362	2165.2
703.767	2186.13
704.172	2212.63
704.577	2185.33
704.981	2218.2
705.386	2231.32
705.791	2227.29
706.195	2276.7
706.6	2286.04
707.004	2338.4
707.408	2318.23
707.813	2336.81
708.217	2330.89
708.621	2332.66
709.025	2396.67
709.43	2399.56
709.834	2441.23
710.237	2489.16
710.641	2482.12
711.045	2496.21
711.449	2494.64
711.853	2518.54
712.256	2548.06
712.66	2574.93
713.064	2627.42
713.467	2658.32
713.87	2733.37
714.274	2766.25
714.677	2840.27
715.08	2949.34
715.484	3063.43
715.887	3203.41
716.29	3333.35
716.693	3474.19
717.096	3635.96
717.499	3724.83
717.901	3741.22
718.304	3759.92
718.707	3774.04
719.109	3706.05
719.512	3685.55
719.915	3595.63
720.317	3553.94
720.719	3584.77
721.122	3566
721.524	3531.7
721.926	3505.59
722.328	3572.23
722.731	3564.32
723.133	3584.32
723.535	3713.84
723.937	3725.4
724.338	3762.12
724.74	3792.32
725.142	3784.14
725.544	3783.25
725.945	3809.17
726.347	3804.66
726.748	3803.13
727.15	3815.75
727.551	3792.58
727.952	3771.47
728.354	3754.95
728.755	3752.05
729.156	3721.99
729.557	3678.81
729.958	3594.31
730.359	3549.26
730.76	3536.94
731.161	3493.84
731.562	3474.56
731.962	3474.02
732.363	3432.85
732.763	3388.93
733.164	3413.72
733.564	3369.84
733.965	3307.58
734.365	3286.63
734.766	3305.67
735.166	3280.86
735.566	3246.12
735.966	3230.17
736.366	3226.24
736.766	3185.46
737.166	3206.41
737.566	3179.15
737.966	3160.53
738.365	3187.93
738.765	3185.4
739.165	3135.62
739.564	3116.73
739.964	3145.47
740.363	3114.64
740.763	3113.86
741.162	3107.07
741.561	3086.16
741.96	3054.74
742.36	3068.17
742.759	3070.33
743.158	3093.66
743.557	3102.34
743.955	3130.31
744.354	3100.4
744.753	3137.79
745.152	3109.59
745.55	3143.75
745.949	3140.11
746.348	3142.24
746.746	3152.94
747.144	3128.47
747.543	3113.37
747.941	3145.48
748.339	3096.47
748.737	3091.85
749.136	3087.2
749.534	3130.39
749.932	3112.74
750.33	3127.18
750.727	3162.48
751.125	3145.65
751.523	3132.01
751.921	3162.4
752.318	3139.5
752.716	3180.32
753.113	3188.64
753.511	3203.86
753.908	3203.25
754.305	3194.77
754.703	3234.58
755.1	3274.9
755.497	3313.61
755.894	3439.03
756.291	3556.31
756.688	3773.32
757.085	4059.12
757.482	4466.64
757.878	4912.49
758.275	5316.43
758.672	5862.23
759.068	6311.46
759.465	6951.87
759.861	7784.16
760.258	8746.53
760.654	9242.01
761.05	9172.38
761.447	8756.93
761.843	8151
762.239	7526.61
762.635	7240.73
763.031	6971.56
763.427	6581.02
763.822	6173.36
764.218	5770.28
764.614	5244.61
765.01	4893.18
765.405	4664.34
765.801	4493.74
766.196	4271.49
766.592	4148.55
766.987	3943.02
767.382	3801.74
767.778	3745.17
768.173	3659.8
768.568	3611.06
768.963	3527.47
769.358	3538.87
769.753	3511.43
770.148	3456.27
770.542	3458.02
770.937	3436.1
771.332	3495.11
771.726	3510.47
772.121	3469.12
772.515	3504.24
772.91	3493.68
773.304	3543.29
773.699	3499.13
774.093	3530.92
774.487	3566.44
774.881	3594.41
775.275	3592.37
775.669	3564.08
776.063	3591.23
776.457	3614.4
776.851	3565.02
777.245	3559.13
777.638	3579.09
778.032	3654.29
778.425	3630.91
778.819	3659.9
779.212	3631.92
779.606	3608.67
779.999	3621.75
780.392	3613.27
780.786	3664.7
781.179	3679.05
781.572	3708.26
781.965	3717.54
782.358	3679.43
782.751	3717.34
783.143	3684.17
783.536	3732.69
783.929	3756.99
784.322	3831.32
784.714	3847.26
785.107	3847.82
785.499	3897.35
785.891	3883.91
786.284	3871.05
786.676	3964.03
787.068	3952.89
787.46	3986.38
787.852	3999.53
788.245	4055.7
788.636	4074.71
789.028	4122.21
789.42	4146.96
789.812	4150.36
790.204	4214.2
790.595	4280.12
790.987	4151.85
791.378	4163.03
791.77	4249.56
792.161	4335.44
792.553	4371.17
792.944	4301.55
793.335	4257.83
793.726	4304.3
794.117	4364.68
794.508	4453.96
794.899	4433.53
795.29	4524.56
795.681	4564.02
796.072	4469.81
796.463	4364.73
796.853	4377.65
797.244	4482.25
797.634	4504.12
798.025	4506.36
798.415	4515.3
798.806	4575.11
799.196	4633.07
799.586	4673.16
799.976	4650.71
800.366	4804.69
800.756	4948.44
801.146	4916.27
801.536	4935.31
801.926	4982.76
802.316	5001.26
802.706	5048.66
803.095	4967.15
803.485	5031.68
803.874	5054.16
804.264	5227.17
804.653	5208.54
805.043	5310.76
805.432	5386.37
805.821	5392.74
806.21	5407.5
806.599	5486.87
806.988	5519.28
807.377	5589.67
807.766	5678.73
808.155	5868.27
808.544	5692.54
808.933	5706.04
809.321	5687.49
809.71	5883.63
810.098	5979.73
810.487	6284.78
810.875	6599.67
811.264	6610.46
811.652	6804.79
812.04	6897.86
812.428	7007.34
812.816	7508.18
813.204	7782.76
813.592	8143.65
813.98	8361.15
814.368	8302.82
814.756	8612.49
815.144	8559.19
815.531	8870.92
815.919	8821.11
816.306	9023.09
816.694	8820.52
817.081	8854.54
817.469	9081.34
817.856	9076.24
818.243	9258.23
818.63	9519.75
819.017	9249.72
819.404	9295.25
819.791	9540.05
820.178	9943.3
820.565	10109.37
820.952	10726.59
821.339	10399.68
821.725	10520.2
822.112	10038.71
822.498	10010.69
822.885	10090.75
823.271	10026.7
823.657	10296.55
824.044	10306.57
824.43	10350.76
824.816	10333.45
825.202	10040.6
825.588	10713.63
825.974	10722.88
826.36	11063.28
826.746	11077.7
827.132	11311.79
827.517	11302.46
827.903	10790.05
828.289	10812.62
828.674	10304.88
829.06	10232.9
829.445	10487.57
829.83	10720.79
830.216	11034.36
830.601	11272.15
830.986	11008.89
831.371	10922.55
831.756	11289.46
832.141	11010.37
832.526	11005.03
832.911	11184.57
833.295	11102.15
833.68	11408.17
834.065	10999.1
834.449	10400.78
834.834	10351.31
835.218	10343.04
835.603	10567.56
835.987	10416
836.371	10953.18
836.755	10879.69
837.139	11140.01
837.524	11297.54
837.908	11182.73
838.291	11221.59
838.675	11258.31
839.059	11388.6
839.443	11383.25
839.827	11224.02
840.21	11535.22
840.594	11436.35
840.977	11573.91
841.361	11558.74
841.744	11801.61
842.127	11695.59
842.511	11855.8
842.894	12241.7
843.277	12486.84
843.66	12832.97
844.043	12882.76
844.426	12359
844.809	12153.11
845.191	12170.19
845.574	11874.16
845.957	11635.76
846.339	11563.84
846.722	11216.41
847.104	11257.45
847.487	11147
847.869	11158.08
848.252	11334.94
848.634	11549.04
849.016	11719.74
849.398	11790.36
849.78	12338.45
850.162	12340.77
850.544	12609.28
850.926	13011.11
851.307	12951.25
851.689	13136.04
852.071	13427.07
852.452	13639.26
852.834	13625.78
853.215	13885.45
853.597	13991.4
853.978	14187.54
854.359	14489.66
854.741	13847.25
855.122	13784.34
855.503	13608.29
855.884	13687.71
856.265	13649.98
856.646	13731.75
857.026	13477.6
857.407	13433.31
857.788	13539.69
858.169	13713.93
858.549	13157.61
858.93	13567.57
859.31	13607.31
859.69	13740.66
860.071	13484.44
860.451	13344.39
860.831	12861.19
861.211	13613.47
861.591	13966.39
861.971	13948.03
862.351	14083.99
862.731	14337.25
863.111	14515.3
863.491	14732.76
863.87	15313.25
864.25	15540.62
864.629	15285.95
865.009	15623.49
865.388	16185.39
865.768	17351.62
866.147	17290.19
866.526	16337.46
866.905	16537.72
867.284	17460.78
867.663	16581.6
868.042	15874.31
868.421	15822.24
868.8	16078.88
869.179	16248.3
869.558	15290.66
869.936	14096.48
870.315	14348.68
870.693	14696.94
871.072	15839.65
871.45	15087.01
871.828	15283.49
872.207	16082.74
872.585	15843.26
872.963	16277.95
873.341	15713.54
873.719	15549.03
874.097	15368.37
874.475	15658.25
874.853	16015.81
875.23	15356.59
875.608	15997.04
875.986	17301.79
876.363	16538.68
876.741	17043.2
877.118	16608.8
877.495	17417.53
877.873	17697.12
878.25	18612.56
878.627	17855.47
879.004	18105.67
879.381	18021.08
879.758	17552.48
880.135	16339.3
880.512	17283.2
880.889	16817.66
881.265	16647.4
881.642	16514.62
882.019	16790.78
882.395	16458.14
882.772	17112.35
883.148	16373.92
883.524	16307.5
883.901	16210.86
884.277	16452.01
884.653	16348.24
885.029	16823.43
885.405	18647.51
885.781	18497.99
886.157	17734.6
886.532	17941.5
886.908	17934.86
887.284	19944.05
887.659	20605.75
888.035	21247.38
888.411	21788.2
888.786	22062.16
889.161	22827.25
889.537	22392.51
889.912	23106.97
890.287	23085.13
890.662	23681.73
891.037	23249.57
891.412	21672.86
891.787	21433.21
892.162	20676.85
892.536	21157.44
892.911	20361.48
893.286	19920.2
893.66	19098.24
894.035	19570.32
894.409	21300.73
894.784	20441.86
895.158	20764.01
895.532	21987.06
895.906	22580.25
896.281	23097.5
896.655	22733.46
897.029	25980.73
897.402	27057.09
897.776	30133.07
898.15	30034.65
898.524	29716.05
898.898	30102.67
899.271	33708.39
899.645	29202.66
900.018	28070.02
900.392	29132.61
900.765	29360.49
901.138	27180.7
901.511	26783.3
901.884	24608.09
902.258	22718.39
902.631	23488.28
903.003	27033.78
903.376	24414.41
903.749	27369.83
904.122	29298.35
904.495	32259.88
904.867	32682.14
905.24	28373
905.612	26426.84
905.985	27020.5
906.357	28253.17
906.729	26974.22
907.102	23047.91
907.474	22160.75
907.846	22328.34
908.218	22065.56
908.59	19518.76
908.962	18876.47
909.334	20332.42
909.705	21352.55
910.077	20737.98
910.449	21610.16
910.82	22229.63
911.192	24474.54
911.563	25450.59
911.935	27230.2
912.306	27255.3
912.677	28134.12
913.048	27873.1
913.419	30258.61
913.79	30433.24
914.161	32666.68
914.532	31236.21
914.903	28696.44
915.274	27270.46
915.645	26872.24
916.015	23659.35
916.386	22565.74
916.756	24040.71
917.127	24811.68
917.497	22177.45
917.868	24167.1
918.238	22944.69
918.608	23611.86
918.978	24119.05
919.348	25546.95
919.718	26423.49
920.088	25465.72
920.458	26475.48
920.828	27831.08
921.198	26397.21
921.567	28217.54
921.937	21856.34
922.306	22076.92
922.676	23782.41
923.045	19839.72
923.415	18856.11
923.784	17155.17
924.153	17644.64
924.522	17625.41
924.891	16574.22
925.26	17755.66
925.629	17325.06
925.998	19905.66
926.367	19440.83
926.736	18540.78
927.104	22084.27
927.473	23736.21
927.842	28680.68
928.21	28381.37
928.578	29834.77
928.947	28244.48
929.315	28418.17
929.683	33353.55
930.051	33627.94
930.42	39062.31
930.788	33365.93
931.156	33130.56
931.523	31086.06
931.891	28737.99
932.259	27608.09
932.627	32000.8
932.994	45261.14
933.362	37434.37
933.729	32507.49
934.097	31105.59
934.464	26322.01
934.831	30367.74
935.199	29933.42
935.566	29007.85
935.933	29361.15
936.3	35603.48
936.667	27724.02
937.034	25084.13
937.401	24799.34
937.767	21401.01
938.134	19076.89
938.501	26907.36
938.867	28698.62
939.234	48515.71
939.6	41350.86
939.967	45629.46
940.333	30586.85
940.699	26013.63
941.065	20809.09
941.431	27263.02
941.798	26336.85
942.163	34560.13
942.529	21591.31
942.895	19881.8
943.261	12866.56
943.627	16916.08
943.992	14798.06
944.358	14796.02
944.723	14869.61
945.089	14474.42
945.454	13404.75
945.82	14296.43
946.185	13754.06
946.55	15957.26
946.915	14330.49
947.28	16817.37
947.645	14820.09
948.01	13732.36
948.375	14327.36
948.74	17133.96
949.104	20010.41
949.469	28803.1
949.834	50939.98
950.198	48390.57
950.562	28972.01
950.927	24105.43
951.291	29034.96
951.655	24722.59
952.02	23189.85
952.384	17559.02
952.748	15333.61
953.112	14996.96
953.476	13064.33
953.839	12074.17
954.203	11954.07
954.567	14974.66
954.931	23557.63
955.294	20177.38
955.658	20252.63
956.021	34427.96
956.385	58283.33
956.748	86034.08
957.111	133191.43
957.474	149460.83
957.837	168252.68
958.2	127039.14
958.563	45696.17
958.926	30990.3
959.289	46985.24
959.652	52580.92
960.015	39461.43
960.377	56656.86
960.74	64614.45
961.102	111453.53
961.465	119943.89
961.827	64495.75
962.189	124008.16
962.552	85906.55
962.914	68779.98
963.276	44613.47
963.638	36894.45
964	36547.83
964.362	24734.54
964.724	23907.35
965.085	17077.2
965.447	14003.68
965.809	15927.57
966.17	15917.72
966.532	17227.9
966.893	15827.03
967.255	14399.89
967.616	17006.04
967.977	13607.67
968.338	14863.36
968.699	12235.97
969.061	12220.48
969.421	12301.62
969.782	13798.07
970.143	11675.41
970.504	12123.42
970.865	13789.47
971.225	14121.12
971.586	13817.27
971.946	19706.54
972.307	17101.58
972.667	22354.49
973.027	23069.54
973.388	27959.13
973.748	19017.03
974.108	20741.36
974.468	28019.59
974.828	21641.71
975.188	16649.98
975.548	15288.7
975.907	12826.96
976.267	14383.92
976.627	12080.88
976.986	12516.74
977.346	11933.29
977.705	11499.36
978.064	10457.06
978.424	8715.11
978.783	8975.37
979.142	10240.18
979.501	9803.07
979.86	10386.25
980.219	10019.26
980.578	12918.51
980.937	14477.25
981.296	12904.86
981.654	13265.78
982.013	20646
982.371	26784.81
982.73	25086.5
983.088	28458.71
983.447	30456.29
983.805	43574.97
984.163	91010.97
984.521	101013.27
984.879	147713.41
985.237	-240789.39
985.595	232662.24
985.953	57784.37
986.311	33337.14
986.669	19356.01
987.026	16659.78
987.384	22352.52
987.741	23071.33
988.099	16528.83
988.456	13201.57
988.814	12409.58
989.171	10767.88
989.528	10609.56
989.885	11190.13
990.242	8875.5
990.599	11049.01
990.956	9051.9
991.313	6354.97
991.67	5222.51
992.027	5558.76
992.383	4929.93
992.74	4332.77
993.096	4562.6
993.453	4731.72
993.809	4918.23
994.165	6553.73
994.522	6036.39
994.878	6663.88
995.234	8343.01
995.59	8236.39
995.946	7756.01
996.302	8864.93
996.658	10240.51
997.013	11251.01
997.369	13353.93
997.725	17115.43
998.08	11083.34
998.436	16956.1
998.791	23403.59
999.147	23416.76
999.502	25545.91
999.857	18577.87
1000.212	30292.35
1000.567	42968.79
1000.922	24848.32
1001.277	15779.65
1001.632	11713.66
1001.987	15081.99
1002.342	10854.83
1002.696	8675.75
1003.051	6936.75
1003.406	8419.61
1003.76	8397.65
1004.114	8269.95
1004.469	6970.28
1004.823	5754.01
1005.177	6193.35
1005.531	4913.22
1005.885	4361.02
1006.239	4915.83
1006.593	6161.78
1006.947	8251.74
1007.301	6183.65
1007.655	6713.82
1008.008	4933.35
1008.362	5546.07
1008.715	7929.02
1009.069	7217.41
1009.422	10908.12
1009.776	21913.58
1010.129	14593.91
1010.482	12222.62
1010.835	10261.38
1011.188	21353.01
1011.541	20125.18
1011.894	-122969.37
1012.247	362609.73
1012.6	24633.94
1012.952	15595.28
1013.305	7976.76
1013.657	5770.54
1014.01	5451.05
1014.362	4504.87
1014.715	4061.57
1015.067	3551.59
1015.419	3480.78
1015.771	3101.49
1016.123	2760.72
1016.475	2837.2
1016.827	3008.47
1017.179	3244.3
1017.531	3256.83
1017.883	3327.94
1018.234	3241.3
1018.586	4064.24
1018.938	4312.32
1019.289	5956.42
1019.64	6811.92
1019.992	6359.4
1020.343	5838.87
1020.694	4649.63
1021.045	4113.74
1021.396	4717.25
1021.747	5077.87
1022.098	6059.36
1022.449	4384.37
1022.8	4059.55
1023.151	2841.92
1023.501	2518.74
1023.852	2710.23
1024.202	2826.28
1024.553	3092.79
1024.903	3025.49
1025.253	2581.57
1025.604	2327.34
1025.954	2866.43
1026.304	3480.01
1026.654	4041.28
1027.004	5906.06
1027.354	9501.18
1027.703	9034.52
1028.053	11782.43
1028.403	17181.97
1028.753	24767.03
1029.102	33508.12
1029.452	171121.31
1029.801	7375.2
1030.15	4766.74
1030.499	4035.12
897.758	2947.43
901.051	2917.8
904.343	2953.64
907.636	2948.7
910.928	3015.82
914.22	2922.95
917.511	2933.89
920.803	3005.34
924.094	3040.31
927.384	3003.01
930.675	2966.58
933.965	2913.34
937.255	2913.19
940.544	2882.29
943.834	2784.62
947.123	2735.29
950.411	2831.4
953.7	2800.68
956.988	2759.63
960.276	2701.95
963.563	2800.67
966.851	2788.46
970.138	2855.41
973.424	2841.04
976.711	2788.32
979.997	2971.77
983.283	2997.61
986.568	2888.61
989.853	2918.79
993.138	2948.26
996.423	3026.7
999.708	2952.47
1002.992	3040.04
1006.275	2829.58
1009.559	2902.96
1012.842	3028.74
1016.125	2948.3
1019.408	2924.89
1022.69	3031.07
1025.972	3043.26
1029.254	3012.99
1032.536	2926.72
1035.817	2963.05
1039.098	2886.15
1042.379	3085.48
1045.659	3062.09
1048.939	2981.5
1052.219	3010.5
1055.498	3032.35
1058.778	3005.53
1062.057	2994.3
1065.335	3015.09
1068.614	3040.5
1071.892	3010.99
1075.17	3102.1
1078.447	3081.87
1081.724	3067.53
1085.001	3113.62
1088.278	3082
1091.554	3101.76
1094.83	3099.24
1098.106	3121.53
1101.382	3174.39
1104.657	3173.12
1107.932	3171.12
1111.206	3125.12
1114.481	3084
1117.755	3092.1
1121.029	3060.51
1124.302	3113.76
1127.575	3051.1
1130.848	3037.1
1134.121	2990.05
1137.393	2931.19
1140.665	3006.34
1143.937	2976.27
1147.208	2943.16
1150.48	2971.83
1153.75	2954.5
1157.021	3005.54
1160.291	2967.19
1163.561	3011.94
1166.831	3010.28
1170.101	3047.92
1173.37	3031.94
1176.639	2963.89
1179.907	3033.63
1183.176	3027.5
1186.444	3042.88
1189.711	3069.37
1192.979	3072.33
1196.246	3033.13
1199.513	3051.88
1202.78	3048.54
1206.046	3054.76
1209.312	3077.75
1212.578	3111.94
1215.843	3052.13
1219.108	3032.34
1222.373	3053.74
1225.638	3014.99
1228.902	2994.94
1232.166	2968.76
1235.43	2944.87
1238.693	2968.02
1241.956	2971.45
1245.219	3005.23
1248.482	3000.64
1251.744	2994.85
1255.006	3160.57
1258.268	3119.63
1261.529	3055.23
1264.79	3067.02
1268.051	3172.39
1271.312	3194.05
1274.572	3152.64
1277.832	3141.59
1281.092	3137.85
1284.351	3098.28
1287.61	3070.56
1290.869	2974.95
1294.128	2936.32
1297.386	3051.6
1300.644	3037.41
1303.902	3050.97
1307.159	2903.51
1310.416	2956.79
1313.673	2978.56
1316.93	2959.4
1320.186	3016.16
1323.442	3068.05
1326.697	3047.4
1329.953	3054.45
1333.208	3067.8
1336.463	3051.5
1339.717	2977
1342.972	3122.9
1346.226	3106.2
1349.479	3029.31
1352.733	2991.04
1355.986	3026.93
1359.238	2999.69
1362.491	3001.26
1365.743	3004.57
1368.995	3006.25
1372.247	3019.81
1375.498	3046.32
1378.749	3053.87
1382	3015.64
1385.251	3076.19
1388.501	3047.7
1391.751	3018.91
1395	2997.95
1398.25	3034.68
1401.499	3034.88
1404.748	2946.28
1407.996	2929.05
1411.244	2913.51
1414.492	2890.22
1417.74	2862.98
1420.987	2882.65
1424.234	2935.73
1427.481	2929.5
1430.728	2984.09
1433.974	2961.19
1437.22	2983.08
1440.465	2988.62
1443.711	2946.96
1446.956	2988.73
1450.201	2985.01
1453.445	3031.34
1456.689	3000.75
1459.933	3015.35
1463.177	3038.8
1466.42	3011.03
1469.663	2989.65
1472.906	2971.95
1476.148	3077.45
1479.391	3004.28
1482.633	2981.23
1485.874	2985.64
1489.115	2959.63
1492.356	2976.4
1495.597	2949.28
1498.838	2956.9
1502.078	2916.87
1505.318	2850.53
1508.557	2898.37
1511.797	2846.37
1515.036	2959.63
1518.274	2946.47
1521.513	2927.3
1524.751	2953.4
1527.989	2960.28
1531.227	2967.81
1534.464	2950.64
1537.701	2987.61
1540.938	3010.11
1544.174	2963.67
1547.41	2970.46
1550.646	3007.13
1553.882	3033.95
1557.117	3086.18
1560.352	3106.25
1563.587	3058.22
1566.821	3012.36
1570.055	3060.7
1573.289	3022.8
1576.523	3106.83
1579.756	3110.21
1582.989	3124.51
1586.222	3084.77
1589.454	3130.38
1592.686	3097.02
1595.918	3116.72
1599.15	3101.35
1602.381	3195.67
1605.612	3134.43
1608.843	3233.8
1612.073	3141.93
1615.303	3122.04
1618.533	3106
1621.762	3118.37
1624.992	3109.49
1628.221	3084.09
1631.449	3070.52
1634.678	3144.79
1637.906	3091.14
1641.134	3133.79
1644.361	3082.19
1647.588	3070.57
1650.815	3083.93
1654.042	3075.03
1657.269	3102.47
1660.495	3049.08
1663.72	3043.48
1666.946	3013.41
1670.171	2935.27
1673.396	2912.68
1676.621	2907.3
1679.845	2944.25
1683.069	2975.32
1686.293	3028.26
1689.517	2985.79
1692.74	2899.34
1695.963	2928.7
1699.185	2972.68
1702.408	2941.12
1705.63	2993.11
1708.852	2999.49
1712.073	2973.76
1715.294	2942.56
1718.515	3012.39
1721.736	2950.11
1724.956	2955.29
1728.176	2985.64
1731.396	3007.02
1734.616	3002.99
1737.835	3025.25
1741.054	3004.62
1744.272	3002.96
1747.491	3027.31
1750.709	3098.61
1753.927	2977.36
1757.144	3037.39
1760.361	3067.46
1763.578	3071.78
1766.795	3006.62
1770.011	3021.48
1773.227	3073.41
1776.443	3107.6
1779.658	3152.8
1782.874	3099.93
1786.089	3067.26
1789.303	3070.72
1792.518	3077.87
1795.732	3068.32
1798.945	3070.35
1802.159	3129.03
1805.372	3005.64
1808.585	2983.37
1811.797	2984.6
1815.01	3048.97
1818.222	3048.42
1821.434	2985.2
1824.645	3064.81
1827.856	3034.25
1831.067	3073.22
1834.278	3048.65
1837.488	3030.87
1840.698	3199.9
1843.908	3113.64
1847.117	3075.98
1850.326	2931.52
1853.535	3056.09
1856.744	3122.93
1859.952	3027.67
1863.16	3026.9
1866.368	3054.45
1869.575	3153.37
1872.782	3042.94
1875.989	2988.16
1879.196	3093.98
1882.402	3087.86
1885.608	3137.7
1888.814	3017.4
1892.019	2910.02
1895.224	2958.29
1898.429	2952.22
1901.634	2925.77
1904.838	2908.25
1908.042	2953.67
1911.246	2954.69
1914.449	2868.75
1917.652	2878.07
1920.855	2860.67
1924.058	2924.48
1927.26	2954.57
1930.462	2988.12
1933.664	3009.14
1936.865	2940.59
1940.066	2941.49
1943.267	2890.59
1946.467	2913.41
1949.668	2943.6
1952.868	3009.4
1956.067	2978.14
1959.267	2901.88
1962.466	2932.38
1965.665	2920.3
1968.863	2912.33
1972.061	2938.79
1975.259	2942.78
1978.457	3027.12
1981.654	2981.12
1984.852	2982.41
1988.048	2902.59
1991.245	2913.29
1994.441	3000.52
1997.637	3000.42
2000.833	2982.16
2004.028	3023.57
2007.223	3071.6
2010.418	3041.88
2013.613	3008.25
2016.807	2961.87
2020.001	2979.12
2023.194	3034.98
2026.388	3006.21
2029.581	2951.54
2032.774	2992.22
2035.966	2989.55
2039.158	2913.46
2042.35	2945.6
2045.542	2874.28
2048.733	2986.05
2051.924	3027.93
2055.115	3060.37
2058.306	2989.57
2061.496	3052.06
2064.686	3128.54
2067.875	3046.07
2071.065	3069.46
2074.254	3102.94
2077.442	3052.35
2080.631	3145.96
2083.819	3009.21
2087.007	2984.19
2090.195	2945.84
2093.382	2994.76
2096.569	2971.67
2099.756	2918.81
2102.942	2929.62
2106.128	2928.58
2109.314	2922.64
2112.5	2872.43
2115.685	2855.41
2118.87	2867.68
2122.055	2936.32
2125.239	2893.78
2128.424	2855.49
2131.608	2989.59
2134.791	2964.62
2137.974	3042.11
2141.157	3025.56
2144.34	2964.28
2147.523	2994.71
2150.705	2997.32
2153.887	2982.52
2157.068	2919.23
2160.25	2935.93
2163.431	2987.18
2166.611	2911.64
2169.792	2930.28
2172.972	2806.97
2176.152	2903.13
2179.331	2943.31
2182.511	2912.3
2185.69	2946.35
2188.868	2936.45
2192.047	3005.42
2195.225	2979.15
2198.403	2926.1
2201.58	2927.7
2204.758	2925.78
2207.935	3015.93
2211.111	2887.4
2214.288	2869.31
2217.464	2914.1
2220.64	2893.97
2223.815	2954.4
2226.991	2868.13
2230.166	2888.66
2233.34	2911.65
2236.515	2945.23
2239.689	3026.3
2242.863	2963.62
2246.036	3022.97
2249.209	3035.72
2252.382	3079.99
2255.555	3056.68
2258.727	2983.05
2261.9	3033.22
2265.071	3026.83
2268.243	3031.99
2271.414	2953.69
2274.585	2898.81
2277.756	2973.42
2280.926	2926.85
2284.096	2974.38
2287.266	2864.89
2290.436	2927.85
2293.605	2963.62
2296.774	2983.7
2299.942	3018.58
2303.111	3037.33
2306.279	3077.81
2309.447	3067.97
2312.614	3046.41
2315.781	3066.31
2318.948	3027.36
2322.115	3069.81
2325.281	2968.93
2328.447	2995.78
2331.613	2977.47
2334.779	2934.62
2337.944	2943.72
2341.109	2941.75
2344.274	2919.25
2347.438	2881.73
2350.602	2910.85
2353.766	2932.76
2356.929	2914.78
2360.092	2959.89
2363.255	2901.62
2366.418	2811.06
2369.58	2956.28
2372.742	2685
2375.904	2712.71
2379.066	2682.19
2382.227	2729.48
2385.388	2689.01
2388.548	2596.67
2391.709	2661.27
2394.869	2637.52
2398.029	2764.33
2401.188	2789.63
2404.347	2703.29
2407.506	2884.9
2410.665	2906.44
2413.823	2926.27
2416.981	2865.09
2420.139	2908.47
2423.296	2966.69
2426.453	2942.08
2429.61	2966.91
2432.767	2877.28
2435.923	2917.09
2439.079	2846.35
2442.235	2908.85
2445.391	2826.76
2448.546	2844.7
2451.701	2907.12
2454.855	2860.21
2458.009	2930.84
2461.163	2938.18
2464.317	2885.89
2467.471	2925.2
2470.624	2971.72
2473.777	2971.42
2476.929	2982.46
2480.082	3009
2483.234	2970.1
2486.385	2896.3
2489.537	2888.35
2492.688	2828.63
2495.839	2849.45
2498.989	2857.64
2502.14	2838.95
2505.29	2810.05
2508.439	2844.45
2511.589	2752.18
2514.738	2774.34
2517.887	2810.41
2521.035	2902.87
2524.183	2899.12
2527.331	2875.27
2530.479	2835.81
2533.627	2852.35
