Data from C_3_HIR_WI_4N_Splice17_13-11-02-528.txt Node
Date: Sat Mar 14 13:11:02 EDT 2020
User: sa697716
Spectrometer: FLMS03696
Trigger mode: 0
Integration Time (sec): 3.180400E-1
Scans to average: 20
Electric dark correction enabled: true
Nonlinearity correction enabled: true
Boxcar width: 5
XAxis mode: Wavelengths
Number of Pixels in Spectrum: 2048
>>>>>Begin Spectral Data<<<<<
187.83	-359206.22
188.298	2516.34
188.766	1354.74
189.233	1161.53
189.701	1742.05
190.169	2322.37
190.636	899.2
191.104	737.58
191.571	141.28
192.039	-45.44
192.506	-79.66
192.974	341.14
193.441	-739.98
193.908	-119.57
194.375	-111.23
194.842	37.2
195.31	112.46
195.777	188.78
196.244	425.43
196.711	481.83
197.177	585.25
197.644	819.68
198.111	1403.57
198.578	1991.25
199.045	1583.34
199.511	2574.13
199.978	2966.56
200.445	2510.68
200.911	2764.19
201.378	3053.44
201.844	2773.32
202.31	4714
202.777	4895.56
203.243	2707.67
203.709	2566.55
204.176	3086.66
204.642	2552.55
205.108	2398.08
205.574	1948.83
206.04	1779.8
206.506	1678.55
206.972	1585
207.438	1542.95
207.903	1756.25
208.369	1529.6
208.835	1531.93
209.301	1599.42
209.766	1653.28
210.232	1633.7
210.697	2028.38
211.163	2495.38
211.628	3758.13
212.094	3162.54
212.559	3906.06
213.024	2431.66
213.49	2988.56
213.955	2931.24
214.42	2864.46
214.885	2648.67
215.35	2549.71
215.815	2454.73
216.28	2604.9
216.745	2128.33
217.21	2304.05
217.675	2121.16
218.14	2410.78
218.604	2694.83
219.069	3078.5
219.534	3255.1
219.998	3820.26
220.463	4633.45
220.927	5735.95
221.392	5427.4
221.856	5502.76
222.32	6950.77
222.785	8576.41
223.249	10798.82
223.713	12099.99
224.177	12082.35
224.642	15472.65
225.106	19004.26
225.57	20767.26
226.034	15419.51
226.497	23449.91
226.961	21203.59
227.425	24704.16
227.889	27406.1
228.353	27387.91
228.816	56466.49
229.28	54111.62
229.744	45653.22
230.207	27700.99
230.671	27247.12
231.134	45139.04
231.597	52021.86
232.061	51963.01
232.524	50631.47
232.987	34894.44
233.45	31401.91
233.914	28159.88
234.377	28824.57
234.84	26353.97
235.303	31116.9
235.766	34695.83
236.229	35781.92
236.691	22518.2
237.154	25279.02
237.617	18994.79
238.08	19428.76
238.542	22693.58
239.005	16233.21
239.468	16100.64
239.93	15164.7
240.393	13757.4
240.855	12076.9
241.317	12366.83
241.78	15038.79
242.242	15537.67
242.704	16777.89
243.166	14586.99
243.629	13248.66
244.091	15229.94
244.553	16674.03
245.015	17901.95
245.477	23165.54
245.939	33937.09
246.4	35984.57
246.862	34942.22
247.324	32922.81
247.786	36821.32
248.247	48265.15
248.709	49828.49
249.17	37302.94
249.632	35174.16
250.093	40761.48
250.555	35174.73
251.016	21439.57
251.477	20346.67
251.939	21936.6
252.4	22999.61
252.861	27318.8
253.322	25412.93
253.783	30203.36
254.244	39166.5
254.705	30825.6
255.166	27412.62
255.627	26985.99
256.088	38070.34
256.549	40391.1
257.009	34830.51
257.47	42216.33
257.931	34368.49
258.391	25736.22
258.852	26547.26
259.312	27803.88
259.773	34336.5
260.233	29009.72
260.694	24461.87
261.154	27715.86
261.614	22236.79
262.074	19890.14
262.534	20694.42
262.994	19517.98
263.455	26000.86
263.915	21893.31
264.374	20615.08
264.834	22518.18
265.294	24969.3
265.754	25892.72
266.214	24525
266.673	22991.56
267.133	28982.06
267.593	28735.45
268.052	35144.03
268.512	30552.09
268.971	36835.09
269.431	40378.98
269.89	36150.76
270.349	54158.94
270.809	60310.73
271.268	54211.52
271.727	121552.42
272.186	78766.8
272.645	59038.75
273.104	42566.34
273.563	61639.26
274.022	48475.15
274.481	41246.84
274.94	31766.04
275.399	23604.44
275.857	27478.8
276.316	37156.64
276.775	33032.51
277.233	32497.07
277.692	30418.34
278.15	34412.24
278.609	35425.42
279.067	32759.01
279.525	30423.21
279.984	39296.91
280.442	47204.82
280.9	46527.37
281.358	30608.82
281.816	28550.35
282.274	27958.54
282.732	28881.34
283.19	29022.28
283.648	25011.06
284.106	26637.29
284.564	27055.93
285.021	25075.12
285.479	18680.87
285.937	16974.58
286.394	14890.76
286.852	15309.64
287.309	16090.46
287.767	15564.05
288.224	14804.78
288.682	16259.59
289.139	17857.19
289.596	16373.44
290.053	17014.55
290.511	21482.62
290.968	26048.04
291.425	35328.99
291.882	29426.31
292.339	25597.24
292.796	25379.78
293.252	23927.78
293.709	18990.31
294.166	17022.11
294.623	18779.01
295.079	18007.42
295.536	18087.28
295.992	16443.62
296.449	16248.34
296.905	16873.44
297.362	16175.37
297.818	17006.6
298.274	17625.19
298.731	17951.39
299.187	17751.21
299.643	19048.36
300.099	23033.2
300.555	25235.4
301.011	21050.6
301.467	20315.37
301.923	23737.85
302.379	23188.02
302.835	22751.36
303.291	22784.77
303.746	25929.08
304.202	32723.78
304.658	32866.35
305.113	22125.21
305.569	21664.03
306.024	23092.74
306.479	21927.54
306.935	18501.4
307.39	20168.12
307.845	18608.82
308.301	18708.86
308.756	18208.62
309.211	17570.35
309.666	17985.84
310.121	22310.6
310.576	22656.19
311.031	22493.24
311.486	25769.66
311.94	25731.01
312.395	34468.89
312.85	64891.32
313.305	318509.42
313.759	1649275.6
314.214	119365.34
314.668	94659.29
315.123	79525.17
315.577	28559.51
316.032	25373.29
316.486	31810.25
316.94	25072.28
317.394	17455.08
317.849	13551.51
318.303	12814.75
318.757	12125.7
319.211	13416.88
319.665	11749.44
320.119	11899.4
320.572	17025.81
321.026	15907.52
321.48	13228.51
321.934	14440.49
322.387	14456.07
322.841	15620.35
323.295	14064.55
323.748	16139.44
324.202	16343.23
324.655	19603.52
325.108	27423.75
325.562	19388.3
326.015	23031.87
326.468	17414.86
326.921	19484.46
327.374	18165.48
327.827	18928.57
328.28	21437.09
328.733	14403.57
329.186	12681.31
329.639	12094.07
330.092	10188.88
330.545	9711.56
330.997	9807.87
331.45	10737
331.903	12597.68
332.355	21678.95
332.808	21053.18
333.26	17377.39
333.713	18856.73
334.165	19016.8
334.617	25401.64
335.069	20490.59
335.522	36971.55
335.974	40923.32
336.426	37300.52
336.878	25786.44
337.33	13080.85
337.782	12793.75
338.234	16004.72
338.686	19152.61
339.137	22648.07
339.589	21301.45
340.041	16710.41
340.493	14370.04
340.944	14728.72
341.396	15893.68
341.847	13392.27
342.299	15810.33
342.75	19281.91
343.201	16833.73
343.653	19359.3
344.104	23823.15
344.555	18738.59
345.006	29158.22
345.457	22350.25
345.908	17740.82
346.359	16716.31
346.81	13584
347.261	14314.92
347.712	14081.28
348.163	15090.27
348.613	15283.76
349.064	14269.19
349.515	12502.08
349.965	12810.89
350.416	15434.85
350.866	16921.55
351.317	19089.91
351.767	31619.01
352.217	39913.03
352.668	33125.7
353.118	30384.06
353.568	29265.31
354.018	23113.62
354.468	24407.98
354.918	17529.89
355.368	15310.51
355.818	21622.43
356.268	62205.86
356.718	260741.55
357.168	64873.29
357.617	32558.72
358.067	36130.99
358.517	33811.33
358.966	39638.53
359.416	44404.19
359.865	47945.59
360.315	57193.14
360.764	26761.17
361.213	14975.79
361.663	14169.78
362.112	17498.98
362.561	28216.33
363.01	21323.21
363.459	17945.62
363.908	19423.13
364.357	16490.95
364.806	27831.99
365.255	19101.2
365.703	17477.2
366.152	17515.8
366.601	14166.27
367.05	11502.32
367.498	10453.75
367.947	10913.26
368.395	11351.43
368.844	10053.28
369.292	12129.36
369.74	8381.2
370.189	12830.03
370.637	15011.79
371.085	12940.49
371.533	15771.57
371.981	15169.56
372.429	14471.9
372.877	15063.89
373.325	12619.05
373.773	12838.84
374.221	11426.96
374.669	14178.97
375.116	12252.58
375.564	12360.57
376.012	13806.6
376.459	11381.37
376.907	13568.35
377.354	16379.13
377.801	15257.01
378.249	17456.38
378.696	22291.34
379.143	26935.65
379.591	28662.8
380.038	48423.96
380.485	34907.11
380.932	37649.68
381.379	34421.59
381.826	25415.45
382.273	18033.31
382.72	15741.36
383.166	15345.27
383.613	9933.96
384.06	8947.22
384.506	10341.83
384.953	7571.4
385.4	7607.21
385.846	6657.68
386.292	6474.66
386.739	6305.79
387.185	6228.47
387.631	6229.53
388.078	6045.05
388.524	6454.76
388.97	5946.74
389.416	4942.7
389.862	5248.52
390.308	4970.47
390.754	5044.31
391.2	5463.15
391.645	5592.13
392.091	5364.56
392.537	5174.77
392.983	5164.41
393.428	5086.5
393.874	5444.81
394.319	5467.23
394.765	5190.33
395.21	5338.72
395.655	5000.09
396.101	4684.82
396.546	4222.61
396.991	4236.65
397.436	3936.9
397.881	3811.83
398.326	3600.56
398.771	3405.8
399.216	2978.72
399.661	2686.77
400.106	2676.56
400.551	2740.86
400.995	2460.26
401.44	2436.57
401.885	2291.41
402.329	2317.31
402.774	2221.24
403.218	2159.57
403.663	2083.09
404.107	2139.76
404.551	2158.86
404.995	1977.47
405.44	1905.24
405.884	1931.15
406.328	1869.19
406.772	1861.54
407.216	1695.49
407.66	1638.68
408.104	1553.93
408.547	1452.27
408.991	1408.34
409.435	1351.93
409.879	1337.28
410.322	1321.36
410.766	1281.42
411.209	1218.58
411.653	1174.39
412.096	1151.39
412.54	1150.78
412.983	1144.69
413.426	1152.85
413.869	1153.04
414.312	1134.32
414.756	1092.09
415.199	1043.01
415.642	1013.39
416.085	1017.87
416.527	1013.55
416.97	1031.39
417.413	980.79
417.856	971.6
418.298	961.48
418.741	956.27
419.184	951.74
419.626	990.22
420.069	991.94
420.511	997.87
420.953	977.26
421.396	966.76
421.838	941.38
422.28	965.83
422.722	970.51
423.164	983.37
423.606	965.67
424.048	966.23
424.49	922.69
424.932	917.58
425.374	901.73
425.816	918.58
426.258	936.54
426.699	947.86
427.141	932.27
427.582	943.9
428.024	938.3
428.465	930.49
428.907	905.43
429.348	890.82
429.789	888.83
430.231	872.83
430.672	882.45
431.113	860.75
431.554	848.25
431.995	827.22
432.436	802.46
432.877	787
433.318	775.93
433.759	772.07
434.2	775.65
434.64	767.64
435.081	769.74
435.522	730.47
435.962	704.29
436.403	689.8
436.843	698.64
437.284	681.64
437.724	661.43
438.164	662.47
438.604	650.37
439.045	624.17
439.485	601.94
439.925	589.31
440.365	574.14
440.805	566.04
441.245	558.62
441.685	539.51
442.125	535.08
442.564	539
443.004	527.8
443.444	526.92
443.883	528.29
444.323	524.14
444.762	524.21
445.202	530.71
445.641	542.16
446.081	539.1
446.52	544.12
446.959	540.25
447.398	528.86
447.837	522.45
448.276	513.06
448.716	518.17
449.154	521.15
449.593	511.08
450.032	511.56
450.471	501.41
450.91	501.19
451.349	498.77
451.787	494.86
452.226	502.07
452.664	502.46
453.103	503.67
453.541	502.47
453.98	503.24
454.418	506.07
454.856	498.25
455.295	497.49
455.733	501.7
456.171	504.96
456.609	505.21
457.047	503.62
457.485	512.3
457.923	513.92
458.361	506.79
458.798	507.93
459.236	506.17
459.674	509.49
460.111	511.69
460.549	507.3
460.987	505.01
461.424	503.92
461.862	501.94
462.299	492.72
462.736	491.5
463.173	492.72
463.611	488.69
464.048	487.77
464.485	490.09
464.922	484.88
465.359	481.28
465.796	479.49
466.233	477.27
466.67	473.49
467.106	473.31
467.543	468.39
467.98	462.5
468.416	449.47
468.853	444.2
469.29	431.23
469.726	426.76
470.162	415.32
470.599	406.2
471.035	402
471.471	392.05
471.907	388.86
472.344	386.04
472.78	387.19
473.216	391.78
473.652	388.48
474.088	386.9
474.523	387.33
474.959	391.54
475.395	387.99
475.831	385.65
476.266	387.55
476.702	385.62
477.138	382.17
477.573	380.93
478.008	378.88
478.444	381.17
478.879	385.57
479.314	386.15
479.75	385.67
480.185	387.56
480.62	390.29
481.055	392.78
481.49	396.47
481.925	402.07
482.36	410.11
482.795	421.5
483.229	432.15
483.664	440.71
484.099	442.54
484.534	449.08
484.968	453.36
485.403	454.44
485.837	453.07
486.271	451.85
486.706	452.74
487.14	447.03
487.574	440.27
488.009	435.74
488.443	432.2
488.877	436.78
489.311	438.58
489.745	443.39
490.179	448.09
490.613	457.46
491.046	461.65
491.48	464.48
491.914	465.38
492.348	469.01
492.781	472.84
493.215	474.43
493.648	474.68
494.082	479.03
494.515	480.94
494.948	487.59
495.382	491.15
495.815	495.04
496.248	500.32
496.681	510.05
497.114	518.41
497.547	526.73
497.98	537.38
498.413	544.84
498.846	553.26
499.279	560.41
499.711	564.63
500.144	567.73
500.577	576.77
501.009	585.45
501.442	594.88
501.874	597.99
502.306	601.62
502.739	610.69
503.171	623.12
503.603	627.38
504.036	635.94
504.468	642.69
504.9	653.33
505.332	660.91
505.764	667.84
506.196	675.74
506.627	689.4
507.059	701.99
507.491	710.19
507.923	712.31
508.354	727.27
508.786	738.73
509.217	755.87
509.649	771.35
510.08	788.89
510.512	804.94
510.943	819.69
511.374	832.46
511.805	851.03
512.237	868.78
512.668	896.36
513.099	919.55
513.53	944.49
513.961	964
514.391	992.05
514.822	1023.07
515.253	1055.27
515.684	1078.67
516.114	1106.75
516.545	1128.67
516.975	1154.98
517.406	1174.29
517.836	1181.74
518.267	1192.1
518.697	1210.94
519.127	1218.02
519.558	1228.19
519.988	1234.76
520.418	1246.8
520.848	1264.33
521.278	1275.28
521.708	1300.64
522.138	1315.18
522.567	1344.13
522.997	1368.54
523.427	1384.96
523.857	1403.52
524.286	1414.63
524.716	1430.6
525.145	1450.77
525.575	1462.88
526.004	1477.27
526.433	1467.26
526.863	1469.8
527.292	1464.68
527.721	1472.18
528.15	1480.29
528.579	1482.46
529.008	1494.34
529.437	1516.54
529.866	1529.89
530.295	1547.82
530.724	1562.19
531.152	1588.52
531.581	1602.65
532.01	1619.28
532.438	1627.97
532.867	1640.36
533.295	1657.66
533.723	1664.02
534.152	1662.79
534.58	1663.49
535.008	1649.03
535.436	1650
535.865	1656.63
536.293	1669.01
536.721	1683.6
537.149	1706.23
537.576	1709.56
538.004	1722.16
538.432	1729.31
538.86	1727.79
539.287	1734.41
539.715	1746.83
540.143	1750.29
540.57	1746.47
540.998	1742.69
541.425	1722.18
541.852	1703.98
542.28	1702.24
542.707	1686.79
543.134	1674.37
543.561	1671.01
543.988	1664.62
544.415	1665.17
544.842	1659.92
545.269	1654.94
545.696	1657.7
546.123	1670.3
546.549	1660.51
546.976	1649.8
547.403	1651.01
547.829	1653.65
548.256	1656.19
548.682	1654.12
549.108	1648.53
549.535	1648.79
549.961	1651.5
550.387	1640.37
550.813	1636.32
551.24	1643.05
551.666	1645.88
552.092	1637.41
552.518	1631.9
552.943	1627.2
553.369	1634.22
553.795	1639.34
554.221	1641.18
554.646	1637.34
555.072	1648.03
555.498	1651.3
555.923	1659.46
556.349	1671.74
556.774	1678.8
557.199	1679.53
557.625	1685.01
558.05	1678.88
558.475	1687.76
558.9	1686.25
559.325	1679.33
559.75	1672.67
560.175	1667.07
560.6	1660.6
561.025	1658.76
561.449	1660.16
561.874	1664.6
562.299	1667.7
562.723	1673.87
563.148	1662.98
563.572	1665.01
563.997	1671.64
564.421	1674.82
564.846	1672.89
565.27	1675.29
565.694	1671.24
566.118	1679.66
566.542	1684.72
566.966	1676.72
567.39	1669.74
567.814	1657.26
568.238	1654.28
568.662	1657.48
569.086	1658.56
569.509	1663.54
569.933	1647.54
570.357	1638.55
570.78	1616.56
571.204	1602.74
571.627	1591.17
572.05	1588.88
572.474	1588.42
572.897	1575.68
573.32	1566.91
573.743	1555.37
574.166	1537.98
574.589	1536.87
575.012	1528.64
575.435	1527.2
575.858	1518.62
576.281	1507.28
576.704	1491.08
577.126	1478.38
577.549	1468.21
577.972	1460.22
578.394	1450.44
578.817	1442.94
579.239	1424.34
579.661	1412.28
580.084	1398.21
580.506	1385.45
580.928	1382.49
581.35	1372.42
581.772	1367.8
582.194	1354.71
582.616	1341.42
583.038	1328.22
583.46	1318.6
583.882	1315.3
584.303	1317.82
584.725	1312.73
585.147	1314.2
585.568	1321.45
585.99	1330.87
586.411	1336.69
586.833	1349.8
587.254	1350.85
587.675	1363.09
588.096	1372.72
588.518	1368.2
588.939	1352.88
589.36	1350.28
589.781	1339.69
590.202	1316.38
590.623	1307.97
591.043	1304.38
591.464	1292.89
591.885	1289.56
592.305	1282.89
592.726	1271.77
593.147	1271.96
593.567	1267.63
593.987	1260.94
594.408	1255.95
594.828	1252.7
595.248	1248.24
595.669	1233.29
596.089	1226.99
596.509	1221.25
596.929	1211.03
597.349	1211.27
597.769	1203.02
598.189	1197.13
598.608	1198.6
599.028	1200.39
599.448	1199.43
599.867	1188.36
600.287	1183.7
600.706	1179.99
601.126	1170.78
601.545	1168.72
601.965	1167.13
602.384	1162.2
602.803	1164.39
603.222	1159.03
603.641	1152.55
604.061	1149.34
604.48	1144.84
604.898	1150.16
605.317	1153.78
605.736	1154.62
606.155	1151.12
606.574	1141.95
606.992	1145.34
607.411	1140.08
607.829	1132.44
608.248	1128.64
608.666	1125.29
609.085	1123.22
609.503	1114.98
609.921	1108.1
610.339	1108.64
610.758	1106.74
611.176	1101.29
611.594	1091.94
612.012	1087.53
612.43	1088.79
612.847	1091.86
613.265	1091.55
613.683	1094.61
614.101	1094.73
614.518	1089.63
614.936	1080.91
615.353	1067.59
615.771	1064.21
616.188	1064.36
616.606	1060.58
617.023	1053.62
617.44	1041.58
617.857	1034.2
618.274	1026.07
618.691	1020.27
619.108	1012.71
619.525	1005.96
619.942	1010.93
620.359	1012.5
620.776	1006.74
621.192	1002.99
621.609	1000.61
622.026	1005.77
622.442	1009.91
622.859	1011.93
623.275	1005.48
623.691	1009.01
624.108	1017.49
624.524	1028.16
624.94	1026.91
625.356	1034.18
625.772	1043.57
626.188	1052.22
626.604	1052.6
627.02	1049.5
627.436	1046.8
627.852	1052.98
628.268	1061.48
628.683	1053.75
629.099	1046
629.514	1042
629.93	1044.66
630.345	1047.44
630.761	1044.31
631.176	1047.15
631.591	1042.66
632.007	1037.77
632.422	1034.84
632.837	1025.08
633.252	1022.9
633.667	1014.48
634.082	1006.47
634.497	995.16
634.911	979.98
635.326	975.27
635.741	960.52
636.155	950.52
636.57	951.04
636.984	948.82
637.399	950.36
637.813	948.31
638.228	945.96
638.642	946.91
639.056	937.63
639.47	935.77
639.884	927.94
640.298	920.97
640.712	918.48
641.126	907.22
641.54	898.81
641.954	891.93
642.368	881.48
642.781	873.91
643.195	858.27
643.609	857.35
644.022	851.83
644.436	847.49
644.849	836.37
645.262	825.99
645.676	824.39
646.089	819.92
646.502	807.79
646.915	800.96
647.328	787.76
647.741	786.65
648.154	775.36
648.567	772.07
648.98	760.81
649.393	760.51
649.805	756.73
650.218	749.59
650.631	736.75
651.043	729.71
651.456	725.12
651.868	722.59
652.28	732.72
652.693	740.64
653.105	743.01
653.517	748.56
653.929	748
654.341	751.24
654.753	742.16
655.165	745.64
655.577	743.73
655.989	740.59
656.401	734.08
656.813	708.01
657.224	691.65
657.636	669.26
658.047	656.28
658.459	639.74
658.87	630.5
659.282	620.73
659.693	604.4
660.104	592.17
660.515	579.91
660.926	576
661.338	571.9
661.749	566.65
662.159	559.28
662.57	554.57
662.981	550.64
663.392	544
663.803	545.17
664.213	543.15
664.624	539.75
665.035	540.89
665.445	532.44
665.855	527.9
666.266	522.48
666.676	520.52
667.086	512.67
667.497	512.12
667.907	508.9
668.317	502.69
668.727	501.48
669.137	501.51
669.547	499.43
669.956	499.66
670.366	499.95
670.776	502.56
671.186	505.66
671.595	509.31
672.005	511.25
672.414	510.48
672.824	510.02
673.233	511.26
673.642	512.69
674.052	517.18
674.461	521.1
674.87	524.82
675.279	523.34
675.688	524.65
676.097	525.86
676.506	524.61
676.915	535.81
677.323	538.26
677.732	538.9
678.141	539.99
678.549	532.61
678.958	532.18
679.366	531.5
679.775	534.7
680.183	543.32
680.592	548.06
681	553.34
681.408	549.72
681.816	556.56
682.224	564.38
682.632	572.69
683.04	593.72
683.448	612.6
683.856	636.75
684.264	663.95
684.671	687.64
685.079	717.39
685.487	750.19
685.894	795.97
686.302	835.65
686.709	867.3
687.116	906.98
687.524	941.15
687.931	969.91
688.338	995.5
688.745	1017.71
689.152	1044.12
689.559	1080.58
689.966	1118.12
690.373	1139.37
690.78	1173.99
691.187	1225.46
691.593	1265.36
692	1302.09
692.407	1355.69
692.813	1422.37
693.22	1476.2
693.626	1531.67
694.032	1577.91
694.439	1644.36
694.845	1696.19
695.251	1762.69
695.657	1824.95
696.063	1912.87
696.469	1981.15
696.875	2046.23
697.281	2084.7
697.687	2131.12
698.093	2172.3
698.498	2243.22
698.904	2299.37
699.31	2382.76
699.715	2444.88
700.12	2530.04
700.526	2556.01
700.931	2624.48
701.337	2677.71
701.742	2714.24
702.147	2794.97
702.552	2829.41
702.957	2889.37
703.362	2915.77
703.767	2950.31
704.172	2992.23
704.577	2957.01
704.981	3005.69
705.386	3026.69
705.791	3024.92
706.195	3099.19
706.6	3112.95
707.004	3191.22
707.408	3169.9
707.813	3200.84
708.217	3194.95
708.621	3202.65
709.025	3297.64
709.43	3303.73
709.834	3363.61
710.237	3434.61
710.641	3424.84
711.045	3454.72
711.449	3457.07
711.853	3490.48
712.256	3534.22
712.66	3575.11
713.064	3650.79
713.467	3695.07
713.87	3802.07
714.274	3850.77
714.677	3955.77
715.08	4113.62
715.484	4274.7
715.887	4466.65
716.29	4654.16
716.693	4852.42
717.096	5080.45
717.499	5206.94
717.901	5232.06
718.304	5266.44
718.707	5295.05
719.109	5204.84
719.512	5179.08
719.915	5055.66
720.317	5006.96
720.719	5053.46
721.122	5031.92
721.524	4988.91
721.926	4956.19
722.328	5057.3
722.731	5050.7
723.133	5081.38
723.535	5268.35
723.937	5289.43
724.338	5341.17
724.74	5379.08
725.142	5327.4
725.544	5326.51
725.945	5357.12
726.347	5354.84
726.748	5353.21
727.15	5368.51
727.551	5335.8
727.952	5311.27
728.354	5285.16
728.755	5288.41
729.156	5255.27
729.557	5241.12
729.958	5128.91
730.359	5075.59
730.76	5061.33
731.161	5005.87
731.562	4984.32
731.962	4987.07
732.363	4928.72
732.763	4872.75
733.164	4907.3
733.564	4844.57
733.965	4754.52
734.365	4720.83
734.766	4751.27
735.166	4714.12
735.566	4660.56
735.966	4635.91
736.366	4632.39
736.766	4573.24
737.166	4603.22
737.566	4565.31
737.966	4539.63
738.365	4578.98
738.765	4576.64
739.165	4501.71
739.564	4478.09
739.964	4524.59
740.363	4481.89
740.763	4479.86
741.162	4470.02
741.561	4439.52
741.96	4395.95
742.36	4415.77
742.759	4420.19
743.158	4456.9
743.557	4474.63
743.955	4513.51
744.354	4470.2
744.753	4526.25
745.152	4488.71
745.55	4543.16
745.949	4541.4
746.348	4543.23
746.746	4561.61
747.144	4526.72
747.543	4506.35
747.941	4553.85
748.339	4485.25
748.737	4477.26
749.136	4470.6
749.534	4533.85
749.932	4506.35
750.33	4528.75
750.727	4583.77
751.125	4561.91
751.523	4546.48
751.921	4589.21
752.318	4558.06
752.716	4617.1
753.113	4629.8
753.511	4652.95
753.908	4651.35
754.305	4635.88
754.703	4693.46
755.1	4753.19
755.497	4809.9
755.894	4991.54
756.291	5163.97
756.688	5477.46
757.085	5894.66
757.482	6486.81
757.878	7129.11
758.275	7708.72
758.672	8505.08
759.068	9155.6
759.465	10079.31
759.861	11274.24
760.258	12660.51
760.654	13367.92
761.05	13259.73
761.447	12655.16
761.843	11781.25
762.239	10882.34
762.635	10478.41
763.031	10091.99
763.427	9528.57
763.822	8933.42
764.218	8349.82
764.614	7589.78
765.01	7080.91
765.405	6755.15
765.801	6507.68
766.196	6188.62
766.592	6011.56
766.987	5708.54
767.382	5506.67
767.778	5420.12
768.173	5296.65
768.568	5226.36
768.963	5107.38
769.358	5124.63
769.753	5077.37
770.148	4996.8
770.542	4995.17
770.937	4963.9
771.332	5051.81
771.726	5068.23
772.121	5007.63
772.515	5062.58
772.91	5049.09
773.304	5117.94
773.699	5054.92
774.093	5105.54
774.487	5156.06
774.881	5197.58
775.275	5193.51
775.669	5155.28
776.063	5198.99
776.457	5235.06
776.851	5161.7
777.245	5155.22
777.638	5186.28
778.032	5296.39
778.425	5265.11
778.819	5307.35
779.212	5269.8
779.606	5234.92
779.999	5253.65
780.392	5239.36
780.786	5320.21
781.179	5343.62
781.572	5385.77
781.965	5398.95
782.358	5346.82
782.751	5400.55
783.143	5355.03
783.536	5427.14
783.929	5466.93
784.322	5578.08
784.714	5605.42
785.107	5602.27
785.499	5669.38
785.891	5645.65
786.284	5625.43
786.676	5759.15
787.068	5739.96
787.46	5789.35
787.852	5804.43
788.245	5885.81
788.636	5914.18
789.028	5978.88
789.42	6014.8
789.812	6024.94
790.204	6120.78
790.595	6217.06
790.987	6028.36
791.378	6050.53
791.77	6175.05
792.161	6302.91
792.553	6358.26
792.944	6250.83
793.335	6187.74
793.726	6256.31
794.117	6341.28
794.508	6469.56
794.899	6442.05
795.29	6579.34
795.681	6635.49
796.072	6500.26
796.463	6329.88
796.853	6339.37
797.244	6487.58
797.634	6518.74
798.025	6519.96
798.415	6531.22
798.806	6618.03
799.196	6702.13
799.586	6750.19
799.976	6715.8
800.366	6936.47
800.756	7164.48
801.146	7124.1
801.536	7159.77
801.926	7227.7
802.316	7251.46
802.706	7323.27
803.095	7207.07
803.485	7302.44
803.874	7343.22
804.264	7590.2
804.653	7565.35
805.043	7703.41
805.432	7809.95
805.821	7808.29
806.21	7834.65
806.599	7953.28
806.988	7996.8
807.377	8103.01
807.766	8237.5
808.155	8508.17
808.544	8259.95
808.933	8274.9
809.321	8259.91
809.71	8545.8
810.098	8698.08
810.487	9140.93
810.875	9599.69
811.264	9622.08
811.652	9902.41
812.04	10036.26
812.428	10197.42
812.816	10927.81
813.204	11333.69
813.592	11858.02
813.98	12180.97
814.368	12099.92
814.756	12564.32
815.144	12491.16
815.531	12945.3
815.919	12867.9
816.306	13162.78
816.694	12876.59
817.081	12929.08
817.469	13260.9
817.856	13266.47
818.243	13529.35
818.63	13905.57
819.017	13506.15
819.404	13572.93
819.791	13927.72
820.178	14517.54
820.565	14756.82
820.952	15650.44
821.339	15177.77
821.725	15355.17
822.112	14636.17
822.498	14599.45
822.885	14727.22
823.271	14628.94
823.657	15025.73
824.044	15045.4
824.43	15120.47
824.816	15092.83
825.202	14665.46
825.588	15644
825.974	15662.96
826.36	16154.42
826.746	16187.66
827.132	16530.3
827.517	16501.88
827.903	15743.37
828.289	15770.1
828.674	15016.85
829.06	14909.92
829.445	15295.54
829.83	15633.66
830.216	16086.08
830.601	16436.82
830.986	16039.23
831.371	15908.01
831.756	16444.84
832.141	16030.39
832.526	16023.44
832.911	16297.82
833.295	16191.04
833.68	16639.38
834.065	16045.51
834.449	15173.03
834.834	15103.37
835.218	15097.71
835.603	15412.68
835.987	15202.35
836.371	16002.51
836.755	15900.34
837.139	16275.39
837.524	16501.14
837.908	16315.72
838.291	16365.34
838.675	16421.05
839.059	16613.52
839.443	16596.77
839.827	16381.28
840.21	16834.85
840.594	16689.83
840.977	16886.2
841.361	16868.65
841.744	17226.56
842.127	17082.79
842.511	17314.09
842.894	17885.21
843.277	18248.44
843.66	18760.85
844.043	18834.91
844.426	18068.77
844.809	17773.01
845.191	17792.79
845.574	17361.57
845.957	17009.8
846.339	16900.96
846.722	16410.57
847.104	16474.7
847.487	16308.89
847.869	16331.76
848.252	16599.67
848.634	16921.17
849.016	17169.65
849.398	17291.37
849.78	18099.26
850.162	18106.14
850.544	18510.86
850.926	19108.58
851.307	19022.55
851.689	19284.65
852.071	19710.82
852.452	20011.18
852.834	19990.89
853.215	20368.74
853.597	20522.13
853.978	20798.79
854.359	21235.4
854.741	20284.8
855.122	20188
855.503	19909.06
855.884	20047.47
856.265	19981.85
856.646	20091.75
857.026	19715.41
857.407	19658.36
857.788	19801.93
858.169	20077.7
858.549	19259.16
858.93	19847.55
859.31	19894.56
859.69	20096.12
860.071	19704.44
860.451	19501.58
860.831	18802.58
861.211	19905.2
861.591	20426.8
861.971	20412
862.351	20595.94
862.731	20969.25
863.111	21223.97
863.491	21544.58
863.87	22380.85
864.25	22715.46
864.629	22328.21
865.009	22810.78
865.388	23622.39
865.768	25302.12
866.147	25195.24
866.526	23791.42
866.905	24084.26
867.284	25425.89
867.663	24126.36
868.042	23118.46
868.421	23040.02
868.8	23423.57
869.179	23650.23
869.558	22271.78
869.936	20526.72
870.315	20893.69
870.693	21397.26
871.072	23059.57
871.45	21974.04
871.828	22254.81
872.207	23398.86
872.585	23050.09
872.963	23679.41
873.341	22872.42
873.719	22601.02
874.097	22334.42
874.475	22753.88
874.853	23286.74
875.23	22320.76
875.608	23253.91
875.986	25154
876.363	24049.43
876.741	24774.11
877.118	24155.65
877.495	25334.8
877.873	25746.51
878.25	27081.83
878.627	25984.67
879.004	26344.38
879.381	26221.28
879.758	25525.98
880.135	23758.28
880.512	25129.53
880.889	24467.89
881.265	24211.71
881.642	24014.03
882.019	24429.23
882.395	23949.88
882.772	24891.8
883.148	23809.41
883.524	23706.97
883.901	23578.19
884.277	23932.38
884.653	23770.8
885.029	24442.21
885.405	27067.49
885.781	26856.24
886.157	25740.68
886.532	26035.43
886.908	26019.16
887.284	28935.96
887.659	29897.5
888.035	30816.24
888.411	31610.32
888.786	32022.61
889.161	33128.93
889.537	32504.98
889.912	33533.31
890.287	33493.08
890.662	34356.52
891.037	33730.45
891.412	31436.08
891.787	31098.76
892.162	30019.84
892.536	30717.87
892.911	29563.16
893.286	28941.93
893.66	27766.07
894.035	28477.36
894.409	31008.8
894.784	29752.8
895.158	30239.41
895.532	32049.22
895.906	32922.32
896.281	33682.03
896.655	33143.09
897.029	37872.27
897.402	39442.57
897.776	43915.41
898.15	43755
898.524	43284.07
898.898	43842.51
899.271	49115.12
899.645	42513.04
900.018	40837.28
900.392	42333.13
900.765	42656.79
901.138	39480.48
901.511	38875.98
901.884	35703.35
902.258	32929.97
902.631	34026.09
903.003	39164.87
903.376	35324.52
903.749	39608.34
904.122	42389.76
904.495	46677.78
904.867	47280.23
905.24	41019.77
905.612	38180.75
905.985	39027.96
906.357	40800.17
906.729	38926.48
907.102	33268.52
907.474	31990.64
907.846	32181.73
908.218	31761.81
908.59	28067.03
908.962	27139.43
909.334	29232.27
909.705	30697.24
910.077	29804.25
910.449	31016.04
910.82	31892.93
911.192	35079.72
911.563	36443.99
911.935	39010.67
912.306	39040.22
912.677	40285.51
913.048	39880.87
913.419	43251.14
913.79	43498.98
914.161	46631.16
914.532	44597.37
914.903	40998.04
915.274	38931.28
915.645	38336.3
916.015	33732.28
916.386	32170.53
916.756	34277.5
917.127	35372.38
917.497	31626.29
917.868	34433.04
918.238	32746.17
918.608	33686.3
918.978	34373.04
919.348	36421.31
919.718	37663.66
920.088	36301.5
920.458	37737.18
920.828	39712.17
921.198	37638.02
921.567	40187.27
921.937	31114.99
922.306	31402.29
922.676	33852.28
923.045	28235.6
923.415	26809.32
923.784	24413.18
924.153	25083.8
924.522	25052.41
924.891	23551.28
925.26	25229.2
925.629	24637.34
925.998	28319.45
926.367	27638.55
926.736	26333.55
927.104	31381.93
927.473	33758.71
927.842	40774.14
928.21	40376.45
928.578	42446.17
928.947	40146.08
929.315	40400.22
929.683	47395.56
930.051	47806.45
930.42	55508.24
930.788	47470.77
931.156	47092.12
931.523	44120.89
931.891	40770.27
932.259	39190.38
932.627	45400.76
932.994	64208.25
933.362	53069.3
933.729	46050.88
934.097	44053.72
934.464	37240.4
934.831	42918.26
935.199	42301.25
935.566	41004.51
935.933	41475
936.3	50182.88
936.667	39059.52
937.034	35212.4
937.401	34795.9
937.767	30036.84
938.134	26731.5
938.501	37750.57
938.867	40208.03
939.234	67975.26
939.6	58016.37
939.967	64006.71
940.333	42890.09
940.699	36509.43
941.065	29308.47
941.431	38440.56
941.798	37086.85
942.163	48754.39
942.529	30469.46
942.895	28068.49
943.261	18138.44
943.627	23812.78
943.992	20872.73
944.358	20893.41
944.723	20998.21
945.089	20489.08
945.454	18942.24
945.82	20216.92
946.185	19432.13
946.55	22523.19
946.915	20219.23
947.28	23760.28
947.645	20926.79
948.01	19326.01
948.375	20163.64
948.74	24123.41
949.104	28120.9
949.469	40597.88
949.834	71799.23
950.198	68036.2
950.562	40803.16
950.927	33993.95
951.291	40892.18
951.655	34848.24
952.02	32721.81
952.384	24732.45
952.748	21535.5
953.112	21008.49
953.476	18282.55
953.839	16898.66
954.203	16717.84
954.567	20875.67
954.931	32887.82
955.294	28133
955.658	28249.93
956.021	48033.05
956.385	81439.23
956.748	120254.92
957.111	186357.53
957.474	208994.01
957.837	235471.27
958.2	178056.78
958.563	64065.27
958.926	43262.6
959.289	65662.5
959.652	73352.08
960.015	55040.75
960.377	79073.37
960.74	90218.17
961.102	155877.52
961.465	167436.87
961.827	89635.6
962.189	172074.49
962.552	119261.62
962.914	95610.41
963.276	61996.93
963.638	51281.75
964	50768.27
964.362	34278.78
964.724	33158.73
965.085	23610.18
965.447	19350.73
965.809	22056.87
966.17	22073.92
966.532	23889.27
966.893	21922.13
967.255	19945.65
967.616	23525.64
967.977	18825.95
968.338	20557.08
968.699	16882.07
969.061	16890.96
969.421	16997.69
969.782	19064.11
970.143	16106.61
970.504	16685.67
970.865	18968.37
971.225	19383.61
971.586	18960.79
971.946	27002.06
972.307	23412.89
972.667	30610.45
973.027	31502.03
973.388	38198.65
973.748	25948.11
974.108	28252.74
974.468	38195.15
974.828	29464.78
975.188	22658.23
975.548	20811.39
975.907	17490.83
976.267	19651.72
976.627	16482.75
976.986	17081.76
977.346	16261.43
977.705	15667.57
978.064	14256.1
978.424	11859.67
978.783	12236.85
979.142	13985.7
979.501	13376.64
979.86	14142.37
980.219	13607.99
980.578	17584.5
980.937	19699.29
981.296	17580.72
981.654	18082.4
982.013	28179.33
982.371	36594.7
982.73	34189.38
983.088	38675.28
983.447	41296.34
983.805	59000.4
984.163	123172.78
984.521	136390.43
984.879	200037.39
985.237	-324674.11
985.595	312925.91
985.953	77787.37
986.311	44892.2
986.669	26077.13
987.026	22503.33
987.384	30302.06
987.741	31312.51
988.099	22420.99
988.456	17889.07
988.814	16754.1
989.171	14589.31
989.528	14418.91
989.885	15199.56
990.242	12041.27
990.599	14979.73
990.956	12261.29
991.313	8573.79
991.67	7037
992.027	7453.67
992.383	6621.23
992.74	5805.25
993.096	6090.91
993.453	6291.04
993.809	6520.84
994.165	8670.73
994.522	7968.05
994.878	8801.56
995.234	11045.65
995.59	10907.88
995.946	10324.63
996.302	11804.03
996.658	13621.52
997.013	15008.67
997.369	17782.38
997.725	22801.1
998.08	14786.15
998.436	22779.16
998.791	31363.8
999.147	31230.98
999.502	34020.19
999.857	24758.81
1000.212	40293.94
1000.567	57467.76
1000.922	33142.2
1001.277	21137.53
1001.632	15701.85
1001.987	20234.68
1002.342	14481.48
1002.696	11579.34
1003.051	9281.35
1003.406	11267.44
1003.76	11204.98
1004.114	11051.93
1004.469	9300.79
1004.823	7699.61
1005.177	8312.54
1005.531	6575.82
1005.885	5827.97
1006.239	6584.78
1006.593	8241.78
1006.947	10996.25
1007.301	8227.12
1007.655	8982.66
1008.008	6578.24
1008.362	7381.01
1008.715	10529.28
1009.069	9570.86
1009.422	14399.73
1009.776	28876
1010.129	19154.65
1010.482	16028.39
1010.835	13523.66
1011.188	28195.57
1011.541	26444.72
1011.894	-161777.54
1012.247	477359.23
1012.6	32559.79
1012.952	20492.98
1013.305	10535.64
1013.657	7604.36
1014.01	7200.76
1014.362	5934.91
1014.715	5289.56
1015.067	4603.37
1015.419	4514.87
1015.771	3993.24
1016.123	3543.15
1016.475	3627.23
1016.827	3869.9
1017.179	4168.91
1017.531	4187.01
1017.883	4273.02
1018.234	4145.59
1018.586	5227.69
1018.938	5550.57
1019.289	7647.39
1019.64	8764.95
1019.992	8171.79
1020.343	7474.82
1020.694	5903.28
1021.045	5226.02
1021.396	6003.03
1021.747	6473.58
1022.098	7727.04
1022.449	5602.61
1022.8	5196.91
1023.151	3617.22
1023.501	3207.97
1023.852	3487.57
1024.202	3623.84
1024.553	3966.27
1024.903	3895.5
1025.253	3325.65
1025.604	2985.58
1025.954	3698.99
1026.304	4527.66
1026.654	5283.86
1027.004	7742.28
1027.354	12528.55
1027.703	11812.47
1028.053	15595.68
1028.403	22925.8
1028.753	33016.05
1029.102	45008.34
1029.452	231834.03
1029.801	10071.31
1030.15	6494.72
1030.499	5495.93
897.758	2749.37
901.051	2707.88
904.343	2742.23
907.636	2742.93
910.928	2808.38
914.22	2717.55
917.511	2726.67
920.803	2790.97
924.094	2812.38
927.384	2788.64
930.675	2752.91
933.965	2704.6
937.255	2710.5
940.544	2679.3
943.834	2608.19
947.123	2555.18
950.411	2650
953.7	2620.93
956.988	2592.71
960.276	2531.78
963.563	2615.53
966.851	2611.12
970.138	2672.32
973.424	2664.36
976.711	2612.16
979.997	2758.91
983.283	2790.69
986.568	2692.93
989.853	2713.66
993.138	2738.1
996.423	2823.8
999.708	2756.56
1002.992	2825.59
1006.275	2647.1
1009.559	2701.77
1012.842	2820.73
1016.125	2750.38
1019.408	2726.49
1022.69	2819.34
1025.972	2834.08
1029.254	2807.67
1032.536	2734.22
1035.817	2765.77
1039.098	2703.8
1042.379	2864.5
1045.659	2857.75
1048.939	2786.35
1052.219	2809.34
1055.498	2825.88
1058.778	2808.07
1062.057	2792.95
1065.335	2813
1068.614	2833.38
1071.892	2815.84
1075.17	2894.85
1078.447	2880.51
1081.724	2868.7
1085.001	2910.28
1088.278	2881.11
1091.554	2894.75
1094.83	2891.77
1098.106	2921.2
1101.382	2967.11
1104.657	2968.11
1107.932	2962.23
1111.206	2925.76
1114.481	2883.66
1117.755	2886.06
1121.029	2861.82
1124.302	2916.37
1127.575	2864.55
1130.848	2850.07
1134.121	2809.13
1137.393	2757.96
1140.665	2826.5
1143.937	2799.7
1147.208	2760.01
1150.48	2797.47
1153.75	2784.33
1157.021	2820.13
1160.291	2787.67
1163.561	2833.38
1166.831	2827.4
1170.101	2858.39
1173.37	2834.46
1176.639	2775.43
1179.907	2838.34
1183.176	2841.51
1186.444	2850.05
1189.711	2877.85
1192.979	2889.63
1196.246	2848.18
1199.513	2862.94
1202.78	2860.05
1206.046	2869.85
1209.312	2895
1212.578	2923.6
1215.843	2872.68
1219.108	2844.16
1222.373	2866.33
1225.638	2831.57
1228.902	2811.8
1232.166	2778.41
1235.43	2762.04
1238.693	2783.61
1241.956	2783.54
1245.219	2821.53
1248.482	2815.92
1251.744	2808.14
1255.006	2969.04
1258.268	2924.21
1261.529	2863.49
1264.79	2872.62
1268.051	2974.45
1271.312	2993.01
1274.572	2954.34
1277.832	2941.19
1281.092	2935.23
1284.351	2903.02
1287.61	2880.23
1290.869	2792.97
1294.128	2765.41
1297.386	2862.72
1300.644	2849.58
1303.902	2863.5
1307.159	2718.23
1310.416	2775.37
1313.673	2802.05
1316.93	2783.76
1320.186	2832.16
1323.442	2878.01
1326.697	2860.12
1329.953	2856.16
1333.208	2876.16
1336.463	2858.84
1339.717	2793.16
1342.972	2937.91
1346.226	2912.87
1349.479	2840.66
1352.733	2809.48
1355.986	2836.35
1359.238	2812.4
1362.491	2816.15
1365.743	2819.42
1368.995	2812.13
1372.247	2825.89
1375.498	2853.01
1378.749	2858.64
1382	2814.64
1385.251	2873.72
1388.501	2835.03
1391.751	2814.21
1395	2788.23
1398.25	2822.91
1401.499	2826.39
1404.748	2752.97
1407.996	2744.54
1411.244	2728.9
1414.492	2709.47
1417.74	2689.12
1420.987	2696.56
1424.234	2755.87
1427.481	2739.58
1430.728	2798.3
1433.974	2770.18
1437.22	2788.22
1440.465	2788.89
1443.711	2745.79
1446.956	2784.73
1450.201	2773.94
1453.445	2818.21
1456.689	2795.29
1459.933	2808.53
1463.177	2841.19
1466.42	2808.64
1469.663	2790.73
1472.906	2782.39
1476.148	2868.89
1479.391	2821.13
1482.633	2790.55
1485.874	2801.08
1489.115	2784.21
1492.356	2795.4
1495.597	2767.4
1498.838	2769.7
1502.078	2739.69
1505.318	2684.78
1508.557	2728.65
1511.797	2693.71
1515.036	2777
1518.274	2768.1
1521.513	2740.13
1524.751	2763.39
1527.989	2772.75
1531.227	2787.36
1534.464	2778.09
1537.701	2800.88
1540.938	2820.07
1544.174	2772.45
1547.41	2774.09
1550.646	2812.74
1553.882	2844.16
1557.117	2901.1
1560.352	2915.83
1563.587	2871.29
1566.821	2828.55
1570.055	2867.05
1573.289	2835.74
1576.523	2916.83
1579.756	2921.12
1582.989	2940.55
1586.222	2899.62
1589.454	2941.26
1592.686	2911.83
1595.918	2937.41
1599.15	2924.47
1602.381	3006.75
1605.612	2956.1
1608.843	3054.18
1612.073	2962.55
1615.303	2950.02
1618.533	2936.97
1621.762	2940.8
1624.992	2929.83
1628.221	2913.89
1631.449	2897.9
1634.678	2957.19
1637.906	2906.82
1641.134	2948.18
1644.361	2903.41
1647.588	2894.8
1650.815	2907.83
1654.042	2890.73
1657.269	2921.1
1660.495	2868.13
1663.72	2882.96
1666.946	2847.96
1670.171	2787.75
1673.396	2762.61
1676.621	2753.48
1679.845	2778.3
1683.069	2798.93
1686.293	2844.48
1689.517	2813.54
1692.74	2737.64
1695.963	2771.26
1699.185	2793.47
1702.408	2766.51
1705.63	2813.11
1708.852	2824.63
1712.073	2794.49
1715.294	2774.54
1718.515	2838.15
1721.736	2784.5
1724.956	2779.35
1728.176	2808.13
1731.396	2829.04
1734.616	2816.39
1737.835	2844.49
1741.054	2823.47
1744.272	2815.61
1747.491	2848.92
1750.709	2907.93
1753.927	2805.67
1757.144	2852.87
1760.361	2892.22
1763.578	2890.16
1766.795	2827.77
1770.011	2840.39
1773.227	2885.16
1776.443	2917.43
1779.658	2965.07
1782.874	2905.9
1786.089	2882.14
1789.303	2885.98
1792.518	2892.23
1795.732	2880.76
1798.945	2886.41
1802.159	2938.76
1805.372	2830.1
1808.585	2814.37
1811.797	2818.79
1815.01	2871.57
1818.222	2870.38
1821.434	2833.38
1824.645	2894.46
1827.856	2875.48
1831.067	2914.39
1834.278	2872.86
1837.488	2859.55
1840.698	3018.18
1843.908	2936.13
1847.117	2894.24
1850.326	2770.4
1853.535	2883.38
1856.744	2918.53
1859.952	2831.69
1863.16	2833.11
1866.368	2856.26
1869.575	2960.78
1872.782	2840.76
1875.989	2783.59
1879.196	2874.14
1882.402	2870.01
1885.608	2913.2
1888.814	2808.66
1892.019	2700.79
1895.224	2753.43
1898.429	2739.16
1901.634	2714.64
1904.838	2693.19
1908.042	2745.56
1911.246	2745.24
1914.449	2671.75
1917.652	2671.15
1920.855	2654.3
1924.058	2709.1
1927.26	2744.99
1930.462	2772.99
1933.664	2796.1
1936.865	2730.78
1940.066	2735.39
1943.267	2682.82
1946.467	2702.75
1949.668	2732.99
1952.868	2800.32
1956.067	2774.68
1959.267	2701.93
1962.466	2731.41
1965.665	2717.44
1968.863	2712.36
1972.061	2732.19
1975.259	2735.35
1978.457	2813.17
1981.654	2768.46
1984.852	2767.84
1988.048	2698.32
1991.245	2703.36
1994.441	2790.97
1997.637	2779.54
2000.833	2762.21
2004.028	2802.9
2007.223	2856.7
2010.418	2830.06
2013.613	2795.38
2016.807	2763.73
2020.001	2770.73
2023.194	2819.53
2026.388	2795.08
2029.581	2739.74
2032.774	2788.08
2035.966	2791.01
2039.158	2718.63
2042.35	2746.59
2045.542	2671.98
2048.733	2775.89
2051.924	2802.49
2055.115	2834.73
2058.306	2772.18
2061.496	2832.64
2064.686	2901.04
2067.875	2813.3
2071.065	2831.43
2074.254	2860.06
2077.442	2810.63
2080.631	2904.14
2083.819	2787.45
2087.007	2769.75
2090.195	2738.8
2093.382	2775.8
2096.569	2753.91
2099.756	2704.82
2102.942	2728.85
2106.128	2732.67
2109.314	2724.07
2112.5	2683.64
2115.685	2658.91
2118.87	2669.91
2122.055	2734.82
2125.239	2696.97
2128.424	2671.39
2131.608	2779.93
2134.791	2761.5
2137.974	2821.97
2141.157	2805.84
2144.34	2755.73
2147.523	2775.31
2150.705	2788.62
2153.887	2770.43
2157.068	2716.29
2160.25	2721.12
2163.431	2761.7
2166.611	2704.63
2169.792	2721.18
2172.972	2610.71
2176.152	2694.19
2179.331	2731.64
2182.511	2709.43
2185.69	2741.12
2188.868	2730.06
2192.047	2792.13
2195.225	2779.03
2198.403	2727.34
2201.58	2721.91
2204.758	2716.04
2207.935	2803.42
2211.111	2688.52
2214.288	2668.83
2217.464	2709.09
2220.64	2682.79
2223.815	2743
2226.991	2659.41
2230.166	2680.13
2233.34	2707.99
2236.515	2735.73
2239.689	2814.23
2242.863	2756.14
2246.036	2810.64
2249.209	2817.27
2252.382	2854.5
2255.555	2838.84
2258.727	2772.46
2261.9	2814.91
2265.071	2806.49
2268.243	2810.75
2271.414	2735.94
2274.585	2692.25
2277.756	2762.07
2280.926	2716.77
2284.096	2758.1
2287.266	2661.41
2290.436	2718.46
2293.605	2749.42
2296.774	2779.01
2299.942	2804.95
2303.111	2821.68
2306.279	2870.87
2309.447	2856.97
2312.614	2833.05
2315.781	2854.46
2318.948	2822.63
2322.115	2862.06
2325.281	2763.98
2328.447	2784.9
2331.613	2760.83
2334.779	2728.62
2337.944	2732.81
2341.109	2731.61
2344.274	2713.35
2347.438	2674.53
2350.602	2700.51
2353.766	2720.06
2356.929	2704.95
2360.092	2746.22
2363.255	2695.76
2366.418	2621.65
2369.58	2744.42
2372.742	2513.72
2375.904	2531.62
2379.066	2505.12
2382.227	2546.89
2385.388	2509.2
2388.548	2425.63
2391.709	2486.42
2394.869	2464.3
2398.029	2571.6
2401.188	2587.91
2404.347	2517.47
2407.506	2671.53
2410.665	2700.37
2413.823	2708.74
2416.981	2660.26
2420.139	2693.94
2423.296	2748.74
2426.453	2722.72
2429.61	2745.21
2432.767	2671.44
2435.923	2709.17
2439.079	2669.01
2442.235	2720.2
2445.391	2643.16
2448.546	2673.28
2451.701	2724.68
2454.855	2693.8
2458.009	2751.36
2461.163	2752.12
2464.317	2711.92
2467.471	2747.46
2470.624	2789.49
2473.777	2760.5
2476.929	2775.31
2480.082	2801.72
2483.234	2761.92
2486.385	2719.39
2489.537	2710.6
2492.688	2666.87
2495.839	2684.42
2498.989	2695.55
2502.14	2678.9
2505.29	2658.37
2508.439	2686.95
2511.589	2605.88
2514.738	2619.05
2517.887	2652.05
2521.035	2712.41
2524.183	2697.91
2527.331	2677.29
2530.479	2647.75
2533.627	2658.17
