Data from C_3_HIR_IL_4N_Splice17_13-39-18-644.txt Node
Date: Sat Mar 14 13:39:18 EDT 2020
User: sa697716
Spectrometer: FLMS03696
Trigger mode: 0
Integration Time (sec): 3.180400E-1
Scans to average: 20
Electric dark correction enabled: true
Nonlinearity correction enabled: true
Boxcar width: 5
XAxis mode: Wavelengths
Number of Pixels in Spectrum: 2048
>>>>>Begin Spectral Data<<<<<
187.83	-485817.95
188.298	3535.2
188.766	1873.29
189.233	1646.81
189.701	2261.74
190.169	3080.18
190.636	1163.01
191.104	971.71
191.571	165.52
192.039	-46.52
192.506	-75.92
192.974	601.53
193.441	-736.29
193.908	58.93
194.375	-0.55
194.842	-13.08
195.31	100.23
195.777	201.53
196.244	501.27
196.711	566.77
197.177	703.25
197.644	972.04
198.111	1688.37
198.578	2364.06
199.045	1882.26
199.511	3100.27
199.978	3663.12
200.445	3096.87
200.911	3409.56
201.378	3743.91
201.844	3392.94
202.31	5825.35
202.777	6066.7
203.243	3372.71
203.709	3202.65
204.176	3815.38
204.642	3127.2
205.108	2916.82
205.574	2358.6
206.04	2132.03
206.506	2015.9
206.972	1906.13
207.438	1842.89
207.903	2101.46
208.369	1839.28
208.835	1839.27
209.301	1933.91
209.766	1972.18
210.232	1963.56
210.697	2444.43
211.163	3039.3
211.628	4606.15
212.094	3855.53
212.559	4788.34
213.024	2999.86
213.49	3677.1
213.955	3584.59
214.42	3470.96
214.885	3257.99
215.35	3132.3
215.815	3026.84
216.28	3228.99
216.745	2653.65
217.21	2887.49
217.675	2665.23
218.14	3016.25
218.604	3402.33
219.069	3917.8
219.534	4160.77
219.998	4883.76
220.463	5974.78
220.927	7419.71
221.392	7029.05
221.856	7142.14
222.32	9080.63
222.785	11272.47
223.249	14256.46
223.713	15987.09
224.177	16076.53
224.642	20692.25
225.106	25560.53
225.57	28000.77
226.034	20876.7
226.497	31901.99
226.961	28858.41
227.425	33642.98
227.889	37362.71
228.353	37461.85
228.816	77408.67
229.28	74124.85
229.744	62680.16
230.207	38132.12
230.671	37532.53
231.134	62229.63
231.597	71856.43
232.061	72083.81
232.524	70391.31
232.987	48596.83
233.45	43789.09
233.914	39362.2
234.377	40451.68
234.84	37082.84
235.303	43814.91
235.766	48989.15
236.229	50722.64
236.691	31998.87
237.154	36002
237.617	27149.03
238.08	27845.17
238.542	32662.38
239.005	23377.04
239.468	23206.02
239.93	21890.25
240.393	19898.8
240.855	17504.39
241.317	17942.01
241.78	21853.05
242.242	22611.47
242.704	24456.68
243.166	21316.06
243.629	19369.44
244.091	22363.65
244.553	24539.47
245.015	26412.09
245.477	34216.91
245.939	50207.6
246.4	53352.4
246.862	51898.6
247.324	48969.55
247.786	54774.55
248.247	71963.66
248.709	74386.21
249.17	55639.86
249.632	52523.63
250.093	60973.39
250.555	52729.11
251.016	32176.67
251.477	30552.28
251.939	33015
252.4	34681.78
252.861	41285.63
253.322	38391.31
253.783	45748.92
254.244	59401.61
254.705	46853.88
255.166	41670.32
255.627	41051.1
256.088	57995.4
256.549	61586.35
257.009	53063.4
257.47	64433.36
257.931	52503.5
258.391	39357.23
258.852	40560.19
259.312	42489.2
259.773	52501.96
260.233	44384.5
260.694	37480.05
261.154	42477.06
261.614	34106.7
262.074	30518.06
262.534	31738.5
262.994	29943.87
263.455	39930.1
263.915	33652.73
264.374	31739.45
264.834	34666.55
265.294	38444.86
265.754	39807.66
266.214	37718.07
266.673	35385.87
267.133	44690.19
267.593	44303.83
268.052	54191.11
268.512	47136.94
268.971	56851.28
269.431	62395.33
269.89	55872.86
270.349	83767.02
270.809	93415.28
271.268	83980.4
271.727	188378.9
272.186	121907.95
272.645	91398.4
273.104	65938.2
273.563	95419.27
274.022	75095.27
274.481	63842.74
274.94	49208.32
275.399	36604.89
275.857	42614.11
276.316	57639.71
276.775	51234.3
277.233	50468.01
277.692	47261.18
278.15	53455.68
278.609	54983.28
279.067	50858.58
279.525	47206.63
279.984	60906.33
280.442	73098.09
280.9	72029.02
281.358	47372.67
281.816	44163.44
282.274	43233.5
282.732	44655.34
283.19	44828.38
283.648	38684.35
284.106	41145.89
284.564	41838.01
285.021	38797.56
285.479	28898.96
285.937	26285.31
286.394	23048.09
286.852	23694.8
287.309	24904.32
287.767	24035.45
288.224	22887.41
288.682	25133.14
289.139	27604.25
289.596	25242.5
290.053	26208
290.511	33083.37
290.968	40135.02
291.425	54502.8
291.882	45436.38
292.339	39534.82
292.796	39273.25
293.252	36976.53
293.709	29333.21
294.166	26289.47
294.623	29093.8
295.079	27938.5
295.536	28081.18
295.992	25495.67
296.449	25194.97
296.905	26168.36
297.362	25067.34
297.818	26360.65
298.274	27380.11
298.731	27917.53
299.187	27643.26
299.643	29689.39
300.099	35951.45
300.555	39398.1
301.011	32915.62
301.467	31728.41
301.923	37133.87
302.379	36306.33
302.835	35685.34
303.291	35728.82
303.746	40689.41
304.202	51394.74
304.658	51561.43
305.113	34650.4
305.569	33943.8
306.024	36182.48
306.479	34448.23
306.935	29056.12
307.39	31723.72
307.845	29284.64
308.301	29475.58
308.756	28711
309.211	27640.65
309.666	28328.59
310.121	35157.54
310.576	35716.96
311.031	35445.23
311.486	40604.37
311.94	40543.04
312.395	54240.81
312.85	101967.54
313.305	499998.97
313.759	2586533.56
314.214	187515.76
314.668	148641.35
315.123	124942.44
315.577	44801
316.032	39867.82
316.486	49991.26
316.94	39448.62
317.394	27458.19
317.849	21328.58
318.303	20202.05
318.757	19068.01
319.211	21092.47
319.665	18474.59
320.119	18713.63
320.572	26839.13
321.026	25085.58
321.48	20868.37
321.934	22752.17
322.387	22790.63
322.841	24628.43
323.295	22156.79
323.748	25538.1
324.202	25910.37
324.655	31105.88
325.108	43449.47
325.562	30695.3
326.015	36451.88
326.468	27537.06
326.921	30819.71
327.374	28729.88
327.827	29913.81
328.28	33880.81
328.733	22697.14
329.186	19943.51
329.639	18999.57
330.092	16021.76
330.545	15253.08
330.997	15396.25
331.45	16847.48
331.903	19729.72
332.355	33953.02
332.808	32986.57
333.26	27207.3
333.713	29532.08
334.165	29780.46
334.617	39749.11
335.069	32110.58
335.522	58074.79
335.974	64225.56
336.426	58585.13
336.878	40569.43
337.33	20581.69
337.782	20109.79
338.234	25187.18
338.686	30136.63
339.137	35672.94
339.589	33605.32
340.041	26305.77
340.493	22592.51
340.944	23143.67
341.396	24961.93
341.847	20974.81
342.299	24758.21
342.75	30207.62
343.201	26405.02
343.653	30330.58
344.104	37299.94
344.555	29378.58
345.006	45791.84
345.457	35098.89
345.908	27876.55
346.359	26190.66
346.81	21334.66
347.261	22454.95
347.712	22117.78
348.163	23693.66
348.613	23984.17
349.064	22382.94
349.515	19570.77
349.965	20070.94
350.416	24177.23
350.866	26550.99
351.317	30049.93
351.767	49816.09
352.217	63003.53
352.668	52210.35
353.118	47804.34
353.568	46136.76
354.018	36446.66
354.468	38474.43
354.918	27562.38
355.368	24084.09
355.818	34050.85
356.268	97882.05
356.718	408964.68
357.168	101772.29
357.617	51110.55
358.067	56893.83
358.517	53250.64
358.966	62484.42
359.416	69908.57
359.865	75482.54
360.315	89843.53
360.764	41833.78
361.213	23395.54
361.663	22175.04
362.112	27357.35
362.561	44150.38
363.01	33296.03
363.459	28047.93
363.908	30358.63
364.357	25777.6
364.806	43521.78
365.255	29919.18
365.703	27450.9
366.152	27528.04
366.601	22293.32
367.05	18082.68
367.498	16424.42
367.947	17133.33
368.395	17811.03
368.844	15751.58
369.292	18987.38
369.74	13107.49
370.189	20058.87
370.637	23446.61
371.085	20178.31
371.533	24605.35
371.981	23712.92
372.429	22594.39
372.877	23487.97
373.325	19633.01
373.773	19996.81
374.221	17810.59
374.669	22103.41
375.116	19091.14
375.564	19241.12
376.012	21517.39
376.459	17678.14
376.907	21069.34
377.354	25429.32
377.801	23735.33
378.249	27208.4
378.696	34727.66
379.143	41946.35
379.591	44723.03
380.038	75527.77
380.485	54529.56
380.932	58872.91
381.379	53835.35
381.826	39542.54
382.273	28097.49
382.72	24503.54
383.166	23839.07
383.613	15423.98
384.06	13897.23
384.506	16049.63
384.953	11767.22
385.4	11810.97
385.846	10297.96
386.292	10024.57
386.739	9800.03
387.185	9650.2
387.631	9625.18
388.078	9325.44
388.524	9952.9
388.97	9151.72
389.416	7604.02
389.862	8065.03
390.308	7614.95
390.754	7733.69
391.2	8362.08
391.645	8536.69
392.091	8153.02
392.537	7872.23
392.983	7865.46
393.428	7720.5
393.874	8252.88
394.319	8251.79
394.765	7811.92
395.21	8020.94
395.655	7499.93
396.101	7005.87
396.546	6303.06
396.991	6348.94
397.436	5878.35
397.881	5666.61
398.326	5353.94
398.771	5058.48
399.216	4413.42
399.661	3967.27
400.106	3942.53
400.551	4021.32
400.995	3600.31
401.44	3560.56
401.885	3332.54
402.329	3355.74
402.774	3216.5
403.218	3109.54
403.663	2988.27
404.107	3067
404.551	3081.92
404.995	2815.99
405.44	2709.16
405.884	2744.09
406.328	2645.03
406.772	2635.64
407.216	2398.61
407.66	2310.2
408.104	2186.41
408.547	2045.65
408.991	1975.64
409.435	1897.21
409.879	1872.79
410.322	1844.15
410.766	1779.01
411.209	1695.59
411.653	1623.48
412.096	1591.35
412.54	1590.13
412.983	1580.41
413.426	1584.55
413.869	1582.49
414.312	1552.43
414.756	1492.32
415.199	1423.01
415.642	1380.96
416.085	1378.54
416.527	1367.17
416.97	1383.93
417.413	1312.56
417.856	1295.69
418.298	1279.75
418.741	1267.72
419.184	1262.4
419.626	1316.19
420.069	1316.81
420.511	1324.39
420.953	1297.03
421.396	1285.59
421.838	1252.15
422.28	1278.17
422.722	1284.85
423.164	1302.09
423.606	1284.97
424.048	1281.9
424.49	1218.96
424.932	1210.05
425.374	1193.1
425.816	1212.19
426.258	1233.91
426.699	1249.33
427.141	1234.18
427.582	1249.67
428.024	1241.14
428.465	1229.56
428.907	1199.47
429.348	1179.57
429.789	1179.5
430.231	1155.11
430.672	1169.55
431.113	1143.67
431.554	1127.56
431.995	1094.68
432.436	1056.09
432.877	1033.99
433.318	1015.56
433.759	1009.79
434.2	1011.41
434.64	1001.69
435.081	1000.29
435.522	947.73
435.962	909.64
436.403	887.15
436.843	899.49
437.284	881.21
437.724	854.92
438.164	855.4
438.604	834.88
439.045	802.63
439.485	768.63
439.925	750.38
440.365	728.84
440.805	719.81
441.245	709.72
441.685	683.13
442.125	674.5
442.564	678.57
443.004	663.19
443.444	660.39
443.883	661.34
444.323	652.62
444.762	652.51
445.202	660.7
445.641	672.44
446.081	665.29
446.52	670.41
446.959	663.24
447.398	647.33
447.837	638.3
448.276	624.51
448.716	627.16
449.154	630.39
449.593	617.38
450.032	613.46
450.471	599.3
450.91	598
451.349	593.67
451.787	589.15
452.226	594.19
452.664	592.17
453.103	593.11
453.541	590.13
453.98	590.61
454.418	591.01
454.856	581.89
455.295	578.92
455.733	583.01
456.171	585.74
456.609	584.81
457.047	582.32
457.485	590.72
457.923	590.9
458.361	581.07
458.798	581.9
459.236	579.23
459.674	580.11
460.111	582.01
460.549	576.01
460.987	572.61
461.424	570.88
461.862	568.7
462.299	558.22
462.736	556.99
463.173	559.79
463.611	555.49
464.048	556.36
464.485	561.96
464.922	557.19
465.359	553.61
465.796	551.84
466.233	547.95
466.67	544.98
467.106	544.81
467.543	539.2
467.98	530.72
468.416	514.06
468.853	507.5
469.29	491.46
469.726	485.91
470.162	474.33
470.599	462.51
471.035	457.38
471.471	444.53
471.907	439.85
472.344	435.97
472.78	438.12
473.216	442.52
473.652	437.13
474.088	436.29
474.523	434.74
474.959	437.14
475.395	433.59
475.831	431.55
476.266	433.82
476.702	432.98
477.138	428.84
477.573	426.74
478.008	426.16
478.444	428.31
478.879	433.28
479.314	434.58
479.75	433.44
480.185	434.55
480.62	437.49
481.055	438.92
481.49	442.06
481.925	447.61
482.36	456.39
482.795	467.72
483.229	478.77
483.664	486.08
484.099	487.05
484.534	494.62
484.968	499.03
485.403	499.58
485.837	497.34
486.271	494.42
486.706	493.49
487.14	485.73
487.574	476.75
488.009	471.08
488.443	465.48
488.877	469.6
489.311	468.9
489.745	472.89
490.179	476.1
490.613	484.86
491.046	486.45
491.48	488.74
491.914	487.25
492.348	489.21
492.781	490.74
493.215	490.23
493.648	488.35
494.082	490.93
494.515	489.37
494.948	492.1
495.382	491.28
495.815	493.1
496.248	494.36
496.681	501
497.114	505.55
497.547	510.27
497.98	517.32
498.413	520.45
498.846	524.38
499.279	527.31
499.711	527.72
500.144	527.32
500.577	533.23
501.009	537.9
501.442	542.52
501.874	541.44
502.306	539.28
502.739	544.54
503.171	549.94
503.603	549.3
504.036	551.75
504.468	552.67
504.9	557.74
505.332	558.52
505.764	559.44
506.196	560.99
506.627	567.94
507.059	575.27
507.491	574.36
507.923	572.49
508.354	581.03
508.786	587.48
509.217	598.31
509.649	606.95
510.08	617.07
510.512	627.19
510.943	636.49
511.374	643.47
511.805	655.69
512.237	667.78
512.668	686.99
513.099	702.78
513.53	719.42
513.961	733.22
514.391	753.74
514.822	777.1
515.253	800.53
515.684	818.24
516.114	839.25
516.545	855.59
516.975	875.19
517.406	889.57
517.836	894.12
518.267	902.58
518.697	918.15
519.127	924.24
519.558	931.8
519.988	937.53
520.418	947.09
520.848	962.2
521.278	971.12
521.708	1017.57
522.138	1031.46
522.567	1057.82
522.997	1078.94
523.427	1093.62
523.857	1110.39
524.286	1122.72
524.716	1138.63
525.145	1158
525.575	1170.48
526.004	1186.29
526.433	1159.26
526.863	1163.66
527.292	1161.5
527.721	1170.46
528.15	1178.35
528.579	1182.72
529.008	1194.13
529.437	1213.86
529.866	1227.33
530.295	1242.84
530.724	1255.81
531.152	1276.53
531.581	1290.15
532.01	1306.03
532.438	1313.69
532.867	1326.83
533.295	1343.56
533.723	1351.41
534.152	1352.61
534.58	1355.16
535.008	1344.95
535.436	1348.07
535.865	1356.82
536.293	1368.28
536.721	1380.84
537.149	1403.22
537.576	1406.98
538.004	1417.29
538.432	1422.72
538.86	1422.15
539.287	1426.67
539.715	1439.41
540.143	1440.93
540.57	1438.45
540.998	1435.64
541.425	1419.06
541.852	1402.42
542.28	1401.41
542.707	1389.3
543.134	1379.91
543.561	1377.87
543.988	1373.61
544.415	1373
544.842	1369.81
545.269	1365.71
545.696	1369.97
546.123	1381.3
546.549	1375.26
546.976	1367.35
547.403	1368.3
547.829	1370.04
548.256	1372.1
548.682	1370.13
549.108	1366.25
549.535	1366.89
549.961	1369.06
550.387	1358.56
550.813	1355.62
551.24	1360.68
551.666	1361.34
552.092	1355.61
552.518	1353.07
552.943	1349.44
553.369	1354.82
553.795	1358.51
554.221	1360.08
554.646	1357.94
555.072	1367.9
555.498	1370.44
555.923	1377.57
556.349	1389.78
556.774	1395.24
557.199	1393.89
557.625	1396.36
558.05	1391.47
558.475	1398.62
558.9	1397.02
559.325	1389.89
559.75	1383.2
560.175	1376.43
560.6	1369.79
561.025	1364.64
561.449	1363.41
561.874	1365.87
562.299	1368.85
562.723	1371.64
563.148	1360.94
563.572	1359.61
563.997	1364.05
564.421	1363.8
564.846	1362.03
565.27	1361.19
565.694	1356.2
566.118	1360.91
566.542	1363.7
566.966	1354.17
567.39	1347.47
567.814	1336.03
568.238	1332.59
568.662	1332.15
569.086	1331.37
569.509	1331.88
569.933	1318.09
570.357	1309.02
570.78	1289.82
571.204	1276.96
571.627	1266.28
572.05	1261.5
572.474	1259.52
572.897	1247.27
573.32	1239.38
573.743	1228.06
574.166	1213.02
574.589	1208.32
575.012	1200.86
575.435	1198.13
575.858	1188.82
576.281	1178.33
576.704	1165.59
577.126	1153.31
577.549	1143.63
577.972	1134.34
578.394	1126.24
578.817	1121.85
579.239	1107.82
579.661	1098.61
580.084	1088.38
580.506	1079.34
580.928	1075.42
581.35	1066.06
581.772	1062.55
582.194	1053.44
582.616	1042.94
583.038	1031.07
583.46	1021.23
583.882	1019.42
584.303	1018.58
584.725	1013.38
585.147	1016.59
585.568	1022.83
585.99	1031.07
586.411	1035.12
586.833	1043.81
587.254	1044.84
587.675	1053.64
588.096	1060.57
588.518	1054.91
588.939	1044.55
589.36	1041.7
589.781	1028.79
590.202	1011.34
590.623	1003.79
591.043	1000.75
591.464	991.57
591.885	988.34
592.305	983.67
592.726	973.75
593.147	974.03
593.567	969.23
593.987	963.32
594.408	959.21
594.828	954.52
595.248	951.19
595.669	939.24
596.089	932.41
596.509	927.28
596.929	917.82
597.349	917.97
597.769	911.09
598.189	906.97
598.608	907.08
599.028	908.33
599.448	908.26
599.867	897.5
600.287	893.49
600.706	891.58
601.126	884.64
601.545	884.08
601.965	882.47
602.384	878.79
602.803	879.79
603.222	877.31
603.641	872.47
604.061	869.96
604.48	867.14
604.898	870.95
605.317	873.28
605.736	873.72
606.155	871.98
606.574	865.13
606.992	867.47
607.411	863.34
607.829	855.39
608.248	852.2
608.666	848.79
609.085	848.21
609.503	842.96
609.921	839.39
610.339	840.25
610.758	837.91
611.176	834.92
611.594	828.64
612.012	826.29
612.43	828.98
612.847	831.98
613.265	833.13
613.683	834.52
614.101	834.69
614.518	829.34
614.936	822.02
615.353	813.51
615.771	810.23
616.188	809.97
616.606	807.17
617.023	801.66
617.44	792.29
617.857	786.39
618.274	780.5
618.691	776.88
619.108	771.28
619.525	766.94
619.942	769.59
620.359	770.82
620.776	767.42
621.192	764.8
621.609	763.67
622.026	767.55
622.442	771.37
622.859	773.47
623.275	767.77
623.691	770.58
624.108	778.01
624.524	786.93
624.94	786.6
625.356	791.95
625.772	799
626.188	805.83
626.604	807.27
627.02	804.03
627.436	802.27
627.852	806.69
628.268	815.11
628.683	809.58
629.099	803.3
629.514	799.18
629.93	801.13
630.345	803.75
630.761	800.95
631.176	802.65
631.591	800.3
632.007	796.73
632.422	794.84
632.837	786.38
633.252	785.16
633.667	779.3
634.082	773.65
634.497	766.33
634.911	755.13
635.326	751.68
635.741	740.41
636.155	732.29
636.57	733.22
636.984	732.22
637.399	734.13
637.813	732.36
638.228	730.2
638.642	733.11
639.056	724.98
639.47	724.85
639.884	719.7
640.298	715.98
640.712	715.36
641.126	706.79
641.54	701.72
641.954	696.16
642.368	688.51
642.781	686.31
643.195	675.53
643.609	677.27
644.022	672.15
644.436	670.34
644.849	662.21
645.262	654.85
645.676	656.66
646.089	654.27
646.502	648.06
646.915	646.27
647.328	635.58
647.741	635.33
648.154	628.2
648.567	630.92
648.98	624.02
649.393	625.45
649.805	625.42
650.218	621.5
650.631	612.81
651.043	609.29
651.456	607.09
651.868	607.74
652.28	618.61
652.693	626.1
653.105	627.98
653.517	634.12
653.929	635.63
654.341	640.4
654.753	634.78
655.165	639.91
655.577	639.79
655.989	637.77
656.401	634.05
656.813	614.87
657.224	606.03
657.636	589.63
658.047	582.19
658.459	573.03
658.87	568.72
659.282	563.8
659.693	554.36
660.104	547.97
660.515	541.35
660.926	541.87
661.338	542.14
661.749	540.1
662.159	538.38
662.57	537.87
662.981	537.64
663.392	536.29
663.803	542.63
664.213	543.87
664.624	544.29
665.035	550.31
665.445	544.43
665.855	543.14
666.266	541.13
666.676	541.35
667.086	537.19
667.497	539.79
667.907	538.46
668.317	533.8
668.727	535.94
669.137	537.79
669.547	538.21
669.956	542.56
670.366	545.84
670.776	548.89
671.186	554.3
671.595	558.84
672.005	561.98
672.414	563.17
672.824	563.3
673.233	565.25
673.642	568.5
674.052	572.77
674.461	576.48
674.87	579.75
675.279	580.16
675.688	580.38
676.097	582.49
676.506	581.36
676.915	592.42
677.323	595.71
677.732	594.23
678.141	593.62
678.549	585.12
678.958	583.57
679.366	582.94
679.775	584.82
680.183	594.8
680.592	598.57
681	601.09
681.408	593.81
681.816	597.31
682.224	601.03
682.632	608.18
683.04	626.29
683.448	641.03
683.856	660.26
684.264	681.42
684.671	696.64
685.079	717.11
685.487	742.11
685.894	778.04
686.302	803.31
686.709	823.31
687.116	845.49
687.524	864.12
687.931	877.75
688.338	886.36
688.745	892.13
689.152	902.29
689.559	921.93
689.966	941.83
690.373	947.26
690.78	966.81
691.187	1001.77
691.593	1027.65
692	1049.99
692.407	1087.42
692.813	1138.01
693.22	1177.73
693.626	1218.94
694.032	1254.6
694.439	1307.74
694.845	1352.82
695.251	1409.08
695.657	1462.24
696.063	1536.98
696.469	1596.94
696.875	1655.62
697.281	1693.2
697.687	1741.15
698.093	1786.04
698.498	1855.97
698.904	1912.89
699.31	1994.11
699.715	2060.98
700.12	2144.63
700.526	2176.63
700.931	2247.91
701.337	2308.03
701.742	2353.68
702.147	2436.23
702.552	2479.24
702.957	2543.89
703.362	2579.65
703.767	2620.26
704.172	2668.67
704.577	2652.91
704.981	2711.98
705.386	2746.2
705.791	2760.83
706.195	2841
706.6	2869.44
707.004	2954.52
707.408	2948.64
707.813	2993.88
708.217	3006.37
708.621	3028.62
709.025	3131.45
709.43	3151.25
709.834	3222.89
710.237	3300.51
710.641	3307.41
711.045	3346.01
711.449	3360.55
711.853	3407.78
712.256	3459.54
712.66	3508.8
713.064	3592.78
713.467	3648.93
713.87	3770.08
714.274	3828.7
714.677	3947.77
715.08	4113.65
715.484	4285.62
715.887	4496.81
716.29	4701.41
716.693	4921.83
717.096	5169.91
717.499	5319.88
717.901	5361.93
718.304	5406.6
718.707	5452.04
719.109	5373.14
719.512	5362.51
719.915	5251.41
720.317	5210.46
720.719	5266.52
721.122	5253.06
721.524	5220.73
721.926	5196.3
722.328	5311.91
722.731	5318.74
723.133	5360.45
723.535	5567.01
723.937	5602.06
724.338	5669.51
724.74	5725.8
725.142	5700.04
725.544	5710.72
725.945	5754.88
726.347	5761.59
726.748	5767.46
727.15	5791.52
727.551	5765.03
727.952	5749.22
728.354	5730.74
728.755	5741.32
729.156	5708.08
729.557	5685.4
729.958	5568.61
730.359	5516.73
730.76	5507.96
731.161	5453.15
731.562	5435.34
731.962	5444.96
732.363	5385.15
732.763	5326.82
733.164	5371.03
733.564	5307.93
733.965	5215.61
734.365	5183.2
734.766	5217.52
735.166	5179.43
735.566	5126.79
735.966	5105.05
736.366	5105.52
736.766	5044.85
737.166	5079.99
737.566	5040.56
737.966	5014.19
738.365	5056.54
738.765	5055.66
739.165	4980.52
739.564	4956.46
739.964	5007.99
740.363	4962.73
740.763	4962.3
741.162	4952.57
741.561	4923.12
741.96	4876.47
742.36	4900.8
742.759	4908.52
743.158	4953.07
743.557	4970.9
743.955	5017.35
744.354	4970.6
744.753	5034.25
745.152	4991.6
745.55	5052.64
745.949	5049.01
746.348	5053.97
746.746	5073.87
747.144	5037.27
747.543	5013.04
747.941	5068.04
748.339	4991.95
748.737	4987.05
749.136	4978.04
749.534	5049.88
749.932	5021.79
750.33	5044.45
750.727	5103.46
751.125	5081.34
751.523	5063.27
751.921	5115.91
752.318	5079.5
752.716	5146.05
753.113	5162.15
753.511	5191.87
753.908	5194.24
754.305	5178.12
754.703	5247.51
755.1	5314.86
755.497	5377.11
755.894	5581.68
756.291	5768.88
756.688	6123.92
757.085	6592.78
757.482	7250.26
757.878	7974.35
758.275	8627.14
758.672	9520.12
759.068	10248.81
759.465	11290.66
759.861	12633.62
760.258	14191.79
760.654	15006.88
761.05	14885.39
761.447	14210.11
761.843	13235.74
762.239	12215.31
762.635	11756.15
763.031	11316.36
763.427	10685.76
763.822	10021.98
764.218	9369.92
764.614	8518.47
765.01	7941.27
765.405	7573.61
765.801	7291.78
766.196	6934.75
766.592	6736.97
766.987	6403.49
767.382	6178.18
767.778	6081.98
768.173	5942.33
768.568	5865.27
768.963	5733.62
769.358	5754.23
769.753	5705.05
770.148	5615.45
770.542	5614.02
770.937	5579.27
771.332	5673.37
771.726	5696.07
772.121	5630.5
772.515	5691.4
772.91	5674.21
773.304	5747.6
773.699	5679.26
774.093	5734.08
774.487	5795.32
774.881	5843.79
775.275	5840.03
775.669	5795.31
776.063	5840.92
776.457	5878.66
776.851	5798.23
777.245	5794.93
777.638	5831.6
778.032	5956.24
778.425	5919.21
778.819	5966.12
779.212	5919.93
779.606	5878.79
779.999	5899.39
780.392	5885.16
780.786	5975.48
781.179	5995.93
781.572	6041.25
781.965	6059.26
782.358	5997.74
782.751	6059.52
783.143	6004.87
783.536	6083.53
783.929	6129.5
784.322	6258.54
784.714	6291.96
785.107	6290.8
785.499	6373.23
785.891	6349.99
786.284	6324.31
786.676	6474.72
787.068	6454.07
787.46	6507.91
787.852	6528.84
788.245	6623.13
788.636	6651.61
789.028	6721.62
789.42	6760.62
789.812	6767.4
790.204	6870.5
790.595	6979.94
790.987	6771.55
791.378	6796.87
791.77	6937.28
792.161	7084.27
792.553	7141.84
792.944	7026.2
793.335	6953.15
793.726	7033.64
794.117	7131.93
794.508	7279.42
794.899	7248
795.29	7398.53
795.681	7461.74
796.072	7310.13
796.463	7116.74
796.853	7131.77
797.244	7300.21
797.634	7337.03
798.025	7335.74
798.415	7348.48
798.806	7445
799.196	7539.53
799.586	7598.15
799.976	7554.37
800.366	7806.97
800.756	8061.17
801.146	8014.26
801.536	8043.88
801.926	8125.32
802.316	8156.1
802.706	8232.72
803.095	8102.39
803.485	8211.34
803.874	8257.95
804.264	8545.54
804.653	8516.57
805.043	8677.1
805.432	8799.13
805.821	8803.81
806.21	8830.22
806.599	8962.26
806.988	9016.99
807.377	9131.17
807.766	9277.78
808.155	9584.41
808.544	9299.88
808.933	9320.87
809.321	9304.44
809.71	9630.35
810.098	9805.47
810.487	10307.2
810.875	10826.07
811.264	10856.16
811.652	11180.43
812.04	11338.35
812.428	11514.32
812.816	12347.81
813.204	12805.28
813.592	13401.95
813.98	13771.71
814.368	13674.47
814.756	14201.3
815.144	14121.52
815.531	14631.98
815.919	14552.98
816.306	14885.49
816.694	14559.4
817.081	14610.42
817.469	14988.88
817.856	14991.14
818.243	15280.19
818.63	15710.04
819.017	15254.05
819.404	15320.59
819.791	15727.15
820.178	16391.23
820.565	16668.6
820.952	17679.9
821.339	17147.57
821.725	17348.24
822.112	16540.44
822.498	16502.42
822.885	16637.93
823.271	16530.93
823.657	16980.35
824.044	16988.14
824.43	17064.1
824.816	17030.55
825.202	16557.06
825.588	17661.68
825.974	17674.62
826.36	18232.63
826.746	18262.71
827.132	18657.2
827.517	18628.7
827.903	17782.85
828.289	17820.48
828.674	16974.99
829.06	16845.5
829.445	17272.13
829.83	17652.35
830.216	18154.9
830.601	18543.66
830.986	18092.67
831.371	17934.77
831.756	18527.81
832.141	18046.08
832.526	18033.49
832.911	18331.12
833.295	18211.23
833.68	18706.43
834.065	18032.13
834.449	17046.16
834.834	16957.72
835.218	16951.61
835.603	17311.77
835.987	17075.31
836.371	17975.69
836.755	17859.22
837.139	18280.95
837.524	18530.64
837.908	18335.34
838.291	18400.26
838.675	18467.96
839.059	18686.74
839.443	18667.61
839.827	18417.13
840.21	18932.45
840.594	18770.34
840.977	18992.16
841.361	18978.07
841.744	19373.02
842.127	19205.86
842.511	19464.76
842.894	20100.69
843.277	20501.06
843.66	21073.32
844.043	21162.77
844.426	20302.67
844.809	19961.21
845.191	19990.68
845.574	19483.56
845.957	19096.49
846.339	18977.22
846.722	18408.07
847.104	18494.1
847.487	18310.1
847.869	18329.17
848.252	18620.96
848.634	18965.27
849.016	19247.49
849.398	19385.45
849.78	20308.38
850.162	20326.27
850.544	20772.9
850.926	21458.52
851.307	21355.86
851.689	21665.17
852.071	22158.78
852.452	22510.54
852.834	22501.73
853.215	22927.73
853.597	23093.57
853.978	23419.26
854.359	23907.12
854.741	22844.06
855.122	22736.79
855.503	22425.74
855.884	22578.77
856.265	22508.11
856.646	22632.71
857.026	22212.11
857.407	22151.28
857.788	22318.55
858.169	22617.35
858.549	21689.26
858.93	22357.83
859.31	22417.04
859.69	22651.12
860.071	22210.71
860.451	21976.27
860.831	21191.87
861.211	22433.04
861.591	23023.39
861.971	22991.11
862.351	23197.86
862.731	23625.68
863.111	23912.7
863.491	24261.57
863.87	25201.85
864.25	25578.69
864.629	25157.21
865.009	25688.06
865.388	26606.92
865.768	28505.91
866.147	28396.18
866.526	26820.82
866.905	27140.48
867.284	28649.29
867.663	27205.84
868.042	26062.52
868.421	25966.61
868.8	26385.07
869.179	26653.11
869.558	25094.07
869.936	23121.88
870.315	23538.16
870.693	24101.89
871.072	25996.13
871.45	24767.91
871.828	25076.96
872.207	26372.56
872.585	25972.11
872.963	26686.51
873.341	25769.02
873.719	25463.49
874.097	25158.48
874.475	25644.03
874.853	26242.3
875.23	25135.87
875.608	26172.7
875.986	28313.77
876.363	27064.84
876.741	27894.5
877.118	27185.53
877.495	28525.06
877.873	29000.82
878.25	30522.24
878.627	29252.02
879.004	29660.35
879.381	29520.61
879.758	28751.73
880.135	26757.47
880.512	28292.4
880.889	27531.19
881.265	27243.87
881.642	27003.62
882.019	27445.61
882.395	26876.08
882.772	27940.81
883.148	26713.35
883.524	26599.75
883.901	26441.6
884.277	26836.7
884.653	26667.14
885.029	27430.72
885.405	30380.22
885.781	30148.67
886.157	28896.22
886.532	29260.09
886.908	29246.12
887.284	32521.91
887.659	33581.15
888.035	34630.5
888.411	35518.45
888.786	35993.36
889.161	37247.97
889.537	36561.73
889.912	37722.65
890.287	37689.89
890.662	38641.54
891.037	37926.01
891.412	35365.86
891.787	35002.36
892.162	33773.07
892.536	34568.7
892.911	33256.35
893.286	32546.89
893.66	31216.84
894.035	32003.9
894.409	34849.27
894.784	33440.57
895.158	33998.63
895.532	36027.28
895.906	37026.07
896.281	37883.93
896.655	37270.12
897.029	42588.22
897.402	44345.77
897.776	49368.52
898.15	49187.71
898.524	48657.05
898.898	49315.24
899.271	55229.03
899.645	47821.82
900.018	45937.18
900.392	47637.82
900.765	48019.31
901.138	44440.71
901.511	43776.08
901.884	40193.92
902.258	37088.4
902.631	38354.51
903.003	44148.6
903.376	39821.66
903.749	44643.29
904.122	47758.01
904.495	52616.58
904.867	53255.28
905.24	46228.63
905.612	43055.3
905.985	44055.08
906.357	46067.98
906.729	43932.45
907.102	37514.68
907.474	36083.21
907.846	36303.94
908.218	35820.27
908.59	31635.94
908.962	30609.96
909.334	32964.87
909.705	34614.86
910.077	33596.18
910.449	34967.89
910.82	35947.88
911.192	39559.67
911.563	41109.19
911.935	43995.7
912.306	44062.58
912.677	45522.89
913.048	45085.03
913.419	48912.47
913.79	49178.54
914.161	52750.33
914.532	50438.31
914.903	46362.65
915.274	44039.83
915.645	43393.33
916.015	38174.38
916.386	36396.73
916.756	38725.3
917.127	39918.95
917.497	35669.86
917.868	38832.84
918.238	36879.73
918.608	37942.45
918.978	38727.68
919.348	41029.69
919.718	42405.03
920.088	40862.35
920.458	42445.41
920.828	44684.8
921.198	42392.86
921.567	45270.99
921.937	35065.28
922.306	35405.17
922.676	38160.73
923.045	31849.14
923.415	30261.37
923.784	27558.64
924.153	28356.05
924.522	28347.57
924.891	26656.39
925.26	28540.1
925.629	27865.6
925.998	32041.45
926.367	31279.78
926.736	29798.72
927.104	35472.39
927.473	38096.65
927.842	46002.9
928.21	45537.09
928.578	47877.43
928.947	45268.06
929.315	45579.12
929.683	53494.26
930.051	53920.66
930.42	62606.48
930.788	53517.5
931.156	53151.61
931.523	49851.51
931.891	46108.17
932.259	44310.59
932.627	51368.03
932.994	72706.51
933.362	60081.61
933.729	52193.79
934.097	49945.38
934.464	42287.12
934.831	48782.47
935.199	48085.19
935.566	46662.93
935.933	47225.46
936.3	57243.03
936.667	44554.02
937.034	40217.52
937.401	39792.81
937.767	34344.93
938.134	30606.5
938.501	43236.07
938.867	46138.13
939.234	78023.39
939.6	66575.57
939.967	73461.67
940.333	49174.03
940.699	41888.16
941.065	33592.78
941.431	44069.82
941.798	42516.85
942.163	55778.07
942.529	34801.75
942.895	32025.45
943.261	20719.03
943.627	27179.37
943.992	23797.26
944.358	23817.28
944.723	23904.83
945.089	23310.01
945.454	21523.26
945.82	22980.66
946.185	22108.23
946.55	25616.98
946.915	22998.18
947.28	26986.48
947.645	23769.66
948.01	21934.23
948.375	22863.49
948.74	27385.12
949.104	31915.15
949.469	46079.79
949.834	81402.57
950.198	77055.03
950.562	46180.24
950.927	38427.37
951.291	46201.64
951.655	39360.93
952.02	36965.73
952.384	27939.04
952.748	24338.56
953.112	23741.82
953.476	20638.78
953.839	19073.91
954.203	18889.45
954.567	23611.14
954.931	37206.55
955.294	31853.93
955.658	32003.91
956.021	54406.38
956.385	92212.38
956.748	136069.09
957.111	210884.31
957.474	236802.86
957.837	266727.29
958.2	201652.44
958.563	72533.15
958.926	49016.62
959.289	74344.03
959.652	83008.24
960.015	62323.83
960.377	89435.83
960.74	101941.47
961.102	176003.36
961.465	189007.76
961.827	101247.1
962.189	194280.28
962.552	134473.27
962.914	107830.53
963.276	69917.22
963.638	57823.28
964	57245.95
964.362	38705.36
964.724	37400.99
965.085	26655.22
965.447	21830.21
965.809	24858.67
966.17	24881.69
966.532	26932.35
966.893	24699.61
967.255	22474.34
967.616	26509.15
967.977	21218.71
968.338	23169.72
968.699	19052.84
969.061	19054.93
969.421	19176.72
969.782	21509
970.143	18176.06
970.504	18864.34
970.865	21436.1
971.225	21918.22
971.586	21459.1
971.946	30577.9
972.307	26535.94
972.667	34691.78
973.027	35732.97
973.388	43363.3
973.748	29518.42
974.108	32164.13
974.468	43449.8
974.828	33491.96
975.188	25782.06
975.548	23659.72
975.907	19850.16
976.267	22250.91
976.627	18694.65
976.986	19370.91
977.346	18435.9
977.705	17727.02
978.064	16137.56
978.424	13437.25
978.783	13889.09
979.142	15853.9
979.501	15171.89
979.86	16050.49
980.219	15486.85
980.578	19940.84
980.937	22326.97
981.296	19940.55
981.654	20508.52
982.013	31868.31
982.371	41344.78
982.73	38637.69
983.088	43733.67
983.447	46756.69
983.805	66819.99
984.163	139455.33
984.521	154768.93
984.879	227194.25
985.237	-369285.54
985.595	355846.91
985.953	88489.74
986.311	51034.05
986.669	29608.4
987.026	25525.63
987.384	34316.6
987.741	35465.94
988.099	25387.41
988.456	20273.13
988.814	18965.7
989.171	16477.46
989.528	16273.29
989.885	17191.49
990.242	13643.04
990.599	16989.96
990.956	13916.79
991.313	9722.04
991.67	7993.54
992.027	8478.99
992.383	7530.48
992.74	6610.66
993.096	6948.13
993.453	7202.3
993.809	7473.07
994.165	9935.89
994.522	9142.63
994.878	10066.67
995.234	12643.38
995.59	12469.78
995.946	11786.79
996.302	13460.17
996.658	15538.16
997.013	17099.71
997.369	20305.46
997.725	25958.08
998.08	16855.89
998.436	25925.66
998.791	35754.54
999.147	35753.03
999.502	38939.43
999.857	28314.02
1000.212	46104.09
1000.567	65585.59
1000.922	37833.41
1001.277	23979.8
1001.632	17810.98
1001.987	22939.65
1002.342	16441.03
1002.696	13180.7
1003.051	10481.32
1003.406	12702.64
1003.76	12656.98
1004.114	12490.05
1004.469	10513.25
1004.823	8705.83
1005.177	9411.63
1005.531	7440.68
1005.885	6603.1
1006.239	7453.47
1006.593	9330.96
1006.947	12520.97
1007.301	9393.41
1007.655	10235.27
1008.008	7510.91
1008.362	8460.7
1008.715	12077.89
1009.069	10975.5
1009.422	16574.92
1009.776	33177.36
1010.129	22018.47
1010.482	18429.26
1010.835	15603.58
1011.188	32439.02
1011.541	30560.73
1011.894	-186725.75
1012.247	549375.03
1012.6	37272.61
1012.952	23488.39
1013.305	12065.62
1013.657	8729.06
1014.01	8254.66
1014.362	6795.79
1014.715	6044.02
1015.067	5270.38
1015.419	5142.84
1015.771	4563.22
1016.123	4053.47
1016.475	4184.15
1016.827	4470.26
1017.179	4821.01
1017.531	4839.86
1017.883	4962.43
1018.234	4803.94
1018.586	6047.47
1018.938	6423.77
1019.289	8867.67
1019.64	10128.21
1019.992	9410.76
1020.343	8571.82
1020.694	6768.19
1021.045	5977.51
1021.396	6817.47
1021.747	7315.19
1022.098	8752.51
1022.449	6356.03
1022.8	5905.37
1023.151	4108.05
1023.501	3640.71
1023.852	3976.97
1024.202	4136.69
1024.553	4550.18
1024.903	4456.91
1025.253	3823.18
1025.604	3439.55
1025.954	4281.42
1026.304	5204.09
1026.654	6072.94
1027.004	8923.92
1027.354	14431.04
1027.703	13498.11
1028.053	17760.68
1028.403	25953.28
1028.753	37608.31
1029.102	50813.83
1029.452	259112.63
1029.801	11079.37
1030.15	7153.07
1030.499	5997.63
897.758	3327.43
901.051	3314.9
904.343	3355.02
907.636	3345.29
910.928	3414.72
914.22	3313.59
917.511	3325.99
920.803	3417.37
924.094	3464.82
927.384	3413.03
930.675	3376.07
933.965	3316.5
937.255	3306.57
940.544	3270.23
943.834	3117.38
947.123	3077.67
950.411	3184.91
953.7	3146.94
956.988	3088.17
960.276	3036.34
963.563	3163.87
966.851	3140.92
970.138	3221.24
973.424	3198.82
976.711	3145.84
979.997	3411.06
983.283	3425.3
986.568	3292.67
989.853	3343.06
993.138	3375.83
996.423	3458.66
999.708	3369.42
1002.992	3493.39
1006.275	3210.48
1009.559	3319.51
1012.842	3463.8
1016.125	3364.37
1019.408	3342.43
1022.69	3475.85
1025.972	3476.91
1029.254	3443.87
1032.536	3334.15
1035.817	3376.73
1039.098	3276.24
1042.379	3555.92
1045.659	3505.24
1048.939	3412.54
1052.219	3458.97
1055.498	3487.65
1058.778	3453.78
1062.057	3446.25
1065.335	3465.49
1068.614	3498.93
1071.892	3462.42
1075.17	3567.06
1078.447	3540.73
1081.724	3524.98
1085.001	3580.77
1088.278	3543.44
1091.554	3567.11
1094.83	3566.29
1098.106	3591.22
1101.382	3655.91
1104.657	3658.74
1107.932	3657.53
1111.206	3600.01
1114.481	3557.55
1117.755	3569.52
1121.029	3526.86
1124.302	3577.24
1127.575	3505.73
1130.848	3480.57
1134.121	3432.37
1137.393	3362.79
1140.665	3445.07
1143.937	3424.57
1147.208	3319.84
1150.48	3347.91
1153.75	3328.72
1157.021	3402.99
1160.291	3354.97
1163.561	3397.6
1166.831	3419.4
1170.101	3456.66
1173.37	3436.45
1176.639	3354.08
1179.907	3429.91
1183.176	3493.32
1186.444	3497.86
1189.711	3530.41
1192.979	3529.02
1196.246	3490.48
1199.513	3511.42
1202.78	3508.29
1206.046	3512.19
1209.312	3556.89
1212.578	3593.28
1215.843	3519.83
1219.108	3499.38
1222.373	3524.35
1225.638	3467.24
1228.902	3444.5
1232.166	3401.86
1235.43	3378.18
1238.693	3390.93
1241.956	3394.53
1245.219	3424.38
1248.482	3430.73
1251.744	3420.01
1255.006	3610.95
1258.268	3572.29
1261.529	3500.44
1264.79	3516.67
1268.051	3650.42
1271.312	3674.59
1274.572	3628.01
1277.832	3622.4
1281.092	3625.66
1284.351	3569.36
1287.61	3538.84
1290.869	3421.74
1294.128	3372.89
1297.386	3517.32
1300.644	3500.88
1303.902	3516.07
1307.159	3350.38
1310.416	3412.14
1313.673	3429.13
1316.93	3395.8
1320.186	3470.61
1323.442	3527.19
1326.697	3500.77
1329.953	3515.1
1333.208	3525.23
1336.463	3506.8
1339.717	3431.77
1342.972	3519.99
1346.226	3527.24
1349.479	3435.54
1352.733	3389.67
1355.986	3428.74
1359.238	3399.21
1362.491	3399.02
1365.743	3400.77
1368.995	3403.48
1372.247	3420.21
1375.498	3431.99
1378.749	3503.87
1382	3438.19
1385.251	3516.46
1388.501	3487.59
1391.751	3456.31
1395	3432.59
1398.25	3473.82
1401.499	3469.39
1404.748	3377.18
1407.996	3280.72
1411.244	3276.99
1414.492	3250.33
1417.74	3223.05
1420.987	3243.24
1424.234	3294.2
1427.481	3296.56
1430.728	3355
1433.974	3326.94
1437.22	3356.92
1440.465	3360.24
1443.711	3370.19
1446.956	3406.74
1450.201	3416.55
1453.445	3461.96
1456.689	3424.14
1459.933	3444.4
1463.177	3471.73
1466.42	3442.17
1469.663	3421.32
1472.906	3389.42
1476.148	3537.74
1479.391	3408.98
1482.633	3395.95
1485.874	3394.03
1489.115	3358.2
1492.356	3388.5
1495.597	3354.77
1498.838	3370.32
1502.078	3312.61
1505.318	3229.23
1508.557	3290.68
1511.797	3200.79
1515.036	3389.62
1518.274	3370
1521.513	3354.95
1524.751	3389.35
1527.989	3394.95
1531.227	3400.74
1534.464	3369.67
1537.701	3425.43
1540.938	3456.43
1544.174	3409.72
1547.41	3423.69
1550.646	3463.67
1553.882	3487.86
1557.117	3542.32
1560.352	3570.18
1563.587	3517.99
1566.821	3465.18
1570.055	3528.13
1573.289	3485.23
1576.523	3589.06
1579.756	3585.51
1582.989	3604.98
1586.222	3559.71
1589.454	3611.88
1592.686	3575.9
1595.918	3593.79
1599.15	3572.43
1602.381	3689.04
1605.612	3608.23
1608.843	3714.91
1612.073	3609.27
1615.303	3590.8
1618.533	3565.44
1621.762	3579.92
1624.992	3580.85
1628.221	3544.06
1631.449	3526.49
1634.678	3621.07
1637.906	3561.46
1641.134	3618.8
1644.361	3560.69
1647.588	3544.06
1650.815	3552.75
1654.042	3549.02
1657.269	3585.28
1660.495	3534.08
1663.72	3463.14
1666.946	3459.57
1670.171	3355.48
1673.396	3328.43
1676.621	3330.24
1679.845	3382.6
1683.069	3424.02
1686.293	3490.11
1689.517	3435.3
1692.74	3326.86
1695.963	3346.09
1699.185	3457.71
1702.408	3397.19
1705.63	3457.02
1708.852	3464.24
1712.073	3430.52
1715.294	3393.63
1718.515	3411.86
1721.736	3356.15
1724.956	3311.13
1728.176	3350.09
1731.396	3364.36
1734.616	3365.93
1737.835	3371.31
1741.054	3368.36
1744.272	3366.29
1747.491	3377.1
1750.709	3469.69
1753.927	3372.94
1757.144	3428.12
1760.361	3513.48
1763.578	3520.91
1766.795	3450.5
1770.011	3468.53
1773.227	3535.97
1776.443	3564.28
1779.658	3610.55
1782.874	3553.16
1786.089	3513.07
1789.303	3518.44
1792.518	3531.77
1795.732	3521.13
1798.945	3523.6
1802.159	3585.16
1805.372	3439.67
1808.585	3407.38
1811.797	3411.83
1815.01	3495.81
1818.222	3503.21
1821.434	3360.38
1824.645	3479.53
1827.856	3433.1
1831.067	3484.49
1834.278	3395.61
1837.488	3388
1840.698	3578.67
1843.908	3473.52
1847.117	3429.6
1850.326	3246.57
1853.535	3391.02
1856.744	3534.57
1859.952	3397.64
1863.16	3396.69
1866.368	3417.31
1869.575	3589.5
1872.782	3459.59
1875.989	3401.12
1879.196	3536.82
1882.402	3530.11
1885.608	3581.21
1888.814	3435.92
1892.019	3303.14
1895.224	3360.25
1898.429	3355.32
1901.634	3325.54
1904.838	3306.35
1908.042	3348.82
1911.246	3346.72
1914.449	3232.75
1917.652	3249.5
1920.855	3236.42
1924.058	3314.36
1927.26	3342.4
1930.462	3378.72
1933.664	3395.92
1936.865	3320.42
1940.066	3314.49
1943.267	3263.29
1946.467	3292.74
1949.668	3333.27
1952.868	3399.84
1956.067	3355.68
1959.267	3274.47
1962.466	3310.19
1965.665	3298.53
1968.863	3293.12
1972.061	3334.72
1975.259	3338.97
1978.457	3430.02
1981.654	3378.48
1984.852	3375.39
1988.048	3278.36
1991.245	3302.17
1994.441	3391.99
1997.637	3407.58
2000.833	3390.19
2004.028	3435.38
2007.223	3474.72
2010.418	3438.5
2013.613	3405.43
2016.807	3341.21
2020.001	3369.2
2023.194	3447.12
2026.388	3405.69
2029.581	3354.88
2032.774	3386.3
2035.966	3382.07
2039.158	3291.98
2042.35	3331.65
2045.542	3254
2048.733	3391.31
2051.924	3452.21
2055.115	3497.76
2058.306	3404.87
2061.496	3478.38
2064.686	3562.46
2067.875	3482.16
2071.065	3516.36
2074.254	3554.05
2077.442	3501.07
2080.631	3607.28
2083.819	3435.69
2087.007	3402.66
2090.195	3351.91
2093.382	3417.08
2096.569	3389.7
2099.756	3323.63
2102.942	3323.93
2106.128	3312.11
2109.314	3314.91
2112.5	3246.39
2115.685	3229.82
2118.87	3244.91
2122.055	3320.9
2125.239	3265.76
2128.424	3215.5
2131.608	3384.61
2134.791	3365.57
2137.974	3454.39
2141.157	3434.44
2144.34	3354.72
2147.523	3367.78
2150.705	3362.58
2153.887	3359.95
2157.068	3276.34
2160.25	3305.08
2163.431	3372.07
2166.611	3278
2169.792	3292.03
2172.972	3156.27
2176.152	3279.56
2179.331	3325.79
2182.511	3314.88
2185.69	3351.2
2188.868	3334.84
2192.047	3420.79
2195.225	3381.22
2198.403	3321.99
2201.58	3326.72
2204.758	3326.15
2207.935	3428.07
2211.111	3272.89
2214.288	3251.96
2217.464	3301.95
2220.64	3289.55
2223.815	3353.31
2226.991	3257.76
2230.166	3283.99
2233.34	3298.53
2236.515	3336.37
2239.689	3433.11
2242.863	3361.05
2246.036	3424.98
2249.209	3450.02
2252.382	3502.65
2255.555	3470.54
2258.727	3386.58
2261.9	3438.15
2265.071	3429.93
2268.243	3438.9
2271.414	3348.94
2274.585	3274.49
2277.756	3355.92
2280.926	3309.39
2284.096	3363.01
2287.266	3236.04
2290.436	3307.38
2293.605	3351.79
2296.774	3373.42
2299.942	3415.58
2303.111	3438.7
2306.279	3480.75
2309.447	3470.27
2312.614	3453.24
2315.781	3467.36
2318.948	3422.86
2322.115	3468.44
2325.281	3361.71
2328.447	3397.4
2331.613	3378.04
2334.779	3324.7
2337.944	3337.38
2341.109	3331.15
2344.274	3304.55
2347.438	3259.76
2350.602	3295.41
2353.766	3318.6
2356.929	3299.21
2360.092	3345.22
2363.255	3271.7
2366.418	3158.51
2369.58	3340.35
2372.742	2997.35
2375.904	3036.11
2379.066	2995.73
2382.227	3048.4
2385.388	3007.53
2388.548	2903.89
2391.709	2980.83
2394.869	2952.08
2398.029	3109.77
2401.188	3147.04
2404.347	3039.35
2407.506	3271.59
2410.665	3296.28
2413.823	3326.39
2416.981	3252.22
2420.139	3302.65
2423.296	3367.85
2426.453	3341.89
2429.61	3367.67
2432.767	3255.49
2435.923	3311.75
2439.079	3176.63
2442.235	3272.2
2445.391	3172.14
2448.546	3181
2451.701	3258.93
2454.855	3194.83
2458.009	3281.42
2461.163	3298.7
2464.317	3238.72
2467.471	3281.93
2470.624	3320.38
2473.777	3384.79
2476.929	3370.57
2480.082	3400.27
2483.234	3367.97
2486.385	3223.73
2489.537	3228.09
2492.688	3149.99
2495.839	3167.11
2498.989	3172.36
2502.14	3150.72
2505.29	3118.77
2508.439	3150.56
2511.589	3047.53
2514.738	3077.15
2517.887	3107.57
2521.035	3276.25
2524.183	3268.27
2527.331	3234.2
2530.479	3184.58
2533.627	3206.51
