Data from C_3_HIR_IL_4N_Splice17_13-39-45-355.txt Node
Date: Sat Mar 14 13:39:45 EDT 2020
User: sa697716
Spectrometer: FLMS03696
Trigger mode: 0
Integration Time (sec): 3.180400E-1
Scans to average: 20
Electric dark correction enabled: true
Nonlinearity correction enabled: true
Boxcar width: 5
XAxis mode: Wavelengths
Number of Pixels in Spectrum: 2048
>>>>>Begin Spectral Data<<<<<
187.83	-441397.36
188.298	3096.37
188.766	1579.87
189.233	1347.03
189.701	1877.21
190.169	2548.85
190.636	954.33
191.104	738.18
191.571	60.79
192.039	-149.01
192.506	-148.31
192.974	312.22
193.441	-465.94
193.908	-120.78
194.375	-113.65
194.842	-70.54
195.31	4.08
195.777	160.3
196.244	356.56
196.711	238.17
197.177	255.38
197.644	296.17
198.111	515.49
198.578	656.1
199.045	498.21
199.511	746.3
199.978	791.98
200.445	725.05
200.911	756.84
201.378	739.65
201.844	718.29
202.31	1146.2
202.777	1174.62
203.243	637.06
203.709	579.38
204.176	723.02
204.642	620.84
205.108	585.24
205.574	421.27
206.04	330.36
206.506	309.2
206.972	257.5
207.438	266.82
207.903	297.32
208.369	272.08
208.835	301.14
209.301	317.9
209.766	310.32
210.232	312.4
210.697	376.67
211.163	460.83
211.628	645.78
212.094	585.83
212.559	820.95
213.024	528.77
213.49	693.82
213.955	665.09
214.42	598.06
214.885	557.95
215.35	569.14
215.815	689.77
216.28	771.36
216.745	636.98
217.21	739.04
217.675	648.32
218.14	743.14
218.604	808.19
219.069	957.7
219.534	1093.21
219.998	1298.88
220.463	1589.99
220.927	1879.61
221.392	1798.32
221.856	1899.74
222.32	2376.66
222.785	3003.09
223.249	3823.59
223.713	4332.43
224.177	4399.7
224.642	5610.23
225.106	6983.83
225.57	7699.3
226.034	5872.88
226.497	9021.88
226.961	8230.54
227.425	9696.2
227.889	10764.8
228.353	10882.56
228.816	22586.65
229.28	21813.03
229.744	18452.31
230.207	11308.12
230.671	11178.05
231.134	18376.24
231.597	21383.47
232.061	21338.45
232.524	20740.28
232.987	14353.2
233.45	12968.9
233.914	11655.29
234.377	11875.32
234.84	10921.1
235.303	12876.02
235.766	14391.82
236.229	14889.72
236.691	9348.28
237.154	10505.7
237.617	7973.21
238.08	8169.24
238.542	9567.42
239.005	6871.56
239.468	6848.39
239.93	6462.02
240.393	5884.06
240.855	5180.74
241.317	5302.16
241.78	6458.35
242.242	6709.77
242.704	7276.75
243.166	6352.59
243.629	5824.48
244.091	6749.52
244.553	7433.94
245.015	8032.14
245.477	10417.27
245.939	15331.42
246.4	16369.69
246.862	15936.75
247.324	15091.01
247.786	16927.33
248.247	22249.38
248.709	22872.24
249.17	17140.12
249.632	16280.32
250.093	19000.43
250.555	16460.19
251.016	10079.79
251.477	9580.95
251.939	10418.21
252.4	10942.8
252.861	12988.05
253.322	12150.73
253.783	14474.84
254.244	18774.02
254.705	14797.21
255.166	13119.95
255.627	12951.27
256.088	18359.56
256.549	19546.7
257.009	16829
257.47	20441.67
257.931	16704.26
258.391	12527.05
258.852	12959.35
259.312	13607.19
259.773	16820.27
260.233	14334.04
260.694	12149.1
261.154	13802.71
261.614	11155.7
262.074	10003.18
262.534	10432.13
262.994	9872.66
263.455	13167.81
263.915	11135.24
264.374	10513.38
264.834	11505.07
265.294	12737.37
265.754	13243.14
266.214	12552.7
266.673	11777.92
267.133	14879.41
267.593	14797.47
268.052	18163.88
268.512	15849.36
268.971	19237.6
269.431	21171.06
269.89	19015.59
270.349	28590.15
270.809	31914.49
271.268	28718.32
271.727	64410.27
272.186	41842.34
272.645	31442.61
273.104	22638.21
273.563	32847.97
274.022	25777.4
274.481	22004.18
274.94	17000.07
275.399	12650.41
275.857	14728.22
276.316	19952.87
276.775	17839.53
277.233	17635.38
277.692	16608.48
278.15	18925.73
278.609	19556.59
279.067	18133.3
279.525	16900.06
279.984	21826.57
280.442	26303.37
280.9	26089.57
281.358	17235.99
281.816	16084.2
282.274	15759.67
282.732	16253.05
283.19	16295.42
283.648	14073.43
284.106	14995.93
284.564	15258.96
285.021	14209.13
285.479	10582.61
285.937	9606.73
286.394	8454.52
286.852	8694.05
287.309	9146.65
287.767	8887.34
288.224	8504.46
288.682	9354.19
289.139	10341.79
289.596	9509.41
290.053	9916.54
290.511	12559.25
290.968	15301.56
291.425	20805.86
291.882	17465.02
292.339	15304.01
292.796	15200.62
293.252	14360.34
293.709	11496.68
294.166	10315.82
294.623	11422.27
295.079	10980.45
295.536	11083.89
295.992	10084.44
296.449	10002.7
296.905	10406.48
297.362	9981.89
297.818	10532.85
298.274	10949.52
298.731	11137.87
299.187	11022.76
299.643	11845.8
300.099	14380.06
300.555	15782.62
301.011	13227.05
301.467	12812.37
301.923	14990.89
302.379	14694.3
302.835	14423.31
303.291	14474.09
303.746	16466.83
304.202	20884.27
304.658	20957.77
305.113	14058.54
305.569	13800.88
306.024	14665.75
306.479	13905.66
306.935	11742.69
307.39	12775.16
307.845	11790.99
308.301	11856.28
308.756	11550.78
309.211	11113.7
309.666	11383.98
310.121	14187.42
310.576	14369.2
311.031	14237.84
311.486	16257.36
311.94	16188.33
312.395	21648.19
312.85	40624.6
313.305	198563.39
313.759	1030329.78
314.214	74691.77
314.668	59180.45
315.123	49630.38
315.577	17825.45
316.032	15914.95
316.486	19918.8
316.94	15745.69
317.394	10961.67
317.849	8531.28
318.303	8078.87
318.757	7641.3
319.211	8453.09
319.665	7421.55
320.119	7512.11
320.572	10750.81
321.026	10050.16
321.48	8383.89
321.934	9141.08
322.387	9157.81
322.841	9878.67
323.295	8937.97
323.748	10231.34
324.202	10364.2
324.655	12450.71
325.108	17468.3
325.562	12368.23
326.015	14675.83
326.468	11111.45
326.921	12427.75
327.374	11638.82
327.827	12168.92
328.28	13772.35
328.733	9256.75
329.186	8148.16
329.639	7763.29
330.092	6522.45
330.545	6212.82
330.997	6285.18
331.45	6892.77
331.903	8089.68
332.355	13838.11
332.808	13414.62
333.26	11031.23
333.713	11978.37
334.165	12020.68
334.617	16007.06
335.069	12878.04
335.522	23161.24
335.974	25575.03
336.426	23259.06
336.878	15999.06
337.33	8152.67
337.782	7960.1
338.234	10013.87
338.686	11961.32
339.137	14204.34
339.589	13352.53
340.041	10485.54
340.493	9045.5
340.944	9274.01
341.396	10018.65
341.847	8490.12
342.299	10064
342.75	12347.05
343.201	10763.89
343.653	12431.75
344.104	15301.19
344.555	12116.75
345.006	18869.41
345.457	14567.61
345.908	11582.38
346.359	10927.43
346.81	8919.3
347.261	9378
347.712	9239.68
348.163	9912.06
348.613	10078.42
349.064	9431.19
349.515	8221.2
349.965	8456.3
350.416	10162.95
350.866	11169.5
351.317	12582.24
351.767	20835.65
352.217	26337.72
352.668	21869.33
353.118	20092.62
353.568	19330.88
354.018	15329.32
354.468	16292.56
354.918	11709.36
355.368	10239.45
355.818	14464.92
356.268	41626.44
356.718	174709.84
357.168	43469
357.617	21752.35
358.067	24116.27
358.517	22577.58
358.966	26546.1
359.416	29831.16
359.865	32213.37
360.315	38344.49
360.764	17923.58
361.213	10085.57
361.663	9523.82
362.112	11767.47
362.561	19041.41
363.01	14423.39
363.459	12116.93
363.908	13070.41
364.357	11119.73
364.806	18750.31
365.255	12887.15
365.703	11837.78
366.152	11829.55
366.601	9600.59
367.05	7828.12
367.498	7131.65
367.947	7422.93
368.395	7728.79
368.844	6844.59
369.292	8174.01
369.74	5657.89
370.189	8674.25
370.637	10163.6
371.085	8760.46
371.533	10635.53
371.981	10216.65
372.429	9764.19
372.877	10179.6
373.325	8516.44
373.773	8666.17
374.221	7713.01
374.669	9584.94
375.116	8257.11
375.564	8312.28
376.012	9275.91
376.459	7661.88
376.907	9120.72
377.354	10993.45
377.801	10284.83
378.249	11817.48
378.696	15038.77
379.143	18239.66
379.591	19346.24
380.038	32720.88
380.485	23671.27
380.932	25592.87
381.379	23523.24
381.826	17377.47
382.273	12302.9
382.72	10695.64
383.166	10413.82
383.613	6737.48
384.06	6052.38
384.506	7008.06
384.953	5135.23
385.4	5147.77
385.846	4491
386.292	4339.82
386.739	4217.89
387.185	4150.83
387.631	4138.99
388.078	4031.3
388.524	4314.85
388.97	3979.26
389.416	3312.76
389.862	3519.35
390.308	3320.51
390.754	3371.77
391.2	3639.13
391.645	3705.13
392.091	3563.09
392.537	3429.9
392.983	3394.35
393.428	3357.88
393.874	3574.07
394.319	3579.71
394.765	3386.28
395.21	3459.84
395.655	3217.97
396.101	3011.91
396.546	2712.86
396.991	2706.22
397.436	2498.86
397.881	2402.23
398.326	2240.52
398.771	2119.2
399.216	1834.39
399.661	1637.48
400.106	1628.35
400.551	1665.79
400.995	1483.36
401.44	1457.14
401.885	1364.16
402.329	1376.01
402.774	1320.1
403.218	1293.32
403.663	1236.34
404.107	1272.14
404.551	1282.95
404.995	1170.02
405.44	1121.05
405.884	1130.18
406.328	1088.19
406.772	1081.39
407.216	981.03
407.66	938.33
408.104	873.67
408.547	814.34
408.991	782.07
409.435	746.62
409.879	738.78
410.322	727.57
410.766	706.11
411.209	674.91
411.653	645.3
412.096	635.04
412.54	634.51
412.983	629.17
413.426	634.35
413.869	629.05
414.312	618.86
414.756	590.51
415.199	558.36
415.642	540.87
416.085	540.19
416.527	532.95
416.97	537.68
417.413	509.46
417.856	501.52
418.298	491.5
418.741	483.44
419.184	475.9
419.626	492.58
420.069	494.69
420.511	497.75
420.953	487.17
421.396	483.32
421.838	466.29
422.28	478.9
422.722	484.06
423.164	491.48
423.606	487.87
424.048	485.27
424.49	462.82
424.932	457.37
425.374	445.08
425.816	448.36
426.258	456.28
426.699	461.97
427.141	456.24
427.582	458
428.024	454.26
428.465	447.22
428.907	440.52
429.348	433.63
429.789	436.51
430.231	432.77
430.672	441.16
431.113	430.36
431.554	424.95
431.995	408.01
432.436	399.36
432.877	391.3
433.318	389.16
433.759	384.09
434.2	382.99
434.64	374.72
435.081	372.29
435.522	350.42
435.962	334.39
436.403	325.74
436.843	329.33
437.284	316.22
437.724	304.56
438.164	298.65
438.604	289.83
439.045	280.44
439.485	273.43
439.925	266.71
440.365	258.99
440.805	255.52
441.245	253.4
441.685	242.87
442.125	239.36
442.564	237.73
443.004	232.98
443.444	232.33
443.883	231.96
444.323	223.56
444.762	218.42
445.202	218.16
445.641	224.78
446.081	217.69
446.52	219.86
446.959	217.33
447.398	213.33
447.837	212
448.276	205.84
448.716	204.64
449.154	205.04
449.593	202.59
450.032	202.78
450.471	194.59
450.91	193.63
451.349	193.6
451.787	191.46
452.226	192.5
452.664	191.19
453.103	190.4
453.541	189.13
453.98	192.57
454.418	192.4
454.856	191.12
455.295	189.28
455.733	193.45
456.171	193.05
456.609	194.34
457.047	195
457.485	199.43
457.923	202.8
458.361	199.4
458.798	198.13
459.236	197.6
459.674	196.93
460.111	199.84
460.549	198.13
460.987	196.62
461.424	195.48
461.862	194.37
462.299	190.28
462.736	189.78
463.173	191.19
463.611	194.1
464.048	194.97
464.485	196.55
464.922	194.35
465.359	191.36
465.796	201.68
466.233	201.59
466.67	202.39
467.106	203.22
467.543	199.73
467.98	195.48
468.416	186.46
468.853	183.07
469.29	176.26
469.726	173.48
470.162	168.4
470.599	155.24
471.035	150.92
471.471	145.47
471.907	142.3
472.344	140.4
472.78	141.45
473.216	141.57
473.652	140.26
474.088	139.23
474.523	140.16
474.959	140.92
475.395	139.61
475.831	140.68
476.266	141.31
476.702	139.86
477.138	139.26
477.573	139.41
478.008	140.01
478.444	142.21
478.879	146.18
479.314	146.78
479.75	148.03
480.185	148
480.62	148.4
481.055	148.57
481.49	150.96
481.925	152.86
482.36	158.89
482.795	162.22
483.229	165.03
483.664	167.19
484.099	166.39
484.534	168.78
484.968	171.55
485.403	170.93
485.837	170.44
486.271	169.57
486.706	169.09
487.14	163.01
487.574	160.26
488.009	157.44
488.443	154.61
488.877	157
489.311	155.94
489.745	156.87
490.179	158.28
490.613	162.53
491.046	162.05
491.48	161.86
491.914	161.16
492.348	161.55
492.781	162.46
493.215	161.94
493.648	159.42
494.082	159.44
494.515	158.1
494.948	159.43
495.382	156.72
495.815	156.6
496.248	157.45
496.681	158.81
497.114	158.68
497.547	159.4
497.98	162.52
498.413	164.03
498.846	164.81
499.279	164.3
499.711	161.73
500.144	160.03
500.577	162.04
501.009	161.24
501.442	162.33
501.874	161.52
502.306	159.1
502.739	161.32
503.171	160.9
503.603	159.14
504.036	158.09
504.468	157.4
504.9	157.36
505.332	154.07
505.764	152.71
506.196	150.66
506.627	149.87
507.059	148.83
507.491	141.98
507.923	139.31
508.354	139.23
508.786	138.53
509.217	138.5
509.649	138.4
510.08	138
510.512	138.91
510.943	138.31
511.374	137.25
511.805	137.74
512.237	137.55
512.668	137.28
513.099	136.4
513.53	136.55
513.961	136.63
514.391	137.13
514.822	140.94
515.253	141.95
515.684	141.81
516.114	142.47
516.545	142.85
516.975	143.44
517.406	143.13
517.836	141.14
518.267	140.13
518.697	140.68
519.127	138.52
519.558	134.64
519.988	131.52
520.418	129.54
520.848	127.66
521.278	124.62
521.708	176.83
522.138	177.73
522.567	178.02
522.997	178.45
523.427	176.48
523.857	176.44
524.286	175.39
524.716	176.03
525.145	177.36
525.575	177.8
526.004	178.2
526.433	124.41
526.863	121.54
527.292	121.96
527.721	121.88
528.15	121.05
528.579	120.19
529.008	120.65
529.437	120.03
529.866	119.15
530.295	119.07
530.724	120.32
531.152	121.14
531.581	122.53
532.01	121.96
532.438	120.21
532.867	120.01
533.295	120.93
533.723	120.86
534.152	120.45
534.58	120.8
535.008	119.44
535.436	119.9
535.865	119.72
536.293	118.91
536.721	119.06
537.149	121.29
537.576	122.94
538.004	124.55
538.432	123.68
538.86	124.31
539.287	123.94
539.715	125.16
540.143	123.29
540.57	122.94
540.998	122.26
541.425	123.45
541.852	121.7
542.28	119.8
542.707	116.88
543.134	116.73
543.561	116.28
543.988	115.96
544.415	114.75
544.842	113.97
545.269	113.58
545.696	114.97
546.123	114.2
546.549	113.51
546.976	113.7
547.403	113.9
547.829	113.12
548.256	112.19
548.682	111.83
549.108	113.16
549.535	113.11
549.961	112.9
550.387	110.97
550.813	112.37
551.24	112.98
551.666	111.94
552.092	111.93
552.518	111.29
552.943	112.2
553.369	111.9
553.795	111.82
554.221	111.98
554.646	111.71
555.072	115.35
555.498	112.77
555.923	112.75
556.349	114.52
556.774	114.75
557.199	115.01
557.625	114.07
558.05	115.29
558.475	115.42
558.9	116.4
559.325	117.6
559.75	116.25
560.175	116.14
560.6	115.64
561.025	114.55
561.449	114.88
561.874	115.69
562.299	117.5
562.723	116.82
563.148	116.48
563.572	116.57
563.997	117.5
564.421	116.87
564.846	117.28
565.27	118.91
565.694	120.2
566.118	121.86
566.542	124.59
566.966	124.89
567.39	126.39
567.814	126.99
568.238	128.37
568.662	128.24
569.086	129.75
569.509	130.93
569.933	132.06
570.357	131.95
570.78	131.34
571.204	132.21
571.627	131.77
572.05	132.2
572.474	134.57
572.897	134
573.32	136.31
573.743	135.39
574.166	136.1
574.589	135.4
575.012	135.99
575.435	135.82
575.858	134.72
576.281	134.65
576.704	133.57
577.126	131.16
577.549	130.79
577.972	128.46
578.394	129.56
578.817	132.59
579.239	131.76
579.661	132.55
580.084	134.55
580.506	134.63
580.928	134.39
581.35	134.65
581.772	135.52
582.194	134.65
582.616	134.13
583.038	132.02
583.46	128.41
583.882	129.37
584.303	128.13
584.725	125.71
585.147	133.02
585.568	135.46
585.99	138.43
586.411	140.22
586.833	143.2
587.254	144.98
587.675	147.11
588.096	149.15
588.518	149.34
588.939	149.86
589.36	151.23
589.781	141.37
590.202	143.24
590.623	141.55
591.043	139.87
591.464	139.18
591.885	139.86
592.305	139.5
592.726	138.58
593.147	138.98
593.567	138.24
593.987	136.99
594.408	136.76
594.828	131.41
595.248	132.06
595.669	132.31
596.089	131.83
596.509	129.37
596.929	128.02
597.349	128.86
597.769	127.4
598.189	127.03
598.608	127.7
599.028	128.32
599.448	128.38
599.867	126.16
600.287	124.99
600.706	125.46
601.126	126.52
601.545	128.44
601.965	127.49
602.384	127.57
602.803	127.64
603.222	128.33
603.641	128.45
604.061	130.28
604.48	130.23
604.898	131.57
605.317	131.45
605.736	131.62
606.155	132.2
606.574	131.74
606.992	132.4
607.411	132.79
607.829	130.95
608.248	131
608.666	129.87
609.085	130.73
609.503	130.63
609.921	132.22
610.339	133.33
610.758	132.74
611.176	133.18
611.594	133.93
612.012	134.02
612.43	137.04
612.847	138.19
613.265	141.28
613.683	142.64
614.101	143.64
614.518	141.95
614.936	141.21
615.353	141.21
615.771	142.3
616.188	142.46
616.606	142.93
617.023	141.9
617.44	140.67
617.857	138.16
618.274	137.04
618.691	137.73
619.108	136.99
619.525	136.31
619.942	137.97
620.359	138.76
620.776	138.5
621.192	140.17
621.609	140.83
622.026	143.36
622.442	145.45
622.859	146.6
623.275	145.05
623.691	147.1
624.108	149.35
624.524	150.21
624.94	149.65
625.356	150.61
625.772	150.23
626.188	151.15
626.604	151.24
627.02	150.33
627.436	150.51
627.852	153.31
628.268	154.85
628.683	153.12
629.099	151.75
629.514	151.05
629.93	151.67
630.345	153.02
630.761	152.4
631.176	152.62
631.591	154.7
632.007	154.81
632.422	152.64
632.837	150.76
633.252	152.76
633.667	151.99
634.082	151.29
634.497	151.5
634.911	152.47
635.326	152.64
635.741	152.06
636.155	148.87
636.57	150.91
636.984	152.39
637.399	156.43
637.813	156.38
638.228	158.1
638.642	160.15
639.056	159.03
639.47	158.99
639.884	159.14
640.298	159.23
640.712	162.63
641.126	161.79
641.54	161.65
641.954	158.35
642.368	158.41
642.781	162.77
643.195	161.51
643.609	164.35
644.022	164.35
644.436	164.54
644.849	163.72
645.262	161.97
645.676	162.24
646.089	163.92
646.502	165.3
646.915	165.69
647.328	161.5
647.741	163.06
648.154	161.89
648.567	166.56
648.98	167.54
649.393	168.56
649.805	169.93
650.218	170.52
650.631	169.37
651.043	169.12
651.456	169.89
651.868	170.72
652.28	173.71
652.693	175.68
653.105	173.26
653.517	174.71
653.929	176.36
654.341	178.29
654.753	177.8
655.165	178.35
655.577	179.39
655.989	179.31
656.401	177.62
656.813	174.9
657.224	173.46
657.636	169.26
658.047	169.24
658.459	167.63
658.87	165.63
659.282	163.89
659.693	163.03
660.104	162.6
660.515	161.2
660.926	162.04
661.338	161.32
661.749	160.63
662.159	162.81
662.57	162.39
662.981	162.61
663.392	163.82
663.803	166.48
664.213	166.54
664.624	166.22
665.035	168.02
665.445	166.37
665.855	168.32
666.266	170.25
666.676	170.18
667.086	168.64
667.497	170.51
667.907	170.06
668.317	168.73
668.727	173.74
669.137	173.41
669.547	173.74
669.956	174.89
670.366	174.93
670.776	175.41
671.186	175.71
671.595	177.55
672.005	176.47
672.414	176.75
672.824	177.23
673.233	172.96
673.642	174.18
674.052	175.96
674.461	178.21
674.87	178.2
675.279	178.49
675.688	176.48
676.097	177.06
676.506	177.08
676.915	179.26
677.323	178.85
677.732	178.35
678.141	177.55
678.549	171.69
678.958	167.89
679.366	165.69
679.775	162.77
680.183	168.38
680.592	167.74
681	167.32
681.408	164.77
681.816	164.42
682.224	163.72
682.632	165.81
683.04	171.41
683.448	175.59
683.856	180.84
684.264	186.86
684.671	186.78
685.079	188.77
685.487	192.13
685.894	197.82
686.302	200.95
686.709	203.53
687.116	204.19
687.524	206.27
687.931	206.4
688.338	204.39
688.745	198.64
689.152	195.75
689.559	196.64
689.966	197.05
690.373	193.29
690.78	192.23
691.187	191.74
691.593	190.02
692	184.67
692.407	183.43
692.813	188.75
693.22	189.61
693.626	187.7
694.032	186.25
694.439	185.83
694.845	184.58
695.251	183.12
695.657	183.24
696.063	184.03
696.469	183.56
696.875	182.73
697.281	176.09
697.687	173.57
698.093	171.69
698.498	171.24
698.904	168.73
699.31	168.83
699.715	173.49
700.12	173.65
700.526	172.06
700.931	174.1
701.337	175.67
701.742	175.44
702.147	177.01
702.552	176.39
702.957	175.17
703.362	174.23
703.767	172.95
704.172	168.17
704.577	163.69
704.981	161.82
705.386	160.42
705.791	157.2
706.195	155.67
706.6	154.39
707.004	153.73
707.408	149.62
707.813	151.12
708.217	150.67
708.621	150
709.025	153.39
709.43	154.84
709.834	155.68
710.237	156.99
710.641	155.59
711.045	155.76
711.449	157.73
711.853	165.51
712.256	164.09
712.66	163.25
713.064	165.15
713.467	166.76
713.87	169.57
714.274	170.91
714.677	174.34
715.08	181.41
715.484	186.29
715.887	196.82
716.29	194.75
716.693	204.71
717.096	214.01
717.499	217.57
717.901	215.65
718.304	213.87
718.707	211.82
719.109	206.76
719.512	202.48
719.915	200.48
720.317	192.55
720.719	192.73
721.122	188.47
721.524	185.34
721.926	189.82
722.328	193.25
722.731	191.18
723.133	191.99
723.535	197.15
723.937	197.29
724.338	197.37
724.74	201.95
725.142	288.92
725.544	293.22
725.945	317.01
726.347	309.84
726.748	309.71
727.15	312.87
727.551	316.06
727.952	312.57
728.354	308.43
728.755	306.43
729.156	300.39
729.557	214.45
729.958	202.31
730.359	177.6
730.76	176.12
731.161	172.68
731.562	167.61
731.962	160.86
732.363	159.37
732.763	158.38
733.164	155.06
733.564	152.8
733.965	150.36
734.365	151.45
734.766	152.8
735.166	151.23
735.566	150.8
735.966	152.25
736.366	153.76
736.766	151.26
737.166	151.33
737.566	152.62
737.966	152.09
738.365	153.31
738.765	155.07
739.165	152.46
739.564	150.72
739.964	149.34
740.363	145.42
740.763	143.27
741.162	144.64
741.561	142.97
741.96	141.71
742.36	141.11
742.759	140.79
743.158	138.7
743.557	137.62
743.955	139.13
744.354	138.33
744.753	139.93
745.152	141.21
745.55	140.31
745.949	140.8
746.348	140.34
746.746	138.25
747.144	141.92
747.543	139.98
747.941	141.72
748.339	140.22
748.737	141.47
749.136	142.59
749.534	142
749.932	145.15
750.33	145.7
750.727	145.59
751.125	148.45
751.523	143.85
751.921	151.91
752.318	151.93
752.716	155.52
753.113	154.52
753.511	154.8
753.908	156.21
754.305	161.18
754.703	164.29
755.1	169.13
755.497	170.07
755.894	174.02
756.291	174.78
756.688	184.66
757.085	194.73
757.482	215.9
757.878	241.55
758.275	262.45
758.672	273.31
759.068	291.35
759.465	315.69
759.861	348.31
760.258	389.27
760.654	410.5
761.05	411.39
761.447	392.17
761.843	363.12
762.239	333.07
762.635	314.47
763.031	301.9
763.427	284.67
763.822	268.05
764.218	252.43
764.614	230.64
765.01	213.04
765.405	200.37
765.801	195.59
766.196	186.2
766.592	178.96
766.987	173.35
767.382	168.3
767.778	166.55
768.173	162.07
768.568	160
768.963	158.58
769.358	160.85
769.753	161.45
770.148	158.64
770.542	157.98
770.937	155.73
771.332	158.93
771.726	158.76
772.121	162.69
772.515	165.33
772.91	165.86
773.304	167.28
773.699	165.99
774.093	166.04
774.487	167.33
774.881	168.78
775.275	169.88
775.669	165.18
776.063	167.24
776.457	163.88
776.851	161.58
777.245	162.25
777.638	162.5
778.032	163.43
778.425	163.83
778.819	172.05
779.212	175.49
779.606	177.55
779.999	177.95
780.392	179.57
780.786	179.54
781.179	181.16
781.572	182.07
781.965	183.63
782.358	183.46
782.751	183.96
783.143	175.69
783.536	174.73
783.929	171.78
784.322	177.84
784.714	174.69
785.107	177.08
785.499	182.5
785.891	185.42
786.284	184.02
786.676	186.72
787.068	189.67
787.46	192.7
787.852	192.02
788.245	195.26
788.636	193.21
789.028	200.29
789.42	203.06
789.812	200.92
790.204	198.83
790.595	206
790.987	200.99
791.378	199.77
791.77	201.25
792.161	202.08
792.553	207.82
792.944	206.1
793.335	200.85
793.726	202.14
794.117	207.74
794.508	209.11
794.899	203.89
795.29	207.12
795.681	208.44
796.072	205.58
796.463	236.89
796.853	241.36
797.244	247.95
797.634	250.83
798.025	252.51
798.415	245.47
798.806	256.24
799.196	261.74
799.586	268.72
799.976	270.44
800.366	277.32
800.756	244.94
801.146	237.56
801.536	236.81
801.926	235.97
802.316	237.35
802.706	244.89
803.095	238.86
803.485	239.4
803.874	236.02
804.264	239.7
804.653	240.65
805.043	254.01
805.432	259.22
805.821	264.33
806.21	268.65
806.599	268.16
806.988	271.47
807.377	271.43
807.766	277.76
808.155	287.06
808.544	279
808.933	279.51
809.321	279.48
809.71	283.85
810.098	284.21
810.487	292.25
810.875	307.18
811.264	304.53
811.652	335.36
812.04	338.42
812.428	346.79
812.816	367.27
813.204	378.69
813.592	384.36
813.98	395.99
814.368	404.45
814.756	426.26
815.144	424.13
815.531	444.5
815.919	419.96
816.306	430.82
816.694	418.05
817.081	427.86
817.469	444.66
817.856	446.59
818.243	455.16
818.63	452.02
819.017	443
819.404	449.68
819.791	454.06
820.178	462.03
820.565	469.55
820.952	513.37
821.339	497.14
821.725	497.62
822.112	478.42
822.498	480.38
822.885	487.6
823.271	477.79
823.657	479.26
824.044	483.05
824.43	490.6
824.816	507.95
825.202	487.31
825.588	515.82
825.974	519.99
826.36	537.47
826.746	535.97
827.132	545.11
827.517	554.49
827.903	535.24
828.289	544.86
828.674	522.15
829.06	503.93
829.445	508.91
829.83	517.31
830.216	530.35
830.601	544.87
830.986	546.31
831.371	546.79
831.756	565.2
832.141	555.99
832.526	551.89
832.911	560.02
833.295	555.1
833.68	569.65
834.065	557.79
834.449	526.28
834.834	525.45
835.218	517.63
835.603	531.75
835.987	517.39
836.371	542.09
836.755	538.91
837.139	548.95
837.524	550.69
837.908	542.3
838.291	540.62
838.675	540.46
839.059	539.78
839.443	533.38
839.827	515.75
840.21	525.04
840.594	525.01
840.977	531.23
841.361	534.84
841.744	547.72
842.127	547.31
842.511	555.09
842.894	571.14
843.277	585.77
843.66	601.51
844.043	611.09
844.426	594.96
844.809	571.71
845.191	573.27
845.574	557.41
845.957	548.77
846.339	548.11
846.722	531.22
847.104	534.21
847.487	521.14
847.869	526.37
848.252	536.69
848.634	545.1
849.016	559.38
849.398	552.52
849.78	574.04
850.162	573.39
850.544	584.39
850.926	596.77
851.307	590.3
851.689	606.07
852.071	605.83
852.452	613.67
852.834	609.09
853.215	624.2
853.597	636.75
853.978	657.01
854.359	673.78
854.741	646.62
855.122	641.06
855.503	635.23
855.884	635.8
856.265	643.89
856.646	640.51
857.026	634.9
857.407	633.08
857.788	636.87
858.169	632.17
858.549	616.44
858.93	633.66
859.31	638.17
859.69	650.97
860.071	640.32
860.451	632.9
860.831	610.17
861.211	637.76
861.591	645.73
861.971	639.97
862.351	645.28
862.731	641.29
863.111	646.8
863.491	666.28
863.87	684.48
864.25	689.74
864.629	686.65
865.009	700.59
865.388	732.93
865.768	782.37
866.147	785.54
866.526	748.97
866.905	762.67
867.284	794.54
867.663	743.02
868.042	709.5
868.421	707.95
868.8	708.26
869.179	727.4
869.558	682.96
869.936	639.2
870.315	646.75
870.693	668.18
871.072	713.39
871.45	683.22
871.828	704.85
872.207	751.56
872.585	742.66
872.963	758.78
873.341	738.31
873.719	741.28
874.097	727.48
874.475	738.97
874.853	748.55
875.23	723.32
875.608	761.78
875.986	820.51
876.363	784.49
876.741	830.99
877.118	831.09
877.495	871.68
877.873	877.57
878.25	924.27
878.627	888.18
879.004	899.56
879.381	887
879.758	863.02
880.135	796.88
880.512	839.76
880.889	792.48
881.265	768.21
881.642	743.89
882.019	748.29
882.395	747.57
882.772	787.28
883.148	751.71
883.524	760.55
883.901	758.73
884.277	766.84
884.653	753.45
885.029	788.31
885.405	896.18
885.781	890.99
886.157	852
886.532	850.63
886.908	838.68
887.284	934.54
887.659	965.27
888.035	988.98
888.411	1011.1
888.786	1028.44
889.161	1057.98
889.537	1013.4
889.912	1045.12
890.287	1050.58
890.662	1071.66
891.037	1044.89
891.412	972.74
891.787	948.46
892.162	918.1
892.536	941.5
892.911	912.28
893.286	883.05
893.66	856.38
894.035	883.27
894.409	946.71
894.784	913.12
895.158	930.42
895.532	992.57
895.906	1032.62
896.281	1057.65
896.655	1053.07
897.029	1200.03
897.402	1248.14
897.776	1372.27
898.15	1365.59
898.524	1363.42
898.898	1387.04
899.271	1574.7
899.645	1366.92
900.018	1302.65
900.392	1343.51
900.765	1341.89
901.138	1242.33
901.511	1222.72
901.884	1149.31
902.258	1069.38
902.631	1117.19
903.003	1270.35
903.376	1134.16
903.749	1270.15
904.122	1353.31
904.495	1481.29
904.867	1489.58
905.24	1295.77
905.612	1211.2
905.985	1211
906.357	1254.77
906.729	1192.64
907.102	1032.09
907.474	1002.2
907.846	1011.69
908.218	1005.84
908.59	911.47
908.962	889.95
909.334	962.65
909.705	1014.5
910.077	974.69
910.449	1008.78
910.82	1047.99
911.192	1149.17
911.563	1204.9
911.935	1260.31
912.306	1258.17
912.677	1285.56
913.048	1288.04
913.419	1386.2
913.79	1378.53
914.161	1497.44
914.532	1458.51
914.903	1330.42
915.274	1255.8
915.645	1225.04
916.015	1080.21
916.386	1032.85
916.756	1100.76
917.127	1105.84
917.497	998.02
917.868	1106.07
918.238	1042.45
918.608	1050.48
918.978	1064.88
919.348	1128.59
919.718	1182.32
920.088	1158.9
920.458	1216.32
920.828	1254.04
921.198	1214.62
921.567	1292.49
921.937	998.84
922.306	1002.35
922.676	1075.03
923.045	927.41
923.415	897.72
923.784	806.83
924.153	849.13
924.522	852.99
924.891	806.61
925.26	856
925.629	823.06
925.998	938.72
926.367	923.59
926.736	930.34
927.104	1064.23
927.473	1119.05
927.842	1340.52
928.21	1263.39
928.578	1286
928.947	1232.68
929.315	1259.21
929.683	1534.3
930.051	1550.82
930.42	1818.01
930.788	1498.23
931.156	1515.51
931.523	1476.04
931.891	1382.46
932.259	1367.96
932.627	1621.55
932.994	2268.22
933.362	1927.07
933.729	1642.13
934.097	1557.91
934.464	1322.08
934.831	1504.01
935.199	1470.38
935.566	1414.74
935.933	1407.03
936.3	1703.08
936.667	1308.64
937.034	1335.16
937.401	1271.68
937.767	1116.9
938.134	1006.28
938.501	1409.76
938.867	1587.87
939.234	2689.96
939.6	2243.81
939.967	2502.92
940.333	1719.83
940.699	1467.53
941.065	1011.53
941.431	1369.67
941.798	1406.83
942.163	1920.29
942.529	1190.35
942.895	1045.95
943.261	689.38
943.627	917.01
943.992	830.06
944.358	814.55
944.723	877.12
945.089	869.5
945.454	800.95
945.82	807.16
946.185	740.23
946.55	871.89
946.915	779.53
947.28	913.75
947.645	818.83
948.01	791.68
948.375	844.51
948.74	945.49
949.104	1093.08
949.469	1454.8
949.834	2557.03
950.198	2640.87
950.562	1623.08
950.927	1395.68
951.291	1674.94
951.655	1405.1
952.02	1199.8
952.384	900.25
952.748	836.28
953.112	888.94
953.476	810.18
953.839	732.57
954.203	738.18
954.567	903.16
954.931	1347.17
955.294	1183.31
955.658	1181.92
956.021	2072.6
956.385	3417.46
956.748	4899.25
957.111	7035.64
957.474	7623.5
957.837	8636.78
958.2	6014.92
958.563	2148.62
958.926	1497.66
959.289	2166
959.652	2398.76
960.015	1812.03
960.377	2614.41
960.74	2918.37
961.102	4849.35
961.465	5560.66
961.827	3694.49
962.189	7154.05
962.552	5022.09
962.914	3948.37
963.276	2617.85
963.638	2196.62
964	2137.71
964.362	1474.07
964.724	1406.83
965.085	1015.82
965.447	822.24
965.809	781.68
966.17	762.44
966.532	789.16
966.893	738.59
967.255	665.02
967.616	751.66
967.977	624.01
968.338	667.69
968.699	582.44
969.061	592.69
969.421	604.12
969.782	677.17
970.143	606.86
970.504	717.11
970.865	836.86
971.225	909.41
971.586	903.17
971.946	1213.98
972.307	1027.39
972.667	1268.55
973.027	1298.16
973.388	1523.29
973.748	1029.84
974.108	1117.96
974.468	1316.59
974.828	1106
975.188	787.59
975.548	719.67
975.907	639.74
976.267	706.53
976.627	657.21
976.986	669.94
977.346	634.22
977.705	612.81
978.064	552.45
978.424	463.19
978.783	409.92
979.142	462.62
979.501	462.16
979.86	498.66
980.219	485.73
980.578	568.73
980.937	642.76
981.296	598.36
981.654	619.42
982.013	903.61
982.371	1237.37
982.73	1189.39
983.088	1352.71
983.447	1438.44
983.805	2078.11
984.163	4391.39
984.521	4904.48
984.879	6992.35
985.237	-11704.21
985.595	12081.73
985.953	3053.33
986.311	1691.64
986.669	978.21
987.026	817.3
987.384	1038.57
987.741	996.29
988.099	830.36
988.456	666.67
988.814	663.13
989.171	538.38
989.528	465.96
989.885	455.92
990.242	395.39
990.599	474.21
990.956	402.27
991.313	287.54
991.67	245.4
992.027	316.46
992.383	287.88
992.74	256.92
993.096	289.5
993.453	299.54
993.809	314.47
994.165	397.89
994.522	468.91
994.878	520.51
995.234	664.08
995.59	652.06
995.946	482.37
996.302	549.3
996.658	602.17
997.013	638.2
997.369	837.81
997.725	1146.05
998.08	747.79
998.436	793.36
998.791	1125.1
999.147	1148.76
999.502	1232.58
999.857	864.12
1000.212	1407.23
1000.567	2127.67
1000.922	1268.24
1001.277	779.74
1001.632	543.55
1001.987	701.87
1002.342	549.95
1002.696	449.35
1003.051	385.14
1003.406	490.97
1003.76	493.77
1004.114	489.56
1004.469	414.89
1004.823	326.36
1005.177	316.04
1005.531	261.62
1005.885	257.67
1006.239	309.3
1006.593	403.46
1006.947	527.65
1007.301	388.02
1007.655	411.61
1008.008	325.67
1008.362	378.96
1008.715	552.32
1009.069	512.14
1009.422	911.6
1009.776	1705.54
1010.129	1104.74
1010.482	859.31
1010.835	657.87
1011.188	1273.94
1011.541	1264.11
1011.894	-7029.58
1012.247	20048.34
1012.6	1302.8
1012.952	886.64
1013.305	326.96
1013.657	287.11
1014.01	270.66
1014.362	217.13
1014.715	292.73
1015.067	302.35
1015.419	297.23
1015.771	292.13
1016.123	281.26
1016.475	308.59
1016.827	323.06
1017.179	384.5
1017.531	343.76
1017.883	329.69
1018.234	419.58
1018.586	501.2
1018.938	613.23
1019.289	878.95
1019.64	921.26
1019.992	814.54
1020.343	700.98
1020.694	606.91
1021.045	524.85
1021.396	593.26
1021.747	705.91
1022.098	685.63
1022.449	472.64
1022.8	380.26
1023.151	275.98
1023.501	285.29
1023.852	300.08
1024.202	361.89
1024.553	364.77
1024.903	418.52
1025.253	426.79
1025.604	396.45
1025.954	474.76
1026.304	564.11
1026.654	616.04
1027.004	843.72
1027.354	1155.12
1027.703	1229.14
1028.053	1351.69
1028.403	2424.87
1028.753	2974.02
1029.102	3072.44
1029.452	12124.86
1029.801	484.76
1030.15	277.26
1030.499	195.8
897.758	3327.01
901.051	3315.41
904.343	3356.99
907.636	3345.98
910.928	3415.7
914.22	3317.5
917.511	3328.46
920.803	3418.69
924.094	3467.65
927.384	3414.21
930.675	3378.03
933.965	3318.3
937.255	3306.35
940.544	3267.89
943.834	3116.09
947.123	3074.08
950.411	3177.52
953.7	3139.89
956.988	3078.62
960.276	3025.3
963.563	3149.33
966.851	3126.56
970.138	3204.46
973.424	3180.55
976.711	3127.3
979.997	3384.91
983.283	3398.85
986.568	3264.17
989.853	3314.6
993.138	3347.53
996.423	3426.48
999.708	3334.49
1002.992	3451.18
1006.275	3175.43
1009.559	3284.59
1012.842	3423.94
1016.125	3325.78
1019.408	3302.25
1022.69	3434.37
1025.972	3430.47
1029.254	3398.59
1032.536	3285.92
1035.817	3333.2
1039.098	3232.93
1042.379	3503.43
1045.659	3450.5
1048.939	3358.22
1052.219	3400.76
1055.498	3430.23
1058.778	3392.15
1062.057	3386.97
1065.335	3401.33
1068.614	3433.91
1071.892	3392.92
1075.17	3493.99
1078.447	3469.7
1081.724	3447.97
1085.001	3501.73
1088.278	3467.09
1091.554	3490.22
1094.83	3489.62
1098.106	3510.78
1101.382	3572.57
1104.657	3570.44
1107.932	3569.55
1111.206	3512.04
1114.481	3467.09
1117.755	3482.5
1121.029	3438.75
1124.302	3482.19
1127.575	3411.09
1130.848	3385.51
1134.121	3334.73
1137.393	3264.91
1140.665	3347.94
1143.937	3322.17
1147.208	3233.86
1150.48	3255.05
1153.75	3232.31
1157.021	3307.39
1160.291	3260.05
1163.561	3294.94
1166.831	3322.28
1170.101	3354.3
1173.37	3351.92
1176.639	3269.9
1179.907	3346.46
1183.176	3394.5
1186.444	3401.19
1189.711	3432.28
1192.979	3430.4
1196.246	3393.05
1199.513	3415.41
1202.78	3404.61
1206.046	3412.7
1209.312	3442.59
1212.578	3478.24
1215.843	3406.71
1219.108	3388.15
1222.373	3413.68
1225.638	3362.54
1228.902	3335.69
1232.166	3312.04
1235.43	3290.49
1238.693	3308.02
1241.956	3313.15
1245.219	3339.99
1248.482	3347.78
1251.744	3336.16
1255.006	3526.14
1258.268	3484.62
1261.529	3413.52
1264.79	3433
1268.051	3550.14
1271.312	3568.89
1274.572	3519.6
1277.832	3509.74
1281.092	3511.24
1284.351	3455.04
1287.61	3426.57
1290.869	3311.05
1294.128	3261.18
1297.386	3405.42
1300.644	3386.71
1303.902	3398.53
1307.159	3246.49
1310.416	3307.52
1313.673	3323.61
1316.93	3296.04
1320.186	3367.72
1323.442	3425
1326.697	3399.39
1329.953	3419.75
1333.208	3428.63
1336.463	3417.45
1339.717	3343.21
1342.972	3437.66
1346.226	3445.83
1349.479	3360.11
1352.733	3313.66
1355.986	3362.38
1359.238	3332.29
1362.491	3332.87
1365.743	3336.93
1368.995	3343.67
1372.247	3359.01
1375.498	3374.86
1378.749	3438.84
1382	3379.43
1385.251	3460.27
1388.501	3437.89
1391.751	3401.92
1395	3387.23
1398.25	3431.28
1401.499	3426.81
1404.748	3335.16
1407.996	3248.63
1411.244	3247.45
1414.492	3218.73
1417.74	3193.68
1420.987	3215.54
1424.234	3265.84
1427.481	3272.8
1430.728	3327.3
1433.974	3301
1437.22	3334.89
1440.465	3336.99
1443.711	3343.37
1446.956	3375.8
1450.201	3386.66
1453.445	3432.4
1456.689	3391.08
1459.933	3413.58
1463.177	3433.81
1466.42	3403.42
1469.663	3377.48
1472.906	3342.26
1476.148	3486.83
1479.391	3364.29
1482.633	3351.21
1485.874	3343.69
1489.115	3304.92
1492.356	3334.37
1495.597	3295.37
1498.838	3310.85
1502.078	3252.22
1505.318	3170.24
1508.557	3222.55
1511.797	3131.5
1515.036	3305.88
1518.274	3289.28
1521.513	3277.22
1524.751	3307.42
1527.989	3306.01
1531.227	3310.35
1534.464	3271.02
1537.701	3328.15
1540.938	3355.96
1544.174	3316.74
1547.41	3330.36
1550.646	3363.97
1553.882	3380.93
1557.117	3428.66
1560.352	3454.86
1563.587	3402.58
1566.821	3348.42
1570.055	3412.65
1573.289	3366.45
1576.523	3465.17
1579.756	3454.82
1582.989	3466.96
1586.222	3426.1
1589.454	3475.81
1592.686	3433.46
1595.918	3452.18
1599.15	3426.12
1602.381	3545.28
1605.612	3460.35
1608.843	3560.2
1612.073	3459.43
1615.303	3439.29
1618.533	3414.86
1621.762	3429.55
1624.992	3431.51
1628.221	3394.11
1631.449	3377.48
1634.678	3474.41
1637.906	3410.02
1641.134	3466.38
1644.361	3407.86
1647.588	3395.49
1650.815	3404.6
1654.042	3405.43
1657.269	3439.22
1660.495	3383.95
1663.72	3338.27
1666.946	3326.92
1670.171	3226.05
1673.396	3203.48
1676.621	3207.96
1679.845	3262.36
1683.069	3306.26
1686.293	3367.36
1689.517	3315.72
1692.74	3208.84
1695.963	3228.72
1699.185	3318.68
1702.408	3267.41
1705.63	3325.8
1708.852	3330.02
1712.073	3301.44
1715.294	3260.4
1718.515	3291.12
1721.736	3232.22
1724.956	3204.21
1728.176	3241.55
1731.396	3257.77
1734.616	3259.91
1737.835	3264.88
1741.054	3266.45
1744.272	3267.1
1747.491	3275.17
1750.709	3370.67
1753.927	3260.88
1757.144	3328.79
1760.361	3392.34
1763.578	3404.63
1766.795	3337.34
1770.011	3363.52
1773.227	3430.65
1776.443	3454.63
1779.658	3496.95
1782.874	3450.18
1786.089	3408.04
1789.303	3413.49
1792.518	3428.3
1795.732	3418.98
1798.945	3421.15
1802.159	3483.91
1805.372	3337
1808.585	3307.23
1811.797	3311.56
1815.01	3402.27
1818.222	3403.49
1821.434	3279.98
1824.645	3395
1827.856	3345.87
1831.067	3395.55
1834.278	3324.6
1837.488	3317.16
1840.698	3504.55
1843.908	3402.78
1847.117	3364.69
1850.326	3182.78
1853.535	3329.23
1856.744	3467.23
1859.952	3341.13
1863.16	3342.99
1866.368	3372.87
1869.575	3533.19
1872.782	3415.66
1875.989	3365.15
1879.196	3504.16
1882.402	3503.39
1885.608	3561.9
1888.814	3420.62
1892.019	3289.79
1895.224	3348.77
1898.429	3348.56
1901.634	3319.89
1904.838	3306.84
1908.042	3349.46
1911.246	3349.43
1914.449	3236.55
1917.652	3252.84
1920.855	3239.19
1924.058	3318.9
1927.26	3347.86
1930.462	3383.95
1933.664	3401.84
1936.865	3325.18
1940.066	3317.76
1943.267	3267.76
1946.467	3295.14
1949.668	3335.87
1952.868	3402.04
1956.067	3356.29
1959.267	3273.44
1962.466	3307.92
1965.665	3298.51
1968.863	3291.76
1972.061	3331.31
1975.259	3335.56
1978.457	3426.06
1981.654	3375.28
1984.852	3371.37
1988.048	3274.12
1991.245	3297.28
1994.441	3387.04
1997.637	3403.04
2000.833	3378.98
2004.028	3428.17
2007.223	3467.4
2010.418	3429.03
2013.613	3397.13
2016.807	3331.87
2020.001	3361.05
2023.194	3439.05
2026.388	3399.5
2029.581	3348.3
2032.774	3378.8
2035.966	3377.41
2039.158	3284.87
2042.35	3325.42
2045.542	3250.43
2048.733	3386.61
2051.924	3447.21
2055.115	3493.03
2058.306	3400.92
2061.496	3471.27
2064.686	3553.42
2067.875	3475.82
2071.065	3508.28
2074.254	3544.51
2077.442	3493.81
2080.631	3598.19
2083.819	3424.67
2087.007	3393.67
2090.195	3340.53
2093.382	3404.81
2096.569	3378.49
2099.756	3314.54
2102.942	3312.19
2106.128	3301.84
2109.314	3305.08
2112.5	3234.35
2115.685	3219.85
2118.87	3236.18
2122.055	3309.18
2125.239	3255.34
2128.424	3205.51
2131.608	3375.97
2134.791	3355.54
2137.974	3444.8
2141.157	3424.31
2144.34	3343.44
2147.523	3358.45
2150.705	3352.2
2153.887	3347.38
2157.068	3265.23
2160.25	3295.21
2163.431	3361.57
2166.611	3265.17
2169.792	3282.31
2172.972	3146.93
2176.152	3270.28
2179.331	3319.58
2182.511	3303.58
2185.69	3340.14
2188.868	3327.22
2192.047	3414.11
2195.225	3372.91
2198.403	3314.47
2201.58	3320.49
2204.758	3318.58
2207.935	3421.66
2211.111	3265.95
2214.288	3241.56
2217.464	3294.83
2220.64	3283.29
2223.815	3348.25
2226.991	3253.79
2230.166	3280.18
2233.34	3295.07
2236.515	3334.87
2239.689	3430.39
2242.863	3359.31
2246.036	3426.16
2249.209	3452.78
2252.382	3507.41
2255.555	3474.65
2258.727	3389
2261.9	3440.73
2265.071	3433.32
2268.243	3445.1
2271.414	3353.08
2274.585	3281.66
2277.756	3360.79
2280.926	3315.5
2284.096	3371.4
2287.266	3243.91
2290.436	3318.39
2293.605	3360.82
2296.774	3383.91
2299.942	3426.51
2303.111	3446.53
2306.279	3489.15
2309.447	3478.08
2312.614	3461.84
2315.781	3473.79
2318.948	3429.6
2322.115	3475.69
2325.281	3367.22
2328.447	3406.75
2331.613	3384.06
2334.779	3330.42
2337.944	3345.34
2341.109	3337.75
2344.274	3312.39
2347.438	3271.12
2350.602	3305.51
2353.766	3332
2356.929	3311.5
2360.092	3359.27
2363.255	3283.65
2366.418	3172.18
2369.58	3355.06
2372.742	3009.68
2375.904	3052.65
2379.066	3010.77
2382.227	3059.43
2385.388	3019.85
2388.548	2913.84
2391.709	2990.21
2394.869	2961.99
2398.029	3120.59
2401.188	3160.33
2404.347	3050.44
2407.506	3284.94
2410.665	3308.87
2413.823	3340.34
2416.981	3267.86
2420.139	3319.07
2423.296	3383.82
2426.453	3356.23
2429.61	3382.71
2432.767	3270.65
2435.923	3325.65
2439.079	3189.66
2442.235	3288.02
2445.391	3186.57
2448.546	3195.59
2451.701	3271.55
2454.855	3207.34
2458.009	3293.73
2461.163	3315.52
2464.317	3254.04
2467.471	3297.15
2470.624	3335
2473.777	3398.88
2476.929	3384.76
2480.082	3415.06
2483.234	3382.46
2486.385	3237.86
2489.537	3242.93
2492.688	3163.47
2495.839	3181.83
2498.989	3187.3
2502.14	3166.5
2505.29	3132.06
2508.439	3168.38
2511.589	3061.22
2514.738	3093.1
2517.887	3121.87
2521.035	3295.75
2524.183	3287.23
2527.331	3253.86
2530.479	3202.27
2533.627	3224.07
