Data from C_3_DEC_NC_4N_Splice17_13-05-34-432.txt Node
Date: Sat Mar 14 13:05:34 EDT 2020
User: sa697716
Spectrometer: FLMS03696
Trigger mode: 0
Integration Time (sec): 3.180400E-1
Scans to average: 20
Electric dark correction enabled: true
Nonlinearity correction enabled: true
Boxcar width: 5
XAxis mode: Wavelengths
Number of Pixels in Spectrum: 2048
>>>>>Begin Spectral Data<<<<<
187.83	-315147.69
188.298	2317.73
188.766	1291.56
189.233	1210.45
189.701	1683.13
190.169	2229.58
190.636	832.82
191.104	739.03
191.571	150.97
192.039	-50.68
192.506	-35.82
192.974	512.97
193.441	-823.27
193.908	-227.89
194.375	16.9
194.842	71.7
195.31	142.11
195.777	179.76
196.244	423.86
196.711	442.84
197.177	534.05
197.644	746.33
198.111	1268.01
198.578	1797.08
199.045	1445.89
199.511	2292.6
199.978	2664.89
200.445	2253.6
200.911	2478.85
201.378	2743.58
201.844	2510.32
202.31	4246.77
202.777	4458.8
203.243	2455.18
203.709	2319.81
204.176	2755.6
204.642	2293.04
205.108	2154.03
205.574	1756.23
206.04	1594.31
206.506	1479.01
206.972	1383.09
207.438	1353.51
207.903	1503.98
208.369	1335.59
208.835	1334.07
209.301	1399.11
209.766	1416.29
210.232	1377.78
210.697	1705.27
211.163	2108.3
211.628	3194.33
212.094	2725.32
212.559	3337.78
213.024	2098.25
213.49	2548.73
213.955	2471.04
214.42	2395.85
214.885	2247.12
215.35	2176.71
215.815	2110.89
216.28	2242.58
216.745	1826.57
217.21	1970.29
217.675	1803.51
218.14	2021.51
218.604	2241.92
219.069	2564.67
219.534	2681.97
219.998	3098.43
220.463	3725.41
220.927	4553.53
221.392	4250.32
221.856	4301.26
222.32	5362.43
222.785	6594.18
223.249	8260.79
223.713	9206.4
224.177	9180.31
224.642	11741.94
225.106	14425.77
225.57	15760.46
226.034	11688.22
226.497	17801.69
226.961	16079.78
227.425	18766
227.889	20773.16
228.353	20798.45
228.816	42967.13
229.28	40985.07
229.744	34598.09
230.207	21068.72
230.671	20714.07
231.134	34272.66
231.597	39541.16
232.061	39447.81
232.524	38461.89
232.987	26550.6
233.45	23914.92
233.914	21434.26
234.377	21968.58
234.84	20064.19
235.303	23659.56
235.766	26403.88
236.229	27253.71
236.691	17160.38
237.154	19284.63
237.617	14493.64
238.08	14812.54
238.542	17304.84
239.005	12380.85
239.468	12295.4
239.93	11600.28
240.393	10530.08
240.855	9243.55
241.317	9471.66
241.78	11519.44
242.242	11899.34
242.704	12864.05
243.166	11218.32
243.629	10208.69
244.091	11767.45
244.553	12890.7
245.015	13873.25
245.477	17950.32
245.939	26258.49
246.4	27892.02
246.862	27085.26
247.324	25553.9
247.786	28623.95
248.247	37484.93
248.709	38701.57
249.17	28956.42
249.632	27334.63
250.093	31711.43
250.555	27371.3
251.016	16743.15
251.477	15884.86
251.939	17168.41
252.4	18019.73
252.861	21398.69
253.322	19932.42
253.783	23710.02
254.244	30718.01
254.705	24245.52
255.166	21557.53
255.627	21233.27
256.088	29970.38
256.549	31837.37
257.009	27404.28
257.47	33276.83
257.931	27114.5
258.391	20311.5
258.852	20929.4
259.312	21948.95
259.773	27087.41
260.233	22911.69
260.694	19344.31
261.154	21935.64
261.614	17603.22
262.074	15754.74
262.534	16375.29
262.994	15439.65
263.455	20591.62
263.915	17353.59
264.374	16355.45
264.834	17841.87
265.294	19756.93
265.754	20453.43
266.214	19364.1
266.673	18153.16
267.133	22878.24
267.593	22688.06
268.052	27748.12
268.512	24086.91
268.971	29062.84
269.431	31871.99
269.89	28546.48
270.349	42799.25
270.809	47754.15
271.268	42919.78
271.727	96215.72
272.186	62352.25
272.645	46753.83
273.104	33730.86
273.563	48849.06
274.022	38352.06
274.481	32638.16
274.94	25162.13
275.399	18684.18
275.857	21739.56
276.316	29398.48
276.775	26174.54
277.233	25772.36
277.692	24101.99
278.15	27278.62
278.609	28095.9
279.067	26036.92
279.525	24189.33
279.984	31205.21
280.442	37513.39
280.9	37018.95
281.358	24317.22
281.816	22646.7
282.274	22189.69
282.732	22959.15
283.19	23089.71
283.648	19918.32
284.106	21212.74
284.564	21555.53
285.021	19986.98
285.479	14891.96
285.937	13535.2
286.394	11884.5
286.852	12213.02
287.309	12833.28
287.767	12414.3
288.224	11802.55
288.682	12951.66
289.139	14241.15
289.596	13038.96
290.053	13564.53
290.511	17117.81
290.968	20742.01
291.425	28240.5
291.882	23545.06
292.339	20499.08
292.796	20315.85
293.252	19109.66
293.709	15174.56
294.166	13585.68
294.623	14996.94
295.079	14398.82
295.536	14470.04
295.992	13156.57
296.449	12977.57
296.905	13487.95
297.362	12925.52
297.818	13583.06
298.274	14094.17
298.731	14353.6
299.187	14200.07
299.643	15236.95
300.099	18419.92
300.555	20193.78
301.011	16849.04
301.467	16274.36
301.923	19037.48
302.379	18597.09
302.835	18279.62
303.291	18322.77
303.746	20891.51
304.202	26371.59
304.658	26499.51
305.113	17811.78
305.569	17435.11
306.024	18598.89
306.479	17671.74
306.935	14890.93
307.39	16251.96
307.845	15000.72
308.301	15101.89
308.756	14683.55
309.211	14143.82
309.666	14490.65
310.121	18005.07
310.576	18320.62
311.031	18170.58
311.486	20802.32
311.94	20781.21
312.395	27798.93
312.85	52194.1
313.305	256139.84
313.759	1328792.83
314.214	96278.1
314.668	76454.34
315.123	64248.79
315.577	23047.43
316.032	20511.51
316.486	25712.22
316.94	20325.95
317.394	14149.91
317.849	11017.6
318.303	10430.07
318.757	9848.03
319.211	10907.04
319.665	9515.43
320.119	9626.33
320.572	13784.74
321.026	12880.79
321.48	10721.71
321.934	11677.28
322.387	11692.58
322.841	12622.66
323.295	11374.33
323.748	13069.24
324.202	13259.31
324.655	15977.54
325.108	22412.26
325.562	15821.28
326.015	18814.03
326.468	14227.75
326.921	15911.8
327.374	14862.06
327.827	15509
328.28	17515.9
328.733	11740.33
329.186	10325.52
329.639	9833.25
330.092	8266.08
330.545	7882.99
330.997	7944.44
331.45	8682.62
331.903	10194.8
332.355	17503.15
332.808	16963.46
333.26	14000.54
333.713	15204.55
334.165	15299.73
334.617	20341.64
335.069	16413.47
335.522	29597.29
335.974	32764.51
336.426	29924.46
336.878	20674.29
337.33	10514.04
337.782	10261.65
338.234	12892.74
338.686	15449.22
339.137	18324.09
339.589	17326.46
340.041	13616.98
340.493	11740.5
340.944	12021.5
341.396	12967.63
341.847	10936.59
342.299	12926.26
342.75	15843.6
343.201	13803.32
343.653	15874.62
344.104	19514.29
344.555	15355.34
345.006	23871.37
345.457	18307
345.908	14556.66
346.359	13725.84
346.81	11168.91
347.261	11788.05
347.712	11603.65
348.163	12453.56
348.613	12640.4
349.064	11784.88
349.515	10316.3
349.965	10564.8
350.416	12737.24
350.866	13968.17
351.317	15750.3
351.767	26058.83
352.217	32868.95
352.668	27294.74
353.118	24957.99
353.568	24009.65
354.018	19032.27
354.468	20100.38
354.918	14467.45
355.368	12646.16
355.818	17914.7
356.268	51562.48
356.718	216141.62
357.168	53809.13
357.617	26950.44
358.067	29972.41
358.517	28125.64
358.966	32988.29
359.416	37120.38
359.865	40107.18
360.315	47654.47
360.764	22224.21
361.213	12491.07
361.663	11843.87
362.112	14606.9
362.561	23609.11
363.01	17834.01
363.459	14970.81
363.908	16190
364.357	13722.81
364.806	23147.26
365.255	15947.24
365.703	14614.04
366.152	14602.24
366.601	11855.94
367.05	9642.42
367.498	8763.91
367.947	9191.02
368.395	9577.29
368.844	8502.8
369.292	10233.64
369.74	7086.88
370.189	10853.59
370.637	12722.15
371.085	10974.52
371.533	13316.32
371.981	12830.19
372.429	12262.03
372.877	12754.6
373.325	10667.13
373.773	10825.58
374.221	9658.1
374.669	11966.25
375.116	10338.76
375.564	10448.91
376.012	11671.38
376.459	9645.14
376.907	11499.81
377.354	13873.58
377.801	12927.35
378.249	14846.24
378.696	18990.51
379.143	22955.89
379.591	24451.53
380.038	41420.36
380.485	29943.5
380.932	32402.65
381.379	29622.08
381.826	21906.52
382.273	15550.84
382.72	13579.82
383.166	13245.14
383.613	8600.87
384.06	7753.36
384.506	8976.13
384.953	6584.3
385.4	6610.26
385.846	5783.86
386.292	5621.78
386.739	5485.87
387.185	5440.15
387.631	5445.75
388.078	5304.51
388.524	5676.19
388.97	5248.23
389.416	4381.79
389.862	4660.19
390.308	4411.59
390.754	4485.04
391.2	4888.66
391.645	5006.55
392.091	4806.92
392.537	4664.58
392.983	4667.86
393.428	4610.34
393.874	4946.79
394.319	4987.07
394.765	4764.06
395.21	4935.69
395.655	4663.69
396.101	4399.84
396.546	4003.21
396.991	4067.03
397.436	3809.67
397.881	3723.57
398.326	3561.01
398.771	3415.52
399.216	3018.08
399.661	2747.02
400.106	2767.37
400.551	2863.97
400.995	2592.57
401.44	2588.5
401.885	2447.96
402.329	2490.99
402.774	2409.44
403.218	2350.64
403.663	2275.59
404.107	2356.42
404.551	2397.39
404.995	2217.17
405.44	2156.03
405.884	2213.63
406.328	2161.19
406.772	2172.81
407.216	1997.15
407.66	1945.97
408.104	1870.11
408.547	1776.49
408.991	1743.54
409.435	1690.8
409.879	1682.49
410.322	1673.29
410.766	1628.34
411.209	1563.94
411.653	1518.96
412.096	1504.55
412.54	1520.27
412.983	1525.45
413.426	1538.68
413.869	1545.96
414.312	1531.63
414.756	1486.01
415.199	1427.98
415.642	1397.16
416.085	1409.9
416.527	1408.2
416.97	1436.74
417.413	1366.77
417.856	1356.29
418.298	1347.25
418.741	1341.45
419.184	1339.07
419.626	1397.27
420.069	1400.94
420.511	1408.98
420.953	1380.25
421.396	1374.45
421.838	1343.08
422.28	1380.92
422.722	1392.15
423.164	1421.68
423.606	1405.4
424.048	1411.29
424.49	1350.2
424.932	1349.67
425.374	1336.86
425.816	1363.92
426.258	1384.9
426.699	1395.66
427.141	1362.66
427.582	1369.09
428.024	1349.77
428.465	1342.67
428.907	1314.76
429.348	1309.62
429.789	1320.7
430.231	1302.98
430.672	1329.12
431.113	1309.71
431.554	1309.2
431.995	1303.23
432.436	1288.28
432.877	1287.78
433.318	1283.21
433.759	1292.58
434.2	1303.83
434.64	1299.13
435.081	1314.97
435.522	1257.54
435.962	1225.51
436.403	1209.87
436.843	1238.47
437.284	1219.71
437.724	1195.15
438.164	1205.65
438.604	1186.24
439.045	1145.04
439.485	1104.68
439.925	1089.08
440.365	1070.73
440.805	1063.79
441.245	1057.42
441.685	1022.19
442.125	1019.39
442.564	1029.09
443.004	1007.83
443.444	1006.75
443.883	1014.66
444.323	1014.16
444.762	1022.29
445.202	1041.4
445.641	1062.71
446.081	1062.25
446.52	1075.86
446.959	1070.9
447.398	1049.38
447.837	1044.72
448.276	1034.43
448.716	1047.8
449.154	1058.16
449.593	1032.29
450.032	1027.28
450.471	1008.17
450.91	1006.2
451.349	1001.48
451.787	996.61
452.226	1008.81
452.664	1005.93
453.103	1006.17
453.541	1003.65
453.98	1000.58
454.418	1007.15
454.856	990.69
455.295	989.57
455.733	997.43
456.171	1002.32
456.609	998.87
457.047	999.01
457.485	1010.96
457.923	1010.23
458.361	995.31
458.798	999.61
459.236	998.82
459.674	1008.91
460.111	1016.08
460.549	1006.81
460.987	1005.45
461.424	1006.71
461.862	1003.06
462.299	989.46
462.736	990.55
463.173	996.02
463.611	985.4
464.048	984.87
464.485	994.51
464.922	989.1
465.359	992.01
465.796	979.96
466.233	977.48
466.67	973.72
467.106	977.19
467.543	973.57
467.98	967.71
468.416	951.64
468.853	952.89
469.29	931.7
469.726	927.96
470.162	907.16
470.599	907.2
471.035	905.61
471.471	890.89
471.907	894.7
472.344	894.58
472.78	900.42
473.216	915.01
473.652	905
474.088	905.27
474.523	904.53
474.959	915.66
475.395	908.37
475.831	903.49
476.266	909.12
476.702	906.85
477.138	897.45
477.573	895.9
478.008	892.46
478.444	896.03
478.879	903.9
479.314	906.49
479.75	904.46
480.185	906.19
480.62	911.77
481.055	912.76
481.49	914.15
481.925	920.87
482.36	925.95
482.795	939.16
483.229	950.45
483.664	956.08
484.099	948.82
484.534	954.01
484.968	955.12
485.403	951.15
485.837	944.22
486.271	937.76
486.706	938.44
487.14	930.16
487.574	919.6
488.009	916.46
488.443	910.54
488.877	919.74
489.311	921.06
489.745	929.93
490.179	937.67
490.613	952.32
491.046	958.83
491.48	963.27
491.914	962.76
492.348	967.36
492.781	971.06
493.215	974.58
493.648	977.54
494.082	987.12
494.515	987.89
494.948	996.18
495.382	1001.9
495.815	1005.67
496.248	1009.71
496.681	1024.52
497.114	1037.15
497.547	1046.97
497.98	1059.35
498.413	1061.38
498.846	1068.16
499.279	1076.41
499.711	1080.06
500.144	1080.74
500.577	1091.75
501.009	1104.42
501.442	1114.29
501.874	1115.21
502.306	1118.7
502.739	1129.29
503.171	1151.13
503.603	1156.78
504.036	1167.98
504.468	1174.72
504.9	1187.35
505.332	1195.77
505.764	1200.8
506.196	1209.48
506.627	1227.23
507.059	1242.42
507.491	1252.37
507.923	1246.96
508.354	1265.9
508.786	1278.68
509.217	1300.98
509.649	1319.36
510.08	1341.65
510.512	1359.76
510.943	1375.34
511.374	1384.83
511.805	1407.5
512.237	1429.34
512.668	1467.31
513.099	1493.87
513.53	1519.53
513.961	1533.45
514.391	1563.41
514.822	1594.66
515.253	1630.32
515.684	1654.73
516.114	1686.57
516.545	1707.97
516.975	1736.74
517.406	1756.82
517.836	1760.68
518.267	1773.46
518.697	1802.31
519.127	1814.3
519.558	1829.55
519.988	1838.86
520.418	1856.12
520.848	1883.01
521.278	1897.38
521.708	1915.59
522.138	1933.38
522.567	1974.02
522.997	2003.97
523.427	2017.35
523.857	2032.52
524.286	2039.98
524.716	2056.71
525.145	2078.78
525.575	2091.47
526.004	2110.17
526.433	2107.08
526.863	2106.61
527.292	2094.68
527.721	2105.49
528.15	2119.8
528.579	2126.63
529.008	2144.39
529.437	2173.66
529.866	2189.25
530.295	2207.65
530.724	2218.4
531.152	2248.73
531.581	2263.53
532.01	2281.89
532.438	2291.5
532.867	2308.94
533.295	2330.72
533.723	2336.66
534.152	2332.47
534.58	2332.94
535.008	2313.22
535.436	2315.39
535.865	2323.62
536.293	2339.44
536.721	2355.89
537.149	2379.21
537.576	2374.85
538.004	2383.45
538.432	2389.8
538.86	2386.53
539.287	2394.41
539.715	2410.4
540.143	2414.12
540.57	2410.89
540.998	2407.97
541.425	2382.32
541.852	2361.17
542.28	2364.45
542.707	2350.04
543.134	2337.35
543.561	2335.61
543.988	2328.62
544.415	2330.03
544.842	2325.16
545.269	2316.45
545.696	2321.16
546.123	2341.64
546.549	2331.68
546.976	2319.22
547.403	2322.62
547.829	2329.87
548.256	2337.48
548.682	2335.9
549.108	2331.04
549.535	2333.92
549.961	2341.56
550.387	2328.29
550.813	2322.94
551.24	2333.65
551.666	2336.23
552.092	2325.89
552.518	2318.36
552.943	2310.52
553.369	2321.37
553.795	2326.78
554.221	2327.63
554.646	2322.3
555.072	2332.59
555.498	2336.07
555.923	2342.83
556.349	2357.84
556.774	2363.79
557.199	2361.89
557.625	2367.72
558.05	2358.06
558.475	2369.5
558.9	2367.06
559.325	2354.38
559.75	2345.61
560.175	2337.13
560.6	2328.99
561.025	2327.17
561.449	2328.65
561.874	2333.77
562.299	2335.24
562.723	2340.72
563.148	2324.99
563.572	2326.92
563.997	2337.26
564.421	2343.01
564.846	2339.66
565.27	2340.59
565.694	2332.16
566.118	2341.52
566.542	2345.54
566.966	2332.64
567.39	2322.76
567.814	2304.42
568.238	2298.66
568.662	2301.97
569.086	2301.13
569.509	2309.53
569.933	2289.64
570.357	2281.32
570.78	2256.75
571.204	2242.15
571.627	2230.88
572.05	2230.16
572.474	2231.64
572.897	2218.15
573.32	2208.78
573.743	2198.71
574.166	2175.84
574.589	2177.1
575.012	2167.08
575.435	2164.3
575.858	2152.31
576.281	2139.53
576.704	2121.09
577.126	2109.19
577.549	2098.15
577.972	2088.84
578.394	2076.52
578.817	2069.65
579.239	2047.72
579.661	2034.67
580.084	2018.83
580.506	2006.64
580.928	2004.52
581.35	1993.04
581.772	1987.32
582.194	1970.5
582.616	1953.36
583.038	1934.18
583.46	1920.45
583.882	1916.81
584.303	1920.53
584.725	1912.55
585.147	1908.29
585.568	1914.24
585.99	1918.21
586.411	1916.34
586.833	1924.49
587.254	1917.82
587.675	1930.27
588.096	1938.36
588.518	1923.64
588.939	1896.63
589.36	1887.06
589.781	1871.89
590.202	1837
590.623	1830.05
591.043	1830.07
591.464	1816.1
591.885	1812.37
592.305	1803.46
592.726	1786.29
593.147	1787.88
593.567	1780.35
593.987	1772.41
594.408	1765.72
594.828	1761.8
595.248	1752.17
595.669	1728.9
596.089	1720.58
596.509	1711.96
596.929	1695.56
597.349	1694.43
597.769	1680.37
598.189	1671.65
598.608	1670.74
599.028	1670.23
599.448	1668.02
599.867	1651.83
600.287	1644.89
600.706	1638.23
601.126	1626.59
601.545	1624.02
601.965	1622.31
602.384	1614.48
602.803	1616.07
603.222	1609.46
603.641	1601.35
604.061	1597
604.48	1590.69
604.898	1599.56
605.317	1603.09
605.736	1602.45
606.155	1596.27
606.574	1582.85
606.992	1586.39
607.411	1579.14
607.829	1566.44
608.248	1560.5
608.666	1554.97
609.085	1551.68
609.503	1538.59
609.921	1529.79
610.339	1530.61
610.758	1527.4
611.176	1519.73
611.594	1508.44
612.012	1502.1
612.43	1504.17
612.847	1508.81
613.265	1507.13
613.683	1509.49
614.101	1509.01
614.518	1502.04
614.936	1487.97
615.353	1470.64
615.771	1466.31
616.188	1465.64
616.606	1460.25
617.023	1452.66
617.44	1437.45
617.857	1430.98
618.274	1421.93
618.691	1415.38
619.108	1405.29
619.525	1398.21
619.942	1404.34
620.359	1405.86
620.776	1398.62
621.192	1393
621.609	1386.75
622.026	1389.43
622.442	1391.75
622.859	1392.2
623.275	1381.11
623.691	1383.9
624.108	1394.53
624.524	1407.21
624.94	1403.05
625.356	1410.56
625.772	1422.46
626.188	1433.95
626.604	1433.87
627.02	1427.21
627.436	1423.6
627.852	1429.44
628.268	1440.39
628.683	1427.45
629.099	1415.58
629.514	1410.11
629.93	1413.09
630.345	1415.65
630.761	1410.19
631.176	1413.76
631.591	1407.36
632.007	1399.77
632.422	1396.29
632.837	1383.96
633.252	1381.28
633.667	1371.13
634.082	1362.53
634.497	1348.2
634.911	1326.77
635.326	1322.66
635.741	1303.62
636.155	1291.69
636.57	1291.81
636.984	1289.7
637.399	1289.25
637.813	1287.63
638.228	1284.75
638.642	1286.66
639.056	1275
639.47	1273.54
639.884	1262.88
640.298	1255.43
640.712	1253.94
641.126	1239.87
641.54	1231.04
641.954	1225.58
642.368	1212.1
642.781	1203.75
643.195	1183.49
643.609	1182.63
644.022	1175.74
644.436	1169.85
644.849	1155.17
645.262	1139.85
645.676	1140.24
646.089	1132.07
646.502	1114.14
646.915	1106.15
647.328	1087.24
647.741	1085.28
648.154	1070.76
648.567	1066.83
648.98	1052.45
649.393	1053.42
649.805	1051.04
650.218	1044.54
650.631	1031.05
651.043	1026.39
651.456	1022.63
651.868	1023.28
652.28	1039.33
652.693	1050.22
653.105	1053.28
653.517	1057.66
653.929	1052.74
654.341	1054.57
654.753	1039.13
655.165	1043.28
655.577	1039.99
655.989	1035.7
656.401	1028.28
656.813	995.43
657.224	981.02
657.636	958.96
658.047	949.04
658.459	935.98
658.87	931.69
659.282	924.92
659.693	907.25
660.104	894.63
660.515	882.1
660.926	883.83
661.338	881.79
661.749	876.62
662.159	868.22
662.57	864.75
662.981	860.81
663.392	853.54
663.803	858.06
664.213	855.2
664.624	850.92
665.035	853.97
665.445	838.32
665.855	832.44
666.266	823.57
666.676	820.66
667.086	810.84
667.497	809.37
667.907	803.08
668.317	793.14
668.727	790.46
669.137	791.61
669.547	788.29
669.956	790.65
670.366	789.69
670.776	790.96
671.186	794.07
671.595	796.65
672.005	799.34
672.414	798.25
672.824	794.6
673.233	797.35
673.642	797.48
674.052	800.69
674.461	802.72
674.87	806.46
675.279	801.83
675.688	801.84
676.097	802.67
676.506	799.21
676.915	813.64
677.323	817.17
677.732	814.99
678.141	814.56
678.549	802.73
678.958	800.51
679.366	799.93
679.775	805.5
680.183	815.97
680.592	821.01
681	826.38
681.408	817.64
681.816	823.54
682.224	831.17
682.632	839.94
683.04	868.29
683.448	888.88
683.856	912.93
684.264	938.47
684.671	961.38
685.079	991.37
685.487	1025.58
685.894	1076.71
686.302	1115.31
686.709	1147.02
687.116	1185.01
687.524	1215.2
687.931	1243.85
688.338	1270.94
688.745	1296.35
689.152	1325.33
689.559	1365.41
689.966	1402.99
690.373	1420.97
690.78	1456.6
691.187	1511.28
691.593	1552.64
692	1587.25
692.407	1640.47
692.813	1708.89
693.22	1761.73
693.626	1817.15
694.032	1862.55
694.439	1932.24
694.845	1987.74
695.251	2058.71
695.657	2121.23
696.063	2213.79
696.469	2283.33
696.875	2346.67
697.281	2380.39
697.687	2423.41
698.093	2458.22
698.498	2524.56
698.904	2577.44
699.31	2657.42
699.715	2713.58
700.12	2798.17
700.526	2814.58
700.931	2882.08
701.337	2932.35
701.742	2964.54
702.147	3046.39
702.552	3077.78
702.957	3141.01
703.362	3162.56
703.767	3192.11
704.172	3234.59
704.577	3190.95
704.981	3240.66
705.386	3257.59
705.791	3252.91
706.195	3327.46
706.6	3339.3
707.004	3417.9
707.408	3387.06
707.813	3414.22
708.217	3402.68
708.621	3404.51
709.025	3500.96
709.43	3503.63
709.834	3562.02
710.237	3631.37
710.641	3618.54
711.045	3638.89
711.449	3634.34
711.853	3663.85
712.256	3703.64
712.66	3739.94
713.064	3810.4
713.467	3846.43
713.87	3944.26
714.274	3977.05
714.677	4067.49
715.08	4203.75
715.484	4345.65
715.887	4516.75
716.29	4680.98
716.693	4854.24
717.096	5055.91
717.499	5159.96
717.901	5172.04
718.304	5195.02
718.707	5223.09
719.109	5137.46
719.512	5119.39
719.915	5005.57
720.317	4963.59
720.719	5011.96
721.122	4995.46
721.524	4955.95
721.926	4922.35
722.328	5017.92
722.731	5004.78
723.133	5027.31
723.535	5199.09
723.937	5213.05
724.338	5255.91
724.74	5294.15
725.142	5242.08
725.544	5238.19
725.945	5267.93
726.347	5267.07
726.748	5264.45
727.15	5281.23
727.551	5247.12
727.952	5224.28
728.354	5199.54
728.755	5202.77
729.156	5167.57
729.557	5156.74
729.958	5052.18
730.359	5006.68
730.76	5000.97
731.161	4953.24
731.562	4940.58
731.962	4953.64
732.363	4902.55
732.763	4848.98
733.164	4892.26
733.564	4832.32
733.965	4748.15
734.365	4718.82
734.766	4750.78
735.166	4712.73
735.566	4661.29
735.966	4637.99
736.366	4633.82
736.766	4575.23
737.166	4607.4
737.566	4568
737.966	4545.26
738.365	4582.73
738.765	4577.99
739.165	4504.36
739.564	4481.39
739.964	4525.3
740.363	4480.22
740.763	4479.61
741.162	4473.02
741.561	4445.31
741.96	4404.42
742.36	4424.19
742.759	4433.05
743.158	4471.82
743.557	4488.25
743.955	4528.49
744.354	4485.25
744.753	4540.83
745.152	4500.94
745.55	4552.23
745.949	4545.73
746.348	4546.03
746.746	4563.79
747.144	4524.87
747.543	4502.93
747.941	4550.24
748.339	4480.25
748.737	4472.79
749.136	4466.01
749.534	4526.74
749.932	4499.46
750.33	4521.57
750.727	4575.02
751.125	4549.83
751.523	4531.9
751.921	4574.05
752.318	4540.6
752.716	4598.39
753.113	4612.09
753.511	4635.1
753.908	4634.96
754.305	4616.69
754.703	4675.53
755.1	4730.83
755.497	4786.93
755.894	4965.52
756.291	5119.98
756.688	5405.81
757.085	5770.5
757.482	6289.01
757.878	6841.16
758.275	7327.2
758.672	8017.8
759.068	8555.51
759.465	9350.38
759.861	10372.1
760.258	11552.42
760.654	12129.46
761.05	11990.13
761.447	11457.72
761.843	10694.3
762.239	9923.35
762.635	9598.27
763.031	9278.02
763.427	8800.33
763.822	8291.91
764.218	7797.11
764.614	7131.76
765.01	6701.84
765.405	6438.66
765.801	6241.19
766.196	5974.67
766.592	5837.08
766.987	5574.53
767.382	5401.99
767.778	5339.25
768.173	5236.43
768.568	5180.42
768.963	5077.47
769.358	5101.9
769.753	5063.15
770.148	4990.43
770.542	4993.59
770.937	4965.09
771.332	5054.04
771.726	5074.45
772.121	5015.06
772.515	5067.14
772.91	5057.6
773.304	5123.52
773.699	5063.09
774.093	5115.17
774.487	5165.31
774.881	5205.15
775.275	5203.08
775.669	5161.92
776.063	5203.42
776.457	5239.83
776.851	5167.35
777.245	5155.37
777.638	5186.81
778.032	5293.99
778.425	5255.74
778.819	5294.1
779.212	5253.22
779.606	5209.89
779.999	5225.17
780.392	5208.19
780.786	5283.5
781.179	5300.56
781.572	5337.45
781.965	5343.79
782.358	5286.59
782.751	5335.71
783.143	5288
783.536	5352.63
783.929	5390.64
784.322	5500.26
784.714	5524.54
785.107	5515.19
785.499	5578.6
785.891	5552.15
786.284	5530.97
786.676	5656.94
787.068	5633.71
787.46	5674.64
787.852	5683.97
788.245	5759.27
788.636	5776.78
789.028	5831.92
789.42	5863.06
789.812	5864.75
790.204	5951.6
790.595	6040.19
790.987	5855.01
791.378	5873.34
791.77	5989.98
792.161	6115.89
792.553	6160.38
792.944	6051.42
793.335	5984.9
793.726	6047.79
794.117	6126.76
794.508	6251.96
794.899	6219.39
795.29	6346.73
795.681	6397.09
796.072	6265.49
796.463	6093.23
796.853	6098.47
797.244	6238.76
797.634	6265.52
798.025	6258.63
798.415	6266.38
798.806	6340.39
799.196	6414.06
799.586	6453.79
799.976	6413.22
800.366	6611.79
800.756	6821.26
801.146	6783.46
801.536	6809.95
801.926	6865.9
802.316	6889.3
802.706	6949.15
803.095	6833.6
803.485	6921.53
803.874	6953.42
804.264	7183.77
804.653	7161.76
805.043	7288.72
805.432	7377.01
805.821	7370.82
806.21	7391.74
806.599	7490.01
806.988	7520.1
807.377	7606.7
807.766	7710.68
808.155	7953.22
808.544	7704.73
808.933	7701.83
809.321	7669.07
809.71	7921.01
810.098	8049.29
810.487	8441.04
810.875	8843.35
811.264	8841.87
811.652	9075.34
812.04	9182.58
812.428	9303.42
812.816	9941.62
813.204	10278.79
813.592	10737.45
813.98	11001.34
814.368	10893.13
814.756	11282.37
815.144	11192.8
815.531	11576.78
815.919	11495.45
816.306	11745
816.694	11470.9
817.081	11517.63
817.469	11816.7
817.856	11808.97
818.243	12044.85
818.63	12378.92
819.017	12026.91
819.404	12072.8
819.791	12389.99
820.178	12901.33
820.565	13108.58
820.952	13897.26
821.339	13466.41
821.725	13615.99
822.112	12977.44
822.498	12936.11
822.885	13027.54
823.271	12933.42
823.657	13291.52
824.044	13304.25
824.43	13371.25
824.816	13341.32
825.202	12964.95
825.588	13815.91
825.974	13819.37
826.36	14243.77
826.746	14249.26
827.132	14549.18
827.517	14521.15
827.903	13839.04
828.289	13859.83
828.674	13196.92
829.06	13099.25
829.445	13426.31
829.83	13724.06
830.216	14120.04
830.601	14415.24
830.986	14076.3
831.371	13960.02
831.756	14421.66
832.141	14069.58
832.526	14055.33
832.911	14294.18
833.295	14196.38
833.68	14584.58
834.065	14063.99
834.449	13294.25
834.834	13237.09
835.218	13225.21
835.603	13508.18
835.987	13326.81
836.371	14015.63
836.755	13932.25
837.139	14255.69
837.524	14451.69
837.908	14300.76
838.291	14343.95
838.675	14390.61
839.059	14557.68
839.443	14548.85
839.827	14346.94
840.21	14743.88
840.594	14620.58
840.977	14782.36
841.361	14757.8
841.744	15063.78
842.127	14930.22
842.511	15128.05
842.894	15620.08
843.277	15932.59
843.66	16372.44
844.043	16447.1
844.426	15773.73
844.809	15501.98
845.191	15523.13
845.574	15139.37
845.957	14830.64
846.339	14728.79
846.722	14285.56
847.104	14329.81
847.487	14172.97
847.869	14177.55
848.252	14388.95
848.634	14644.98
849.016	14860.73
849.398	14953.47
849.78	15647.21
850.162	15649.71
850.544	15981.12
850.926	16489.71
851.307	16402.71
851.689	16621.85
852.071	16978.32
852.452	17237.84
852.834	17216.67
853.215	17534.63
853.597	17643.7
853.978	17879.43
854.359	18237.66
854.741	17424.86
855.122	17345.3
855.503	17118.58
855.884	17232.96
856.265	17186.11
856.646	17280.49
857.026	16949.27
857.407	16884.16
857.788	17026.86
858.169	17262.43
858.549	16566.13
858.93	17076.19
859.31	17108.09
859.69	17276.06
860.071	16944.64
860.451	16767.4
860.831	16162.19
861.211	17109.62
861.591	17561.42
861.971	17530.22
862.351	17679.91
862.731	17987.1
863.111	18194.38
863.491	18463.11
863.87	19171.48
864.25	19452.88
864.629	19110.82
865.009	19516.89
865.388	20213.01
865.768	21645.78
866.147	21556.95
866.526	20363.63
866.905	20615.42
867.284	21772.55
867.663	20665.19
868.042	19794.22
868.421	19724.73
868.8	20063.4
869.179	20270.52
869.558	19092.02
869.936	17598.51
870.315	17907.64
870.693	18336.62
871.072	19765.31
871.45	18826.66
871.828	19065.26
872.207	20053.08
872.585	19753.63
872.963	20283.82
873.341	19576.87
873.719	19342.81
874.097	19104.72
874.475	19467.86
874.853	19919.55
875.23	19088.25
875.608	19882.17
875.986	21506.37
876.363	20544.41
876.741	21154.08
877.118	20614.7
877.495	21619.85
877.873	21960.1
878.25	23110.9
878.627	22166.42
879.004	22459.19
879.381	22334.72
879.758	21739.82
880.135	20232.08
880.512	21404.15
880.889	20836.49
881.265	20620.95
881.642	20435.84
882.019	20783.41
882.395	20362.35
882.772	21161.59
883.148	20237.77
883.524	20154.35
883.901	20037.14
884.277	20329.23
884.653	20190.27
885.029	20773.42
885.405	22993.96
885.781	22812.02
886.157	21866.28
886.532	22121.46
886.908	22100.22
887.284	24565.96
887.659	25376.03
888.035	26156.93
888.411	26828.07
888.786	27188.09
889.161	28114.34
889.537	27597.51
889.912	28487.99
890.287	28458.61
890.662	29188.7
891.037	28662.36
891.412	26719.46
891.787	26432.94
892.162	25486.71
892.536	26060.91
892.911	25067.39
893.286	24528.67
893.66	23514.68
894.035	24092.05
894.409	26212.15
894.784	25132.96
895.158	25524.55
895.532	27007.88
895.906	27725.06
896.281	28362.99
896.655	27906.12
897.029	31864.1
897.402	33149.75
897.776	36875.71
898.15	36721.71
898.524	36302.24
898.898	36773.11
899.271	41134.54
899.645	35625.11
900.018	34201.99
900.392	35459.74
900.765	35750.56
901.138	33079.58
901.511	32588.92
901.884	29935.99
902.258	27617.21
902.631	28557.88
903.003	32850.32
903.376	29660.9
903.749	33283.36
904.122	35651.37
904.495	39276.02
904.867	39748.36
905.24	34496.74
905.612	32097.46
905.985	32809.71
906.357	34312.42
906.729	32739.75
907.102	27987.95
907.474	26911.72
907.846	27071.45
908.218	26692.01
908.59	23579.67
908.962	22799.01
909.334	24554.9
909.705	25801.21
910.077	25053.55
910.449	26063.19
910.82	26778.51
911.192	29447.56
911.563	30596.61
911.935	32731.38
912.306	32765.92
912.677	33837.1
913.048	33512.24
913.419	36351.74
913.79	36561.18
914.161	39217.94
914.532	37491.16
914.903	34434.68
915.274	32713.1
915.645	32229.08
916.015	28366.22
916.386	27069.73
916.756	28812.7
917.127	29728.35
917.497	26588.39
917.868	28942.5
918.238	27502.58
918.608	28293.96
918.978	28901.82
919.348	30608.86
919.718	31640.26
920.088	30497.4
920.458	31696.47
920.828	33372.23
921.198	31633.53
921.567	33774.62
921.937	26137.01
922.306	26392.24
922.676	28472.07
923.045	23760.91
923.415	22589.84
923.784	20576.79
924.153	21149.41
924.522	21114.55
924.891	19830.74
925.26	21235.45
925.629	20736.36
925.998	23844.74
926.367	23259.04
926.736	22149.29
927.104	26360.07
927.473	28304.36
927.842	34139.04
928.21	33794.83
928.578	35527.71
928.947	33594.09
929.315	33776.51
929.683	39566.61
930.051	39860.64
930.42	46265.08
930.788	39499.87
931.156	39187.1
931.523	36730.47
931.891	33934.59
932.259	32566.09
932.627	37675.36
932.994	53265.89
933.362	44013.85
933.729	38215.71
934.097	36557.73
934.464	30903.3
934.831	35641.5
935.199	35109.04
935.566	34016.01
935.933	34412.43
936.3	41679.04
936.667	32457.77
937.034	29309.55
937.401	28972.81
937.767	24996.8
938.134	22252.85
938.501	31394.29
938.867	33493.69
939.234	56635.71
939.6	48294.59
939.967	53341.24
940.333	35731.29
940.699	30428.08
941.065	24406.36
941.431	32063.53
941.798	30982.24
942.163	40705.4
942.529	25465
942.895	23429.3
943.261	15172.6
943.627	19944.85
943.992	17468.96
944.358	17505.84
944.723	17585.51
945.089	17144.75
945.454	15834.24
945.82	16889.92
946.185	16230.89
946.55	18785.13
946.915	16862.04
947.28	19786.14
947.645	17396.32
948.01	16093.52
948.375	16779.54
948.74	20108.93
949.104	23405.99
949.469	33780.15
949.834	59648.45
950.198	56615.94
950.562	33993.91
950.927	28321.54
951.291	34073.25
951.655	29044.47
952.02	27243.06
952.384	20621.48
952.748	17971.55
953.112	17552.44
953.476	15265.67
953.839	14128.83
954.203	13979.06
954.567	17468.83
954.931	27445.53
955.294	23465.94
955.658	23598.26
956.021	40114.08
956.385	67930.93
956.748	100169.04
957.111	155418.59
957.474	174370.9
957.837	196221.19
958.2	148356.85
958.563	53389.31
958.926	36149.57
959.289	54900.7
959.652	61329.85
960.015	46011.44
960.377	65989.64
960.74	75287.76
961.102	129929.66
961.465	139708.84
961.827	75002.98
962.189	143965.54
962.552	99818.46
962.914	79987.98
963.276	51910.7
963.638	42909.51
964	42470.22
964.362	28716.17
964.724	27725.91
965.085	19767.14
965.447	16207.1
965.809	18438.6
966.17	18457.83
966.532	19993.19
966.893	18377.25
967.255	16725.31
967.616	19746.33
967.977	15833.5
968.338	17319.76
968.699	14261.81
969.061	14256.3
969.421	14338.79
969.782	16089.82
970.143	13593.17
970.504	14071.55
970.865	16006.4
971.225	16353.55
971.586	16009.75
971.946	22801.96
972.307	19746.15
972.667	25803.03
973.027	26603.74
973.388	32211.58
973.748	21913.12
974.108	23885.48
974.468	32287.83
974.828	24878.92
975.188	19147.15
975.548	17581.95
975.907	14755.07
976.267	16582.11
976.627	13902.52
976.986	14408.54
977.346	13763.22
977.705	13229.26
978.064	12025.14
978.424	10008.74
978.783	10333.68
979.142	11795.66
979.501	11295.27
979.86	11956.26
980.219	11513.72
980.578	14865.44
980.937	16643.67
981.296	14848.07
981.654	15283.06
982.013	23827.62
982.371	30880.35
982.73	28866.17
983.088	32683.16
983.447	34872.45
983.805	49816.04
984.163	104098.41
984.521	115605.75
984.879	169466.35
985.237	-275598.07
985.595	265748.7
985.953	66074.58
986.311	38223.79
986.669	22181.83
987.026	19139.13
987.384	25716.16
987.741	26610.1
988.099	19011.49
988.456	15160.29
988.814	14187.69
989.171	12308.39
989.528	12149.21
989.885	12787.13
990.242	10114.96
990.599	12600.54
990.956	10300.91
991.313	7205.75
991.67	5920.49
992.027	6295.23
992.383	5604.19
992.74	4915.75
993.096	5169.92
993.453	5359.03
993.809	5566.39
994.165	7422.74
994.522	6813.16
994.878	7510.07
995.234	9432.32
995.59	9299.95
995.946	8788.7
996.302	10012.38
996.658	11572.52
997.013	12735.98
997.369	15088.05
997.725	19320.89
998.08	12508.78
998.436	19251.93
998.791	26596.06
999.147	26546.75
999.502	28865.13
999.857	20893.78
1000.212	34055.34
1000.567	48548.79
1000.922	27993.66
1001.277	17823.52
1001.632	13224.11
1001.987	17042.92
1002.342	12234.99
1002.696	9774.39
1003.051	7808.06
1003.406	9491.61
1003.76	9475.14
1004.114	9337.03
1004.469	7855.53
1004.823	6501.14
1005.177	6995.62
1005.531	5559.77
1005.885	4934.23
1006.239	5549.52
1006.593	6964.37
1006.947	9316.28
1007.301	6958.01
1007.655	7601.3
1008.008	5582.46
1008.362	6258.63
1008.715	8940.2
1009.069	8143.54
1009.422	12232.58
1009.776	24611.76
1010.129	16401.55
1010.482	13688.9
1010.835	11563.89
1011.188	24141.11
1011.541	22714.07
1011.894	-138846.28
1012.247	408625.9
1012.6	27731.58
1012.952	17506.48
1013.305	9007.78
1013.657	6461.96
1014.01	6126.66
1014.362	5067.83
1014.715	4517.71
1015.067	3944.87
1015.419	3850.33
1015.771	3419.05
1016.123	3056.97
1016.475	3166.15
1016.827	3368.65
1017.179	3623.26
1017.531	3650.51
1017.883	3721.52
1018.234	3602.3
1018.586	4554.52
1018.938	4821.81
1019.289	6660.11
1019.64	7599.65
1019.992	7072.93
1020.343	6435.99
1020.694	5084.85
1021.045	4483.5
1021.396	5138.01
1021.747	5519.73
1022.098	6577.45
1022.449	4752.56
1022.8	4414.99
1023.151	3105.83
1023.501	2752.66
1023.852	2981.81
1024.202	3100.61
1024.553	3408.1
1024.903	3354.91
1025.253	2864.49
1025.604	2586.4
1025.954	3223.18
1026.304	3920.87
1026.654	4577.13
1027.004	6644.43
1027.354	10751.41
1027.703	10112.32
1028.053	13274.83
1028.403	19226.98
1028.753	27799.27
1029.102	37577.03
1029.452	190903.89
1029.801	8174.06
1030.15	5278.66
1030.499	4419.8
897.758	2686.49
901.051	2639.29
904.343	2675.76
907.636	2676.05
910.928	2740.55
914.22	2650.9
917.511	2654.65
920.803	2714.5
924.094	2735.48
927.384	2716.31
930.675	2681.29
933.965	2633.22
937.255	2642.78
940.544	2608.53
943.834	2548.02
947.123	2492.11
950.411	2587.14
953.7	2562.6
956.988	2533.12
960.276	2470.59
963.563	2551.97
966.851	2548.65
970.138	2604.92
973.424	2600.23
976.711	2549.18
979.997	2682.15
983.283	2716.84
986.568	2622.66
989.853	2635.67
993.138	2664.14
996.423	2747.53
999.708	2682.41
1002.992	2748.06
1006.275	2583.66
1009.559	2629.68
1012.842	2747.21
1016.125	2679.59
1019.408	2657.72
1022.69	2743.31
1025.972	2765.22
1029.254	2739.15
1032.536	2672.42
1035.817	2701.53
1039.098	2641.49
1042.379	2788.61
1045.659	2784.1
1048.939	2718
1052.219	2739.73
1055.498	2751.3
1058.778	2737.8
1062.057	2723.09
1065.335	2741.03
1068.614	2763.42
1071.892	2744.36
1075.17	2819.54
1078.447	2811.26
1081.724	2804.2
1085.001	2840.72
1088.278	2810.96
1091.554	2826.58
1094.83	2822.22
1098.106	2850.4
1101.382	2896.76
1104.657	2895.33
1107.932	2891.55
1111.206	2859
1114.481	2813.45
1117.755	2814.95
1121.029	2794.07
1124.302	2848.28
1127.575	2799.96
1130.848	2787.31
1134.121	2746.16
1137.393	2697.48
1140.665	2765.55
1143.937	2740.76
1147.208	2699.37
1150.48	2737.7
1153.75	2725.39
1157.021	2756.71
1160.291	2728.46
1163.561	2771.35
1166.831	2761.73
1170.101	2796.15
1173.37	2768.43
1176.639	2710.3
1179.907	2770.54
1183.176	2777.6
1186.444	2786.04
1189.711	2812.76
1192.979	2823.66
1196.246	2781.86
1199.513	2798.51
1202.78	2797.28
1206.046	2805.34
1209.312	2831.45
1212.578	2858.47
1215.843	2810.37
1219.108	2782.13
1222.373	2805.28
1225.638	2769.84
1228.902	2754.19
1232.166	2716.71
1235.43	2701.36
1238.693	2722.49
1241.956	2720.33
1245.219	2760.6
1248.482	2750.53
1251.744	2743.45
1255.006	2894.75
1258.268	2850.26
1261.529	2792.47
1264.79	2801.67
1268.051	2901.2
1271.312	2921.11
1274.572	2883.11
1277.832	2870.76
1281.092	2860.11
1284.351	2834.3
1287.61	2813.07
1290.869	2730.23
1294.128	2704.84
1297.386	2797.28
1300.644	2783.87
1303.902	2801.82
1307.159	2652.21
1310.416	2709.74
1313.673	2737.24
1316.93	2722.63
1320.186	2769.55
1323.442	2813.91
1326.697	2799.35
1329.953	2790.8
1333.208	2815.13
1336.463	2793.02
1339.717	2731.56
1342.972	2871.14
1346.226	2847.16
1349.479	2778.18
1352.733	2749.1
1355.986	2769.7
1359.238	2744.95
1362.491	2753.09
1365.743	2755.03
1368.995	2748.49
1372.247	2760.86
1375.498	2784.78
1378.749	2801.24
1382	2754.99
1385.251	2808.87
1388.501	2769.16
1391.751	2755.39
1395	2726.21
1398.25	2756.25
1401.499	2762.59
1404.748	2687.96
1407.996	2682.03
1411.244	2666.45
1414.492	2646.86
1417.74	2625.62
1420.987	2633.95
1424.234	2693.81
1427.481	2671.31
1430.728	2732.72
1433.974	2705.59
1437.22	2721.76
1440.465	2723.44
1443.711	2685.2
1446.956	2724.26
1450.201	2709.64
1453.445	2755.49
1456.689	2734.77
1459.933	2745.49
1463.177	2779.06
1466.42	2749.92
1469.663	2730.29
1472.906	2724.87
1476.148	2801.06
1479.391	2761.73
1482.633	2728.9
1485.874	2741.76
1489.115	2727.36
1492.356	2732.76
1495.597	2706.55
1498.838	2711.56
1502.078	2679.36
1505.318	2628.89
1508.557	2672.6
1511.797	2649.43
1515.036	2717.51
1518.274	2708
1521.513	2680.11
1524.751	2701.31
1527.989	2714.99
1531.227	2730.84
1534.464	2724.05
1537.701	2744.58
1540.938	2764.23
1544.174	2715.84
1547.41	2712.95
1550.646	2756.38
1553.882	2790.71
1557.117	2845.59
1560.352	2860.69
1563.587	2818.17
1566.821	2776.16
1570.055	2811.61
1573.289	2782.17
1576.523	2857.47
1579.756	2864.34
1582.989	2884.31
1586.222	2842.49
1589.454	2884.64
1592.686	2854.9
1595.918	2882.26
1599.15	2869.51
1602.381	2947.59
1605.612	2901.22
1608.843	2998.84
1612.073	2910.98
1615.303	2894.82
1618.533	2886.21
1621.762	2889.16
1624.992	2872.48
1628.221	2859.57
1631.449	2843.49
1634.678	2904.17
1637.906	2855.07
1641.134	2893.72
1644.361	2849
1647.588	2840.25
1650.815	2857.76
1654.042	2835.33
1657.269	2866.97
1660.495	2819.26
1663.72	2841.46
1666.946	2805.58
1670.171	2746.27
1673.396	2722.61
1676.621	2710.54
1679.845	2731.43
1683.069	2749.37
1686.293	2793.6
1689.517	2762.3
1692.74	2691.22
1695.963	2723.62
1699.185	2739.37
1702.408	2713.72
1705.63	2756.83
1708.852	2766.67
1712.073	2739.2
1715.294	2723.38
1718.515	2784.67
1721.736	2731.88
1724.956	2727.46
1728.176	2753.65
1731.396	2777
1734.616	2763.15
1737.835	2790
1741.054	2769.94
1744.272	2762.9
1747.491	2796.23
1750.709	2849.45
1753.927	2753.82
1757.144	2800.67
1760.361	2842.59
1763.578	2834.66
1766.795	2771.87
1770.011	2779.88
1773.227	2821.49
1776.443	2856.43
1779.658	2901.69
1782.874	2842
1786.089	2821.72
1789.303	2824.33
1792.518	2826.99
1795.732	2813.93
1798.945	2824.48
1802.159	2874.49
1805.372	2775.62
1808.585	2760.79
1811.797	2760.15
1815.01	2812.04
1818.222	2813.98
1821.434	2786.51
1824.645	2847.91
1827.856	2831.32
1831.067	2871.02
1834.278	2825.27
1837.488	2811.84
1840.698	2962.71
1843.908	2886.24
1847.117	2846.64
1850.326	2728.14
1853.535	2835.16
1856.744	2859.97
1859.952	2769.15
1863.16	2772.55
1866.368	2792.81
1869.575	2900.25
1872.782	2783.08
1875.989	2719.06
1879.196	2806.17
1882.402	2799.8
1885.608	2842.3
1888.814	2740.38
1892.019	2633.98
1895.224	2689.01
1898.429	2669.56
1901.634	2646.72
1904.838	2621.99
1908.042	2670.41
1911.246	2679.97
1914.449	2608.21
1917.652	2605.01
1920.855	2585.47
1924.058	2638.05
1927.26	2675.03
1930.462	2703.21
1933.664	2728.08
1936.865	2666.32
1940.066	2674.77
1943.267	2625.49
1946.467	2639.88
1949.668	2667.59
1952.868	2735.12
1956.067	2713.42
1959.267	2642.85
1962.466	2671.57
1965.665	2654.36
1968.863	2651.52
1972.061	2666.59
1975.259	2667.38
1978.457	2744.93
1981.654	2704.13
1984.852	2702.98
1988.048	2636.83
1991.245	2639.4
1994.441	2724.91
1997.637	2709.37
2000.833	2691.87
2004.028	2729.52
2007.223	2781.26
2010.418	2756.62
2013.613	2716.81
2016.807	2685.71
2020.001	2697.7
2023.194	2740.65
2026.388	2716.47
2029.581	2664.64
2032.774	2714.36
2035.966	2719.59
2039.158	2649.95
2042.35	2681.69
2045.542	2606.52
2048.733	2707.73
2051.924	2730.23
2055.115	2756.64
2058.306	2700.31
2061.496	2760.73
2064.686	2825.33
2067.875	2738.36
2071.065	2750.62
2074.254	2780.92
2077.442	2731.28
2080.631	2821.26
2083.819	2712.45
2087.007	2695.27
2090.195	2666.93
2093.382	2702.14
2096.569	2681.27
2099.756	2634.18
2102.942	2659.35
2106.128	2668.15
2109.314	2658.95
2112.5	2621.96
2115.685	2597.93
2118.87	2608.78
2122.055	2674.89
2125.239	2639.6
2128.424	2614.06
2131.608	2717.57
2134.791	2695.61
2137.974	2753.99
2141.157	2740.58
2144.34	2691.88
2147.523	2706.27
2150.705	2721.18
2153.887	2700
2157.068	2648
2160.25	2649.98
2163.431	2687.91
2166.611	2634.28
2169.792	2652.17
2172.972	2545.6
2176.152	2625.25
2179.331	2657.6
2182.511	2640.58
2185.69	2672.35
2188.868	2666.26
2192.047	2721.87
2195.225	2711.57
2198.403	2661.81
2201.58	2650.88
2204.758	2648.23
2207.935	2730.39
2211.111	2619.05
2214.288	2604.22
2217.464	2643.67
2220.64	2612.63
2223.815	2670.23
2226.991	2590.79
2230.166	2610.94
2233.34	2639.98
2236.515	2668.28
2239.689	2740.08
2242.863	2682.45
2246.036	2737.11
2249.209	2740.07
2252.382	2774.91
2255.555	2759.28
2258.727	2695.03
2261.9	2736.81
2265.071	2728.01
2268.243	2732.73
2271.414	2663.45
2274.585	2623.91
2277.756	2696.18
2280.926	2652.54
2284.096	2692.26
2287.266	2597.49
2290.436	2657.49
2293.605	2685.73
2296.774	2716.28
2299.942	2741.25
2303.111	2754.01
2306.279	2804.19
2309.447	2789.43
2312.614	2761.15
2315.781	2780.4
2318.948	2749.8
2322.115	2789.65
2325.281	2689.47
2328.447	2711.01
2331.613	2685.87
2334.779	2654.51
2337.944	2658.11
2341.109	2655.37
2344.274	2641.34
2347.438	2606.28
2350.602	2629.44
2353.766	2647.6
2356.929	2633.49
2360.092	2675.52
2363.255	2626.02
2366.418	2557.95
2369.58	2673.44
2372.742	2458.3
2375.904	2472.02
2379.066	2446.13
2382.227	2484.54
2385.388	2446.63
2388.548	2372.3
2391.709	2427.41
2394.869	2407.28
2398.029	2509.05
2401.188	2523.19
2404.347	2453.7
2407.506	2599.13
2410.665	2627.04
2413.823	2634.23
2416.981	2589.99
2420.139	2623.87
2423.296	2672.7
2426.453	2646.73
2429.61	2669.06
2432.767	2599.33
2435.923	2638.32
2439.079	2603
2442.235	2652.78
2445.391	2580.45
2448.546	2610.52
2451.701	2658.56
2454.855	2629.37
2458.009	2684.06
2461.163	2686.42
2464.317	2645.11
2467.471	2679.07
2470.624	2719.76
2473.777	2689.15
2476.929	2702.55
2480.082	2729.57
2483.234	2690.82
2486.385	2648.67
2489.537	2640.82
2492.688	2598.81
2495.839	2617
2498.989	2629.31
2502.14	2614.87
2505.29	2595.67
2508.439	2625.06
2511.589	2545.45
2514.738	2559.23
2517.887	2590.39
2521.035	2654.4
2524.183	2635.08
2527.331	2616.24
2530.479	2588.6
2533.627	2600.03
