Data from C_3_HIR_WI_4N_Splice17_13-10-25-303.txt Node
Date: Sat Mar 14 13:10:25 EDT 2020
User: sa697716
Spectrometer: FLMS03696
Trigger mode: 0
Integration Time (sec): 3.180400E-1
Scans to average: 20
Electric dark correction enabled: true
Nonlinearity correction enabled: true
Boxcar width: 5
XAxis mode: Wavelengths
Number of Pixels in Spectrum: 2048
>>>>>Begin Spectral Data<<<<<
187.83	-303120.54
188.298	2227.07
188.766	1185.99
189.233	1090.07
189.701	1563.59
190.169	2113.8
190.636	852.38
191.104	709.38
191.571	130.33
192.039	-38.14
192.506	28.74
192.974	585.63
193.441	-984.51
193.908	-245.99
194.375	-53.8
194.842	64.86
195.31	160.98
195.777	225.58
196.244	441.45
196.711	477.18
197.177	568.22
197.644	799.55
198.111	1335.71
198.578	1872.04
199.045	1478.35
199.511	2382.09
199.978	2750.57
200.445	2297.4
200.911	2485.66
201.378	2766.88
201.844	2497.31
202.31	4302.86
202.777	4474.03
203.243	2482.28
203.709	2337.57
204.176	2750.24
204.642	2272.01
205.108	2110.19
205.574	1727.53
206.04	1572.14
206.506	1464.55
206.972	1377.64
207.438	1312.63
207.903	1496.59
208.369	1324.77
208.835	1336.29
209.301	1408.36
209.766	1433.22
210.232	1422.32
210.697	1748.76
211.163	2152.41
211.628	3223.56
212.094	2734.86
212.559	3403.47
213.024	2118.22
213.49	2581.07
213.955	2483.35
214.42	2399.88
214.885	2242.08
215.35	2136.54
215.815	2093.83
216.28	2230.5
216.745	1810.9
217.21	1943.09
217.675	1769.3
218.14	1965.56
218.604	2163.81
219.069	2458.9
219.534	2581.74
219.998	2950.27
220.463	3530.5
220.927	4275.11
221.392	3988.73
221.856	4020.18
222.32	5006.29
222.785	6154.33
223.249	7701.52
223.713	8553.74
224.177	8499.52
224.642	10831.09
225.106	13338.75
225.57	14556.31
226.034	10827.67
226.497	16478.46
226.961	14887.23
227.425	17318.02
227.889	19121.92
228.353	19113.5
228.816	39388.16
229.28	37664.96
229.744	31659.83
230.207	19208.21
230.671	18879.45
231.134	31093.39
231.597	35813.81
232.061	35691.1
232.524	34743.63
232.987	23892.09
233.45	21505.96
233.914	19320.68
234.377	19778.59
234.84	18115.65
235.303	21339.46
235.766	23780.95
236.229	24538.15
236.691	15442.65
237.154	17324.15
237.617	13037.95
238.08	13344.74
238.542	15593.43
239.005	11148.53
239.468	11078.77
239.93	10431.66
240.393	9496.72
240.855	8340.9
241.317	8539.24
241.78	10376.08
242.242	10741.81
242.704	11637.36
243.166	10150.41
243.629	9224.97
244.091	10596.86
244.553	11601.11
245.015	12489.7
245.477	16153.48
245.939	23629.28
246.4	25083.54
246.862	24392.4
247.324	22984.38
247.786	25632.06
248.247	33527.06
248.709	34562
249.17	25887.51
249.632	24457.84
250.093	28335.66
250.555	24432.59
251.016	14948.47
251.477	14192.73
251.939	15309.53
252.4	16058.21
252.861	19075.52
253.322	17762
253.783	21144.71
254.244	27432.02
254.705	21576.26
255.166	19174.95
255.627	18876.9
256.088	26616.29
256.549	28263.43
257.009	24344.08
257.47	29495.75
257.931	24032.09
258.391	18025.82
258.852	18558.68
259.312	19456.88
259.773	24037.7
260.233	20336.61
260.694	17179.3
261.154	19486.56
261.614	15646.46
262.074	13980.92
262.534	14557.42
262.994	13740.4
263.455	18287.49
263.915	15440.46
264.374	14545.67
264.834	15877.37
265.294	17588.64
265.754	18215.35
266.214	17241.57
266.673	16166.87
267.133	20404.06
267.593	20218.62
268.052	24742.62
268.512	21518.27
268.971	25945.71
269.431	28449.25
269.89	25454.15
270.349	38150.55
270.809	42510.65
271.268	38175.12
271.727	85510.66
272.186	55400.38
272.645	41528.29
273.104	29901.93
273.563	43263.78
274.022	33955.37
274.481	28896.9
274.94	22292.09
275.399	16567.15
275.857	19270.16
276.316	26064.94
276.775	23188.4
277.233	22838.89
277.692	21421.04
278.15	24254.37
278.609	24990.81
279.067	23140.93
279.525	21506.14
279.984	27726.48
280.442	33263.9
280.9	32851
281.358	21612.29
281.816	20158.31
282.274	19732.85
282.732	20331.73
283.19	20413.2
283.648	17574.78
284.106	18718.51
284.564	18985.88
285.021	17607.74
285.479	13136.51
285.937	11919.45
286.394	10467.36
286.852	10763.23
287.309	11279.89
287.767	10930.14
288.224	10401.84
288.682	11415.13
289.139	12528.99
289.596	11471.61
290.053	11926.6
290.511	15022.95
290.968	18242.81
291.425	24742.95
291.882	20613.7
292.339	17968.2
292.796	17799.56
293.252	16743.89
293.709	13340.21
294.166	11954.92
294.623	13201.38
295.079	12651.98
295.536	12744.66
295.992	11560.58
296.449	11417.11
296.905	11856.46
297.362	11386.68
297.818	11962.66
298.274	12423.94
298.731	12627.62
299.187	12481.67
299.643	13404.74
300.099	16209.41
300.555	17745.81
301.011	14809.89
301.467	14303.45
301.923	16719.76
302.379	16307.53
302.835	16019.83
303.291	16031.82
303.746	18239.9
304.202	23069.52
304.658	23128.19
305.113	15564.26
305.569	15248.09
306.024	16260.21
306.479	15438.6
306.935	13034.39
307.39	14222.83
307.845	13139.61
308.301	13213.46
308.756	12860.3
309.211	12365.79
309.666	12661.04
310.121	15733.35
310.576	15938.84
311.031	15813.88
311.486	18115.54
311.94	18087.1
312.395	24205.9
312.85	45497.96
313.305	223454.22
313.759	1158480.31
314.214	84057.62
314.668	66675.34
315.123	55989.18
315.577	20144.33
316.032	17896.7
316.486	22419.71
316.94	17687.98
317.394	12323.9
317.849	9562.97
318.303	9045.09
318.757	8536.84
319.211	9438.46
319.665	8261.81
320.119	8372.14
320.572	11989.36
321.026	11232.89
321.48	9345.2
321.934	10160.67
322.387	10160.97
322.841	10994.18
323.295	9933.93
323.748	11429.74
324.202	11578.1
324.655	13919.26
325.108	19481.42
325.562	13765.69
326.015	16339.27
326.468	12379.04
326.921	13873.99
327.374	12962.3
327.827	13513.44
328.28	15244.73
328.733	10217.7
329.186	8991.7
329.639	8552.41
330.092	7185.38
330.545	6850.28
330.997	6909.73
331.45	7552.78
331.903	8856.88
332.355	15200.55
332.808	14766.81
333.26	12194.35
333.713	13253.83
334.165	13360.27
334.617	17841.37
335.069	14413.76
335.522	26024.03
335.974	28813.87
336.426	26321.37
336.878	18194.14
337.33	9230.92
337.782	8981.67
338.234	11275.36
338.686	13485.34
339.137	15972.29
339.589	15038.03
340.041	11803.08
340.493	10133.27
340.944	10369.84
341.396	11173.96
341.847	9417.24
342.299	11145.63
342.75	13628.64
343.201	11850.99
343.653	13638.13
344.104	16734.93
344.555	13179.87
345.006	20476.84
345.457	15719.26
345.908	12498.2
346.359	11744.52
346.81	9572.66
347.261	10076.48
347.712	9911.29
348.163	10615.68
348.613	10770.35
349.064	10070.18
349.515	8816.53
349.965	9051.03
350.416	10885.01
350.866	11955.02
351.317	13476.44
351.767	22284.81
352.217	28089.02
352.668	23359.46
353.118	21368.42
353.568	20510.78
354.018	16234.09
354.468	17152.49
354.918	12305.41
355.368	10752.91
355.818	15156.31
356.268	43661.06
356.718	182777.75
357.168	45492.82
357.617	22766.59
358.067	25452.38
358.517	23928.09
358.966	28120.04
359.416	31606
359.865	34103.48
360.315	40608.83
360.764	19000.77
361.213	10660.36
361.663	10078.98
362.112	12452.41
362.561	20114.56
363.01	15142.87
363.459	12717.51
363.908	13726.86
364.357	11663.18
364.806	19708.74
365.255	13569.38
365.703	12420.1
366.152	12420.33
366.601	10076.72
367.05	8196.2
367.498	7448.5
367.947	7770.36
368.395	8056.17
368.844	7133.14
369.292	8555.79
369.74	5929.17
370.189	9050.98
370.637	10622.23
371.085	9160.1
371.533	11123.01
371.981	10690.62
372.429	10220.67
372.877	10644.46
373.325	8908.07
373.773	9060.3
374.221	8069.81
374.669	9940.55
375.116	8594.82
375.564	8639.42
376.012	9651.98
376.459	7985.78
376.907	9516.78
377.354	11497.31
377.801	10753.93
378.249	12352.83
378.696	15760.36
379.143	19060.62
379.591	20372.81
380.038	34472.42
380.485	24905.89
380.932	26809.11
381.379	24590.09
381.826	18183.36
382.273	12874.11
382.72	11229.2
383.166	10983.79
383.613	7153.63
384.06	6466.97
384.506	7507.57
384.953	5517.66
385.4	5572.29
385.846	4901.72
386.292	4771.2
386.739	4672.55
387.185	4651.71
387.631	4665.94
388.078	4571.72
388.524	4908.42
388.97	4555.11
389.416	3814
389.862	4085.19
390.308	3882.25
390.754	3974.12
391.2	4337.73
391.645	4486.67
392.091	4341.34
392.537	4248.58
392.983	4275.67
393.428	4253.29
393.874	4590.12
394.319	4664.24
394.765	4491.63
395.21	4692.26
395.655	4482.75
396.101	4291.42
396.546	3952.93
396.991	4071.52
397.436	3866.42
397.881	3822.87
398.326	3715.93
398.771	3613.58
399.216	3241.61
399.661	2991.32
400.106	3052.19
400.551	3194.36
400.995	2917.17
401.44	2930.04
401.885	2790.51
402.329	2855.14
402.774	2770.31
403.218	2709.58
403.663	2638.27
404.107	2744.36
404.551	2797.82
404.995	2604.73
405.44	2545.59
405.884	2623.01
406.328	2576.03
406.772	2602.42
407.216	2407.56
407.66	2365.81
408.104	2291.43
408.547	2189.65
408.991	2154.44
409.435	2108.7
409.879	2108.97
410.322	2106.72
410.766	2061.94
411.209	1988.94
411.653	1938.4
412.096	1926.86
412.54	1954.04
412.983	1964.09
413.426	1989.79
413.869	2011.24
414.312	1990.48
414.756	1935.31
415.199	1867.62
415.642	1832.25
416.085	1849.51
416.527	1854.42
416.97	1896.86
417.413	1813.09
417.856	1804.94
418.298	1794.92
418.741	1786.98
419.184	1788.66
419.626	1868.69
420.069	1870.28
420.511	1884.83
420.953	1854
421.396	1846.35
421.838	1810.24
422.28	1864.21
422.722	1883.77
423.164	1925.74
423.606	1914.05
424.048	1930.69
424.49	1852.33
424.932	1863.97
425.374	1852.44
425.816	1892.82
426.258	1923.12
426.699	1926.99
427.141	1869.16
427.582	1874.77
428.024	1852.05
428.465	1841.29
428.907	1806.29
429.348	1807.11
429.789	1821.47
430.231	1798.55
430.672	1838.47
431.113	1819.23
431.554	1832.5
431.995	1837.71
432.436	1824.37
432.877	1830.89
433.318	1833.54
433.759	1854.24
434.2	1870.76
434.64	1870.87
435.081	1893.95
435.522	1816.33
435.962	1775.11
436.403	1757.49
436.843	1807.65
437.284	1789.11
437.724	1757.7
438.164	1779.51
438.604	1754
439.045	1700.5
439.485	1645.68
439.925	1631.71
440.365	1611.58
440.805	1608.56
441.245	1603.57
441.685	1553.34
442.125	1551.29
442.564	1567.89
443.004	1534.8
443.444	1537.68
443.883	1547.57
444.323	1552.17
444.762	1571.82
445.202	1603.8
445.641	1639.03
446.081	1643.25
446.52	1668.07
446.959	1664.96
447.398	1637.52
447.837	1636.83
448.276	1625.13
448.716	1653.98
449.154	1674.71
449.593	1632.1
450.032	1626.65
450.471	1600.71
450.91	1602.11
451.349	1596.34
451.787	1590.27
452.226	1611.71
452.664	1606.85
453.103	1604.77
453.541	1601.99
453.98	1593.7
454.418	1607.09
454.856	1578.16
455.295	1573.73
455.733	1581.79
456.171	1589.33
456.609	1583.26
457.047	1581.77
457.485	1600.15
457.923	1599.27
458.361	1576.49
458.798	1584.29
459.236	1583.23
459.674	1600.44
460.111	1611.53
460.549	1600.7
460.987	1598.88
461.424	1601.45
461.862	1597.71
462.299	1578.17
462.736	1581.81
463.173	1590.48
463.611	1571.17
464.048	1567.01
464.485	1584.91
464.922	1579.35
465.359	1581.61
465.796	1560
466.233	1559.17
466.67	1552.94
467.106	1559.15
467.543	1555.79
467.98	1549.74
468.416	1528.6
468.853	1535.64
469.29	1505.78
469.726	1502.69
470.162	1474.06
470.599	1478.66
471.035	1479.22
471.471	1457.41
471.907	1465.01
472.344	1467.17
472.78	1476.87
473.216	1502.32
473.652	1488.25
474.088	1488.12
474.523	1485.89
474.959	1505.41
475.395	1495.15
475.831	1486.56
476.266	1495.68
476.702	1491.33
477.138	1476.03
477.573	1473.77
478.008	1468.89
478.444	1474.54
478.879	1484.75
479.314	1487.51
479.75	1481.44
480.185	1485.13
480.62	1492.34
481.055	1493.38
481.49	1494.28
481.925	1501.9
482.36	1505.13
482.795	1522.43
483.229	1536.06
483.664	1542.2
484.099	1526.94
484.534	1532.56
484.968	1531.09
485.403	1524.6
485.837	1513.51
486.271	1503.95
486.706	1504.36
487.14	1494.18
487.574	1479.52
488.009	1476.24
488.443	1469.71
488.877	1484.64
489.311	1488.37
489.745	1503.38
490.179	1513.64
490.613	1535.88
491.046	1546.77
491.48	1554.64
491.914	1553.37
492.348	1562.6
492.781	1569.19
493.215	1572.89
493.648	1580.76
494.082	1595.79
494.515	1596.22
494.948	1610.39
495.382	1620.63
495.815	1625.79
496.248	1633.35
496.681	1656.48
497.114	1673.65
497.547	1687.54
497.98	1705.75
498.413	1705.78
498.846	1714.6
499.279	1726.15
499.711	1731.49
500.144	1730.59
500.577	1747.31
501.009	1763.56
501.442	1777.38
501.874	1777.68
502.306	1784.24
502.739	1800.36
503.171	1836.72
503.603	1848.04
504.036	1868.01
504.468	1877.15
504.9	1898.93
505.332	1911.88
505.764	1921.04
506.196	1936.03
506.627	1965.15
507.059	1987.73
507.491	2005.26
507.923	1997.24
508.354	2024.27
508.786	2044.91
509.217	2079.7
509.649	2107.09
510.08	2141.44
510.512	2167.9
510.943	2190.31
511.374	2204.71
511.805	2238.98
512.237	2270.44
512.668	2327.23
513.099	2367.48
513.53	2400.4
513.961	2415.43
514.391	2454.06
514.822	2494.87
515.253	2544.74
515.684	2578.19
516.114	2622.64
516.545	2653.37
516.975	2696.39
517.406	2725.32
517.836	2731.96
518.267	2752.88
518.697	2800.18
519.127	2821.13
519.558	2845.85
519.988	2861.79
520.418	2889.79
520.848	2930.95
521.278	2952.96
521.708	2947.01
522.138	2972.42
522.567	3030.55
522.997	3071.35
523.427	3089.57
523.857	3107.16
524.286	3115.59
524.716	3135.03
525.145	3163.07
525.575	3177.08
526.004	3199.17
526.433	3220.09
526.863	3214.47
527.292	3191.82
527.721	3206.03
528.15	3226.33
528.579	3237.18
529.008	3263.88
529.437	3308.54
529.866	3329.75
530.295	3355.58
530.724	3369.72
531.152	3413.01
531.581	3433.83
532.01	3463.7
532.438	3475.17
532.867	3497.84
533.295	3526.47
533.723	3532.87
534.152	3526.03
534.58	3525.32
535.008	3495.16
535.436	3497.03
535.865	3510.98
536.293	3533.87
536.721	3554.79
537.149	3591.02
537.576	3582.33
538.004	3599.27
538.432	3609.77
538.86	3604.02
539.287	3615.7
539.715	3638.54
540.143	3644.8
540.57	3639.99
540.998	3637.6
541.425	3599.74
541.852	3570.89
542.28	3581.02
542.707	3560
543.134	3544.43
543.561	3545.89
543.988	3541.36
544.415	3548.69
544.842	3544.99
545.269	3537.37
545.696	3546.95
546.123	3581.95
546.549	3569.18
546.976	3551.02
547.403	3557.08
547.829	3566.78
548.256	3578.15
548.682	3577.47
549.108	3570
549.535	3577.35
549.961	3588.19
550.387	3566.94
550.813	3559.71
551.24	3577.73
551.666	3585.85
552.092	3574.14
552.518	3565.99
552.943	3555.94
553.369	3571.64
553.795	3582.66
554.221	3584.46
554.646	3576.39
555.072	3595.09
555.498	3600.94
555.923	3611.98
556.349	3632.84
556.774	3640.31
557.199	3637.45
557.625	3646.33
558.05	3631.94
558.475	3650.39
558.9	3645.3
559.325	3626.76
559.75	3614.53
560.175	3603.72
560.6	3592.96
561.025	3590.7
561.449	3593.22
561.874	3602
562.299	3603.68
562.723	3612.04
563.148	3586.59
563.572	3589.22
563.997	3604.11
564.421	3610.73
564.846	3604.1
565.27	3602.95
565.694	3587.63
566.118	3601.43
566.542	3606.7
566.966	3587.39
567.39	3569.1
567.814	3538.08
568.238	3527.96
568.662	3530.87
569.086	3529.81
569.509	3543.15
569.933	3513.28
570.357	3504.36
570.78	3468.08
571.204	3445.95
571.627	3431.89
572.05	3435.91
572.474	3442.4
572.897	3425.33
573.32	3416.31
573.743	3403.97
574.166	3371.04
574.589	3376.5
575.012	3363.43
575.435	3364
575.858	3349.53
576.281	3331.76
576.704	3307.72
577.126	3293.26
577.549	3280.61
577.972	3270.36
578.394	3256.74
578.817	3247.89
579.239	3219.41
579.661	3203.09
580.084	3179.79
580.506	3162.95
580.928	3164.46
581.35	3149.74
581.772	3145.41
582.194	3122.07
582.616	3098.27
583.038	3069.39
583.46	3050.44
583.882	3040.9
584.303	3045.63
584.725	3033.62
585.147	3021.51
585.568	3024.38
585.99	3024.35
586.411	3010.47
586.833	3015.13
587.254	2997.58
587.675	3009.35
588.096	3018.24
588.518	2995.42
588.939	2950.72
589.36	2934.84
589.781	2916.15
590.202	2861.79
590.623	2852.42
591.043	2859.54
591.464	2842.43
591.885	2837.48
592.305	2827.36
592.726	2802.55
593.147	2804.41
593.567	2795.47
593.987	2781.39
594.408	2769.64
594.828	2765.01
595.248	2749.55
595.669	2711.14
596.089	2695.94
596.509	2685.23
596.929	2658.04
597.349	2655.27
597.769	2631.44
598.189	2613.27
598.608	2608.98
599.028	2607.22
599.448	2603.2
599.867	2576.79
600.287	2566.88
600.706	2556.26
601.126	2534.65
601.545	2529.58
601.965	2524.45
602.384	2514.01
602.803	2516.62
603.222	2506.09
603.641	2491.76
604.061	2482.23
604.48	2472.03
604.898	2481.53
605.317	2485.77
605.736	2482.79
606.155	2470.34
606.574	2447.06
606.992	2447.64
607.411	2431.38
607.829	2409.62
608.248	2397.97
608.666	2389.56
609.085	2381.91
609.503	2360.44
609.921	2342.88
610.339	2340.67
610.758	2333.78
611.176	2319.9
611.594	2299.29
612.012	2289.79
612.43	2290.17
612.847	2293.85
613.265	2286.09
613.683	2286.08
614.101	2282.9
614.518	2271.08
614.936	2249.64
615.353	2221.93
615.771	2214.67
616.188	2213.58
616.606	2205.56
617.023	2194.11
617.44	2171.88
617.857	2163.18
618.274	2150.82
618.691	2139.77
619.108	2123.13
619.525	2111.98
619.942	2119.91
620.359	2119.98
620.776	2106.12
621.192	2093.51
621.609	2080.46
622.026	2084.09
622.442	2084.31
622.859	2081.35
623.275	2062.87
623.691	2067
624.108	2078.83
624.524	2095.96
624.94	2090.01
625.356	2098.23
625.772	2113.91
626.188	2129.64
626.604	2126.13
627.02	2113.78
627.436	2106.95
627.852	2113.81
628.268	2128.3
628.683	2109.14
629.099	2090.82
629.514	2081.19
629.93	2086.78
630.345	2092.02
630.761	2084.45
631.176	2089.13
631.591	2080.54
632.007	2072.2
632.422	2069.53
632.837	2051.93
633.252	2048.25
633.667	2034.3
634.082	2022.01
634.497	2003.53
634.911	1974.46
635.326	1970.83
635.741	1945.08
636.155	1932.1
636.57	1933.74
636.984	1933.73
637.399	1935.42
637.813	1936.07
638.228	1935
638.642	1940.1
639.056	1923.96
639.47	1925.05
639.884	1912.94
640.298	1904.44
640.712	1903.6
641.126	1886.63
641.54	1876.7
641.954	1872.3
642.368	1856.16
642.781	1843.58
643.195	1817.77
643.609	1819.74
644.022	1809.85
644.436	1801.51
644.849	1780.94
645.262	1760.09
645.676	1759.82
646.089	1747.6
646.502	1720.05
646.915	1708.55
647.328	1682.1
647.741	1680.71
648.154	1661.84
648.567	1656.52
648.98	1636.93
649.393	1640.21
649.805	1636.96
650.218	1626.85
650.631	1604.74
651.043	1597.61
651.456	1590.45
651.868	1591.47
652.28	1614.39
652.693	1625.39
653.105	1624.05
653.517	1625.36
653.929	1612.94
654.341	1610.57
654.753	1584.13
655.165	1588.74
655.577	1582.5
655.989	1573.58
656.401	1562.62
656.813	1509.75
657.224	1488.96
657.636	1460.01
658.047	1446.66
658.459	1429.01
658.87	1426.4
659.282	1416.56
659.693	1388.6
660.104	1368.62
660.515	1349.72
660.926	1348.73
661.338	1346.6
661.749	1338.1
662.159	1323.36
662.57	1316.69
662.981	1309.49
663.392	1296.83
663.803	1302.49
664.213	1298.11
664.624	1290.8
665.035	1295.88
665.445	1273.27
665.855	1259.87
666.266	1244.8
666.676	1239.35
667.086	1223.36
667.497	1219.23
667.907	1206.89
668.317	1189.37
668.727	1179.31
669.137	1177.62
669.547	1168.2
669.956	1168.22
670.366	1167.41
670.776	1165.83
671.186	1168.55
671.595	1169.22
672.005	1170.84
672.414	1166.39
672.824	1161.29
673.233	1166.46
673.642	1165.7
674.052	1168.36
674.461	1169.14
674.87	1172.98
675.279	1166.35
675.688	1165.37
676.097	1163.61
676.506	1156.03
676.915	1174.84
677.323	1175.58
677.732	1170.77
678.141	1167.77
678.549	1149.26
678.958	1145.18
679.366	1140.74
679.775	1145.16
680.183	1156.28
680.592	1163.62
681	1168.42
681.408	1154.73
681.816	1162.15
682.224	1170.7
682.632	1179.86
683.04	1216.96
683.448	1241.34
683.856	1270.39
684.264	1299.77
684.671	1323.59
685.079	1357
685.487	1396.48
685.894	1458.18
686.302	1503.67
686.709	1536.23
687.116	1578.49
687.524	1611.09
687.931	1640.97
688.338	1671.39
688.745	1700.56
689.152	1735.22
689.559	1781.11
689.966	1824.61
690.373	1838.28
690.78	1875.08
691.187	1939.11
691.593	1983.77
692	2019.63
692.407	2080.81
692.813	2158.67
693.22	2216.53
693.626	2280.97
694.032	2331.9
694.439	2415.47
694.845	2481.35
695.251	2566.66
695.657	2640.03
696.063	2751.31
696.469	2833.16
696.875	2906.22
697.281	2940.84
697.687	2987.53
698.093	3021.46
698.498	3098.05
698.904	3153.01
699.31	3244.14
699.715	3305.08
700.12	3402.24
700.526	3420.78
700.931	3498.82
701.337	3559.89
701.742	3602.07
702.147	3703.15
702.552	3743.67
702.957	3817.95
703.362	3847.86
703.767	3885.84
704.172	3939.74
704.577	3893.07
704.981	3949.95
705.386	3971.83
705.791	3965.02
706.195	4053.96
706.6	4067.16
707.004	4162.71
707.408	4126.91
707.813	4160.22
708.217	4149.35
708.621	4154.41
709.025	4267.14
709.43	4269.67
709.834	4344.25
710.237	4427.45
710.641	4410.31
711.045	4437.01
711.449	4429.44
711.853	4461.58
712.256	4508.56
712.66	4547.55
713.064	4625.86
713.467	4659.51
713.87	4765.99
714.274	4780.03
714.677	4862.54
715.08	4997.16
715.484	5131.34
715.887	5295.88
716.29	5451.68
716.693	5608.69
717.096	5803.9
717.499	5889.59
717.901	5884.17
718.304	5902.42
718.707	5944
719.109	5865.79
719.512	5866.64
719.915	5758.69
720.317	5733.31
720.719	5812.99
721.122	5809.87
721.524	5774.69
721.926	5743.07
722.328	5855.29
722.731	5835.35
723.133	5848.88
723.535	6037.94
723.937	6039.18
724.338	6074.3
724.74	6103.45
725.142	6023.47
725.544	6020.69
725.945	6049.99
726.347	6048.03
726.748	6041.12
727.15	6063.18
727.551	6027.69
727.952	6000.94
728.354	5975.04
728.755	5987.19
729.156	5959.87
729.557	5973.06
729.958	5861.66
730.359	5830.06
730.76	5842.32
731.161	5811.39
731.562	5815.28
731.962	5847.84
732.363	5802.94
732.763	5758.16
733.164	5819.35
733.564	5757.26
733.965	5660.77
734.365	5632.81
734.766	5674.56
735.166	5630.43
735.566	5564.95
735.966	5532.04
736.366	5525.74
736.766	5458.91
737.166	5497.89
737.566	5454.5
737.966	5427.56
738.365	5473.93
738.765	5467.45
739.165	5380.85
739.564	5355.01
739.964	5412.47
740.363	5368.57
740.763	5371.35
741.162	5361.15
741.561	5325.87
741.96	5275.45
742.36	5304.75
742.759	5314.35
743.158	5363.21
743.557	5381.84
743.955	5429.64
744.354	5378.03
744.753	5442.25
745.152	5395.78
745.55	5460.21
745.949	5453.17
746.348	5455.19
746.746	5471.27
747.144	5422.14
747.543	5394.38
747.941	5447.48
748.339	5362.87
748.737	5352.34
749.136	5337.54
749.534	5406.92
749.932	5368.72
750.33	5393.39
750.727	5455.38
751.125	5427.26
751.523	5409.51
751.921	5455.71
752.318	5416.92
752.716	5481.68
753.113	5494.3
753.511	5521.81
753.908	5518.47
754.305	5494.68
754.703	5561.1
755.1	5624.74
755.497	5683.02
755.894	5879.89
756.291	6036.64
756.688	6321.12
757.085	6678.11
757.482	7172.62
757.878	7680.29
758.275	8100.88
758.672	8735.3
759.068	9193.23
759.465	9896.74
759.861	10815.28
760.258	11877.09
760.654	12342.87
761.05	12138.1
761.447	11591.89
761.843	10885.91
762.239	10172.21
762.635	9911.81
763.031	9644.82
763.427	9213.08
763.822	8753.46
764.218	8312.45
764.614	7683.33
765.01	7297.32
765.405	7079.59
765.801	6931.98
766.196	6691.17
766.592	6588.26
766.987	6334.73
767.382	6178.04
767.778	6138.43
768.173	6045.23
768.568	5999.49
768.963	5890.42
769.358	5927.39
769.753	5891.97
770.148	5809.27
770.542	5818.92
770.937	5792.86
771.332	5900.32
771.726	5926.09
772.121	5853.95
772.515	5911.23
772.91	5895.01
773.304	5975.01
773.699	5903.02
774.093	5961.14
774.487	6018.13
774.881	6059.83
775.275	6050.5
775.669	5999.77
776.063	6042.77
776.457	6080.75
776.851	5996.54
777.245	5982.68
777.638	6014.25
778.032	6133.84
778.425	6088.19
778.819	6128.71
779.212	6076.13
779.606	6023.16
779.999	6040.06
780.392	6017.49
780.786	6099.68
781.179	6113.35
781.572	6150.29
781.965	6156.38
782.358	6086.45
782.751	6138.45
783.143	6077.29
783.536	6143.21
783.929	6181.96
784.322	6290.17
784.714	6309.28
785.107	6290.75
785.499	6354.49
785.891	6318.69
786.284	6278.5
786.676	6412.61
787.068	6373.31
787.46	6411.04
787.852	6416.04
788.245	6489.35
788.636	6503.71
789.028	6556.86
789.42	6582.64
789.812	6574.91
790.204	6657.29
790.595	6747
790.987	6530.04
791.378	6541.01
791.77	6665.15
792.161	6791.76
792.553	6835.82
792.944	6712.12
793.335	6631.25
793.726	6693.41
794.117	6772.82
794.508	6903.61
794.899	6866.77
795.29	7003.67
795.681	7053.77
796.072	6897.03
796.463	6702.16
796.853	6701.85
797.244	6847.22
797.634	6867.19
798.025	6853.56
798.415	6851.56
798.806	6927.14
799.196	6994.6
799.586	7024.97
799.976	6967.73
800.366	7175.84
800.756	7394.13
801.146	7334.83
801.536	7343.96
801.926	7401.07
802.316	7412.59
802.706	7471.39
803.095	7339.64
803.485	7428.61
803.874	7457.43
804.264	7697.22
804.653	7660.2
805.043	7788.87
805.432	7883.84
805.821	7871.75
806.21	7877.5
806.599	7971.56
806.988	7988.56
807.377	8066.95
807.766	8160.37
808.155	8401.32
808.544	8121.85
808.933	8100.71
809.321	8043.17
809.71	8280.46
810.098	8382.94
810.487	8756.37
810.875	9143.13
811.264	9106.57
811.652	9309.54
812.04	9376.72
812.428	9453.13
812.816	10060.23
813.204	10356.8
813.592	10767.04
813.98	10981.37
814.368	10835.59
814.756	11190.74
815.144	11064.4
815.531	11421.77
815.919	11311.4
816.306	11533.52
816.694	11244.13
817.081	11278.05
817.469	11573.92
817.856	11573.98
818.243	11808.3
818.63	12158.11
819.017	11807.69
819.404	11848.5
819.791	12137.45
820.178	12616.82
820.565	12797.81
820.952	13560.67
821.339	13126.96
821.725	13253
822.112	12618.93
822.498	12563.21
822.885	12634.32
823.271	12538.78
823.657	12888.35
824.044	12903.27
824.43	12972.54
824.816	12943.88
825.202	12576.25
825.588	13393.84
825.974	13390.53
826.36	13776.94
826.746	13771.7
827.132	14033.15
827.517	13986.04
827.903	13313.41
828.289	13328.05
828.674	12681.83
829.06	12579.81
829.445	12875.52
829.83	13149.16
830.216	13503.28
830.601	13777.77
830.986	13435.46
831.371	13321.54
831.756	13761.31
832.141	13408.28
832.526	13390.59
832.911	13600.86
833.295	13503.92
833.68	13878.91
834.065	13377.23
834.449	12647.65
834.834	12592.1
835.218	12587.73
835.603	12842.11
835.987	12661.46
836.371	13323.31
836.755	13229.16
837.139	13542.66
837.524	13726.09
837.908	13572.26
838.291	13617.01
838.675	13657.83
839.059	13816.43
839.443	13793.33
839.827	13604.84
840.21	13970.44
840.594	13835.24
840.977	13984.8
841.361	13957.05
841.744	14244.32
842.127	14111.96
842.511	14284.2
842.894	14739.34
843.277	15020.13
843.66	15435.72
844.043	15490.59
844.426	14849.89
844.809	14593.28
845.191	14611.58
845.574	14238.09
845.957	13942.56
846.339	13840.18
846.722	13417.91
847.104	13448.66
847.487	13295.35
847.869	13281.98
848.252	13482.65
848.634	13717.48
849.016	13901.03
849.398	13973.49
849.78	14611.73
850.162	14592.18
850.544	14887.04
850.926	15343.82
851.307	15255.6
851.689	15439.22
852.071	15771.76
852.452	15992.88
852.834	15964.11
853.215	16253.91
853.597	16351.54
853.978	16558.39
854.359	16893.14
854.741	16141.66
855.122	16061.93
855.503	15854.07
855.884	15970.04
856.265	15917.57
856.646	16003.13
857.026	15695
857.407	15641.39
857.788	15766.27
858.169	15972.61
858.549	15326.91
858.93	15788.92
859.31	15827.9
859.69	15980.63
860.071	15656.3
860.451	15482.15
860.831	14918.83
861.211	15792.69
861.591	16198.45
861.971	16152.2
862.351	16293.21
862.731	16556.9
863.111	16730.54
863.491	16948.72
863.87	17572.82
864.25	17809.86
864.629	17488.57
865.009	17841.96
865.388	18441.62
865.768	19724.02
866.147	19635.47
866.526	18532.99
866.905	18738.03
867.284	19790.63
867.663	18785.68
868.042	17998.58
868.421	17945.18
868.8	18248.19
869.179	18436.54
869.558	17367.87
869.936	16007.35
870.315	16287.61
870.693	16680.86
871.072	17991.4
871.45	17128.31
871.828	17345.33
872.207	18228.29
872.585	17947.4
872.963	18419.08
873.341	17777.41
873.719	17565.47
874.097	17355.86
874.475	17681.53
874.853	18082.77
875.23	17330.34
875.608	18052.41
875.986	19521.85
876.363	18671.01
876.741	19236.98
877.118	18746.64
877.495	19651.94
877.873	19961.81
878.25	20992.97
878.627	20125.75
879.004	20385.69
879.381	20264.89
879.758	19728.07
880.135	18356.4
880.512	19393.03
880.889	18866.22
881.265	18666.74
881.642	18504.53
882.019	18814.14
882.395	18434.66
882.772	19164.56
883.148	18328.45
883.524	18254.68
883.901	18133.65
884.277	18394.81
884.653	18273.42
885.029	18794.68
885.405	20804.7
885.781	20631.47
886.157	19777.14
886.532	20004.7
886.908	19984.93
887.284	22216.11
887.659	22938.13
888.035	23657.79
888.411	24258.67
888.786	24564.05
889.161	25401.36
889.537	24921.4
889.912	25706.7
890.287	25666.82
890.662	26310.65
891.037	25806.75
891.412	24039.92
891.787	23757.01
892.162	22880.41
892.536	23378.63
892.911	22474.42
893.286	21950.71
893.66	21021.96
894.035	21520.59
894.409	23375.64
894.784	22393.87
895.158	22718.56
895.532	24019.18
895.906	24638.46
896.281	25184.21
896.655	24748.69
897.029	28234.03
897.402	29379.27
897.776	32674.71
898.15	32525.19
898.524	32151.46
898.898	32534.07
899.271	36393.49
899.645	31502.18
900.018	30254.88
900.392	31377.75
900.765	31618.51
901.138	29271.38
901.511	28844.52
901.884	26493.31
902.258	24457.84
902.631	25285.84
903.003	29144
903.376	26326.88
903.749	29539.43
904.122	31623.6
904.495	34790.73
904.867	35240.71
905.24	30578.59
905.612	28435.9
905.985	29073.04
906.357	30361.9
906.729	28953.57
907.102	24692.03
907.474	23706.25
907.846	23839.95
908.218	23502.72
908.59	20773.04
908.962	20077.54
909.334	21606.05
909.705	22702.66
910.077	22027.61
910.449	22902.21
910.82	23539.26
911.192	25898.95
911.563	26922.09
911.935	28786.13
912.306	28813.91
912.677	29741.04
913.048	29430.33
913.419	31930.21
913.79	32067.58
914.161	34366.85
914.532	32877.71
914.903	30201.77
915.274	28668.05
915.645	28244.75
916.015	24864.52
916.386	23713.86
916.756	25240.97
917.127	26058.15
917.497	23287.43
917.868	25365.12
918.238	24100.89
918.608	24806.97
918.978	25344.45
919.348	26864.66
919.718	27781.34
920.088	26791.61
920.458	27860.75
920.828	29323.82
921.198	27795.73
921.567	29693.82
921.937	23005.8
922.306	23245.51
922.676	25042.37
923.045	20879.78
923.415	19829.41
923.784	18060.52
924.153	18551.19
924.522	18527.25
924.891	17411.58
925.26	18646
925.629	18198.74
925.998	20892.6
926.367	20369.76
926.736	19398.67
927.104	23086.6
927.473	24765.69
927.842	29838.09
928.21	29513.81
928.578	30959.65
928.947	29229.5
929.315	29346.33
929.683	34390.8
930.051	34631.4
930.42	40167.18
930.788	34284.61
931.156	33955.41
931.523	31809.69
931.891	29361.01
932.259	28150.64
932.627	32587.63
932.994	46065.18
933.362	38046.49
933.729	32968.51
934.097	31511.94
934.464	26622.95
934.831	30682.07
935.199	30235.93
935.566	29348.33
935.933	29693.76
936.3	35986.35
936.667	28007.94
937.034	25275.5
937.401	25009.98
937.767	21599.64
938.134	19248.5
938.501	27184.46
938.867	29023.41
939.234	49145.41
939.6	41932.67
939.967	46317.7
940.333	31044.6
940.699	26473.29
941.065	21267.12
941.431	27873.38
941.798	26928.8
942.163	35406
942.529	22133.2
942.895	20379.49
943.261	13198.9
943.627	17301.88
943.992	15159.96
944.358	15170.73
944.723	15230.64
945.089	14837.62
945.454	13741.1
945.82	14655.86
946.185	14084.55
946.55	16367.36
946.915	14663.41
947.28	17179.01
947.645	15143.91
948.01	14015.46
948.375	14599.87
948.74	17481.09
949.104	20411.16
949.469	29453.21
949.834	52002.76
950.198	49331.94
950.562	29512.29
950.927	24608.37
951.291	29655.96
951.655	25274.92
952.02	23706.54
952.384	17958.66
952.748	15649.55
953.112	15259.4
953.476	13271.91
953.839	12275.24
954.203	12156.64
954.567	15183.62
954.931	23900.85
955.294	20452.46
955.658	20548.74
956.021	34882.1
956.385	59088.59
956.748	87102.07
957.111	134851.24
957.474	151073.74
957.837	170066.68
958.2	128354.96
958.563	46204.74
958.926	31296.02
959.289	47410.05
959.652	52910.88
960.015	39740.44
960.377	57052.13
960.74	65129.03
961.102	112460.65
961.465	120937.85
961.827	65012.8
962.189	124994.79
962.552	86650.64
962.914	69342.44
963.276	45034.76
963.638	37291.45
964	36863.68
964.362	24920.15
964.724	24070.94
965.085	17181.3
965.447	14092.55
965.809	16021.11
966.17	16039.67
966.532	17353.19
966.893	15918.72
967.255	14480.49
967.616	17096.77
967.977	13727.67
968.338	15016.56
968.699	12357.31
969.061	12366.11
969.421	12444.18
969.782	13988.4
970.143	11820.05
970.504	12275.78
970.865	13985.61
971.225	14325.19
971.586	13999.88
971.946	19950.18
972.307	17298.01
972.667	22593.28
973.027	23257.14
973.388	28237.98
973.748	19162.4
974.108	20891.2
974.468	28199.57
974.828	21745.65
975.188	16715.19
975.548	15353.28
975.907	12892.29
976.267	14449.07
976.627	12163.14
976.986	12618.84
977.346	12032.96
977.705	11585.74
978.064	10532.9
978.424	8759.15
978.783	9039.1
979.142	10306.73
979.501	9880.78
979.86	10433.83
980.219	10064.95
980.578	12970.22
980.937	14515.5
981.296	12941.78
981.654	13340.66
982.013	20753.5
982.371	27022.37
982.73	25267.68
983.088	28646.13
983.447	30548.38
983.805	43694.76
984.163	91256.4
984.521	101361.39
984.879	148359.09
985.237	-241029.88
985.595	231896.09
985.953	57683.94
986.311	33235.15
986.669	19280.78
987.026	16644.65
987.384	22392.5
987.741	23151.26
988.099	16586.67
988.456	13206.4
988.814	12399.63
989.171	10789.46
989.528	10646.51
989.885	11238.43
990.242	8912.76
990.599	11118.85
990.956	9109.56
991.313	6370.45
991.67	5232.56
992.027	5572.88
992.383	4965.02
992.74	4349.54
993.096	4569.71
993.453	4745.72
993.809	4914.67
994.165	6559.77
994.522	6030.77
994.878	6641.64
995.234	8331.39
995.59	8233.31
995.946	7757.96
996.302	8836.53
996.658	10204.48
997.013	11203.18
997.369	13287.17
997.725	17079.33
998.08	11023.73
998.436	16900.89
998.791	23326.18
999.147	23333.15
999.502	25516.57
999.857	18496.16
1000.212	30159.51
1000.567	43025.89
1000.922	24813.1
1001.277	15734.84
1001.632	11647.14
1001.987	15071.28
1002.342	10830.5
1002.696	8658.62
1003.051	6944.2
1003.406	8399.18
1003.76	8366.89
1004.114	8243.63
1004.469	6943.82
1004.823	5758.78
1005.177	6236.11
1005.531	4943.05
1005.885	4385.08
1006.239	4947.78
1006.593	6219.75
1006.947	8303.16
1007.301	6211.21
1007.655	6775.54
1008.008	4984.54
1008.362	5601.87
1008.715	8004.03
1009.069	7236.47
1009.422	10919.59
1009.776	21880.64
1010.129	14552.34
1010.482	12102.21
1010.835	10194.27
1011.188	21170.88
1011.541	20013.1
1011.894	-121917.87
1012.247	358728.61
1012.6	24470.13
1012.952	15524.88
1013.305	7993.36
1013.657	5782.49
1014.01	5465.4
1014.362	4520.44
1014.715	4052.28
1015.067	3555.97
1015.419	3474.2
1015.771	3108.18
1016.123	2776.59
1016.475	2848.59
1016.827	3015.97
1017.179	3256.81
1017.531	3272.05
1017.883	3343.96
1018.234	3242.86
1018.586	4091.69
1018.938	4352.5
1019.289	5997.04
1019.64	6790.45
1019.992	6306.28
1020.343	5781.94
1020.694	4613.89
1021.045	4068.1
1021.396	4637.43
1021.747	5018.23
1022.098	5996.91
1022.449	4344.18
1022.8	4007.53
1023.151	2800.2
1023.501	2508.22
1023.852	2735.11
1024.202	2849.46
1024.553	3137.41
1024.903	3097.45
1025.253	2664.94
1025.604	2390.96
1025.954	2974.13
1026.304	3616.7
1026.654	4231.29
1027.004	6186.92
1027.354	9941.3
1027.703	9316.94
1028.053	12176.27
1028.403	17855.53
1028.753	25482.9
1029.102	34586.85
1029.452	177695.9
1029.801	7697.27
1030.15	4979.99
1030.499	4194.6
897.758	2748.13
901.051	2709.24
904.343	2742.9
907.636	2744.29
910.928	2807.6
914.22	2715.96
917.511	2722.19
920.803	2786.29
924.094	2811.35
927.384	2786.82
930.675	2751.7
933.965	2703.07
937.255	2706.87
940.544	2675.62
943.834	2604.24
947.123	2552.64
950.411	2649.28
953.7	2620.9
956.988	2590.36
960.276	2528.76
963.563	2613.53
966.851	2606.19
970.138	2668.22
973.424	2661.67
976.711	2611.12
979.997	2754.78
983.283	2786.27
986.568	2688.18
989.853	2709.22
993.138	2737.62
996.423	2820.69
999.708	2754.09
1002.992	2824.85
1006.275	2646.32
1009.559	2700.38
1012.842	2817.8
1016.125	2749.12
1019.408	2729.2
1022.69	2821.33
1025.972	2836.87
1029.254	2809.83
1032.536	2737.54
1035.817	2767.3
1039.098	2705.93
1042.379	2868.33
1045.659	2859.34
1048.939	2789.65
1052.219	2814.75
1055.498	2826.01
1058.778	2808.28
1062.057	2795.25
1065.335	2815.36
1068.614	2838.24
1071.892	2820.77
1075.17	2898.77
1078.447	2883.04
1081.724	2875.16
1085.001	2916.09
1088.278	2886.29
1091.554	2901.6
1094.83	2898.29
1098.106	2926.25
1101.382	2973.75
1104.657	2973.04
1107.932	2968.33
1111.206	2932.8
1114.481	2891.74
1117.755	2893.2
1121.029	2868.25
1124.302	2923.59
1127.575	2873.79
1130.848	2861.15
1134.121	2818.32
1137.393	2766.75
1140.665	2834.47
1143.937	2807.49
1147.208	2768.36
1150.48	2806.18
1153.75	2790.92
1157.021	2827.45
1160.291	2795.11
1163.561	2839.73
1166.831	2832.01
1170.101	2864.93
1173.37	2840.98
1176.639	2781.72
1179.907	2844.2
1183.176	2849.94
1186.444	2856.92
1189.711	2886.23
1192.979	2899.42
1196.246	2855.73
1199.513	2872.78
1202.78	2868.96
1206.046	2879.79
1209.312	2903.25
1212.578	2932.98
1215.843	2881.72
1219.108	2852.19
1222.373	2876.16
1225.638	2840.64
1228.902	2819.82
1232.166	2786.75
1235.43	2768.05
1238.693	2791.59
1241.956	2791.03
1245.219	2828.09
1248.482	2821.81
1251.744	2815.75
1255.006	2974.22
1258.268	2931.47
1261.529	2870.34
1264.79	2882.12
1268.051	2983.96
1271.312	3005.66
1274.572	2964.77
1277.832	2949.35
1281.092	2945.72
1284.351	2913.54
1287.61	2889.98
1290.869	2802.81
1294.128	2774.23
1297.386	2871.78
1300.644	2856.99
1303.902	2872.43
1307.159	2724.29
1310.416	2782.53
1313.673	2809.49
1316.93	2790.85
1320.186	2838.88
1323.442	2886.25
1326.697	2868.25
1329.953	2862.15
1333.208	2883.14
1336.463	2863.56
1339.717	2798.63
1342.972	2939.86
1346.226	2915.55
1349.479	2845.03
1352.733	2813.46
1355.986	2840.99
1359.238	2816.05
1362.491	2818.71
1365.743	2823.48
1368.995	2818.97
1372.247	2832.08
1375.498	2858.99
1378.749	2870.6
1382	2823.8
1385.251	2881.38
1388.501	2844.45
1391.751	2823.88
1395	2796.57
1398.25	2830.09
1401.499	2834.66
1404.748	2757.47
1407.996	2748.64
1411.244	2732.48
1414.492	2711.93
1417.74	2692.95
1420.987	2703.06
1424.234	2760.51
1427.481	2743.78
1430.728	2801.36
1433.974	2777.36
1437.22	2793.78
1440.465	2795.48
1443.711	2754.76
1446.956	2793.77
1450.201	2781.29
1453.445	2826.36
1456.689	2802.95
1459.933	2813.95
1463.177	2845.31
1466.42	2818.4
1469.663	2797.99
1472.906	2788.81
1476.148	2874.85
1479.391	2825.91
1482.633	2794.82
1485.874	2806.1
1489.115	2789.35
1492.356	2797.01
1495.597	2769.71
1498.838	2775.84
1502.078	2740.9
1505.318	2687.4
1508.557	2731.63
1511.797	2698.67
1515.036	2781.08
1518.274	2773.54
1521.513	2746.59
1524.751	2768.8
1527.989	2780.56
1531.227	2795.92
1534.464	2783.54
1537.701	2810.16
1540.938	2828.68
1544.174	2783.35
1547.41	2783.29
1550.646	2823.31
1553.882	2855.19
1557.117	2909.8
1560.352	2928.32
1563.587	2883.88
1566.821	2842.36
1570.055	2884.22
1573.289	2849.67
1576.523	2930.16
1579.756	2935.4
1582.989	2954.63
1586.222	2913.57
1589.454	2952.27
1592.686	2925.6
1595.918	2950.1
1599.15	2937.51
1602.381	3019.36
1605.612	2966.59
1608.843	3066.35
1612.073	2977.77
1615.303	2962.18
1618.533	2951.1
1621.762	2957.47
1624.992	2947.71
1628.221	2930.02
1631.449	2916.02
1634.678	2975.39
1637.906	2926.46
1641.134	2964.26
1644.361	2920.13
1647.588	2909.19
1650.815	2922.81
1654.042	2903.2
1657.269	2931.93
1660.495	2879.32
1663.72	2893.39
1666.946	2857.74
1670.171	2796.3
1673.396	2770.12
1676.621	2761.92
1679.845	2787.14
1683.069	2809.06
1686.293	2855.26
1689.517	2822.83
1692.74	2747.59
1695.963	2781.52
1699.185	2805.81
1702.408	2775.87
1705.63	2824.1
1708.852	2835.04
1712.073	2808.14
1715.294	2787
1718.515	2849.04
1721.736	2795.74
1724.956	2791.83
1728.176	2820.42
1731.396	2842.18
1734.616	2827.43
1737.835	2856.05
1741.054	2835.2
1744.272	2828.04
1747.491	2859.8
1750.709	2918.15
1753.927	2815.65
1757.144	2863.03
1760.361	2904.76
1763.578	2900.83
1766.795	2837.46
1770.011	2849.73
1773.227	2895.07
1776.443	2926.84
1779.658	2974.07
1782.874	2916.66
1786.089	2891.66
1789.303	2895.79
1792.518	2902.04
1795.732	2888.73
1798.945	2895.53
1802.159	2947.35
1805.372	2841.78
1808.585	2824.7
1811.797	2827.35
1815.01	2881.97
1818.222	2878.28
1821.434	2842.19
1824.645	2905.32
1827.856	2884.13
1831.067	2921.19
1834.278	2881.18
1837.488	2868.09
1840.698	3024.29
1843.908	2942.6
1847.117	2905.5
1850.326	2777.41
1853.535	2892.74
1856.744	2930.18
1859.952	2841.43
1863.16	2842.38
1866.368	2868.18
1869.575	2967.87
1872.782	2847.83
1875.989	2790.44
1879.196	2881.04
1882.402	2871.79
1885.608	2917.18
1888.814	2810.15
1892.019	2702.33
1895.224	2753.32
1898.429	2738.05
1901.634	2711.25
1904.838	2693.54
1908.042	2744.37
1911.246	2746.11
1914.449	2672.89
1917.652	2672.25
1920.855	2653.94
1924.058	2708.47
1927.26	2742.43
1930.462	2770.94
1933.664	2795.97
1936.865	2731.64
1940.066	2735.81
1943.267	2682.43
1946.467	2700.64
1949.668	2729.51
1952.868	2796.94
1956.067	2771.42
1959.267	2699.81
1962.466	2729.25
1965.665	2716.31
1968.863	2709.06
1972.061	2730.39
1975.259	2731.28
1978.457	2809.96
1981.654	2767.46
1984.852	2767.45
1988.048	2697.78
1991.245	2703.6
1994.441	2791.81
1997.637	2778.87
2000.833	2759.32
2004.028	2802.27
2007.223	2853.35
2010.418	2827.98
2013.613	2792.33
2016.807	2757.74
2020.001	2766.91
2023.194	2815.59
2026.388	2791.47
2029.581	2734.39
2032.774	2782.34
2035.966	2790.16
2039.158	2716.69
2042.35	2744.25
2045.542	2671.32
2048.733	2776.46
2051.924	2804.95
2055.115	2835.96
2058.306	2774.19
2061.496	2833.62
2064.686	2902.66
2067.875	2817.32
2071.065	2831.95
2074.254	2861.69
2077.442	2812.17
2080.631	2905.22
2083.819	2788.67
2087.007	2770.25
2090.195	2737.84
2093.382	2774.53
2096.569	2752.9
2099.756	2706.42
2102.942	2728.84
2106.128	2732.6
2109.314	2723.44
2112.5	2684.32
2115.685	2660.61
2118.87	2673.38
2122.055	2738.86
2125.239	2701
2128.424	2675.6
2131.608	2786.29
2134.791	2762.43
2137.974	2826.2
2141.157	2809.3
2144.34	2758.77
2147.523	2779.55
2150.705	2791.15
2153.887	2770.02
2157.068	2715.12
2160.25	2721.81
2163.431	2761.87
2166.611	2703.88
2169.792	2724.07
2172.972	2610.4
2176.152	2694.61
2179.331	2732.88
2182.511	2708.92
2185.69	2740.49
2188.868	2732.37
2192.047	2793
2195.225	2778.6
2198.403	2728.51
2201.58	2722.37
2204.758	2716.2
2207.935	2804.42
2211.111	2688.99
2214.288	2669.25
2217.464	2711.52
2220.64	2683.31
2223.815	2743.28
2226.991	2659.68
2230.166	2680.64
2233.34	2707.1
2236.515	2737.66
2239.689	2811.7
2242.863	2753.21
2246.036	2809.57
2249.209	2815.18
2252.382	2851.91
2255.555	2836.39
2258.727	2768.4
2261.9	2812.8
2265.071	2804.49
2268.243	2808.73
2271.414	2730.91
2274.585	2691
2277.756	2761.12
2280.926	2712.64
2284.096	2757.34
2287.266	2659.31
2290.436	2719.68
2293.605	2748.97
2296.774	2776.93
2299.942	2802.1
2303.111	2816.86
2306.279	2866.67
2309.447	2852.46
2312.614	2826.77
2315.781	2849.21
2318.948	2813.4
2322.115	2854.72
2325.281	2753.88
2328.447	2778.71
2331.613	2754.97
2334.779	2723.58
2337.944	2728.17
2341.109	2725.37
2344.274	2708.4
2347.438	2672.3
2350.602	2698.57
2353.766	2719.71
2356.929	2703.01
2360.092	2745.07
2363.255	2693.25
2366.418	2617.74
2369.58	2741.82
2372.742	2513.47
2375.904	2531.61
2379.066	2504.98
2382.227	2544.25
2385.388	2505.16
2388.548	2423.89
2391.709	2483.56
2394.869	2462.4
2398.029	2569.42
2401.188	2587.84
2404.347	2514.07
2407.506	2667.72
2410.665	2694.99
2413.823	2702.65
2416.981	2655.01
2420.139	2691.37
2423.296	2740.75
2426.453	2717.42
2429.61	2739.88
2432.767	2665.28
2435.923	2702.3
2439.079	2665.48
2442.235	2714.84
2445.391	2639.77
2448.546	2668.87
2451.701	2720.54
2454.855	2689.16
2458.009	2748.43
2461.163	2750.09
2464.317	2705.92
2467.471	2741.8
2470.624	2784.13
2473.777	2753.37
2476.929	2768.73
2480.082	2794.83
2483.234	2757.03
2486.385	2711.5
2489.537	2702.62
2492.688	2659.84
2495.839	2672.89
2498.989	2686.42
2502.14	2670.01
2505.29	2647.69
2508.439	2677.66
2511.589	2597.36
2514.738	2612.07
2517.887	2644.69
2521.035	2709.25
2524.183	2695.33
2527.331	2672.88
2530.479	2645.6
2533.627	2657.34
