Data from C_3_DEC_CT_2N_Splice17_13-00-58-277.txt Node
Date: Sat Mar 14 13:00:58 EDT 2020
User: sa697716
Spectrometer: FLMS03696
Trigger mode: 0
Integration Time (sec): 3.180400E-1
Scans to average: 20
Electric dark correction enabled: true
Nonlinearity correction enabled: true
Boxcar width: 5
XAxis mode: Wavelengths
Number of Pixels in Spectrum: 2048
>>>>>Begin Spectral Data<<<<<
187.83	-370210.47
188.298	2693.44
188.766	1416.21
189.233	1245.22
189.701	1781.95
190.169	2495.23
190.636	988.95
191.104	813.03
191.571	153.37
192.039	-46.78
192.506	-72.17
192.974	413.22
193.441	-638.44
193.908	-169.2
194.375	-51.19
194.842	48.98
195.31	86.16
195.777	156.05
196.244	391.26
196.711	546.98
197.177	705.44
197.644	1016.65
198.111	1780.24
198.578	2515.55
199.045	2034.04
199.511	3356.31
199.978	3962.54
200.445	3402.93
200.911	3797.71
201.378	4256.25
201.844	3851.09
202.31	6613.5
202.777	6895.89
203.243	3868.65
203.709	3702.67
204.176	4422.99
204.642	3624.49
205.108	3367.63
205.574	2762.11
206.04	2535.19
206.506	2383.65
206.972	2259.71
207.438	2180.69
207.903	2497.87
208.369	2179.6
208.835	2172.51
209.301	2278.04
209.766	2355.38
210.232	2346.57
210.697	2904.61
211.163	3625.05
211.628	5538.54
212.094	4658.21
212.559	5729.64
213.024	3593.91
213.49	4403.38
213.955	4307.71
214.42	4251.97
214.885	3970.68
215.35	3828.99
215.815	3669.68
216.28	3914.83
216.745	3225.38
217.21	3528.16
217.675	3331.3
218.14	3816.08
218.604	4362.24
219.069	5100.07
219.534	5432.09
219.998	6444.28
220.463	7952.93
220.927	10036.45
221.392	9559.59
221.856	9776.35
222.32	12471.87
222.785	15472.06
223.249	19605.46
223.713	21977.01
224.177	22078.02
224.642	28488.37
225.106	35160.89
225.57	38538.05
226.034	28621.1
226.497	43655.94
226.961	39420.68
227.425	45984.38
227.889	51154.16
228.353	51221.27
228.816	106113.1
229.28	101491.83
229.744	85682.4
230.207	52080.71
230.671	51281.37
231.134	85190.38
231.597	98182.02
232.061	98473.7
232.524	96022.38
232.987	66192.27
233.45	59559.48
233.914	53433.67
234.377	54846.91
234.84	50215.63
235.303	59251.65
235.766	66113.03
236.229	68287.79
236.691	43064.1
237.154	48371.38
237.617	36395.25
238.08	37249.56
238.542	43626.9
239.005	31159.45
239.468	30909.97
239.93	29120.9
240.393	26462.21
240.855	23226.32
241.317	23778.86
241.78	28955.91
242.242	29901.88
242.704	32261.98
243.166	28100.48
243.629	25486.43
244.091	29373.58
244.553	32179.41
245.015	34599.38
245.477	44817.8
245.939	65764.57
246.4	69841.81
246.862	67881.19
247.324	64012.44
247.786	71737.72
248.247	94058.06
248.709	97246.32
249.17	72699.64
249.632	68460.96
250.093	79299.32
250.555	68474.6
251.016	41745.36
251.477	39606.4
251.939	42751.31
252.4	44897.06
252.861	53449.28
253.322	49744.46
253.783	59275.12
254.244	76975.11
254.705	60864.71
255.166	54232.87
255.627	53453.72
256.088	75373.19
256.549	80169.8
257.009	69084.76
257.47	83913.28
257.931	68323.4
258.391	51210.66
258.852	52804.61
259.312	55430.1
259.773	68459.51
260.233	57797.92
260.694	48754
261.154	55431
261.614	44434.53
262.074	39796.74
262.534	41375.46
262.994	39048.45
263.455	52101.16
263.915	43914.66
264.374	41408.62
264.834	45272.29
265.294	50297.68
265.754	52116.06
266.214	49383.17
266.673	46331.23
267.133	58491.76
267.593	58089.57
268.052	71111.64
268.512	61921.89
268.971	74694.15
269.431	81974.96
269.89	73497.68
270.349	110266.73
270.809	123101.87
271.268	110685.67
271.727	248617.86
272.186	161238.2
272.645	121044.55
273.104	87484.31
273.563	126697.44
274.022	99837.62
274.481	84909.94
274.94	65372.46
275.399	48636.96
275.857	56681.05
276.316	76740.06
276.775	68352.04
277.233	67304.76
277.692	62943.03
278.15	71161.91
278.609	73228.87
279.067	67769.89
279.525	62915.43
279.984	81296.63
280.442	97655.53
280.9	96153.99
281.358	63221.07
281.816	58861.38
282.274	57648.1
282.732	59633.16
283.19	59914.84
283.648	51704.17
284.106	55103.17
284.564	56141.55
285.021	52067.73
285.479	38788.57
285.937	35325.92
286.394	30980.76
286.852	31898.07
287.309	33534.42
287.767	32353.95
288.224	30750.52
288.682	33751.11
289.139	37018.98
289.596	33832.64
290.053	35193.88
290.511	44472.42
290.968	53958.72
291.425	73343.74
291.882	61000.33
292.339	53092.02
292.796	52738.61
293.252	49759.03
293.709	39493.95
294.166	35421.54
294.623	39184.86
295.079	37621.91
295.536	37763.97
295.992	34271.6
296.449	33878.59
296.905	35189.43
297.362	33706.69
297.818	35496.33
298.274	36807.68
298.731	37532.5
299.187	37120.52
299.643	39853.04
300.099	48176.62
300.555	52845.7
301.011	44151.43
301.467	42476.01
301.923	49781.83
302.379	48623.63
302.835	47721.77
303.291	47734.25
303.746	54344.64
304.202	68647.32
304.658	68916.72
305.113	46310.61
305.569	45367.27
306.024	48390.97
306.479	46127.49
306.935	38858.38
307.39	42422.72
307.845	39119.49
308.301	39379.27
308.756	38350.42
309.211	36898.8
309.666	37760.92
310.121	46797.88
310.576	47491.45
311.031	47108.69
311.486	53949.8
311.94	53920.1
312.395	72138.45
312.85	135699.48
313.305	666700.38
313.759	3445336.14
314.214	249733.12
314.668	197940.3
315.123	166394.26
315.577	59568.66
316.032	52943.32
316.486	66357.34
316.94	52289.33
317.394	36390.35
317.849	28258.49
318.303	26751.83
318.757	25263.62
319.211	27942.93
319.665	24459.17
320.119	24777.66
320.572	35587.55
321.026	33219.66
321.48	27626.7
321.934	30172.15
322.387	30241.9
322.841	32664.67
323.295	29278.49
323.748	33759.86
324.202	34241.08
324.655	41072.18
325.108	57256.63
325.562	40381.98
326.015	48032.88
326.468	36296.68
326.921	40527.41
327.374	37748.44
327.827	39256.92
328.28	44516.21
328.733	29784.87
329.186	26156.69
329.639	24923.71
330.092	21029.09
330.545	20006.21
330.997	20150.83
331.45	21991.72
331.903	25748.53
332.355	44329.59
332.808	43104.17
333.26	35501.53
333.713	38511.97
334.165	38778.03
334.617	51801.74
335.069	41892.58
335.522	75856.24
335.974	83934.89
336.426	76720.97
336.878	53204.82
337.33	26935.06
337.782	26279.77
338.234	32895.43
338.686	39348.08
339.137	46677.31
339.589	43955.86
340.041	34431.11
340.493	29595.51
340.944	30312.89
341.396	32642.25
341.847	27386.4
342.299	32306.13
342.75	39407.73
343.201	34529.21
343.653	39744.39
344.104	48870.39
344.555	38439.6
345.006	59942.44
345.457	45833.06
345.908	36425.79
346.359	34209.46
346.81	27894.7
347.261	29388.92
347.712	28926.73
348.163	30995.56
348.613	31268.23
349.064	29170.33
349.515	25539.17
349.965	26130.88
350.416	31485.36
350.866	34572.45
351.317	39153.46
351.767	64797.52
352.217	81851.07
352.668	67991.98
353.118	62238.69
353.568	60190.32
354.018	47516.39
354.468	50077.53
354.918	35911.45
355.368	31388.32
355.818	44328.42
356.268	127656.11
356.718	533542.22
357.168	132922.25
357.617	66679.26
358.067	74230.98
358.517	69480.21
358.966	81447.84
359.416	91283.1
359.865	98746.52
360.315	117547.67
360.764	54880.97
361.213	30677.19
361.663	29134.6
362.112	35950.95
362.561	58026.81
363.01	43687.03
363.459	36775.56
363.908	39814.55
364.357	33791.15
364.806	57051.72
365.255	39284.77
365.703	35907.32
366.152	35950.2
366.601	29082.28
367.05	23573.84
367.498	21402.53
367.947	22381.4
368.395	23280.98
368.844	20588.46
369.292	24833.54
369.74	17134.12
370.189	26208.05
370.637	30721.6
371.085	26473.78
371.533	32252.06
371.981	31102.86
372.429	29654.35
372.877	30873.06
373.325	25824.33
373.773	26323.32
374.221	23441.38
374.669	29067.75
375.116	25126.77
375.564	25316.98
376.012	28324.55
376.459	23338.16
376.907	27868.13
377.354	33645.46
377.801	31305.53
378.249	35872.86
378.696	45834.96
379.143	55466.56
379.591	59119.45
380.038	99911.43
380.485	72118.37
380.932	77805.54
381.379	70941.99
381.826	52122.04
382.273	37037.25
382.72	32393.77
383.166	31579.7
383.613	20445.11
384.06	18391.68
384.506	21269.31
384.953	15617.61
385.4	15697.16
385.846	13736.53
386.292	13404.07
386.739	13108.32
387.185	12959.53
387.631	12946.32
388.078	12529.29
388.524	13398.77
388.97	12376.59
389.416	10287.24
389.862	10903.79
390.308	10310.49
390.754	10447.9
391.2	11311.96
391.645	11561.09
392.091	11004.66
392.537	10605.74
392.983	10612.93
393.428	10389.99
393.874	11102.21
394.319	11111.14
394.765	10506.48
395.21	10802.57
395.655	10126.76
396.101	9460.2
396.546	8531.11
396.991	8610.41
397.436	7991.18
397.881	7708.21
398.326	7306.33
398.771	6893.87
399.216	6027.13
399.661	5418.46
400.106	5383.29
400.551	5496.84
400.995	4927.55
401.44	4865.75
401.885	4565.66
402.329	4610.7
402.774	4420.59
403.218	4265.42
403.663	4111.97
404.107	4220.97
404.551	4248.44
404.995	3892.66
405.44	3746.42
405.884	3804.75
406.328	3677.28
406.772	3665.94
407.216	3331.8
407.66	3213.74
408.104	3053.28
408.547	2854.83
408.991	2759.78
409.435	2657.38
409.879	2619.19
410.322	2581.84
410.766	2488.69
411.209	2363.4
411.653	2265.01
412.096	2215.79
412.54	2218.36
412.983	2205.32
413.426	2206.93
413.869	2206.38
414.312	2160.68
414.756	2080.54
415.199	1984.42
415.642	1923.83
416.085	1927.18
416.527	1913.19
416.97	1944.42
417.413	1841.73
417.856	1822.17
418.298	1802.55
418.741	1789.34
419.184	1786.09
419.626	1861.59
420.069	1861.87
420.511	1870.09
420.953	1827.25
421.396	1809.34
421.838	1761.43
422.28	1801.08
422.722	1806.26
423.164	1832.33
423.606	1801.54
424.048	1800.56
424.49	1710.48
424.932	1703.76
425.374	1686.3
425.816	1715.87
426.258	1750.89
426.699	1772.09
427.141	1743.42
427.582	1769.32
428.024	1760.44
428.465	1749.62
428.907	1704.97
429.348	1686.02
429.789	1682.91
430.231	1642.64
430.672	1665.45
431.113	1624.34
431.554	1597.27
431.995	1558.77
432.436	1502.13
432.877	1468.2
433.318	1442.44
433.759	1434.22
434.2	1432.96
434.64	1418.21
435.081	1422.35
435.522	1346.38
435.962	1296.23
436.403	1267.06
436.843	1286.23
437.284	1258.36
437.724	1226.33
438.164	1230.83
438.604	1203.65
439.045	1155.2
439.485	1104.69
439.925	1078.05
440.365	1050.28
440.805	1035.95
441.245	1023.19
441.685	983.41
442.125	976.61
442.564	980.27
443.004	955.74
443.444	951.78
443.883	952.13
444.323	945.73
444.762	948.77
445.202	958.85
445.641	974.83
446.081	968.26
446.52	973.94
446.959	960.73
447.398	935.8
447.837	922.39
448.276	905.16
448.716	910.92
449.154	917.09
449.593	895.77
450.032	891.63
450.471	872.4
450.91	871.3
451.349	866.75
451.787	863.28
452.226	875.39
452.664	873.66
453.103	875.75
453.541	874.76
453.98	870.39
454.418	872.47
454.856	857.46
455.295	855.53
455.733	861.41
456.171	866.68
456.609	863.74
457.047	861.79
457.485	872.22
457.923	870.82
458.361	857.43
458.798	859.31
459.236	855.91
459.674	861.54
460.111	865.65
460.549	856.18
460.987	852.98
461.424	851.84
461.862	846.26
462.299	833.01
462.736	831.18
463.173	833.2
463.611	824.83
464.048	822.98
464.485	828.53
464.922	820.36
465.359	816.19
465.796	802.42
466.233	795.62
466.67	787.78
467.106	785.11
467.543	777.34
467.98	767.21
468.416	746.89
468.853	740.74
469.29	718.02
469.726	709.09
470.162	689.78
470.599	681.93
471.035	675.94
471.471	659.93
471.907	657.24
472.344	652.49
472.78	654.19
473.216	662.26
473.652	654.4
474.088	653.81
474.523	651.26
474.959	657.32
475.395	650.97
475.831	646.43
476.266	649.47
476.702	646.25
477.138	638.68
477.573	636.45
478.008	632.6
478.444	633.84
478.879	637.71
479.314	639.55
479.75	637.42
480.185	639.37
480.62	644.09
481.055	646.41
481.49	651.22
481.925	659.7
482.36	669.83
482.795	688.2
483.229	706.6
483.664	720.28
484.099	722.02
484.534	732.23
484.968	738.56
485.403	739.66
485.837	737.6
486.271	734.37
486.706	734.72
487.14	724.91
487.574	711.49
488.009	702.6
488.443	695.02
488.877	700.2
489.311	699.94
489.745	705.5
490.179	708.62
490.613	718.92
491.046	722.19
491.48	724.29
491.914	721.9
492.348	724.04
492.781	725.35
493.215	723.71
493.648	722.71
494.082	725.9
494.515	723.04
494.948	727.91
495.382	729.4
495.815	730.56
496.248	732.7
496.681	742.16
497.114	749.94
497.547	755.96
497.98	765.76
498.413	767.58
498.846	772.52
499.279	776.81
499.711	777.27
500.144	775.13
500.577	781.43
501.009	787.74
501.442	792.84
501.874	789.67
502.306	787.82
502.739	790.51
503.171	799.31
503.603	798.45
504.036	802.64
504.468	803.95
504.9	810.05
505.332	810.95
505.764	810.55
506.196	812.37
506.627	821.19
507.059	829.68
507.491	833.03
507.923	828.8
508.354	837.46
508.786	843.91
509.217	856.46
509.649	867.21
510.08	881.3
510.512	893.04
510.943	903.7
511.374	911.71
511.805	926.94
512.237	941.39
512.668	966.61
513.099	988.39
513.53	1010.7
513.961	1027.44
514.391	1052.98
514.822	1081.36
515.253	1110.82
515.684	1133.41
516.114	1159.23
516.545	1177.69
516.975	1201.8
517.406	1217.84
517.836	1221.32
518.267	1228.4
518.697	1245.63
519.127	1252.11
519.558	1259.27
519.988	1264.97
520.418	1275.82
520.848	1292.81
521.278	1302.7
521.708	1330.18
522.138	1344.66
522.567	1375.37
522.997	1399.68
523.427	1415.43
523.857	1433.41
524.286	1445.84
524.716	1463.52
525.145	1483.21
525.575	1497.37
526.004	1514.66
526.433	1503.3
526.863	1506.81
527.292	1501.92
527.721	1511.31
528.15	1520.77
528.579	1524.97
529.008	1538.67
529.437	1562.12
529.866	1578.17
530.295	1597.04
530.724	1611.8
531.152	1640.32
531.581	1656.84
532.01	1674.61
532.438	1684.57
532.867	1700.44
533.295	1720.87
533.723	1729.49
534.152	1729.34
534.58	1731.67
535.008	1718.36
535.436	1721.58
535.865	1729.54
536.293	1744.14
536.721	1761.17
537.149	1786.25
537.576	1790.56
538.004	1802.77
538.432	1810.82
538.86	1810.23
539.287	1818.33
539.715	1832.48
540.143	1835.98
540.57	1833.43
540.998	1830.98
541.425	1810.48
541.852	1792.54
542.28	1791.73
542.707	1777.34
543.134	1765.18
543.561	1763.16
543.988	1756.75
544.415	1757.39
544.842	1752.59
545.269	1746.76
545.696	1748.31
546.123	1761.23
546.549	1751.75
546.976	1740.83
547.403	1742.5
547.829	1744.95
548.256	1746.72
548.682	1743.07
549.108	1736.98
549.535	1736.95
549.961	1739.17
550.387	1728.28
550.813	1725.57
551.24	1733
551.666	1733.8
552.092	1724.54
552.518	1719.31
552.943	1714.45
553.369	1723.02
553.795	1728.07
554.221	1729.95
554.646	1727.66
555.072	1737.11
555.498	1740.16
555.923	1747.04
556.349	1760.96
556.774	1767.68
557.199	1767.47
557.625	1771.78
558.05	1763.95
558.475	1772.1
558.9	1769.49
559.325	1760.23
559.75	1752.66
560.175	1743.68
560.6	1735.82
561.025	1731.54
561.449	1730.47
561.874	1732.91
562.299	1735.17
562.723	1739.24
563.148	1727.74
563.572	1729.42
563.997	1736.56
564.421	1738.85
564.846	1736.93
565.27	1737.99
565.694	1732.18
566.118	1739.79
566.542	1743.38
566.966	1733.4
567.39	1725.91
567.814	1711
568.238	1706.26
568.662	1707.36
569.086	1706.01
569.509	1709.58
569.933	1692.43
570.357	1681.95
570.78	1659.06
571.204	1643.84
571.627	1630.86
572.05	1626.75
572.474	1624.24
572.897	1609.49
573.32	1598.7
573.743	1586.58
574.166	1567.47
574.589	1564.07
575.012	1555.71
575.435	1551.71
575.858	1541.55
576.281	1530.1
576.704	1513.41
577.126	1500.48
577.549	1490.25
577.972	1480.21
578.394	1470.11
578.817	1462.6
579.239	1444.4
579.661	1431.78
580.084	1417.37
580.506	1404.08
580.928	1399.18
581.35	1389.16
581.772	1385.18
582.194	1371.95
582.616	1360.16
583.038	1346.87
583.46	1336.76
583.882	1334.02
584.303	1336.48
584.725	1332.23
585.147	1334.27
585.568	1343.4
585.99	1353.12
586.411	1357.64
586.833	1370.77
587.254	1371.85
587.675	1384.18
588.096	1394.1
588.518	1388.75
588.939	1373.47
589.36	1371
589.781	1361.16
590.202	1336.65
590.623	1328.85
591.043	1326.44
591.464	1314.96
591.885	1310.14
592.305	1304.94
592.726	1292.98
593.147	1293.39
593.567	1288.6
593.987	1281.97
594.408	1277.7
594.828	1275.25
595.248	1269.47
595.669	1252.08
596.089	1243.87
596.509	1238.76
596.929	1225.68
597.349	1225.07
597.769	1216.04
598.189	1210.34
598.608	1211.44
599.028	1212.71
599.448	1211.67
599.867	1199.77
600.287	1195.59
600.706	1192.52
601.126	1183.25
601.545	1182.1
601.965	1180.62
602.384	1175.1
602.803	1176.01
603.222	1170.04
603.641	1163.13
604.061	1158.91
604.48	1154.39
604.898	1160.59
605.317	1163.13
605.736	1163.62
606.155	1159.44
606.574	1150.76
606.992	1154.37
607.411	1149.72
607.829	1146.79
608.248	1143.02
608.666	1140.24
609.085	1140.25
609.503	1132.69
609.921	1127.72
610.339	1128.9
610.758	1128.23
611.176	1123.64
611.594	1115.62
612.012	1111.84
612.43	1109.77
612.847	1114.69
613.265	1115.43
613.683	1118.35
614.101	1119.28
614.518	1114.76
614.936	1105.47
615.353	1093.48
615.771	1090.25
616.188	1089.5
616.606	1086.63
617.023	1079.98
617.44	1068.13
617.857	1061.94
618.274	1054.9
618.691	1049.81
619.108	1041.87
619.525	1037.05
619.942	1041.33
620.359	1044.19
620.776	1039.78
621.192	1037.15
621.609	1035.05
622.026	1040.83
622.442	1045.71
622.859	1047.54
623.275	1041.03
623.691	1045.82
624.108	1055.75
624.524	1067.77
624.94	1067.3
625.356	1076.94
625.772	1087.37
626.188	1097.56
626.604	1098.79
627.02	1094.52
627.436	1092.84
627.852	1098.88
628.268	1109.48
628.683	1102.2
629.099	1095.54
629.514	1092.45
629.93	1095.35
630.345	1099.03
630.761	1095.83
631.176	1098.04
631.591	1094.88
632.007	1090.2
632.422	1088.48
632.837	1078.03
633.252	1075.94
633.667	1068.4
634.082	1060.81
634.497	1049.83
634.911	1034.69
635.326	1032.77
635.741	1019.75
636.155	1011.77
636.57	1013.36
636.984	1014.09
637.399	1017.69
637.813	1018.45
638.228	1018.99
638.642	1022.81
639.056	1016.24
639.47	1017.46
639.884	1010.73
640.298	1005.85
640.712	1005.74
641.126	996.73
641.54	990.53
641.954	986.07
642.368	976.95
642.781	970.9
643.195	958.36
643.609	959.85
644.022	956.33
644.436	954.47
644.849	945.58
645.262	937.12
645.676	938.93
646.089	936.59
646.502	926.07
646.915	922.99
647.328	909.91
647.741	909.27
648.154	899.92
648.567	899.28
648.98	888.99
649.393	890.86
649.805	888.42
650.218	883.79
650.631	871.25
651.043	866.56
651.456	862.41
651.868	864.12
652.28	879.79
652.693	891.46
653.105	897.47
653.517	907.58
653.929	909.97
654.341	917.08
654.753	907.75
655.165	914.24
655.577	913.06
655.989	911.85
656.401	907.15
656.813	877.88
657.224	863.16
657.636	839.71
658.047	826.52
658.459	810.73
658.87	804.41
659.282	797.54
659.693	782.91
660.104	773.98
660.515	764.07
660.926	766.45
661.338	767.07
661.749	764.99
662.159	760.59
662.57	758.57
662.981	759.35
663.392	757.18
663.803	764.3
664.213	765.76
664.624	765.59
665.035	772.36
665.445	761.52
665.855	758.78
666.266	754.74
666.676	756.22
667.086	752.14
667.497	754.36
667.907	752.12
668.317	746.25
668.727	745.88
669.137	749.04
669.547	749.56
669.956	755.36
670.366	759.3
670.776	762.67
671.186	768.48
671.595	773.8
672.005	778.77
672.414	779.2
672.824	778.64
673.233	784.13
673.642	788.11
674.052	791.45
674.461	793.65
674.87	798.67
675.279	796.89
675.688	798.54
676.097	799.92
676.506	796.46
676.915	810.14
677.323	812.6
677.732	809.6
678.141	808.22
678.549	796.87
678.958	795.63
679.366	792.9
679.775	796.65
680.183	805.21
680.592	809.49
681	812.83
681.408	803.92
681.816	809.44
682.224	815.02
682.632	820.86
683.04	845.93
683.448	864.25
683.856	889.29
684.264	916.53
684.671	940.8
685.079	970.26
685.487	1003.59
685.894	1050.95
686.302	1086.22
686.709	1113.73
687.116	1147.66
687.524	1173
687.931	1191.53
688.338	1205.43
688.745	1215.38
689.152	1229.9
689.559	1254.44
689.966	1278.79
690.373	1287.04
690.78	1313.71
691.187	1360.2
691.593	1393.68
692	1421.68
692.407	1471.21
692.813	1534.58
693.22	1585.76
693.626	1638.66
694.032	1684.17
694.439	1752.99
694.845	1809.14
695.251	1879.4
695.657	1944.29
696.063	2040.12
696.469	2117.59
696.875	2190.1
697.281	2237.92
697.687	2296.63
698.093	2349.23
698.498	2434.3
698.904	2504.92
699.31	2606.44
699.715	2684.22
700.12	2789.49
700.526	2827.38
700.931	2914.77
701.337	2988.44
701.742	3042.24
702.147	3144.06
702.552	3195.8
702.957	3278.1
703.362	3322.35
703.767	3374.63
704.172	3439.31
704.577	3414.08
704.981	3484.33
705.386	3523.5
705.791	3535.37
706.195	3634.08
706.6	3666.56
707.004	3773.72
707.408	3761.74
707.813	3812.36
708.217	3820.7
708.621	3842.69
709.025	3972.43
709.43	3993.27
709.834	4081.7
710.237	4181.83
710.641	4186.63
711.045	4233.01
711.449	4246.34
711.853	4299.45
712.256	4365.83
712.66	4426.39
713.064	4532.54
713.467	4596.57
713.87	4748.19
714.274	4820.69
714.677	4966.26
715.08	5176.12
715.484	5395.64
715.887	5654.54
716.29	5911.12
716.693	6181.7
717.096	6490.1
717.499	6669.53
717.901	6725.85
718.304	6780.05
718.707	6828.25
719.109	6726.72
719.512	6709.12
719.915	6562.4
720.317	6516.21
720.719	6587.56
721.122	6567.93
721.524	6523.81
721.926	6489.75
722.328	6631.62
722.731	6636.58
723.133	6689.1
723.535	6944.64
723.937	6987.21
724.338	7067.08
724.74	7130.09
725.142	7050.91
725.544	7063.37
725.945	7107.72
726.347	7119.49
726.748	7123.36
727.15	7153.99
727.551	7117.81
727.952	7095.79
728.354	7070.73
728.755	7083.42
729.156	7042.3
729.557	7056.37
729.958	6909.29
730.359	6852.67
730.76	6837.59
731.161	6769.01
731.562	6745.57
731.962	6759.76
732.363	6685.82
732.763	6610.14
733.164	6663.17
733.564	6581.4
733.965	6463.06
734.365	6425.91
734.766	6469.04
735.166	6424.58
735.566	6356.07
735.966	6328.56
736.366	6328.75
736.766	6251.51
737.166	6297.09
737.566	6248.72
737.966	6220.56
738.365	6275.07
738.765	6273.64
739.165	6177.89
739.564	6146.53
739.964	6211.49
740.363	6152.48
740.763	6150.99
741.162	6137.59
741.561	6098.51
741.96	6040.46
742.36	6069.98
742.759	6081.62
743.158	6132.54
743.557	6155.95
743.955	6210.61
744.354	6154.5
744.753	6233.25
745.152	6181.55
745.55	6259.43
745.949	6254.3
746.348	6260.8
746.746	6285.42
747.144	6231.3
747.543	6205.72
747.941	6273.35
748.339	6181.14
748.737	6171.11
749.136	6159.91
749.534	6248.65
749.932	6212.93
750.33	6244.63
750.727	6317.35
751.125	6285.73
751.523	6269.41
751.921	6326.82
752.318	6283.19
752.716	6364.97
753.113	6385.09
753.511	6419.85
753.908	6418.91
754.305	6396.73
754.703	6479.54
755.1	6562.51
755.497	6645.68
755.894	6897.56
756.291	7134.2
756.688	7570.61
757.085	8150.41
757.482	8968.69
757.878	9865.14
758.275	10675.95
758.672	11787.89
759.068	12697.73
759.465	13990.83
759.861	15653.19
760.258	17585.42
760.654	18588.82
761.05	18440.94
761.447	17603.42
761.843	16387.35
762.239	15133.25
762.635	14570.51
763.031	14027.95
763.427	13239.52
763.822	12412.96
764.218	11602.2
764.614	10549.04
765.01	9840.78
765.405	9381.16
765.801	9032.64
766.196	8592.3
766.592	8345.16
766.987	7923.64
767.382	7643.81
767.778	7525.67
768.173	7354.15
768.568	7256.99
768.963	7089.58
769.358	7114.22
769.753	7051.77
770.148	6942.69
770.542	6941.87
770.937	6900.07
771.332	7020.25
771.726	7045.41
772.121	6962.5
772.515	7033.59
772.91	7014.33
773.304	7109.28
773.699	7022.54
774.093	7099.5
774.487	7172.34
774.881	7228.73
775.275	7224.65
775.669	7171.41
776.063	7229.54
776.457	7280.39
776.851	7181.24
777.245	7171.61
777.638	7215.45
778.032	7370.14
778.425	7319.89
778.819	7373.03
779.212	7313.48
779.606	7259.67
779.999	7289.63
780.392	7268.56
780.786	7375.27
781.179	7403.99
781.572	7460.65
781.965	7480.03
782.358	7403.8
782.751	7476.21
783.143	7414.56
783.536	7518.67
783.929	7576.6
784.322	7724.05
784.714	7766.69
785.107	7762.57
785.499	7860.53
785.891	7832.13
786.284	7808.21
786.676	7999.17
787.068	7976.75
787.46	8050.36
787.852	8078.07
788.245	8191.54
788.636	8234.46
789.028	8326.74
789.42	8378.78
789.812	8393.73
790.204	8528.57
790.595	8657.28
790.987	8394.58
791.378	8427.37
791.77	8601.41
792.161	8779.89
792.553	8857.36
792.944	8709.55
793.335	8615.92
793.726	8715.25
794.117	8831.75
794.508	9008.11
794.899	8968.97
795.29	9157.16
795.681	9230.83
796.072	9038.41
796.463	8784.38
796.853	8796.57
797.244	9006.57
797.634	9050.08
798.025	9049.22
798.415	9068.69
798.806	9186.24
799.196	9302.38
799.586	9371.01
799.976	9325.61
800.366	9637.99
800.756	9967.51
801.146	9915.46
801.536	9956.8
801.926	10058.06
802.316	10094.12
802.706	10190.86
803.095	10034.25
803.485	10172.73
803.874	10226.87
804.264	10574.79
804.653	10537.95
805.043	10733.35
805.432	10878.21
805.821	10881.06
806.21	10912.6
806.599	11069
806.988	11128.7
807.377	11271.09
807.766	11444.46
808.155	11825.15
808.544	11476.21
808.933	11494.75
809.321	11466.18
809.71	11865.16
810.098	12075.16
810.487	12693.44
810.875	13339.74
811.264	13374.23
811.652	13752.93
812.04	13946.67
812.428	14165.35
812.816	15179.71
813.204	15736.57
813.592	16476.53
813.98	16925.31
814.368	16801.88
814.756	17442.95
815.144	17331.62
815.531	17949.76
815.919	17856.02
816.306	18267.99
816.694	17850.57
817.081	17919.78
817.469	18383.61
817.856	18387.64
818.243	18754.02
818.63	19283.11
819.017	18717.26
819.404	18805.95
819.791	19314.56
820.178	20139.59
820.565	20474.88
820.952	21722.45
821.339	21061
821.725	21315.45
822.112	20320.43
822.498	20260.84
822.885	20427.5
823.271	20299.47
823.657	20865.21
824.044	20874.34
824.43	20976.1
824.816	20927.65
825.202	20342.65
825.588	21708.24
825.974	21730.17
826.36	22419.56
826.746	22465.16
827.132	22949.8
827.517	22920.23
827.903	21866.29
828.289	21917.77
828.674	20875.33
829.06	20737.24
829.445	21270.73
829.83	21750.28
830.216	22380.94
830.601	22864.04
830.986	22313.57
831.371	22127.72
831.756	22868.82
832.141	22287.57
832.526	22275.99
832.911	22651.98
833.295	22496.27
833.68	23117.27
834.065	22275.63
834.449	21049.86
834.834	20948.26
835.218	20939.79
835.603	21396.79
835.987	21109.86
836.371	22220.91
836.755	22077
837.139	22605.02
837.524	22932.28
837.908	22694.6
838.291	22777.4
838.675	22874.04
839.059	23150.63
839.443	23134.31
839.827	22812.44
840.21	23443.87
840.594	23242.76
840.977	23511.74
841.361	23487.76
841.744	23983.24
842.127	23774.06
842.511	24100.75
842.894	24890.53
843.277	25396.6
843.66	26109.9
844.043	26227.12
844.426	25161.5
844.809	24744.75
845.191	24790.09
845.574	24180.66
845.957	23689.32
846.339	23543.14
846.722	22844.84
847.104	22929.19
847.487	22695.22
847.869	22713.89
848.252	23074.51
848.634	23511.67
849.016	23871.04
849.398	24025.54
849.78	25148.82
850.162	25153.76
850.544	25700.37
850.926	26535.45
851.307	26416.73
851.689	26790.05
852.071	27409.09
852.452	27843.91
852.834	27811.77
853.215	28315.6
853.597	28529.05
853.978	28907.64
854.359	29504.16
854.741	28195.02
855.122	28059.06
855.503	27681.78
855.884	27856.56
856.265	27755.99
856.646	27904.73
857.026	27386.79
857.407	27316.15
857.788	27528.55
858.169	27913.04
858.549	26786.46
858.93	27617.67
859.31	27683.04
859.69	27955.75
860.071	27413.94
860.451	27132.94
860.831	26160.52
861.211	27705.48
861.591	28430.22
861.971	28396.48
862.351	28652.66
862.731	29174.42
863.111	29509.36
863.491	29960.32
863.87	31134.84
864.25	31609.12
864.629	31078.71
865.009	31757.27
865.388	32885.86
865.768	35253.84
866.147	35115.69
866.526	33181.5
866.905	33590.69
867.284	35491.73
867.663	33690.24
868.042	32280.18
868.421	32176.17
868.8	32719.58
869.179	33041.21
869.558	31118.2
869.936	28680.08
870.315	29200.45
870.693	29908.87
871.072	32251.97
871.45	30732.7
871.828	31121.45
872.207	32742.47
872.585	32245.47
872.963	33119
873.341	31971.34
873.719	31596.4
874.097	31210.98
874.475	31809.8
874.853	32532.32
875.23	31181.03
875.608	32477.7
875.986	35129.54
876.363	33571.69
876.741	34580.74
877.118	33710.95
877.495	35373
877.873	35961.4
878.25	37849.06
878.627	36291.74
879.004	36805
879.381	36617.32
879.758	35628.46
880.135	33181.2
880.512	35088.21
880.889	34188.84
881.265	33839.81
881.642	33556.32
882.019	34117.42
882.395	33420.38
882.772	34738.99
883.148	33216.37
883.524	33082.83
883.901	32910.2
884.277	33391.4
884.653	33188.75
885.029	34116.57
885.405	37775.94
885.781	37486.24
886.157	35945.49
886.532	36372.15
886.908	36353.37
887.284	40439.23
887.659	41756.9
888.035	43041.77
888.411	44144.73
888.786	44717.46
889.161	46277.86
889.537	45425.11
889.912	46875.05
890.287	46821.96
890.662	48030.19
891.037	47158.24
891.412	43971.7
891.787	43512.52
892.162	41994.92
892.536	42965.64
892.911	41345.06
893.286	40470.5
893.66	38815.42
894.035	39797.86
894.409	43338.09
894.784	41582.62
895.158	42259.87
895.532	44748.1
895.906	45971.69
896.281	47031.39
896.655	46281.56
897.029	52880.84
897.402	55055.18
897.776	61275.78
898.15	61047.65
898.524	60358.25
898.898	61157.01
899.271	68478.81
899.645	59328.73
900.018	56985.72
900.392	59127.95
900.765	59607.72
901.138	55156.07
901.511	54305.98
901.884	49890.9
902.258	46034.18
902.631	47573.3
903.003	54763.18
903.376	49412.83
903.749	55393.96
904.122	59298.45
904.495	65292.19
904.867	66127.91
905.24	57427.38
905.612	53501.39
905.985	54707.44
906.357	57184.79
906.729	54610.74
907.102	46637.17
907.474	44862.08
907.846	45169.89
908.218	44599.05
908.59	39407.71
908.962	38122.93
909.334	41057.67
909.705	43133.33
910.077	41886.17
910.449	43628.16
910.82	44828.43
911.192	49356.1
911.563	51261.95
911.935	54857.77
912.306	54924.63
912.677	56728.06
913.048	56165.48
913.419	60963.7
913.79	61293.14
914.161	65737.45
914.532	62822.41
914.903	57742.03
915.274	54865.5
915.645	54098.64
916.015	47619.25
916.386	45407.41
916.756	48340.65
917.127	49873.24
917.497	44542.36
917.868	48486.05
918.238	46060.38
918.608	47403.95
918.978	48405.7
919.348	51278.84
919.718	53001.12
920.088	51060.01
920.458	53034.74
920.828	55828.33
921.198	52914.06
921.567	56547.9
921.937	43784.86
922.306	44217.47
922.676	47670.87
923.045	39756.03
923.415	37741.85
923.784	34367.13
924.153	35313.19
924.522	35293.7
924.891	33165.42
925.26	35536.36
925.629	34688.4
925.998	39896.31
926.367	38945.32
926.736	37085.47
927.104	44205.24
927.473	47537.32
927.842	57401.32
928.21	56871.07
928.578	59773.82
928.947	56531.35
929.315	56876.22
929.683	66688.54
930.051	67202.73
930.42	78002.58
930.788	66676.54
931.156	66164.63
931.523	61989.68
931.891	57282.23
932.259	55024.6
932.627	63722.65
932.994	90133.43
933.362	74461.9
933.729	64655.35
934.097	61871.17
934.464	52350.63
934.831	60447.63
935.199	59556.75
935.566	57761.43
935.933	58580.53
936.3	70944.62
936.667	55267.61
937.034	49805.9
937.401	49252.86
937.767	42502.93
938.134	37857.1
938.501	53414.61
938.867	56861.75
939.234	96235.32
939.6	82101.28
939.967	90353.29
940.333	60438.64
940.699	51492.02
941.065	41400.43
941.431	54301.52
941.798	52374.76
942.163	68723.16
942.529	42998.61
942.895	39617.54
943.261	25582.25
943.627	33577.72
943.992	29392.7
944.358	29471.27
944.723	29571.47
945.089	28833.04
945.454	26642.44
945.82	28447.66
946.185	27357.54
946.55	31675.06
946.915	28419.9
947.28	33406.79
947.645	29426.81
948.01	27187.38
948.375	28337.11
948.74	33968.81
949.104	39617.3
949.469	57306.84
949.834	101293.72
950.198	95998.33
950.562	57533.36
950.927	47904.14
951.291	57593.92
951.655	49057.31
952.02	46096.57
952.384	34874.53
952.748	30335.84
953.112	29560.06
953.476	25692.57
953.839	23767.24
954.203	23530.95
954.567	29438.19
954.931	46384.6
955.294	39671.62
955.658	39914.28
956.021	67831.45
956.385	115021.18
956.748	169795.66
957.111	263560.04
957.474	295644.22
957.837	332914.24
958.2	251843.22
958.563	90571.2
958.926	61218.81
959.289	92958
959.652	103753.21
960.015	77854.76
960.377	111743.97
960.74	127573.67
961.102	220209.64
961.465	236486.54
961.827	126400.63
962.189	242465.39
962.552	168145.61
962.914	134808.05
963.276	87497.07
963.638	72269.37
964	71526.81
964.362	48317.71
964.724	46680.68
965.085	33258.56
965.447	27270.45
965.809	31123.93
966.17	31194.9
966.532	33743.61
966.893	30933.26
967.255	28127.21
967.616	33232.03
967.977	26591.91
968.338	29062.46
968.699	23880.37
969.061	23873.28
969.421	24033.81
969.782	26987.96
970.143	22787.06
970.504	23575.63
970.865	26808.26
971.225	27368.79
971.586	26772.38
971.946	38223.6
972.307	33171.48
972.667	43372.05
973.027	44717.72
973.388	54206.08
973.748	36841.81
974.108	40083.51
974.468	54294.97
974.828	41854.25
975.188	32255.71
975.548	29646.95
975.907	24885.04
976.267	27903.88
976.627	23433.34
976.986	24285.13
977.346	23166.99
977.705	22283.75
978.064	20322.52
978.424	16913.41
978.783	17494.79
979.142	19962.89
979.501	19083.6
979.86	20173.39
980.219	19449.53
980.578	25097.42
980.937	28120.48
981.296	25070.57
981.654	25814.31
982.013	40185.3
982.371	52152.24
982.73	48744.59
983.088	55206.06
983.447	58989.58
983.805	84268.35
984.163	175996.36
984.521	195429.37
984.879	286337.59
985.237	-465152.2
985.595	448313.62
985.953	111367.92
986.311	64301.82
986.669	37352.99
987.026	32241.33
987.384	43345.77
987.741	44853.82
988.099	32042.84
988.456	25515.6
988.814	23877.15
989.171	20777.39
989.528	20493.15
989.885	21666.08
990.242	17149.72
990.599	21372.75
990.956	17472.02
991.313	12209.52
991.67	10011.64
992.027	10595.74
992.383	9430.28
992.74	8278.17
993.096	8676.08
993.453	8994.26
993.809	9307.03
994.165	12398.36
994.522	11320.95
994.878	12474.79
995.234	15666.3
995.59	15434.05
995.946	14642.12
996.302	16690.75
996.658	19307.63
997.013	21292.98
997.369	25224.25
997.725	32249.39
998.08	20875.62
998.436	32255.56
998.791	44531.2
999.147	44416.21
999.502	48564.53
999.857	35327.32
1000.212	57547.79
1000.567	81846.82
1000.922	47169.24
1001.277	30025.6
1001.632	22300.62
1001.987	28796.9
1002.342	20708.02
1002.696	16577.55
1003.051	13237.01
1003.406	16022.54
1003.76	15929.87
1004.114	15712.66
1004.469	13198.7
1004.823	10933.03
1005.177	11819.43
1005.531	9382.02
1005.885	8301.47
1006.239	9357.93
1006.593	11724.67
1006.947	15709.9
1007.301	11802.74
1007.655	12879.84
1008.008	9455.6
1008.362	10630.11
1008.715	15214.59
1009.069	13808.91
1009.422	20707.27
1009.776	41588.22
1010.129	27549.99
1010.482	23019.67
1010.835	19472.22
1011.188	40527.38
1011.541	38109.04
1011.894	-232680.07
1012.247	684723.31
1012.6	46410.92
1012.952	29212.12
1013.305	15105.65
1013.657	10879.8
1014.01	10308.8
1014.362	8499.89
1014.715	7526.92
1015.067	6539.17
1015.419	6405.76
1015.771	5686.62
1016.123	5047.31
1016.475	5189.72
1016.827	5535.96
1017.179	5930.14
1017.531	5978.64
1017.883	6111.1
1018.234	5874.33
1018.586	7423.17
1018.938	7852.68
1019.289	10810.19
1019.64	12384.02
1019.992	11548.53
1020.343	10591.91
1020.694	8353.11
1021.045	7385.12
1021.396	8427.93
1021.747	9039.49
1022.098	10909.54
1022.449	7932.35
1022.8	7366.93
1023.151	5134.39
1023.501	4534.52
1023.852	4937.51
1024.202	5116.55
1024.553	5635.14
1024.903	5523.37
1025.253	4712.63
1025.604	4231.57
1025.954	5256.68
1026.304	6419.17
1026.654	7488.9
1027.004	11020.54
1027.354	17830.81
1027.703	16806.73
1028.053	22161.24
1028.403	32213.93
1028.753	46686.05
1029.102	63640.8
1029.452	327278.73
1029.801	14080.28
1030.15	9064.16
1030.499	7690.76
897.758	2662.57
901.051	2616.53
904.343	2651.5
907.636	2653.84
910.928	2717.61
914.22	2626.81
917.511	2635.61
920.803	2695.5
924.094	2714.84
927.384	2697.35
930.675	2661.05
933.965	2613.89
937.255	2624.33
940.544	2591.81
943.834	2532.73
947.123	2477.46
950.411	2576.82
953.7	2547.32
956.988	2519.8
960.276	2460.42
963.563	2538.59
966.851	2534.26
970.138	2592.93
973.424	2588.88
976.711	2537.83
979.997	2669.59
983.283	2706.4
986.568	2610.95
989.853	2626.95
993.138	2652.71
996.423	2737.52
999.708	2677.05
1002.992	2744.17
1006.275	2578.87
1009.559	2621.71
1012.842	2737.65
1016.125	2670.07
1019.408	2648.8
1022.69	2737.61
1025.972	2757.64
1029.254	2733.47
1032.536	2666.01
1035.817	2692.89
1039.098	2637.44
1042.379	2782.44
1045.659	2783.08
1048.939	2718.51
1052.219	2739.08
1055.498	2748.84
1058.778	2734.58
1062.057	2718.42
1065.335	2739.35
1068.614	2761.02
1071.892	2743.87
1075.17	2819.68
1078.447	2809.56
1081.724	2801.19
1085.001	2838.07
1088.278	2812.85
1091.554	2824.41
1094.83	2820.07
1098.106	2850.74
1101.382	2897.79
1104.657	2896.83
1107.932	2894.04
1111.206	2856.92
1114.481	2813.93
1117.755	2815.81
1121.029	2795.98
1124.302	2849.92
1127.575	2805.09
1130.848	2791.59
1134.121	2754.71
1137.393	2704.48
1140.665	2771.83
1143.937	2746.71
1147.208	2704.69
1150.48	2747.7
1153.75	2733.3
1157.021	2763.53
1160.291	2734.66
1163.561	2780.91
1166.831	2768.85
1170.101	2801.77
1173.37	2770.55
1176.639	2713.72
1179.907	2774.74
1183.176	2783.91
1186.444	2793.05
1189.711	2823.09
1192.979	2834.03
1196.246	2788.54
1199.513	2808.48
1202.78	2806.26
1206.046	2813.51
1209.312	2843.28
1212.578	2869.48
1215.843	2820.7
1219.108	2792.05
1222.373	2813.87
1225.638	2776.66
1228.902	2763.42
1232.166	2724.65
1235.43	2702.62
1238.693	2727.65
1241.956	2724.42
1245.219	2765.58
1248.482	2758.27
1251.744	2752.28
1255.006	2902.7
1258.268	2855.29
1261.529	2799.09
1264.79	2804.72
1268.051	2911.91
1271.312	2934.25
1274.572	2896.01
1277.832	2886.75
1281.092	2873.32
1284.351	2846.1
1287.61	2824.64
1290.869	2743.21
1294.128	2720.73
1297.386	2810.61
1300.644	2799.34
1303.902	2813.59
1307.159	2663.33
1310.416	2721.94
1313.673	2746.81
1316.93	2732.44
1320.186	2778.5
1323.442	2822.41
1326.697	2807.78
1329.953	2794.84
1333.208	2818.32
1336.463	2797
1339.717	2734.26
1342.972	2871.2
1346.226	2844.73
1349.479	2775.06
1352.733	2747.39
1355.986	2768.04
1359.238	2742.8
1362.491	2749.53
1365.743	2753.24
1368.995	2744.03
1372.247	2757.83
1375.498	2782.12
1378.749	2800.86
1382	2749.79
1385.251	2806.15
1388.501	2760.88
1391.751	2743.52
1395	2715.79
1398.25	2743.92
1401.499	2750.9
1404.748	2679.07
1407.996	2666.8
1411.244	2652.49
1414.492	2630.23
1417.74	2609.55
1420.987	2616.17
1424.234	2677.37
1427.481	2658.03
1430.728	2714.49
1433.974	2687.62
1437.22	2702.18
1440.465	2703.62
1443.711	2667.95
1446.956	2703.52
1450.201	2692.65
1453.445	2738.3
1456.689	2718.56
1459.933	2729.88
1463.177	2762.96
1466.42	2734.31
1469.663	2716.48
1472.906	2712.79
1476.148	2788.74
1479.391	2750.48
1482.633	2718.86
1485.874	2730.93
1489.115	2719.14
1492.356	2723.91
1495.597	2700.67
1498.838	2702.43
1502.078	2673.52
1505.318	2624.61
1508.557	2666.68
1511.797	2645.03
1515.036	2717.25
1518.274	2705.46
1521.513	2677.06
1524.751	2699.5
1527.989	2712.78
1531.227	2729.16
1534.464	2726.18
1537.701	2745.14
1540.938	2764.54
1544.174	2716.67
1547.41	2714.16
1550.646	2752.3
1553.882	2793.1
1557.117	2846.49
1560.352	2861.13
1563.587	2821.5
1566.821	2778.59
1570.055	2812.41
1573.289	2787.29
1576.523	2863.5
1579.756	2872.45
1582.989	2893.06
1586.222	2854.32
1589.454	2896.05
1592.686	2868.32
1595.918	2898.19
1599.15	2886.48
1602.381	2963.19
1605.612	2921.09
1608.843	3020.02
1612.073	2931.25
1615.303	2916.86
1618.533	2907.59
1621.762	2912.3
1624.992	2894.38
1628.221	2883.4
1631.449	2867.42
1634.678	2922.61
1637.906	2874.7
1641.134	2915.38
1644.361	2868.85
1647.588	2856.31
1650.815	2872.91
1654.042	2851.6
1657.269	2879.6
1660.495	2834
1663.72	2854.08
1666.946	2817.29
1670.171	2761.66
1673.396	2736.21
1676.621	2720.76
1679.845	2739.22
1683.069	2762.04
1686.293	2803.35
1689.517	2774.59
1692.74	2704.66
1695.963	2733.76
1699.185	2751.74
1702.408	2724.92
1705.63	2767.34
1708.852	2779.73
1712.073	2751.25
1715.294	2737.66
1718.515	2796.04
1721.736	2744.77
1724.956	2734.73
1728.176	2762.65
1731.396	2785.36
1734.616	2770.74
1737.835	2799.69
1741.054	2777.33
1744.272	2769.81
1747.491	2804.15
1750.709	2856.29
1753.927	2761.14
1757.144	2805.71
1760.361	2853.4
1763.578	2841.38
1766.795	2780.49
1770.011	2786.12
1773.227	2826.23
1776.443	2861.65
1779.658	2907.77
1782.874	2848.95
1786.089	2828.36
1789.303	2831.36
1792.518	2832.77
1795.732	2818.33
1798.945	2832.13
1802.159	2881.4
1805.372	2786.09
1808.585	2771.74
1811.797	2772.51
1815.01	2820.4
1818.222	2821.39
1821.434	2793.48
1824.645	2852.92
1827.856	2842.41
1831.067	2879.22
1834.278	2826.24
1837.488	2812.62
1840.698	2960.24
1843.908	2882.24
1847.117	2846.72
1850.326	2730.11
1853.535	2832.13
1856.744	2855.77
1859.952	2767.83
1863.16	2768.53
1866.368	2788.63
1869.575	2895.1
1872.782	2772.2
1875.989	2711.92
1879.196	2796.81
1882.402	2784.51
1885.608	2826.02
1888.814	2726.52
1892.019	2618.85
1895.224	2670.12
1898.429	2649.01
1901.634	2626.78
1904.838	2603.02
1908.042	2655.75
1911.246	2660.15
1914.449	2589.34
1917.652	2588.2
1920.855	2568.86
1924.058	2619.38
1927.26	2656.85
1930.462	2685
1933.664	2711.83
1936.865	2647.87
1940.066	2659.29
1943.267	2603.95
1946.467	2618.99
1949.668	2648.26
1952.868	2717.3
1956.067	2695.37
1959.267	2625.96
1962.466	2653.8
1965.665	2637.88
1968.863	2632.27
1972.061	2648.72
1975.259	2646.43
1978.457	2727.15
1981.654	2687.9
1984.852	2684.94
1988.048	2616.9
1991.245	2618.29
1994.441	2705.36
1997.637	2688.65
2000.833	2670.62
2004.028	2710.03
2007.223	2764.92
2010.418	2742.38
2013.613	2702.88
2016.807	2672.91
2020.001	2678.79
2023.194	2722.66
2026.388	2699.72
2029.581	2647.29
2032.774	2697.82
2035.966	2701.04
2039.158	2634.33
2042.35	2661.81
2045.542	2588.17
2048.733	2687.23
2051.924	2708.44
2055.115	2740.36
2058.306	2681.98
2061.496	2743.45
2064.686	2804.37
2067.875	2718.11
2071.065	2735.15
2074.254	2760.77
2077.442	2710.94
2080.631	2802.52
2083.819	2696.79
2087.007	2679.25
2090.195	2648.46
2093.382	2683.31
2096.569	2661.49
2099.756	2614.53
2102.942	2641.05
2106.128	2646.96
2109.314	2640.6
2112.5	2604.44
2115.685	2576.81
2118.87	2586.77
2122.055	2652.54
2125.239	2619.07
2128.424	2593.33
2131.608	2696.79
2134.791	2678.26
2137.974	2738.11
2141.157	2722.46
2144.34	2671.65
2147.523	2686.95
2150.705	2703.85
2153.887	2681.38
2157.068	2631.19
2160.25	2634.22
2163.431	2671.42
2166.611	2616.85
2169.792	2636.75
2172.972	2528.2
2176.152	2606.23
2179.331	2641.01
2182.511	2624
2185.69	2652.29
2188.868	2648.59
2192.047	2706.01
2195.225	2694.56
2198.403	2645.42
2201.58	2635.71
2204.758	2627.13
2207.935	2710.55
2211.111	2600.86
2214.288	2585.75
2217.464	2626.94
2220.64	2596.33
2223.815	2652.37
2226.991	2568.8
2230.166	2591.01
2233.34	2618.34
2236.515	2647.55
2239.689	2721.29
2242.863	2663.45
2246.036	2719.17
2249.209	2719.44
2252.382	2752.08
2255.555	2740.24
2258.727	2676.6
2261.9	2719.68
2265.071	2710.01
2268.243	2712.72
2271.414	2642.02
2274.585	2605.96
2277.756	2675.33
2280.926	2629.66
2284.096	2669.81
2287.266	2575.17
2290.436	2631.83
2293.605	2661.07
2296.774	2689
2299.942	2713.5
2303.111	2730.18
2306.279	2780.96
2309.447	2764.77
2312.614	2737.18
2315.781	2756.97
2318.948	2725.16
2322.115	2765.31
2325.281	2667.01
2328.447	2684.98
2331.613	2658.75
2334.779	2628.67
2337.944	2631.61
2341.109	2630.26
2344.274	2612.99
2347.438	2579.42
2350.602	2603.83
2353.766	2622.09
2356.929	2607.54
2360.092	2648.61
2363.255	2601.86
2366.418	2537.86
2369.58	2649.58
2372.742	2438.37
2375.904	2450.91
2379.066	2428.49
2382.227	2465.4
2385.388	2427.65
2388.548	2353.23
2391.709	2409.14
2394.869	2388.87
2398.029	2485.4
2401.188	2497.94
2404.347	2431.56
2407.506	2573.54
2410.665	2602.72
2413.823	2608.54
2416.981	2565.62
2420.139	2598.11
2423.296	2647.86
2426.453	2619.39
2429.61	2641.1
2432.767	2578.06
2435.923	2618.48
2439.079	2580.56
2442.235	2627.71
2445.391	2553.99
2448.546	2583.92
2451.701	2632.1
2454.855	2604.28
2458.009	2657.66
2461.163	2659.85
2464.317	2622
2467.471	2653.26
2470.624	2691.19
2473.777	2664.15
2476.929	2678.13
2480.082	2703.83
2483.234	2667.76
2486.385	2622.03
2489.537	2614.78
2492.688	2572.74
2495.839	2593.16
2498.989	2604.18
2502.14	2590.1
2505.29	2571.96
2508.439	2597.13
2511.589	2521.32
2514.738	2531.35
2517.887	2563.3
2521.035	2626.95
2524.183	2607.15
2527.331	2591.52
2530.479	2562.82
2533.627	2573.12
