Data from C_3_HIR_WI_4N_Splice17_13-11-00-923.txt Node
Date: Sat Mar 14 13:11:00 EDT 2020
User: sa697716
Spectrometer: FLMS03696
Trigger mode: 0
Integration Time (sec): 3.180400E-1
Scans to average: 20
Electric dark correction enabled: true
Nonlinearity correction enabled: true
Boxcar width: 5
XAxis mode: Wavelengths
Number of Pixels in Spectrum: 2048
>>>>>Begin Spectral Data<<<<<
187.83	-321259.07
188.298	2365.71
188.766	1261.05
189.233	1055.11
189.701	1475.67
190.169	2130.85
190.636	807.74
191.104	679.3
191.571	120.65
192.039	-97.78
192.506	-101.22
192.974	412.43
193.441	-692.19
193.908	-120.41
194.375	-70.26
194.842	-57.02
195.31	13.88
195.777	155.67
196.244	352.55
196.711	438.44
197.177	515.68
197.644	740.42
198.111	1306.1
198.578	1876.09
199.045	1496.86
199.511	2447.62
199.978	2915.96
200.445	2477.72
200.911	2725.95
201.378	3054.96
201.844	2786.28
202.31	4807.55
202.777	5029.99
203.243	2775.21
203.709	2628.47
204.176	3140.67
204.642	2599.95
205.108	2402.97
205.574	1978.53
206.04	1802.35
206.506	1690.6
206.972	1583.99
207.438	1528.62
207.903	1735.21
208.369	1529.9
208.835	1523.43
209.301	1599.73
209.766	1643.77
210.232	1628.01
210.697	2001.68
211.163	2489
211.628	3787.33
212.094	3183.06
212.559	3922.32
213.024	2438.16
213.49	2980.34
213.955	2923.69
214.42	2839.04
214.885	2622.59
215.35	2530.43
215.815	2464.78
216.28	2612.54
216.745	2123.09
217.21	2313.92
217.675	2138.41
218.14	2423.51
218.604	2716.13
219.069	3113.18
219.534	3311.57
219.998	3863.29
220.463	4706.16
220.927	5801.74
221.392	5496.78
221.856	5588.09
222.32	7051.34
222.785	8718.26
223.249	10962.76
223.713	12259.91
224.177	12236.48
224.642	15666.11
225.106	19330.8
225.57	21097.82
226.034	15687.01
226.497	23831.14
226.961	21538.45
227.425	25128.53
227.889	27843.98
228.353	27840.58
228.816	57422.06
229.28	55000.89
229.744	46324.95
230.207	28104.58
230.671	27658.6
231.134	45737.7
231.597	52717.87
232.061	52587.3
232.524	51185.54
232.987	35239.54
233.45	31737.22
233.914	28461.4
234.377	29173.15
234.84	26701.88
235.303	31486.55
235.766	35107.1
236.229	36228.71
236.691	22814.88
237.154	25637.4
237.617	19274.91
238.08	19729.72
238.542	23043.05
239.005	16462.99
239.468	16306.23
239.93	15369.5
240.393	13954.49
240.855	12235.43
241.317	12532.52
241.78	15246.21
242.242	15760.23
242.704	17002.01
243.166	14773.72
243.629	13416.84
244.091	15463.53
244.553	16966.6
245.015	18230.15
245.477	23557.94
245.939	34523.32
246.4	36606.66
246.862	35506.97
247.324	33465.7
247.786	37443.58
248.247	49083.11
248.709	50658.85
249.17	37834.53
249.632	35568.63
250.093	41224.97
250.555	35604.46
251.016	21702.09
251.477	20573.47
251.939	22197.46
252.4	23260.14
252.861	27613.62
253.322	25688.25
253.783	30582.97
254.244	39615.89
254.705	31270.89
255.166	27753.2
255.627	27323.95
256.088	38566.63
256.549	40969.12
257.009	35253.1
257.47	42784.59
257.931	34869.01
258.391	26146.3
258.852	26940.78
259.312	28286.51
259.773	34921.9
260.233	29532.75
260.694	24917.73
261.154	28245.23
261.614	22678.06
262.074	20292.52
262.534	21070.24
262.994	19850.88
263.455	26423.8
263.915	22252.5
264.374	20948.76
264.834	22883.91
265.294	25353.74
265.754	26238.55
266.214	24833.12
266.673	23247.49
267.133	29333.82
267.593	29101.43
268.052	35581.8
268.512	30937.96
268.971	37320.27
269.431	40880.97
269.89	36534.4
270.349	54723.88
270.809	61044.95
271.268	54903.26
271.727	123101.03
272.186	79721.15
272.645	59731.15
273.104	43097.72
273.563	62387.44
274.022	48992.86
274.481	41679.07
274.94	32136
275.399	23865.41
275.857	27772.93
276.316	37484.44
276.775	33354.55
277.233	32800.92
277.692	30723.25
278.15	34751.64
278.609	35784.37
279.067	33113.26
279.525	30781.67
279.984	39735.87
280.442	47752.29
280.9	47045.35
281.358	30981.43
281.816	28900.72
282.274	28322.21
282.732	29224.06
283.19	29348.15
283.648	25271.65
284.106	26919.79
284.564	27341.54
285.021	25344
285.479	18907.75
285.937	17186.05
286.394	15060.68
286.852	15466.18
287.309	16265.24
287.767	15736.29
288.224	14974.99
288.682	16451.88
289.139	18053.68
289.596	16519.17
290.053	17161.49
290.511	21659.37
290.968	26266.57
291.425	35617.29
291.882	29674.51
292.339	25791.6
292.796	25598.8
293.252	24099.83
293.709	19135.15
294.166	17143.6
294.623	18940.43
295.079	18174.86
295.536	18249.99
295.992	16564.04
296.449	16376.34
296.905	17004.26
297.362	16283.84
297.818	17105.77
298.274	17752.42
298.731	18065.87
299.187	17869.24
299.643	19179.57
300.099	23169.39
300.555	25381.02
301.011	21199.17
301.467	20449.26
301.923	23882.7
302.379	23323.22
302.835	22886.01
303.291	22884.64
303.746	26021.15
304.202	32862.5
304.658	32959.68
305.113	22150.85
305.569	21692.69
306.024	23118.77
306.479	22002.12
306.935	18554.65
307.39	20287.56
307.845	18735.09
308.301	18851.21
308.756	18374.39
309.211	17705.69
309.666	18162.54
310.121	22577.5
310.576	22918.07
311.031	22733.61
311.486	26007.36
311.94	25992.23
312.395	34739.18
312.85	65258.85
313.305	320313.92
313.759	1660754.22
314.214	120240.92
314.668	95173.45
315.123	79985.77
315.577	28705.56
316.032	25523.85
316.486	32011.08
316.94	25285.83
317.394	17590.35
317.849	13685.65
318.303	12982.79
318.757	12239.57
319.211	13523.01
319.665	11845.47
320.119	12004.73
320.572	17201.63
321.026	16065.48
321.48	13377.58
321.934	14569.87
322.387	14576.82
322.841	15731.65
323.295	14126.34
323.748	16247.21
324.202	16507.79
324.655	19850.61
325.108	27710.16
325.562	19574.42
326.015	23259.59
326.468	17581.51
326.921	19667.19
327.374	18378.43
327.827	19141.25
328.28	21688.63
328.733	14544.29
329.186	12763.97
329.639	12114.48
330.092	10206.07
330.545	9717.27
330.997	9817.4
331.45	10718.96
331.903	12573.71
332.355	21585.28
332.808	20978.4
333.26	17263.42
333.713	18726.91
334.165	18884.86
334.617	25242.71
335.069	20379.17
335.522	36900.23
335.974	40816.15
336.426	37261.92
336.878	25804.74
337.33	13126.51
337.782	12816
338.234	16074.74
338.686	19266.09
339.137	22881.61
339.589	21596.15
340.041	16942.19
340.493	14563.26
340.944	14903.22
341.396	16078.04
341.847	13513.82
342.299	15922.45
342.75	19466.76
343.201	17023.25
343.653	19539.96
344.104	23983.35
344.555	18854.57
345.006	29330.42
345.457	22441.29
345.908	17838.65
346.359	16771.19
346.81	13659.03
347.261	14393.83
347.712	14125.04
348.163	15108.88
348.613	15327.7
349.064	14303.84
349.515	12521.31
349.965	12852.66
350.416	15457.73
350.866	16933.65
351.317	19117.65
351.767	31660.08
352.217	39979.58
352.668	33190.35
353.118	30458.88
353.568	29335.13
354.018	23185.24
354.468	24433.52
354.918	17502.94
355.368	15320.42
355.818	21701.64
356.268	62465.31
356.718	261262.14
357.168	65029.58
357.617	32637.75
358.067	36324.77
358.517	34031.76
358.966	39972.55
359.416	44877.9
359.865	48451.53
360.315	57685.97
360.764	26887.75
361.213	15035.91
361.663	14236.79
362.112	17572.37
362.561	28447.32
363.01	21439.55
363.459	18034.05
363.908	19447.64
364.357	16513.64
364.806	27904.53
365.255	19176.96
365.703	17596.1
366.152	17655.57
366.601	14314.74
367.05	11619.56
367.498	10518.02
367.947	10987.2
368.395	11433.5
368.844	10149.03
369.292	12206.19
369.74	8425.9
370.189	12878.08
370.637	15047.76
371.085	12963.92
371.533	15764
371.981	15182.65
372.429	14497.03
372.877	15064.43
373.325	12576.27
373.773	12799.12
374.221	11396.23
374.669	14153.49
375.116	12239.49
375.564	12317.48
376.012	13772.45
376.459	11335.54
376.907	13538.52
377.354	16330.05
377.801	15214
378.249	17481.93
378.696	22286.99
379.143	26984.92
379.591	28732.53
380.038	48664.86
380.485	35238.32
380.932	38029.92
381.379	34863.46
381.826	25683.58
382.273	18243.4
382.72	15932.66
383.166	15516.22
383.613	10037.05
384.06	9034.09
384.506	10448.21
384.953	7634.13
385.4	7660.9
385.846	6686.85
386.292	6477.22
386.739	6312.51
387.185	6233.34
387.631	6226.52
388.078	6045.32
388.524	6468.23
388.97	5973.21
389.416	4983.28
389.862	5295.91
390.308	5009.78
390.754	5093.35
391.2	5535.06
391.645	5654.14
392.091	5423.87
392.537	5236.02
392.983	5225.55
393.428	5152.96
393.874	5524.79
394.319	5533.4
394.765	5256.43
395.21	5397.77
395.655	5056.97
396.101	4728.91
396.546	4268
396.991	4288.56
397.436	3992.54
397.881	3858.01
398.326	3645.75
398.771	3446.43
399.216	3004.56
399.661	2698.55
400.106	2696.32
400.551	2764.82
400.995	2488.2
401.44	2468.94
401.885	2323.25
402.329	2343.24
402.774	2251.43
403.218	2183.86
403.663	2100.96
404.107	2162.22
404.551	2180.34
404.995	1996.34
405.44	1917.9
405.884	1947.48
406.328	1878.48
406.772	1871.41
407.216	1709.15
407.66	1648.97
408.104	1565.67
408.547	1470.22
408.991	1423.66
409.435	1373.85
409.879	1357.14
410.322	1343.62
410.766	1299.33
411.209	1238.73
411.653	1190.71
412.096	1166.76
412.54	1167.27
412.983	1157.2
413.426	1159.51
413.869	1158.58
414.312	1137.48
414.756	1095.12
415.199	1043.18
415.642	1012.83
416.085	1015.93
416.527	1009.25
416.97	1026.46
417.413	979.39
417.856	971.55
418.298	960.96
418.741	954.25
419.184	949.13
419.626	990.12
420.069	991.07
420.511	994.9
420.953	975.1
421.396	965.71
421.838	940.13
422.28	961.41
422.722	965.77
423.164	981.44
423.606	967.23
424.048	966.29
424.49	919.33
424.932	914.09
425.374	900.58
425.816	915.13
426.258	934.71
426.699	945.17
427.141	929.28
427.582	942.85
428.024	936.46
428.465	928.48
428.907	906.47
429.348	894.58
429.789	896.9
430.231	880.86
430.672	894
431.113	871.92
431.554	859.62
431.995	837.69
432.436	808.34
432.877	791.88
433.318	781.89
433.759	779.18
434.2	780.23
434.64	774.47
435.081	778.37
435.522	737
435.962	711.72
436.403	696.35
436.843	705.73
437.284	690.3
437.724	670.17
438.164	670.95
438.604	656.74
439.045	631.87
439.485	606
439.925	592.29
440.365	576.05
440.805	566.11
441.245	560.45
441.685	540.28
442.125	535.82
442.564	539.73
443.004	528.35
443.444	528.33
443.883	529.93
444.323	525.03
444.762	524.19
445.202	532.28
445.641	545.55
446.081	541.4
446.52	545.28
446.959	542.92
447.398	530.25
447.837	524.91
448.276	515.04
448.716	519.07
449.154	522.53
449.593	511.73
450.032	510.73
450.471	498.73
450.91	499.1
451.349	499.49
451.787	495.39
452.226	504.42
452.664	503.42
453.103	503.98
453.541	504.41
453.98	504.89
454.418	508.17
454.856	500.44
455.295	500.32
455.733	504.84
456.171	506.59
456.609	507.8
457.047	505.51
457.485	512.98
457.923	514.22
458.361	506.52
458.798	507.53
459.236	506.47
459.674	509.48
460.111	511.11
460.549	506.27
460.987	503.84
461.424	501.96
461.862	499.63
462.299	492
462.736	492.31
463.173	494.12
463.611	490.03
464.048	489.53
464.485	492.35
464.922	487.74
465.359	483.68
465.796	482.87
466.233	480.45
466.67	476.89
467.106	475.86
467.543	469.73
467.98	462.37
468.416	449.09
468.853	444.75
469.29	431.85
469.726	427.58
470.162	416.93
470.599	406.99
471.035	401.58
471.471	392.02
471.907	389.45
472.344	387.54
472.78	389.99
473.216	395.25
473.652	390.47
474.088	389.14
474.523	387.68
474.959	391.33
475.395	388.35
475.831	386.45
476.266	387.57
476.702	385.97
477.138	381.33
477.573	379.12
478.008	377.05
478.444	378.53
478.879	382.3
479.314	384.61
479.75	383.96
480.185	385.63
480.62	388.89
481.055	390.84
481.49	394.3
481.925	400.01
482.36	408.66
482.795	419.62
483.229	430.41
483.664	439.59
484.099	440.54
484.534	447.36
484.968	451.81
485.403	453.46
485.837	453.03
486.271	452.12
486.706	452.57
487.14	445.89
487.574	439.47
488.009	435.61
488.443	431.48
488.877	436.38
489.311	438.14
489.745	442.55
490.179	447.15
490.613	457.05
491.046	460.03
491.48	463.77
491.914	464.83
492.348	468.62
492.781	472.82
493.215	474.67
493.648	475.67
494.082	479.79
494.515	482.02
494.948	487.92
495.382	490.51
495.815	494.85
496.248	499.42
496.681	509.24
497.114	518.12
497.547	525.53
497.98	536.08
498.413	542.63
498.846	550.88
499.279	557.98
499.711	561.81
500.144	565.27
500.577	575.03
501.009	585.02
501.442	594.84
501.874	597.71
502.306	601.47
502.739	611.07
503.171	623.49
503.603	628.5
504.036	637.51
504.468	644.8
504.9	655.42
505.332	663.43
505.764	669.02
506.196	676.43
506.627	690.67
507.059	704.29
507.491	712.42
507.923	714.78
508.354	729.33
508.786	740.99
509.217	757.86
509.649	774.15
510.08	791.19
510.512	808.68
510.943	824.1
511.374	836.6
511.805	855.81
512.237	874.78
512.668	902.7
513.099	927.15
513.53	952.41
513.961	973.09
514.391	1001.08
514.822	1032.62
515.253	1064.1
515.684	1088.4
516.114	1116.13
516.545	1137.93
516.975	1162.13
517.406	1181.98
517.836	1188.44
518.267	1197.81
518.697	1217.15
519.127	1225.61
519.558	1235.21
519.988	1242.93
520.418	1255.87
520.848	1274.65
521.278	1284.12
521.708	1311.9
522.138	1326.09
522.567	1356.87
522.997	1382.61
523.427	1398.12
523.857	1415.64
524.286	1427.72
524.716	1443.9
525.145	1463.23
525.575	1474.83
526.004	1491.53
526.433	1480.67
526.863	1483.2
527.292	1476.76
527.721	1484.39
528.15	1491.49
528.579	1494.28
529.008	1506.19
529.437	1528.81
529.866	1542.28
530.295	1559.39
530.724	1571.92
531.152	1598.19
531.581	1612.86
532.01	1629.68
532.438	1637.82
532.867	1652.99
533.295	1671.05
533.723	1677.02
534.152	1674.58
534.58	1675.23
535.008	1661.11
535.436	1663.07
535.865	1670.01
536.293	1682.8
536.721	1697.74
537.149	1720.75
537.576	1723.76
538.004	1735.13
538.432	1743.36
538.86	1742.43
539.287	1749.38
539.715	1763.11
540.143	1765.14
540.57	1761.52
540.998	1757.55
541.425	1737.29
541.852	1717.33
542.28	1715.91
542.707	1700.7
543.134	1687.19
543.561	1683.18
543.988	1676.36
544.415	1675.59
544.842	1672
545.269	1666.11
545.696	1669.81
546.123	1681.73
546.549	1674.54
546.976	1663.26
547.403	1663.59
547.829	1666.8
548.256	1670.62
548.682	1668.69
549.108	1662.9
549.535	1662.84
549.961	1666.1
550.387	1654.35
550.813	1650.48
551.24	1657.52
551.666	1660.07
552.092	1652.86
552.518	1646.47
552.943	1641.55
553.369	1648.39
553.795	1654.6
554.221	1655.9
554.646	1653.26
555.072	1662.72
555.498	1666.66
555.923	1674.71
556.349	1688.1
556.774	1695.38
557.199	1697.19
557.625	1701.4
558.05	1695.43
558.475	1706.05
558.9	1704.77
559.325	1696.92
559.75	1690.49
560.175	1684.71
560.6	1677.58
561.025	1674.97
561.449	1675.17
561.874	1678.83
562.299	1682.4
562.723	1688.87
563.148	1676.6
563.572	1678.94
563.997	1685.68
564.421	1690.03
564.846	1687.59
565.27	1690.09
565.694	1685.98
566.118	1695.39
566.542	1701.46
566.966	1693.8
567.39	1687.38
567.814	1675.66
568.238	1673.08
568.662	1675.38
569.086	1675.27
569.509	1681.44
569.933	1664.48
570.357	1655.51
570.78	1633.05
571.204	1618.34
571.627	1605.82
572.05	1601.86
572.474	1599.78
572.897	1586.71
573.32	1579.59
573.743	1568.9
574.166	1550.36
574.589	1548.06
575.012	1539.79
575.435	1537.18
575.858	1528.05
576.281	1517.9
576.704	1502.94
577.126	1491.02
577.549	1480.35
577.972	1470.42
578.394	1460.57
578.817	1453.24
579.239	1436.29
579.661	1423.37
580.084	1408.64
580.506	1396.1
580.928	1392.44
581.35	1381.78
581.772	1377.89
582.194	1365.55
582.616	1353.74
583.038	1340.04
583.46	1329.08
583.882	1326.36
584.303	1328.98
584.725	1325.53
585.147	1327.34
585.568	1334.66
585.99	1345.14
586.411	1350.41
586.833	1362.69
587.254	1362.94
587.675	1375.03
588.096	1385.8
588.518	1380.51
588.939	1364.18
589.36	1361.09
589.781	1350.35
590.202	1326.88
590.623	1318.13
591.043	1313.92
591.464	1302.76
591.885	1298.86
592.305	1292.45
592.726	1280.11
593.147	1280.74
593.567	1277.34
593.987	1270.86
594.408	1266.18
594.828	1262.6
595.248	1257.38
595.669	1241.63
596.089	1235.42
596.509	1229.35
596.929	1217.73
597.349	1218.31
597.769	1208.8
598.189	1202.74
598.608	1203.38
599.028	1204.47
599.448	1204.55
599.867	1192.87
600.287	1187.95
600.706	1184.02
601.126	1175.75
601.545	1175.3
601.965	1173.2
602.384	1167.93
602.803	1170.61
603.222	1166.14
603.641	1160.06
604.061	1156.17
604.48	1151.29
604.898	1158.12
605.317	1160.66
605.736	1160.98
606.155	1157.65
606.574	1150.11
606.992	1154.31
607.411	1148.17
607.829	1139.4
608.248	1135.33
608.666	1132.51
609.085	1131.2
609.503	1122.37
609.921	1116.75
610.339	1117.27
610.758	1114.17
611.176	1108.3
611.594	1099.45
612.012	1095.62
612.43	1098.13
612.847	1101.61
613.265	1100.93
613.683	1104.35
614.101	1103.78
614.518	1097.49
614.936	1088.61
615.353	1076.25
615.771	1072.34
616.188	1071.32
616.606	1067.26
617.023	1059.41
617.44	1047.64
617.857	1040.37
618.274	1031.56
618.691	1026.6
619.108	1019.68
619.525	1012.7
619.942	1016.57
620.359	1018.47
620.776	1013.02
621.192	1009.32
621.609	1007.66
622.026	1011.65
622.442	1016.36
622.859	1018.06
623.275	1011.4
623.691	1015.03
624.108	1023.95
624.524	1035.41
624.94	1034.2
625.356	1042.21
625.772	1052.01
626.188	1060.36
626.604	1061.56
627.02	1056.99
627.436	1055.35
627.852	1060.15
628.268	1069.75
628.683	1061.78
629.099	1054.38
629.514	1049.71
629.93	1051.88
630.345	1054.5
630.761	1049.84
631.176	1051.92
631.591	1047.51
632.007	1041.74
632.422	1039.3
632.837	1028.61
633.252	1026.91
633.667	1017.51
634.082	1009.39
634.497	998.6
634.911	983.16
635.326	980.91
635.741	965.91
636.155	957.06
636.57	957.05
636.984	955.21
637.399	955.62
637.813	952.95
638.228	950.44
638.642	952.64
639.056	942.61
639.47	940.97
639.884	931.8
640.298	925.53
640.712	923.21
641.126	912.93
641.54	905.67
641.954	899.18
642.368	888.15
642.781	882.14
643.195	866.19
643.609	864.98
644.022	857.17
644.436	852.83
644.849	842.34
645.262	831.07
645.676	829.58
646.089	823.85
646.502	812.83
646.915	808.35
647.328	792.75
647.741	790.51
648.154	779.64
648.567	778.79
648.98	768.49
649.393	767.33
649.805	763.01
650.218	756.82
650.631	744.19
651.043	737.24
651.456	731.39
651.868	730.59
652.28	742.01
652.693	750.77
653.105	752.44
653.517	757.4
653.929	756.18
654.341	758.26
654.753	747.72
655.165	750.44
655.577	747.58
655.989	742.78
656.401	736.03
656.813	708.53
657.224	691.69
657.636	670.33
658.047	656.08
658.459	641
658.87	632.97
659.282	622.97
659.693	607.51
660.104	594.86
660.515	584.33
660.926	579.7
661.338	575.92
661.749	569.96
662.159	561.46
662.57	557.1
662.981	552.99
663.392	547.79
663.803	549.44
664.213	546.06
664.624	542.53
665.035	542.3
665.445	533.4
665.855	528.78
666.266	523.94
666.676	522.79
667.086	515.74
667.497	514.63
667.907	510.26
668.317	503.84
668.727	502.76
669.137	502.71
669.547	501.04
669.956	503.36
670.366	504.73
670.776	506.29
671.186	508.66
671.595	511.49
672.005	513.02
672.414	512.55
672.824	513.02
673.233	514.58
673.642	516.49
674.052	519.59
674.461	522.02
674.87	524.41
675.279	522.79
675.688	523.63
676.097	526.01
676.506	524.81
676.915	534.39
677.323	536.21
677.732	535.84
678.141	536.81
678.549	530.19
678.958	530.08
679.366	530.48
679.775	534.38
680.183	543.77
680.592	548.52
681	554.01
681.408	550.27
681.816	556.8
682.224	564.96
682.632	574
683.04	596.6
683.448	615.7
683.856	639.44
684.264	667.15
684.671	690.27
685.079	720.9
685.487	754.58
685.894	802.86
686.302	841.83
686.709	874.05
687.116	914.18
687.524	947.38
687.931	976.51
688.338	1002.23
688.745	1024.36
689.152	1052.41
689.559	1087.7
689.966	1125.34
690.373	1145.2
690.78	1181.44
691.187	1234.99
691.593	1276.1
692	1311.91
692.407	1366.82
692.813	1432.61
693.22	1486
693.626	1542.35
694.032	1588.59
694.439	1652.99
694.845	1708.03
695.251	1777.03
695.657	1837.08
696.063	1924.9
696.469	1994.61
696.875	2058.34
697.281	2098.56
697.687	2147.21
698.093	2188.36
698.498	2261.17
698.904	2321.91
699.31	2406.06
699.715	2467.19
700.12	2556.69
700.526	2581.39
700.931	2650.27
701.337	2703.89
701.742	2741.04
702.147	2823.18
702.552	2859.04
702.957	2920.02
703.362	2945.35
703.767	2978.11
704.172	3020.87
704.577	2984.27
704.981	3034.29
705.386	3056.65
705.791	3056.85
706.195	3131.18
706.6	3145.71
707.004	3223.76
707.408	3202.19
707.813	3232.69
708.217	3228.94
708.621	3236.68
709.025	3334.58
709.43	3340.12
709.834	3401.97
710.237	3471.53
710.641	3465.54
711.045	3493.28
711.449	3493.37
711.853	3526.63
712.256	3572.53
712.66	3611.62
713.064	3687.4
713.467	3728.67
713.87	3838.32
714.274	3885.38
714.677	3993.65
715.08	4149.97
715.484	4312.43
715.887	4510.41
716.29	4701.2
716.693	4900.45
717.096	5132.14
717.499	5262.63
717.901	5295.28
718.304	5328.19
718.707	5357.65
719.109	5264.81
719.512	5239.04
719.915	5114.84
720.317	5064.08
720.719	5111.93
721.122	5090.24
721.524	5047.75
721.926	5013.64
722.328	5113.73
722.731	5109.52
723.133	5141.7
723.535	5332.61
723.937	5355.24
724.338	5410.4
724.74	5453.72
725.142	5399.26
725.544	5399.43
725.945	5428.68
726.347	5426.82
726.748	5419.96
727.15	5434.11
727.551	5399.44
727.952	5374.78
728.354	5350.18
728.755	5349.84
729.156	5311.52
729.557	5296.48
729.958	5181.51
730.359	5128.58
730.76	5112.45
731.161	5059.11
731.562	5037.25
731.962	5041.91
732.363	4980.4
732.763	4920.02
733.164	4957.06
733.564	4892.69
733.965	4803.12
734.365	4771.4
734.766	4797.61
735.166	4759.66
735.566	4704.37
735.966	4678.68
736.366	4674.42
736.766	4615.55
737.166	4645.25
737.566	4604.92
737.966	4581.06
738.365	4620.01
738.765	4615.62
739.165	4547.39
739.564	4523.46
739.964	4569.69
740.363	4526.86
740.763	4525.21
741.162	4517.46
741.561	4488.28
741.96	4444.96
742.36	4465.65
742.759	4472.34
743.158	4510.69
743.557	4526.13
743.955	4565.5
744.354	4520.7
744.753	4578.15
745.152	4539.21
745.55	4592.33
745.949	4587.17
746.348	4590.99
746.746	4608.59
747.144	4571.98
747.543	4549.87
747.941	4595.32
748.339	4528.28
748.737	4523.36
749.136	4516.24
749.534	4579.13
749.932	4550.72
750.33	4576.32
750.727	4631.57
751.125	4608.72
751.523	4593.17
751.921	4636.76
752.318	4606.11
752.716	4663.8
753.113	4677.89
753.511	4702.3
753.908	4703.99
754.305	4689.33
754.703	4746.37
755.1	4804.93
755.497	4861.7
755.894	5042.23
756.291	5210.94
756.688	5528.2
757.085	5951.05
757.482	6545.24
757.878	7191.73
758.275	7777.27
758.672	8583.7
759.068	9240.94
759.465	10176.38
759.861	11385.14
760.258	12791.21
760.654	13521.04
761.05	13410.16
761.447	12794.45
761.843	11909.5
762.239	11001.77
762.635	10589.94
763.031	10192.55
763.427	9626.19
763.822	9022.1
764.218	8432.01
764.614	7665.66
765.01	7150.6
765.405	6817.75
765.801	6567.45
766.196	6248.77
766.592	6069.06
766.987	5766.63
767.382	5560.67
767.778	5470.01
768.173	5346.02
768.568	5273.97
768.963	5152.42
769.358	5170.27
769.753	5127.95
770.148	5045.08
770.542	5043.87
770.937	5013.2
771.332	5100.49
771.726	5120.56
772.121	5065.24
772.515	5122.01
772.91	5109.58
773.304	5180.43
773.699	5119.24
774.093	5169.46
774.487	5226.55
774.881	5265.52
775.275	5262.32
775.669	5220.01
776.063	5264.49
776.457	5298.84
776.851	5225.76
777.245	5219.49
777.638	5251.78
778.032	5360.89
778.425	5325.08
778.819	5363.93
779.212	5325.39
779.606	5286.86
779.999	5307.85
780.392	5292.08
780.786	5371.02
781.179	5391.24
781.572	5434.27
781.965	5444.96
782.358	5388.25
782.751	5442.1
783.143	5395.4
783.536	5467.33
783.929	5511.85
784.322	5622.82
784.714	5651.26
785.107	5645.9
785.499	5718.7
785.891	5696.43
786.284	5677.21
786.676	5817.49
787.068	5802.26
787.46	5851.71
787.852	5869.78
788.245	5948.44
788.636	5973.56
789.028	6038.88
789.42	6077.6
789.812	6083.31
790.204	6175.44
790.595	6270.84
790.987	6078.4
791.378	6102.42
791.77	6229.92
792.161	6359.09
792.553	6415.19
792.944	6311.08
793.335	6246.22
793.726	6316.86
794.117	6401.87
794.508	6533.06
794.899	6505.63
795.29	6646.17
795.681	6698.65
796.072	6558.61
796.463	6385.03
796.853	6396.63
797.244	6546.46
797.634	6580.54
798.025	6579.23
798.415	6591.47
798.806	6679.33
799.196	6762.7
799.586	6817.62
799.976	6782.05
800.366	7011.88
800.756	7241.92
801.146	7202.77
801.536	7232.9
801.926	7297.54
802.316	7328.87
802.706	7406.01
803.095	7288.57
803.485	7389.02
803.874	7425.94
804.264	7678.94
804.653	7651.91
805.043	7796
805.432	7901.15
805.821	7907.76
806.21	7939.8
806.599	8049.9
806.988	8092.53
807.377	8198.27
807.766	8323.46
808.155	8600.86
808.544	8346.82
808.933	8359.55
809.321	8338.97
809.71	8630.68
810.098	8788.28
810.487	9232.84
810.875	9707.65
811.264	9726.81
811.652	10012.61
812.04	10154.58
812.428	10314.07
812.816	11055.32
813.204	11465.54
813.592	12002.05
813.98	12324.31
814.368	12222.25
814.756	12688.52
815.144	12604.06
815.531	13059.53
815.919	12984.35
816.306	13291.84
816.694	12985.83
817.081	13039.68
817.469	13379.52
817.856	13382.86
818.243	13643.54
818.63	14033.21
819.017	13629.15
819.404	13693.07
819.791	14065.66
820.178	14672.05
820.565	14911.51
820.952	15823.28
821.339	15343.92
821.725	15518.82
822.112	14796.31
822.498	14761.6
822.885	14884.78
823.271	14792.48
823.657	15201.09
824.044	15200.76
824.43	15265.34
824.816	15236.45
825.202	14815.02
825.588	15807.54
825.974	15829.85
826.36	16331.24
826.746	16362.35
827.132	16714.97
827.517	16688.34
827.903	15922.53
828.289	15961.34
828.674	15197.14
829.06	15093.34
829.445	15471.74
829.83	15817.79
830.216	16268.64
830.601	16619.79
830.986	16219
831.371	16083.57
831.756	16620.79
832.141	16201.09
832.526	16198.36
832.911	16473.04
833.295	16353.03
833.68	16813.39
834.065	16205.84
834.449	15324.25
834.834	15245.92
835.218	15239.54
835.603	15564.63
835.987	15360.13
836.371	16160.73
836.755	16049.97
837.139	16433.24
837.524	16664.88
837.908	16478.39
838.291	16529.41
838.675	16590.12
839.059	16793.13
839.443	16787.15
839.827	16568.56
840.21	17026.21
840.594	16883.95
840.977	17086.91
841.361	17071.61
841.744	17431.92
842.127	17283.63
842.511	17523.48
842.894	18101.18
843.277	18465.94
843.66	18974.75
844.043	19045.91
844.426	18264.45
844.809	17969.14
845.191	17987.61
845.574	17541.92
845.957	17187.24
846.339	17080.73
846.722	16576.48
847.104	16639.28
847.487	16470.39
847.869	16488.12
848.252	16752.79
848.634	17077.42
849.016	17324.44
849.398	17459.13
849.78	18271.27
850.162	18279.47
850.544	18673.76
850.926	19268.99
851.307	19179.13
851.689	19454.84
852.071	19895.21
852.452	20209.28
852.834	20186.74
853.215	20570.06
853.597	20715.68
853.978	21006.3
854.359	21449.48
854.741	20499.09
855.122	20409.08
855.503	20140.05
855.884	20260.52
856.265	20195.25
856.646	20304.09
857.026	19932.79
857.407	19867.88
857.788	20015.33
858.169	20287.66
858.549	19473.29
858.93	20069.51
859.31	20112.61
859.69	20310.74
860.071	19929.18
860.451	19722.2
860.831	19015.96
861.211	20122.19
861.591	20652.65
861.971	20628.96
862.351	20818.41
862.731	21174.94
863.111	21439.51
863.491	21765.02
863.87	22604.38
864.25	22938.17
864.629	22553.39
865.009	23050.81
865.388	23872.37
865.768	25579.9
866.147	25470.97
866.526	24053.11
866.905	24356.29
867.284	25711.52
867.663	24413.53
868.042	23398.91
868.421	23315.27
868.8	23697.48
869.179	23932.41
869.558	22536.46
869.936	20769.28
870.315	21149.9
870.693	21664.59
871.072	23363.99
871.45	22267.04
871.828	22541.8
872.207	23695.02
872.585	23334.41
872.963	23975.18
873.341	23133.83
873.719	22858.64
874.097	22581.12
874.475	23001.64
874.853	23539.58
875.23	22556.3
875.608	23483.28
875.986	25406.02
876.363	24297.32
876.741	25041.97
877.118	24407.99
877.495	25611.35
877.873	26030.78
878.25	27398.07
878.627	26274.69
879.004	26628.83
879.381	26494.94
879.758	25794.53
880.135	24014.95
880.512	25399.14
880.889	24722.55
881.265	24471.86
881.642	24268.68
882.019	24684.96
882.395	24187.53
882.772	25144.56
883.148	24060.42
883.524	23954.83
883.901	23823.3
884.277	24177.12
884.653	24016.4
885.029	24700.56
885.405	27341.75
885.781	27114.76
886.157	25994.83
886.532	26306.88
886.908	26295.27
887.284	29231.57
887.659	30194.86
888.035	31125.79
888.411	31923.9
888.786	32355.1
889.161	33476.73
889.537	32861.41
889.912	33916.76
890.287	33879.15
890.662	34768.11
891.037	34140.94
891.412	31829.68
891.787	31504.6
892.162	30409.85
892.536	31114.88
892.911	29938.06
893.286	29299.86
893.66	28102.52
894.035	28823.08
894.409	31390.39
894.784	30101.84
895.158	30589.43
895.532	32401.5
895.906	33286.45
896.281	34052.03
896.655	33507.59
897.029	38293.6
897.402	39887.06
897.776	44410.75
898.15	44258.3
898.524	43776.5
898.898	44349.11
899.271	49649.32
899.645	43003.31
900.018	41306.29
900.392	42841.21
900.765	43196.03
901.138	39952.92
901.511	39345.32
901.884	36130.08
902.258	33305.72
902.631	34394.41
903.003	39600.35
903.376	35728.29
903.749	40046.28
904.122	42859.63
904.495	47168.36
904.867	47733.52
905.24	41427.06
905.612	38573.02
905.985	39439.01
906.357	41242.92
906.729	39359.47
907.102	33607.05
907.474	32311.78
907.846	32516.37
908.218	32074.21
908.59	28354.03
908.962	27430.75
909.334	29556.13
909.705	31032.05
910.077	30127.06
910.449	31345.54
910.82	32231.26
911.192	35474.23
911.563	36866.49
911.935	39464.84
912.306	39526.46
912.677	40810.57
913.048	40410.73
913.419	43840.61
913.79	44115.92
914.161	47300.47
914.532	45216.57
914.903	41563.61
915.274	39463.5
915.645	38894.73
916.015	34229.17
916.386	32622.05
916.756	34742.47
917.127	35835.43
917.497	32004.1
917.868	34807.43
918.238	33062.41
918.608	34033.76
918.978	34733.27
919.348	36780
919.718	38021.49
920.088	36612.38
920.458	38068.23
920.828	40041.19
921.198	37970.89
921.567	40567.3
921.937	31426.83
922.306	31749.07
922.676	34219.11
923.045	28551.72
923.415	27136.22
923.784	24702.64
924.153	25417.98
924.522	25374.42
924.891	23862.08
925.26	25554.23
925.629	24946.53
925.998	28693.24
926.367	28011.43
926.736	26700.39
927.104	31814.98
927.473	34199.56
927.842	41306.19
928.21	40892
928.578	42989.9
928.947	40649.17
929.315	40903.71
929.683	47998.61
930.051	48343.62
930.42	56128.2
930.788	47935.73
931.156	47547.36
931.523	44555.94
931.891	41162.9
932.259	39524.79
932.627	45784.7
932.994	64788.92
933.362	53535.27
933.729	46473.34
934.097	44478.74
934.464	37617.01
934.831	43400.79
935.199	42776.19
935.566	41471.28
935.933	41958.87
936.3	50786.92
936.667	39553.51
937.034	35675.52
937.401	35247.5
937.767	30405.79
938.134	27070.05
938.501	38183.93
938.867	40685.5
939.234	68712.94
939.6	58635.89
939.967	64761.57
940.333	43371.69
940.699	36925.13
941.065	29616.53
941.431	38877.91
941.798	37485.53
942.163	49198.09
942.529	30751.68
942.895	28333.46
943.261	18352.01
943.627	24101.16
943.992	21080.86
944.358	21130.63
944.723	21219.51
945.089	20691.17
945.454	19105.52
945.82	20424.7
946.185	19639.39
946.55	22787.42
946.915	20449.21
947.28	24005.07
947.645	21112.18
948.01	19494.94
948.375	20330.08
948.74	24347.92
949.104	28429.26
949.469	41103.15
949.834	72653.18
950.198	68971.08
950.562	41321.42
950.927	34409.28
951.291	41384.47
951.655	35264.14
952.02	33137.52
952.384	25042.18
952.748	21831.51
953.112	21273.89
953.476	18483.62
953.839	17077.25
954.203	16895.81
954.567	21104.15
954.931	33227.37
955.294	28412.76
955.658	28574.2
956.021	48595.59
956.385	82421.21
956.748	121510.33
957.111	188248.56
957.474	211415.38
957.837	238159.09
958.2	180182.41
958.563	64827.15
958.926	43835.53
959.289	66535.56
959.652	74312.88
960.015	55713.75
960.377	79928.91
960.74	91140.03
961.102	157307.92
961.465	168752.7
961.827	90454
962.189	173414.21
962.552	120184.55
962.914	96277.1
963.276	62449.91
963.638	51588.58
964	51125.02
964.362	34572.79
964.724	33435.17
965.085	23859.35
965.447	19566.86
965.809	22288.41
966.17	22319.15
966.532	24160.53
966.893	22186.05
967.255	20178.43
967.616	23817.04
967.977	19046.94
968.338	20785.1
968.699	17054.63
969.061	17040.37
969.421	17154.51
969.782	19240.58
970.143	16246.88
970.504	16812.53
970.865	19103.55
971.225	19528.29
971.586	19111.49
971.946	27246.31
972.307	23628.59
972.667	30902.76
973.027	31860.51
973.388	38618.11
973.748	26268.79
974.108	28606.49
974.468	38711.63
974.828	29861.45
975.188	22986.59
975.548	21120.38
975.907	17744.22
976.267	19916.2
976.627	16756.44
976.986	17333.62
977.346	16520.82
977.705	15889.86
978.064	14491.23
978.424	12061.23
978.783	12453.57
979.142	14213.84
979.501	13587.97
979.86	14350.63
980.219	13823.08
980.578	17833.3
980.937	19992.06
981.296	17819.46
981.654	18323.62
982.013	28480.13
982.371	36984.32
982.73	34532.28
983.088	39062.58
983.447	41756.73
983.805	59660.19
984.163	124939.5
984.521	138436.83
984.879	203020.18
985.237	-330405.6
985.595	318553.67
985.953	79130.42
986.311	45618.47
986.669	26476
987.026	22866.26
987.384	30730.04
987.741	31768.96
988.099	22683.74
988.456	18093.54
988.814	16942.9
989.171	14720
989.528	14522.23
989.885	15328.74
990.242	12148.66
990.599	15155.93
990.956	12423.18
991.313	8678.88
991.67	7130.71
992.027	7560.06
992.383	6711.85
992.74	5890.82
993.096	6187.13
993.453	6413.97
993.809	6652.69
994.165	8865.5
994.522	8116.94
994.878	8930.96
995.234	11223.7
995.59	11071.35
995.946	10467.11
996.302	11961.66
996.658	13801.24
997.013	15170.83
997.369	17979.21
997.725	23016.76
998.08	14919.57
998.436	23051.28
998.791	31839.82
999.147	31726.59
999.502	34592.67
999.857	25096.29
1000.212	40937
1000.567	58264.44
1000.922	33610.7
1001.277	21378.07
1001.632	15841.15
1001.987	20429.17
1002.342	14617.26
1002.696	11682.72
1003.051	9338.65
1003.406	11304.18
1003.76	11271.9
1004.114	11059.9
1004.469	9317.12
1004.823	7720.21
1005.177	8322
1005.531	6611.01
1005.885	5853.84
1006.239	6620.6
1006.593	8301.07
1006.947	11127.53
1007.301	8349.97
1007.655	9130.6
1008.008	6725.27
1008.362	7536.33
1008.715	10776.68
1009.069	9789.57
1009.422	14768.95
1009.776	29686
1010.129	19673.43
1010.482	16419.42
1010.835	13848.34
1011.188	28849.36
1011.541	27009.37
1011.894	-165096.07
1012.247	486809.77
1012.6	33035.86
1012.952	20853.58
1013.305	10680.85
1013.657	7678.43
1014.01	7280.36
1014.362	6012.86
1014.715	5363.05
1015.067	4671.94
1015.419	4572.15
1015.771	4045.64
1016.123	3603.96
1016.475	3721.62
1016.827	3957.38
1017.179	4258.03
1017.531	4278.55
1017.883	4378.87
1018.234	4241.29
1018.586	5337.28
1018.938	5653.31
1019.289	7821.29
1019.64	8991.39
1019.992	8357.1
1020.343	7626.68
1020.694	6046.71
1021.045	5336.17
1021.396	6107.3
1021.747	6531.17
1022.098	7782.64
1022.449	5664.2
1022.8	5269.82
1023.151	3670.96
1023.501	3252.48
1023.852	3532.44
1024.202	3667.93
1024.553	4005.68
1024.903	3923.83
1025.253	3352.36
1025.604	3022.69
1025.954	3767.36
1026.304	4579.17
1026.654	5269.02
1027.004	7740.41
1027.354	12448.56
1027.703	11781.98
1028.053	15471.79
1028.403	22765.27
1028.753	32906.4
1029.102	44947.71
1029.452	231114.11
1029.801	9981.95
1030.15	6442.9
1030.499	5528.92
897.758	2749.37
901.051	2707.88
904.343	2742.23
907.636	2742.93
910.928	2808.38
914.22	2717.55
917.511	2726.67
920.803	2790.97
924.094	2812.38
927.384	2788.64
930.675	2752.91
933.965	2704.6
937.255	2710.5
940.544	2679.3
943.834	2608.19
947.123	2555.18
950.411	2650
953.7	2620.93
956.988	2592.71
960.276	2531.78
963.563	2615.53
966.851	2611.12
970.138	2672.32
973.424	2664.36
976.711	2612.16
979.997	2758.91
983.283	2790.69
986.568	2692.93
989.853	2713.66
993.138	2738.1
996.423	2823.8
999.708	2756.56
1002.992	2825.59
1006.275	2647.1
1009.559	2701.77
1012.842	2820.73
1016.125	2750.38
1019.408	2726.49
1022.69	2819.34
1025.972	2834.08
1029.254	2807.67
1032.536	2734.22
1035.817	2765.77
1039.098	2703.8
1042.379	2864.5
1045.659	2857.75
1048.939	2786.35
1052.219	2809.34
1055.498	2825.88
1058.778	2808.07
1062.057	2792.95
1065.335	2813
1068.614	2833.38
1071.892	2815.84
1075.17	2894.85
1078.447	2880.51
1081.724	2868.7
1085.001	2910.28
1088.278	2881.11
1091.554	2894.75
1094.83	2891.77
1098.106	2921.2
1101.382	2967.11
1104.657	2968.11
1107.932	2962.23
1111.206	2925.76
1114.481	2883.66
1117.755	2886.06
1121.029	2861.82
1124.302	2916.37
1127.575	2864.55
1130.848	2850.07
1134.121	2809.13
1137.393	2757.96
1140.665	2826.5
1143.937	2799.7
1147.208	2760.01
1150.48	2797.47
1153.75	2784.33
1157.021	2820.13
1160.291	2787.67
1163.561	2833.38
1166.831	2827.4
1170.101	2858.39
1173.37	2834.46
1176.639	2775.43
1179.907	2838.34
1183.176	2841.51
1186.444	2850.05
1189.711	2877.85
1192.979	2889.63
1196.246	2848.18
1199.513	2862.94
1202.78	2860.05
1206.046	2869.85
1209.312	2895
1212.578	2923.6
1215.843	2872.68
1219.108	2844.16
1222.373	2866.33
1225.638	2831.57
1228.902	2811.8
1232.166	2778.41
1235.43	2762.04
1238.693	2783.61
1241.956	2783.54
1245.219	2821.53
1248.482	2815.92
1251.744	2808.14
1255.006	2969.04
1258.268	2924.21
1261.529	2863.49
1264.79	2872.62
1268.051	2974.45
1271.312	2993.01
1274.572	2954.34
1277.832	2941.19
1281.092	2935.23
1284.351	2903.02
1287.61	2880.23
1290.869	2792.97
1294.128	2765.41
1297.386	2862.72
1300.644	2849.58
1303.902	2863.5
1307.159	2718.23
1310.416	2775.37
1313.673	2802.05
1316.93	2783.76
1320.186	2832.16
1323.442	2878.01
1326.697	2860.12
1329.953	2856.16
1333.208	2876.16
1336.463	2858.84
1339.717	2793.16
1342.972	2937.91
1346.226	2912.87
1349.479	2840.66
1352.733	2809.48
1355.986	2836.35
1359.238	2812.4
1362.491	2816.15
1365.743	2819.42
1368.995	2812.13
1372.247	2825.89
1375.498	2853.01
1378.749	2858.64
1382	2814.64
1385.251	2873.72
1388.501	2835.03
1391.751	2814.21
1395	2788.23
1398.25	2822.91
1401.499	2826.39
1404.748	2752.97
1407.996	2744.54
1411.244	2728.9
1414.492	2709.47
1417.74	2689.12
1420.987	2696.56
1424.234	2755.87
1427.481	2739.58
1430.728	2798.3
1433.974	2770.18
1437.22	2788.22
1440.465	2788.89
1443.711	2745.79
1446.956	2784.73
1450.201	2773.94
1453.445	2818.21
1456.689	2795.29
1459.933	2808.53
1463.177	2841.19
1466.42	2808.64
1469.663	2790.73
1472.906	2782.39
1476.148	2868.89
1479.391	2821.13
1482.633	2790.55
1485.874	2801.08
1489.115	2784.21
1492.356	2795.4
1495.597	2767.4
1498.838	2769.7
1502.078	2739.69
1505.318	2684.78
1508.557	2728.65
1511.797	2693.71
1515.036	2777
1518.274	2768.1
1521.513	2740.13
1524.751	2763.39
1527.989	2772.75
1531.227	2787.36
1534.464	2778.09
1537.701	2800.88
1540.938	2820.07
1544.174	2772.45
1547.41	2774.09
1550.646	2812.74
1553.882	2844.16
1557.117	2901.1
1560.352	2915.83
1563.587	2871.29
1566.821	2828.55
1570.055	2867.05
1573.289	2835.74
1576.523	2916.83
1579.756	2921.12
1582.989	2940.55
1586.222	2899.62
1589.454	2941.26
1592.686	2911.83
1595.918	2937.41
1599.15	2924.47
1602.381	3006.75
1605.612	2956.1
1608.843	3054.18
1612.073	2962.55
1615.303	2950.02
1618.533	2936.97
1621.762	2940.8
1624.992	2929.83
1628.221	2913.89
1631.449	2897.9
1634.678	2957.19
1637.906	2906.82
1641.134	2948.18
1644.361	2903.41
1647.588	2894.8
1650.815	2907.83
1654.042	2890.73
1657.269	2921.1
1660.495	2868.13
1663.72	2882.96
1666.946	2847.96
1670.171	2787.75
1673.396	2762.61
1676.621	2753.48
1679.845	2778.3
1683.069	2798.93
1686.293	2844.48
1689.517	2813.54
1692.74	2737.64
1695.963	2771.26
1699.185	2793.47
1702.408	2766.51
1705.63	2813.11
1708.852	2824.63
1712.073	2794.49
1715.294	2774.54
1718.515	2838.15
1721.736	2784.5
1724.956	2779.35
1728.176	2808.13
1731.396	2829.04
1734.616	2816.39
1737.835	2844.49
1741.054	2823.47
1744.272	2815.61
1747.491	2848.92
1750.709	2907.93
1753.927	2805.67
1757.144	2852.87
1760.361	2892.22
1763.578	2890.16
1766.795	2827.77
1770.011	2840.39
1773.227	2885.16
1776.443	2917.43
1779.658	2965.07
1782.874	2905.9
1786.089	2882.14
1789.303	2885.98
1792.518	2892.23
1795.732	2880.76
1798.945	2886.41
1802.159	2938.76
1805.372	2830.1
1808.585	2814.37
1811.797	2818.79
1815.01	2871.57
1818.222	2870.38
1821.434	2833.38
1824.645	2894.46
1827.856	2875.48
1831.067	2914.39
1834.278	2872.86
1837.488	2859.55
1840.698	3018.18
1843.908	2936.13
1847.117	2894.24
1850.326	2770.4
1853.535	2883.38
1856.744	2918.53
1859.952	2831.69
1863.16	2833.11
1866.368	2856.26
1869.575	2960.78
1872.782	2840.76
1875.989	2783.59
1879.196	2874.14
1882.402	2870.01
1885.608	2913.2
1888.814	2808.66
1892.019	2700.79
1895.224	2753.43
1898.429	2739.16
1901.634	2714.64
1904.838	2693.19
1908.042	2745.56
1911.246	2745.24
1914.449	2671.75
1917.652	2671.15
1920.855	2654.3
1924.058	2709.1
1927.26	2744.99
1930.462	2772.99
1933.664	2796.1
1936.865	2730.78
1940.066	2735.39
1943.267	2682.82
1946.467	2702.75
1949.668	2732.99
1952.868	2800.32
1956.067	2774.68
1959.267	2701.93
1962.466	2731.41
1965.665	2717.44
1968.863	2712.36
1972.061	2732.19
1975.259	2735.35
1978.457	2813.17
1981.654	2768.46
1984.852	2767.84
1988.048	2698.32
1991.245	2703.36
1994.441	2790.97
1997.637	2779.54
2000.833	2762.21
2004.028	2802.9
2007.223	2856.7
2010.418	2830.06
2013.613	2795.38
2016.807	2763.73
2020.001	2770.73
2023.194	2819.53
2026.388	2795.08
2029.581	2739.74
2032.774	2788.08
2035.966	2791.01
2039.158	2718.63
2042.35	2746.59
2045.542	2671.98
2048.733	2775.89
2051.924	2802.49
2055.115	2834.73
2058.306	2772.18
2061.496	2832.64
2064.686	2901.04
2067.875	2813.3
2071.065	2831.43
2074.254	2860.06
2077.442	2810.63
2080.631	2904.14
2083.819	2787.45
2087.007	2769.75
2090.195	2738.8
2093.382	2775.8
2096.569	2753.91
2099.756	2704.82
2102.942	2728.85
2106.128	2732.67
2109.314	2724.07
2112.5	2683.64
2115.685	2658.91
2118.87	2669.91
2122.055	2734.82
2125.239	2696.97
2128.424	2671.39
2131.608	2779.93
2134.791	2761.5
2137.974	2821.97
2141.157	2805.84
2144.34	2755.73
2147.523	2775.31
2150.705	2788.62
2153.887	2770.43
2157.068	2716.29
2160.25	2721.12
2163.431	2761.7
2166.611	2704.63
2169.792	2721.18
2172.972	2610.71
2176.152	2694.19
2179.331	2731.64
2182.511	2709.43
2185.69	2741.12
2188.868	2730.06
2192.047	2792.13
2195.225	2779.03
2198.403	2727.34
2201.58	2721.91
2204.758	2716.04
2207.935	2803.42
2211.111	2688.52
2214.288	2668.83
2217.464	2709.09
2220.64	2682.79
2223.815	2743
2226.991	2659.41
2230.166	2680.13
2233.34	2707.99
2236.515	2735.73
2239.689	2814.23
2242.863	2756.14
2246.036	2810.64
2249.209	2817.27
2252.382	2854.5
2255.555	2838.84
2258.727	2772.46
2261.9	2814.91
2265.071	2806.49
2268.243	2810.75
2271.414	2735.94
2274.585	2692.25
2277.756	2762.07
2280.926	2716.77
2284.096	2758.1
2287.266	2661.41
2290.436	2718.46
2293.605	2749.42
2296.774	2779.01
2299.942	2804.95
2303.111	2821.68
2306.279	2870.87
2309.447	2856.97
2312.614	2833.05
2315.781	2854.46
2318.948	2822.63
2322.115	2862.06
2325.281	2763.98
2328.447	2784.9
2331.613	2760.83
2334.779	2728.62
2337.944	2732.81
2341.109	2731.61
2344.274	2713.35
2347.438	2674.53
2350.602	2700.51
2353.766	2720.06
2356.929	2704.95
2360.092	2746.22
2363.255	2695.76
2366.418	2621.65
2369.58	2744.42
2372.742	2513.72
2375.904	2531.62
2379.066	2505.12
2382.227	2546.89
2385.388	2509.2
2388.548	2425.63
2391.709	2486.42
2394.869	2464.3
2398.029	2571.6
2401.188	2587.91
2404.347	2517.47
2407.506	2671.53
2410.665	2700.37
2413.823	2708.74
2416.981	2660.26
2420.139	2693.94
2423.296	2748.74
2426.453	2722.72
2429.61	2745.21
2432.767	2671.44
2435.923	2709.17
2439.079	2669.01
2442.235	2720.2
2445.391	2643.16
2448.546	2673.28
2451.701	2724.68
2454.855	2693.8
2458.009	2751.36
2461.163	2752.12
2464.317	2711.92
2467.471	2747.46
2470.624	2789.49
2473.777	2760.5
2476.929	2775.31
2480.082	2801.72
2483.234	2761.92
2486.385	2719.39
2489.537	2710.6
2492.688	2666.87
2495.839	2684.42
2498.989	2695.55
2502.14	2678.9
2505.29	2658.37
2508.439	2686.95
2511.589	2605.88
2514.738	2619.05
2517.887	2652.05
2521.035	2712.41
2524.183	2697.91
2527.331	2677.29
2530.479	2647.75
2533.627	2658.17
