Data from C_3_DIV_WI_4N_Splice17_12-56-37-215.txt Node
Date: Sat Mar 14 12:56:37 EDT 2020
User: sa697716
Spectrometer: FLMS03696
Trigger mode: 0
Integration Time (sec): 3.180400E-1
Scans to average: 20
Electric dark correction enabled: true
Nonlinearity correction enabled: true
Boxcar width: 5
XAxis mode: Wavelengths
Number of Pixels in Spectrum: 2048
>>>>>Begin Spectral Data<<<<<
187.83	-310374.31
188.298	2270.15
188.766	1178.7
189.233	1093.42
189.701	1540.25
190.169	2169.6
190.636	808.1
191.104	620
191.571	104.91
192.039	-82.77
192.506	-47.68
192.974	669.57
193.441	-970.2
193.908	-355.76
194.375	-74.68
194.842	-27.6
195.31	113.19
195.777	166.87
196.244	413.79
196.711	480.36
197.177	571.64
197.644	807.06
198.111	1383.04
198.578	1877.71
199.045	1483.03
199.511	2415.39
199.978	2848.45
200.445	2410.92
200.911	2679.51
201.378	2932.05
201.844	2671.01
202.31	4562.77
202.777	4730.36
203.243	2630.31
203.709	2508.03
204.176	2995.07
204.642	2466.99
205.108	2291.63
205.574	1845.17
206.04	1659.19
206.506	1555.72
206.972	1462
207.438	1407.65
207.903	1603.89
208.369	1409.03
208.835	1411.72
209.301	1473.89
209.766	1506.99
210.232	1477.84
210.697	1821.76
211.163	2237.9
211.628	3353.51
212.094	2819.24
212.559	3492.66
213.024	2150.21
213.49	2651.52
213.955	2557.77
214.42	2482.84
214.885	2309.34
215.35	2219.03
215.815	2173.21
216.28	2292.31
216.745	1848.87
217.21	1967.86
217.675	1762.33
218.14	1952.11
218.604	2093.51
219.069	2337.26
219.534	2424.35
219.998	2742.31
220.463	3271.46
220.927	3883.39
221.392	3603.68
221.856	3616.33
222.32	4478.5
222.785	5493.7
223.249	6841.79
223.713	7613.04
224.177	7569.04
224.642	9616.09
225.106	11789.6
225.57	12788.9
226.034	9510.32
226.497	14446.57
226.961	13020.27
227.425	15148.6
227.889	16762.27
228.353	16704.57
228.816	34409.42
229.28	32944.02
229.744	27681.37
230.207	16852.61
230.671	16552.95
231.134	27324.44
231.597	31486.46
232.061	31352.17
232.524	30504.07
232.987	20951.29
233.45	18867.83
233.914	16884.23
234.377	17263.12
234.84	15807.78
235.303	18577.07
235.766	20648.2
236.229	21265.6
236.691	13368.73
237.154	14992.4
237.617	11305.55
238.08	11572.76
238.542	13541.16
239.005	9684.5
239.468	9609.54
239.93	9054.66
240.393	8225.9
240.855	7242.02
241.317	7420.31
241.78	9013.79
242.242	9321.08
242.704	10065.49
243.166	8769.44
243.629	7985.75
244.091	9198.34
244.553	10062.96
245.015	10804.2
245.477	13952.71
245.939	20415.6
246.4	21632.84
246.862	20991.38
247.324	19816.62
247.786	22124.6
248.247	28925.3
248.709	29691.52
249.17	22194.76
249.632	20974.58
250.093	24363.62
250.555	21066.8
251.016	12861.42
251.477	12227.83
251.939	13233.77
252.4	13871.63
252.861	16466.12
253.322	15343.77
253.783	18287.32
254.244	23711.81
254.705	18646.29
255.166	16533.9
255.627	16270.83
256.088	23000.38
256.549	24450.44
257.009	21031.2
257.47	25540.29
257.931	20801.98
258.391	15597.97
258.852	16076.42
259.312	16841.89
259.773	20839.93
260.233	17644.67
260.694	14886.04
261.154	16840.29
261.614	13529.02
262.074	12070.43
262.534	12516.45
262.994	11793.58
263.455	15680.03
263.915	13213.22
264.374	12445.14
264.834	13558.78
265.294	14985.67
265.754	15524.37
266.214	14682.54
266.673	13719.72
267.133	17312
267.593	17172.46
268.052	21026.17
268.512	18267.36
268.971	22039.96
269.431	24152.26
269.89	21609.97
270.349	32427.28
270.809	36141.4
271.268	32468.24
271.727	72760.66
272.186	47151.31
272.645	35354.65
273.104	25461.87
273.563	36857.7
274.022	28927.68
274.481	24621.03
274.94	18987.55
275.399	14112.34
275.857	16402.15
276.316	22192.69
276.775	19767.32
277.233	19474.29
277.692	18271.9
278.15	20701.33
278.609	21328.52
279.067	19749.34
279.525	18371.95
279.984	23716.66
280.442	28508.18
280.9	28225.53
281.358	18578.36
281.816	17322.47
282.274	16952.19
282.732	17491.28
283.19	17578.49
283.648	15187.65
284.106	16190.82
284.564	16453.62
285.021	15278.86
285.479	11365.86
285.937	10314.62
286.394	9071.41
286.852	9333.84
287.309	9825.4
287.767	9510
288.224	9057.5
288.682	9932.33
289.139	10903.02
289.596	9991.35
290.053	10380.7
290.511	13106.99
290.968	15895.11
291.425	21551.82
291.882	17983.24
292.339	15655.26
292.796	15503.1
293.252	14597.01
293.709	11611.08
294.166	10407.4
294.623	11495.31
295.079	11009.74
295.536	11069.56
295.992	10050.91
296.449	9930.68
296.905	10311.19
297.362	9879.07
297.818	10385.01
298.274	10780.46
298.731	10968.5
299.187	10850.42
299.643	11654.41
300.099	14121.2
300.555	15492.14
301.011	12960.45
301.467	12532.38
301.923	14631.76
302.379	14315.48
302.835	14076.5
303.291	14082.08
303.746	16014.44
304.202	20242.76
304.658	20287.65
305.113	13639.65
305.569	13369.28
306.024	14230.11
306.479	13499.49
306.935	11412.43
307.39	12448.47
307.845	11486.63
308.301	11593.96
308.756	11303.77
309.211	10912.2
309.666	11192.54
310.121	13926.25
310.576	14155.65
311.031	14023.65
311.486	16061.38
311.94	16033.55
312.395	21459.85
312.85	40366.83
313.305	197632
313.759	1026626.59
314.214	74186.79
314.668	58827.81
315.123	49558.45
315.577	17771.64
316.032	15842.6
316.486	19877.2
316.94	15718.31
317.394	10961.9
317.849	8533.39
318.303	8080.77
318.757	7619.22
319.211	8434.09
319.665	7375.03
320.119	7460.45
320.572	10681.7
321.026	10004.35
321.48	8317.99
321.934	9026.16
322.387	9006.44
322.841	9731.95
323.295	8780.08
323.748	10063.71
324.202	10225.76
324.655	12304.65
325.108	17214.77
325.562	12194.93
326.015	14456.33
326.468	10913.07
326.921	12234.58
327.374	11454.45
327.827	11961.33
328.28	13539.72
328.733	9111.97
329.186	8001.51
329.639	7634.96
330.092	6427.41
330.545	6107.13
330.997	6175.84
331.45	6796.56
331.903	7998.38
332.355	13744.96
332.808	13344.03
333.26	10991.35
333.713	11953.4
334.165	12037.89
334.617	16028.44
335.069	12902.51
335.522	23365.34
335.974	25866.95
336.426	23571.8
336.878	16284.88
337.33	8279.49
337.782	8066.69
338.234	10118.53
338.686	12103.27
339.137	14396.44
339.589	13603.24
340.041	10690.64
340.493	9199.59
340.944	9426.6
341.396	10140.73
341.847	8543.81
342.299	10098.02
342.75	12360.07
343.201	10777.09
343.653	12397.62
344.104	15153.67
344.555	11912.1
345.006	18487.5
345.457	14198.49
345.908	11244.45
346.359	10592.47
346.81	8601.45
347.261	9042.39
347.712	8868.07
348.163	9478.1
348.613	9618.86
349.064	8984.35
349.515	7843.88
349.965	8056.65
350.416	9656.36
350.866	10613.57
351.317	11956.04
351.767	19813.92
352.217	24959.45
352.668	20755.9
353.118	19084.39
353.568	18323.03
354.018	14526.65
354.468	15362.32
354.918	11048.96
355.368	9651.89
355.818	13614.69
356.268	39201.18
356.718	164930.64
357.168	41156.55
357.617	20632.9
358.067	22885.16
358.517	21456.18
358.966	25196.3
359.416	28334.98
359.865	30564.79
360.315	36401.04
360.764	17051.94
361.213	9575.26
361.663	9005.48
362.112	11098.99
362.561	17961.18
363.01	13599.73
363.459	11460.56
363.908	12374.54
364.357	10496.8
364.806	17742.74
365.255	12231.5
365.703	11211.2
366.152	11190.35
366.601	9108.51
367.05	7421
367.498	6741.22
367.947	7020.68
368.395	7274.97
368.844	6442.45
369.292	7740.46
369.74	5366.4
370.189	8219.45
370.637	9613.79
371.085	8311.52
371.533	10102.53
371.981	9672.12
372.429	9242.13
372.877	9633.26
373.325	8101.75
373.773	8267.42
374.221	7387.96
374.669	9141.37
375.116	7890.55
375.564	7951.35
376.012	8897.22
376.459	7357.17
376.907	8839.57
377.354	10697.36
377.801	10043.05
378.249	11562.86
378.696	14767.74
379.143	17920.5
379.591	19117.44
380.038	32453.89
380.485	23632.83
380.932	25633.58
381.379	23530.76
381.826	17371.48
382.273	12315.65
382.72	10766.79
383.166	10476.86
383.613	6807.92
384.06	6118.28
384.506	7080.07
384.953	5199.07
385.4	5224.16
385.846	4573.94
386.292	4453.2
386.739	4352.99
387.185	4305.08
387.631	4298.37
388.078	4189.85
388.524	4491.37
388.97	4158.94
389.416	3483.8
389.862	3706.52
390.308	3506.55
390.754	3571.98
391.2	3869.69
391.645	3957.92
392.091	3818.35
392.537	3696.28
392.983	3704.85
393.428	3666.44
393.874	3939.44
394.319	3956.9
394.765	3772.43
395.21	3874.24
395.655	3620.08
396.101	3390.32
396.546	3067.03
396.991	3076.16
397.436	2858.55
397.881	2760.65
398.326	2597.13
398.771	2463.02
399.216	2149.39
399.661	1927.37
400.106	1926.16
400.551	1984.48
400.995	1784.68
401.44	1759.56
401.885	1655.35
402.329	1670.28
402.774	1600.54
403.218	1560.55
403.663	1493.88
404.107	1535.4
404.551	1547.8
404.995	1417.81
405.44	1353.46
405.884	1368.21
406.328	1327.32
406.772	1319.51
407.216	1200.51
407.66	1156.71
408.104	1086.8
408.547	1017.87
408.991	984.68
409.435	945.31
409.879	932
410.322	925.37
410.766	895.64
411.209	850.31
411.653	816.48
412.096	799.62
412.54	797.59
412.983	795.69
413.426	799.78
413.869	797.24
414.312	782.98
414.756	753.73
415.199	716.49
415.642	698.48
416.085	699.57
416.527	692.92
416.97	701.64
417.413	669.24
417.856	659.66
418.298	650.8
418.741	642.28
419.184	640.65
419.626	660.42
420.069	660.71
420.511	663.48
420.953	650.68
421.396	647.9
421.838	631.73
422.28	643.25
422.722	648.63
423.164	657.74
423.606	650.51
424.048	648.79
424.49	621.77
424.932	615.52
425.374	603.77
425.816	611.51
426.258	621.2
426.699	627.14
427.141	619.66
427.582	626.36
428.024	620.92
428.465	615.63
428.907	598.58
429.348	590.46
429.789	592.88
430.231	584.84
430.672	594.04
431.113	580.51
431.554	573.96
431.995	559.49
432.436	544.68
432.877	536.32
433.318	530.38
433.759	526.61
434.2	527.03
434.64	520.77
435.081	520.73
435.522	492.87
435.962	474.76
436.403	463.64
436.843	466.91
437.284	453.12
437.724	439.31
438.164	437.06
438.604	429.61
439.045	412.56
439.485	396.72
439.925	386.06
440.365	378.05
440.805	373.16
441.245	371.76
441.685	360.06
442.125	357.68
442.564	359.08
443.004	351.85
443.444	350.04
443.883	352.26
444.323	348.43
444.762	347.93
445.202	350.95
445.641	357.55
446.081	352.34
446.52	354.29
446.959	351.85
447.398	343.86
447.837	339.88
448.276	334.32
448.716	337.66
449.154	339.86
449.593	333.24
450.032	332.47
450.471	324.8
450.91	322.8
451.349	323.44
451.787	319.84
452.226	323.7
452.664	323.15
453.103	324.37
453.541	322.36
453.98	323.27
454.418	324.34
454.856	319.91
455.295	318.2
455.733	323.58
456.171	323.49
456.609	323.44
457.047	322.91
457.485	327.8
457.923	327.29
458.361	321.9
458.798	321.73
459.236	320.65
459.674	319.6
460.111	321.54
460.549	317.37
460.987	316.14
461.424	315.48
461.862	313.85
462.299	309.29
462.736	309.3
463.173	311.19
463.611	311.76
464.048	312.13
464.485	316.78
464.922	313.17
465.359	311.24
465.796	315.25
466.233	314.32
466.67	313.51
467.106	313
467.543	309.72
467.98	305.87
468.416	294.57
468.853	291.36
469.29	281.74
469.726	279.11
470.162	271.06
470.599	261.29
471.035	257.42
471.471	250.63
471.907	248.23
472.344	246.23
472.78	245.8
473.216	248.54
473.652	245.49
474.088	244.73
474.523	244.16
474.959	245.91
475.395	243.26
475.831	242.23
476.266	242.67
476.702	240.79
477.138	237.76
477.573	237.42
478.008	236.25
478.444	237.85
478.879	241.23
479.314	242.96
479.75	243.16
480.185	243.12
480.62	244.92
481.055	245.73
481.49	248.23
481.925	251.79
482.36	257.4
482.795	263.33
483.229	269.19
483.664	273.3
484.099	272.5
484.534	277.12
484.968	280.25
485.403	280.22
485.837	279.03
486.271	278.17
486.706	278.63
487.14	273.68
487.574	269.99
488.009	267.03
488.443	264.28
488.877	268.16
489.311	267.91
489.745	271.07
490.179	274.52
490.613	281.36
491.046	283.29
491.48	285.56
491.914	286.42
492.348	288.96
492.781	291.71
493.215	292.9
493.648	292.82
494.082	296.47
494.515	297.19
494.948	301.76
495.382	303.44
495.815	306.5
496.248	310.32
496.681	316.46
497.114	322
497.547	327.86
497.98	336.4
498.413	342.33
498.846	348.28
499.279	353.79
499.711	356.57
500.144	359.33
500.577	367.38
501.009	374.17
501.442	381.89
501.874	385.22
502.306	387.87
502.739	396.02
503.171	404.77
503.603	408.95
504.036	416.36
504.468	422.1
504.9	430.97
505.332	436.65
505.764	442.06
506.196	447.98
506.627	458.98
507.059	469.02
507.491	474.37
507.923	477.12
508.354	489.06
508.786	497.91
509.217	511.46
509.649	523.53
510.08	537.43
510.512	551.12
510.943	563.99
511.374	575.36
511.805	591.42
512.237	606.9
512.668	629.11
513.099	648.54
513.53	669.5
513.961	686.25
514.391	709
514.822	734.33
515.253	759.93
515.684	779.91
516.114	802.53
516.545	821.05
516.975	842.15
517.406	858.44
517.836	866.11
518.267	876.22
518.697	893.18
519.127	901.14
519.558	910.37
519.988	917.37
520.418	929.15
520.848	944.51
521.278	954.84
521.708	988.44
522.138	1002.51
522.567	1026.36
522.997	1047.42
523.427	1061.73
523.857	1078.05
524.286	1089.91
524.716	1105.17
525.145	1121.76
525.575	1134.13
526.004	1147.51
526.433	1131.39
526.863	1135.32
527.292	1133.21
527.721	1140.43
528.15	1147.59
528.579	1151.01
529.008	1160.16
529.437	1178.09
529.866	1190.52
530.295	1204.24
530.724	1216.25
531.152	1237.52
531.581	1248.83
532.01	1263.56
532.438	1271.79
532.867	1284.34
533.295	1299.18
533.723	1305.22
534.152	1305.42
534.58	1307.09
535.008	1297.43
535.436	1299.63
535.865	1305.78
536.293	1316.54
536.721	1327.25
537.149	1345.52
537.576	1347.65
538.004	1357.43
538.432	1364.21
538.86	1363.79
539.287	1368.95
539.715	1379.18
540.143	1380.48
540.57	1378.78
540.998	1377.31
541.425	1362.15
541.852	1347.4
542.28	1346.58
542.707	1334.3
543.134	1324.65
543.561	1321.36
543.988	1316.69
544.415	1317.2
544.842	1314.64
545.269	1308.91
545.696	1311.1
546.123	1320.7
546.549	1314.07
546.976	1304.97
547.403	1305.35
547.829	1306.6
548.256	1309.15
548.682	1306.71
549.108	1301.78
549.535	1302.24
549.961	1303.83
550.387	1293.96
550.813	1290.52
551.24	1294.57
551.666	1296.6
552.092	1290.13
552.518	1286.32
552.943	1281.71
553.369	1286.85
553.795	1290.65
554.221	1290.67
554.646	1288.3
555.072	1295.76
555.498	1298.65
555.923	1304.92
556.349	1314.65
556.774	1320.26
557.199	1320.41
557.625	1323.59
558.05	1319.51
558.475	1325.15
558.9	1322.83
559.325	1316.34
559.75	1310.53
560.175	1304.24
560.6	1298.24
561.025	1294.3
561.449	1293.12
561.874	1293.76
562.299	1294.98
562.723	1296.16
563.148	1287.15
563.572	1287.97
563.997	1291.67
564.421	1292.32
564.846	1289.7
565.27	1289.11
565.694	1284.21
566.118	1289.3
566.542	1292.67
566.966	1285
567.39	1279
567.814	1266.98
568.238	1262.51
568.662	1262.26
569.086	1260.67
569.509	1261.4
569.933	1248.26
570.357	1239.65
570.78	1221.22
571.204	1208.27
571.627	1196.57
572.05	1191.99
572.474	1189.02
572.897	1177.76
573.32	1169.37
573.743	1158.85
574.166	1143.9
574.589	1139.73
575.012	1131.28
575.435	1127.61
575.858	1119.04
576.281	1109.42
576.704	1095.58
577.126	1084.48
577.549	1074.99
577.972	1066.11
578.394	1057.73
578.817	1052.51
579.239	1037.42
579.661	1027.47
580.084	1016.66
580.506	1006.48
580.928	1001.51
581.35	992.98
581.772	989.19
582.194	978.35
582.616	968.45
583.038	956.59
583.46	947.08
583.882	944.22
584.303	945.08
584.725	939.83
585.147	941.95
585.568	947.41
585.99	953.62
586.411	955.81
586.833	963.45
587.254	964.26
587.675	971.99
588.096	978.91
588.518	974.63
588.939	963.39
589.36	961.1
589.781	949.97
590.202	933.5
590.623	927.17
591.043	924.37
591.464	916.35
591.885	912.13
592.305	907.77
592.726	897.37
593.147	896.57
593.567	892.99
593.987	888.24
594.408	884.17
594.828	880.29
595.248	876.25
595.669	865.34
596.089	861
596.509	856.22
596.929	846.86
597.349	847.44
597.769	841.68
598.189	836.77
598.608	836.31
599.028	837.14
599.448	836.87
599.867	828.2
600.287	824.46
600.706	820.52
601.126	814.45
601.545	813.96
601.965	812.26
602.384	807.19
602.803	807.37
603.222	803.12
603.641	797.99
604.061	794.98
604.48	791.76
604.898	794.19
605.317	795.24
605.736	794.85
606.155	791.86
606.574	784.09
606.992	786.6
607.411	782.88
607.829	776.45
608.248	773.01
608.666	769.33
609.085	766.92
609.503	760.94
609.921	756.12
610.339	755.03
610.758	752.3
611.176	748.2
611.594	740.81
612.012	737
612.43	738.17
612.847	739.28
613.265	738.53
613.683	738.61
614.101	737.65
614.518	732.94
614.936	726.22
615.353	716.61
615.771	713.48
616.188	711.52
616.606	707.36
617.023	700.75
617.44	691.84
617.857	685.51
618.274	679.88
618.691	675.87
619.108	670.28
619.525	665.62
619.942	668.13
620.359	668.67
620.776	665.09
621.192	662.31
621.609	661.07
622.026	664.89
622.442	667.78
622.859	668.02
623.275	662.28
623.691	664.28
624.108	670.36
624.524	676.73
624.94	676.09
625.356	681.16
625.772	688.11
626.188	693.62
626.604	693.43
627.02	690.74
627.436	690.84
627.852	694.76
628.268	700.86
628.683	695.22
629.099	690.89
629.514	687.59
629.93	689.64
630.345	690.13
630.761	686.55
631.176	687.09
631.591	684.59
632.007	679.42
632.422	676.43
632.837	669.05
633.252	666.51
633.667	659.99
634.082	654.32
634.497	646.23
634.911	636.1
635.326	632.98
635.741	623.24
636.155	615.39
636.57	616.17
636.984	615.31
637.399	616.88
637.813	614.56
638.228	612.17
638.642	611.18
639.056	603.67
639.47	601.19
639.884	594.78
640.298	588.79
640.712	586.75
641.126	577.44
641.54	570.22
641.954	562.79
642.368	555.72
642.781	551.37
643.195	540.82
643.609	538.8
644.022	534.03
644.436	529.29
644.849	521.28
645.262	512.99
645.676	511.64
646.089	508.28
646.502	500.51
646.915	494.9
647.328	484.87
647.741	482.9
648.154	475.29
648.567	475.23
648.98	468.69
649.393	468.4
649.805	466.97
650.218	461
650.631	452.87
651.043	448.84
651.456	446.11
651.868	444.34
652.28	451.3
652.693	456.43
653.105	455.13
653.517	458.71
653.929	458.61
654.341	458.72
654.753	454.68
655.165	456.99
655.577	454.58
655.989	452.5
656.401	448.27
656.813	432.31
657.224	422.75
657.636	409.07
658.047	401.08
658.459	390.68
658.87	385.11
659.282	377.94
659.693	368.5
660.104	361.9
660.515	353.66
660.926	352.9
661.338	350.7
661.749	346.06
662.159	343.1
662.57	339.09
662.981	336.91
663.392	333.88
663.803	335.52
664.213	332.71
664.624	330.56
665.035	331.14
665.445	323.84
665.855	321.18
666.266	319.83
666.676	317.33
667.086	313.65
667.497	314.11
667.907	312.03
668.317	308.23
668.727	310.17
669.137	309.99
669.547	310.8
669.956	311.47
670.366	312.02
670.776	312.91
671.186	314.75
671.595	317.85
672.005	319.13
672.414	320.47
672.824	320.94
673.233	321.16
673.642	323.58
674.052	325.85
674.461	328.87
674.87	332.28
675.279	332.79
675.688	334.47
676.097	336.93
676.506	337.45
676.915	343.31
677.323	346.34
677.732	346.49
678.141	347.3
678.549	343.15
678.958	344.09
679.366	343.88
679.775	346.23
680.183	354.96
680.592	357.81
681	361.14
681.408	359.57
681.816	364.13
682.224	369.31
682.632	375.63
683.04	390.23
683.448	401.46
683.856	417.61
684.264	435.6
684.671	448.75
685.079	468.27
685.487	488.96
685.894	518.77
686.302	542.33
686.709	563.01
687.116	587.43
687.524	609.9
687.931	630.84
688.338	648.59
688.745	663.85
689.152	683.26
689.559	708.51
689.966	735.53
690.373	752.46
690.78	778.69
691.187	818.54
691.593	851.31
692	879.95
692.407	921.98
692.813	972.87
693.22	1017.1
693.626	1062.8
694.032	1103.91
694.439	1159.14
694.845	1205.45
695.251	1263.82
695.657	1316.47
696.063	1388.91
696.469	1448.8
696.875	1505.5
697.281	1544.77
697.687	1590.28
698.093	1630.85
698.498	1694.24
698.904	1747.79
699.31	1821.1
699.715	1880
700.12	1959.17
700.526	1992.12
700.931	2056.44
701.337	2109.1
701.742	2149.71
702.147	2225.96
702.552	2264.43
702.957	2324.2
703.362	2357.43
703.767	2398.65
704.172	2444.63
704.577	2425.89
704.981	2474.4
705.386	2503.73
705.791	2513.16
706.195	2584.5
706.6	2605.22
707.004	2680.45
707.408	2671.31
707.813	2704.59
708.217	2707.64
708.621	2721.99
709.025	2812.44
709.43	2826.84
709.834	2885.91
710.237	2954.4
710.641	2954.48
711.045	2984.71
711.449	2993.18
711.853	3029.28
712.256	3076.54
712.66	3119.29
713.064	3192.24
713.467	3239.15
713.87	3342.41
714.274	3393.4
714.677	3495.55
715.08	3642.57
715.484	3795.41
715.887	3977.77
716.29	4157.12
716.693	4342.67
717.096	4557.56
717.499	4681.87
717.901	4715.22
718.304	4751.39
718.707	4785.5
719.109	4710.79
719.512	4697.34
719.915	4596.27
720.317	4558.49
720.719	4606.5
721.122	4594.55
721.524	4561.96
721.926	4537.67
722.328	4633.82
722.731	4634.31
723.133	4668.75
723.535	4848.53
723.937	4872.87
724.338	4923.13
724.74	4971.41
725.142	4937.4
725.544	4942.7
725.945	4977.74
726.347	4980.71
726.748	4982.77
727.15	5001.25
727.551	4973.62
727.952	4953.84
728.354	4934.5
728.755	4940.69
729.156	4904.54
729.557	4885.99
729.958	4781.32
730.359	4734.72
730.76	4723.12
731.161	4673.25
731.562	4656.23
731.962	4662.39
732.363	4611.82
732.763	4561.2
733.164	4600.04
733.564	4545.94
733.965	4465.7
734.365	4439.18
734.766	4466.27
735.166	4435.88
735.566	4391.22
735.966	4372.97
736.366	4373.28
736.766	4316.42
737.166	4346.9
737.566	4310.62
737.966	4290.12
738.365	4327.96
738.765	4327.77
739.165	4262.41
739.564	4241.29
739.964	4281.15
740.363	4240.52
740.763	4237.28
741.162	4233.27
741.561	4203.52
741.96	4163.45
742.36	4182.47
742.759	4187.55
743.158	4221.97
743.557	4237.08
743.955	4275.44
744.354	4237.03
744.753	4288.98
745.152	4253.16
745.55	4303.73
745.949	4301.82
746.348	4307.38
746.746	4322.5
747.144	4289.9
747.543	4269.02
747.941	4313.25
748.339	4247.89
748.737	4242.87
749.136	4238.68
749.534	4303.34
749.932	4278.55
750.33	4299.73
750.727	4348.84
751.125	4328.66
751.523	4313.37
751.921	4356.14
752.318	4327.23
752.716	4384.25
753.113	4398.04
753.511	4422.05
753.908	4419.95
754.305	4405.16
754.703	4462.35
755.1	4518.25
755.497	4574.16
755.894	4748.91
756.291	4910.82
756.688	5213.48
757.085	5613.4
757.482	6175.09
757.878	6785.23
758.275	7341.31
758.672	8101.85
759.068	8723.55
759.465	9610.84
759.861	10760.67
760.258	12089.33
760.654	12779.95
761.05	12680.9
761.447	12103.86
761.843	11274.73
762.239	10415.91
762.635	10027.74
763.031	9656.63
763.427	9117.33
763.822	8554.05
764.218	7990.35
764.614	7261.53
765.01	6772.48
765.405	6451.87
765.801	6209.09
766.196	5902.16
766.592	5734.2
766.987	5445.65
767.382	5249.36
767.778	5167.51
768.173	5045.69
768.568	4978.59
768.963	4865.38
769.358	4882.64
769.753	4841.11
770.148	4766.33
770.542	4764.44
770.937	4733.27
771.332	4816.79
771.726	4837.22
772.121	4783.75
772.515	4835.59
772.91	4823.22
773.304	4887.77
773.699	4827.89
774.093	4874.21
774.487	4923.02
774.881	4962.85
775.275	4960.83
775.669	4921.21
776.063	4959.65
776.457	4991.01
776.851	4924.14
777.245	4916.42
777.638	4945.37
778.032	5051.67
778.425	5019.5
778.819	5058.83
779.212	5020.53
779.606	4983.96
779.999	5004.85
780.392	4989.51
780.786	5061.22
781.179	5080.24
781.572	5118.97
781.965	5132.41
782.358	5075.51
782.751	5129.9
783.143	5086.38
783.536	5154.81
783.929	5192.55
784.322	5295.78
784.714	5326.24
785.107	5323.9
785.499	5389.46
785.891	5372.04
786.284	5355.57
786.676	5489.53
787.068	5470.78
787.46	5518.34
787.852	5535.78
788.245	5614.38
788.636	5641.42
789.028	5703.06
789.42	5741.59
789.812	5747.51
790.204	5833.85
790.595	5922.72
790.987	5742.96
791.378	5768.65
791.77	5890.21
792.161	6015.01
792.553	6068.06
792.944	5967.84
793.335	5905.09
793.726	5972.5
794.117	6055.75
794.508	6179.85
794.899	6153.88
795.29	6282.82
795.681	6336.42
796.072	6204.28
796.463	6037.97
796.853	6048.16
797.244	6192.34
797.634	6226.49
798.025	6224.82
798.415	6235.82
798.806	6321.35
799.196	6399.94
799.586	6447.42
799.976	6410.89
800.366	6622.32
800.756	6837.67
801.146	6805.37
801.536	6832.99
801.926	6900.28
802.316	6926.7
802.706	6997.91
803.095	6883.37
803.485	6978.23
803.874	7015.67
804.264	7251.16
804.653	7230.06
805.043	7366.62
805.432	7462.74
805.821	7466.68
806.21	7485.22
806.599	7587.92
806.988	7626.33
807.377	7723.68
807.766	7842.38
808.155	8102.24
808.544	7862.51
808.933	7873.84
809.321	7853.61
809.71	8122.57
810.098	8265.57
810.487	8686.32
810.875	9135.22
811.264	9153.97
811.652	9423.24
812.04	9554.62
812.428	9705.29
812.816	10406.37
813.204	10789.68
813.592	11292.65
813.98	11606.81
814.368	11517.94
814.756	11955.61
815.144	11878.55
815.531	12312.08
815.919	12240.74
816.306	12521.6
816.694	12235.62
817.081	12282.17
817.469	12597.56
817.856	12596.86
818.243	12838.98
818.63	13198.9
819.017	12816.55
819.404	12869.95
819.791	13207.5
820.178	13773.5
820.565	14005.19
820.952	14862.66
821.339	14419.09
821.725	14596.93
822.112	13919.29
822.498	13886.27
822.885	14005.53
823.271	13924.06
823.657	14311.62
824.044	14331.18
824.43	14403.41
824.816	14375.09
825.202	13971.17
825.588	14900.93
825.974	14909.27
826.36	15384.62
826.746	15417.95
827.132	15748.15
827.517	15721.38
827.903	14996.74
828.289	15025.86
828.674	14305.1
829.06	14209.74
829.445	14576.1
829.83	14898.02
830.216	15338.6
830.601	15671.57
830.986	15292.71
831.371	15165.77
831.756	15675.87
832.141	15288.06
832.526	15289.34
832.911	15547.11
833.295	15448.15
833.68	15875
834.065	15314.44
834.449	14473.62
834.834	14407.87
835.218	14406.56
835.603	14717.09
835.987	14520.55
836.371	15273.96
836.755	15171.21
837.139	15541.4
837.524	15747.06
837.908	15575.18
838.291	15622.09
838.675	15674.75
839.059	15851.12
839.443	15833
839.827	15617.54
840.21	16054.14
840.594	15929.12
840.977	16121.5
841.361	16096.96
841.744	16440.19
842.127	16304.86
842.511	16518.68
842.894	17067.72
843.277	17420.97
843.66	17917.75
844.043	17995.85
844.426	17261.43
844.809	16976.72
845.191	16993.93
845.574	16575.26
845.957	16247.77
846.339	16146.37
846.722	15680.61
847.104	15744.87
847.487	15584.38
847.869	15588.69
848.252	15839.83
848.634	16137.46
849.016	16373.34
849.398	16487.59
849.78	17251.23
850.162	17250.89
850.544	17628.69
850.926	18194.05
851.307	18106.05
851.689	18356.31
852.071	18771.27
852.452	19068.73
852.834	19053.65
853.215	19410.62
853.597	19545.68
853.978	19817.78
854.359	20231.8
854.741	19330.67
855.122	19237.47
855.503	18974.64
855.884	19098.07
856.265	19048.02
856.646	19149.41
857.026	18781.21
857.407	18722.94
857.788	18871.97
858.169	19135.87
858.549	18362.44
858.93	18921.28
859.31	18964.92
859.69	19158.73
860.071	18798
860.451	18594.56
860.831	17919.67
861.211	18982.57
861.591	19476.54
861.971	19453.94
862.351	19634.1
862.731	19985.98
863.111	20229.44
863.491	20529.29
863.87	21333.05
864.25	21646.08
864.629	21283.74
865.009	21760.94
865.388	22523.02
865.768	24145.66
866.147	24050.11
866.526	22721.69
866.905	22998.04
867.284	24285.5
867.663	23072.31
868.042	22104.59
868.421	22032.01
868.8	22406.27
869.179	22627
869.558	21323.42
869.936	19654.99
870.315	20009.62
870.693	20489.53
871.072	22086.87
871.45	21046.8
871.828	21296.69
872.207	22399.71
872.585	22062.89
872.963	22664.74
873.341	21880.42
873.719	21614
874.097	21352.71
874.475	21766.67
874.853	22269.61
875.23	21350.87
875.608	22252.42
875.986	24088.56
876.363	23024.59
876.741	23724.42
877.118	23122.14
877.495	24266.12
877.873	24674.3
878.25	25964.83
878.627	24892.28
879.004	25236.92
879.381	25116.76
879.758	24449.8
880.135	22766.73
880.512	24069.56
880.889	23442.93
881.265	23200.08
881.642	22998.07
882.019	23385.42
882.395	22906.69
882.772	23820.19
883.148	22789.12
883.524	22699.77
883.901	22570.96
884.277	22897.68
884.653	22757.36
885.029	23398.53
885.405	25900.26
885.781	25691.87
886.157	24630.58
886.532	24923.53
886.908	24892.78
887.284	27667.71
887.659	28553.98
888.035	29430.64
888.411	30182.83
888.786	30572.99
889.161	31629.53
889.537	31060.78
889.912	32049.43
890.287	32005.82
890.662	32827.42
891.037	32234.16
891.412	30051.66
891.787	29745.61
892.162	28695.84
892.536	29357.3
892.911	28254.86
893.286	27657.79
893.66	26515.27
894.035	27191.02
894.409	29606.6
894.784	28423.18
895.158	28884.98
895.532	30601.79
895.906	31440.09
896.281	32175.04
896.655	31662.68
897.029	36182.89
897.402	37668.04
897.776	41959.38
898.15	41812.71
898.524	41375.25
898.898	41896.51
899.271	46923.68
899.645	40651.83
900.018	39029.11
900.392	40494.59
900.765	40823.12
901.138	37761.24
901.511	37195.31
901.884	34129.79
902.258	31478.25
902.631	32522.68
903.003	37442.58
903.376	33773.95
903.749	37846.47
904.122	40527.87
904.495	44594.11
904.867	45171.66
905.24	39220.85
905.612	36501.85
905.985	37346.33
906.357	39055.34
906.729	37277.16
907.102	31837.14
907.474	30631.09
907.846	30829.99
908.218	30429.81
908.59	26909.1
908.962	26016.99
909.334	28006.49
909.705	29444.64
910.077	28596.27
910.449	29769.78
910.82	30614.86
911.192	33682.89
911.563	34986.62
911.935	37420.14
912.306	37461.97
912.677	38670.13
913.048	38300.44
913.419	41584.62
913.79	41813.39
914.161	44829.69
914.532	42849.98
914.903	39359.36
915.274	37383.18
915.645	36849.27
916.015	32449.84
916.386	30957.4
916.756	32951.89
917.127	33981.78
917.497	30356.36
917.868	33027.47
918.238	31386.77
918.608	32272.51
918.978	32954.52
919.348	34916.61
919.718	36071.09
920.088	34765.86
920.458	36104.41
920.828	37994.96
921.198	36022.75
921.567	38476.58
921.937	29814.88
922.306	30089.53
922.676	32482.99
923.045	27077.92
923.415	25712.44
923.784	23420.57
924.153	24078.73
924.522	24057.18
924.891	22623.84
925.26	24239.49
925.629	23681.74
925.998	27222.88
926.367	26579.54
926.736	25309.49
927.104	30180.27
927.473	32454.68
927.842	39187.59
928.21	38790.98
928.578	40807.48
928.947	38590.72
929.315	38803.41
929.683	45492.15
930.051	45824.76
930.42	53209.68
930.788	45478.21
931.156	45106.89
931.523	42278.33
931.891	39086.53
932.259	37541.5
932.627	43453.41
932.994	61449.11
933.362	50773.18
933.729	44091.1
934.097	42199.3
934.464	35695.91
934.831	41152.14
935.199	40537.37
935.566	39314.94
935.933	39885.79
936.3	48318.11
936.667	37630.99
937.034	33969.18
937.401	33627.96
937.767	29018.53
938.134	25854.53
938.501	36488.83
938.867	38907.19
939.234	65783.4
939.6	56109.05
939.967	61740.44
940.333	41354.68
940.699	35242.89
941.065	28287.07
941.431	37107.25
941.798	35819.36
942.163	47041.59
942.529	29405.82
942.895	27092.56
943.261	17551.22
943.627	23037.93
943.992	20161.1
944.358	20194.07
944.723	20265.99
945.089	19738.49
945.454	18240.72
945.82	19453.02
946.185	18691.87
946.55	21658.16
946.915	19436.06
947.28	22823.2
947.645	20100.95
948.01	18561.56
948.375	19340.59
948.74	23167.52
949.104	27013.34
949.469	39027.01
949.834	68967.21
950.198	65510.52
950.562	39223.89
950.927	32632.48
951.291	39217.56
951.655	33420.49
952.02	31373.59
952.384	23738.35
952.748	20679.53
953.112	20185.73
953.476	17532.02
953.839	16219.46
954.203	16036.64
954.567	20065.31
954.931	31606.29
955.294	27075.37
955.658	27219.14
956.021	46278.09
956.385	78526.4
956.748	115723.53
957.111	179369.94
957.474	201380.87
957.837	226765.15
958.2	171459.44
958.563	61667.14
958.926	41684.08
959.289	63183.8
959.652	70524.51
960.015	52904.15
960.377	75801.67
960.74	86573.57
961.102	149496.81
961.465	160538.52
961.827	85984.03
962.189	164848.51
962.552	114155.84
962.914	91601.22
963.276	59419.9
963.638	49138.58
964	48663.88
964.362	32901.91
964.724	31792.93
965.085	22668.76
965.447	18584.18
965.809	21169.22
966.17	21204.07
966.532	22966.83
966.893	21065.2
967.255	19180.89
967.616	22638.07
967.977	18110.02
968.338	19782.68
968.699	16251.13
969.061	16230.83
969.421	16331.85
969.782	18329.88
970.143	15485.84
970.504	16052.38
970.865	18241.46
971.225	18633.61
971.586	18218.4
971.946	26008.36
972.307	22538.36
972.667	29446.47
973.027	30380.71
973.388	36862.86
973.748	25064.39
974.108	27292.06
974.468	36870.33
974.828	28437.32
975.188	21887
975.548	20117.36
975.907	16859.41
976.267	18918.34
976.627	15901.78
976.986	16455.38
977.346	15679.08
977.705	15076.91
978.064	13721.65
978.424	11433.78
978.783	11814.56
979.142	13485.05
979.501	12910.15
979.86	13659.86
980.219	13171.87
980.578	16975.57
980.937	19031.15
981.296	16965.15
981.654	17454.98
982.013	27161.7
982.371	35184.16
982.73	32808.02
983.088	37119.46
983.447	39652.66
983.805	56691.42
984.163	118411.5
984.521	131575.99
984.879	192743.74
985.237	-313249.07
985.595	302117.18
985.953	75089.91
986.311	43368.22
986.669	25204.84
987.026	21758.35
987.384	29200.19
987.741	30173.56
988.099	21577.53
988.456	17176.66
988.814	16065.35
989.171	13970.86
989.528	13788.37
989.885	14558.5
990.242	11534.17
990.599	14398.68
990.956	11791.81
991.313	8262.95
991.67	6789.82
992.027	7204.24
992.383	6414.74
992.74	5635.23
993.096	5911.38
993.453	6129.3
993.809	6351.57
994.165	8460.67
994.522	7754.27
994.878	8524.63
995.234	10685.44
995.59	10505.25
995.946	9935.17
996.302	11327
996.658	13091.39
997.013	14422.64
997.369	17063.37
997.725	21854.28
998.08	14150.29
998.436	21797.89
998.791	30167.63
999.147	30121.88
999.502	32964.2
999.857	23964.43
1000.212	39128.64
1000.567	55603.62
1000.922	32099.76
1001.277	20424.34
1001.632	15155.69
1001.987	19564.22
1002.342	14034.69
1002.696	11210.19
1003.051	8966.53
1003.406	10848.25
1003.76	10791.92
1004.114	10611.56
1004.469	8938.29
1004.823	7413.89
1005.177	7999.56
1005.531	6343.32
1005.885	5636.06
1006.239	6359.49
1006.593	7983.74
1006.947	10681.69
1007.301	8009.85
1007.655	8731.41
1008.008	6408.64
1008.362	7196.9
1008.715	10229.64
1009.069	9283.4
1009.422	13945.15
1009.776	27862.85
1010.129	18474.34
1010.482	15393.31
1010.835	12980.7
1011.188	27125.07
1011.541	25530.19
1011.894	-156681.33
1012.247	462453.27
1012.6	31548.33
1012.952	19957.52
1013.305	10300.06
1013.657	7419.09
1014.01	7033.97
1014.362	5805.74
1014.715	5158.28
1015.067	4479.22
1015.419	4377.95
1015.771	3866.75
1016.123	3436.43
1016.475	3526.2
1016.827	3752.91
1017.179	4043.79
1017.531	4079.08
1017.883	4149.02
1018.234	4008.31
1018.586	5068.86
1018.938	5391.25
1019.289	7448.33
1019.64	8525.57
1019.992	7915.4
1020.343	7274.07
1020.694	5756.77
1021.045	5070.49
1021.396	5784.8
1021.747	6200.52
1022.098	7454.83
1022.449	5415.91
1022.8	5016.9
1023.151	3505.6
1023.501	3113.14
1023.852	3400.24
1024.202	3514.93
1024.553	3851.96
1024.903	3777.6
1025.253	3242.53
1025.604	2921.54
1025.954	3625.25
1026.304	4402.78
1026.654	5130.39
1027.004	7497.8
1027.354	12082.02
1027.703	11385.32
1028.053	14916.99
1028.403	21974.38
1028.753	31657.98
1029.102	43166.1
1029.452	223382.85
1029.801	9661.09
1030.15	6248.93
1030.499	5280.09
897.758	2672.79
901.051	2626.47
904.343	2660.35
907.636	2663
910.928	2728.91
914.22	2635.51
917.511	2644.09
920.803	2702.65
924.094	2721.5
927.384	2703.3
930.675	2666.95
933.965	2620.52
937.255	2630.53
940.544	2597.62
943.834	2537.24
947.123	2478.89
950.411	2577.92
953.7	2549.78
956.988	2520.04
960.276	2459.9
963.563	2537.85
966.851	2533.38
970.138	2592.09
973.424	2588.05
976.711	2538.27
979.997	2668.1
983.283	2705.52
986.568	2610.6
989.853	2624.44
993.138	2650.15
996.423	2736.17
999.708	2673.47
1002.992	2737.19
1006.275	2572.46
1009.559	2614.26
1012.842	2729.43
1016.125	2660.97
1019.408	2641.36
1022.69	2726.71
1025.972	2745.75
1029.254	2725.34
1032.536	2655.48
1035.817	2683.24
1039.098	2628.32
1042.379	2768.07
1045.659	2768.09
1048.939	2700.72
1052.219	2722.73
1055.498	2730.54
1058.778	2718.37
1062.057	2703.79
1065.335	2721.7
1068.614	2738.61
1071.892	2721.77
1075.17	2795.75
1078.447	2788.81
1081.724	2779.74
1085.001	2816.54
1088.278	2788.94
1091.554	2800.86
1094.83	2794.93
1098.106	2821.99
1101.382	2868.73
1104.657	2871.73
1107.932	2867.47
1111.206	2828.32
1114.481	2785.93
1117.755	2787.61
1121.029	2767.56
1124.302	2823.14
1127.575	2776.03
1130.848	2763.73
1134.121	2725.48
1137.393	2674.1
1140.665	2741.81
1143.937	2716.63
1147.208	2680.55
1150.48	2718.73
1153.75	2706.44
1157.021	2736.37
1160.291	2705.63
1163.561	2747.53
1166.831	2739.65
1170.101	2770.38
1173.37	2742.3
1176.639	2685.96
1179.907	2744
1183.176	2749.1
1186.444	2758.79
1189.711	2787.48
1192.979	2800.17
1196.246	2759.57
1199.513	2778.42
1202.78	2776.44
1206.046	2786.38
1209.312	2810.06
1212.578	2835.93
1215.843	2789
1219.108	2762.98
1222.373	2787.09
1225.638	2749.2
1228.902	2732.41
1232.166	2691.81
1235.43	2679.38
1238.693	2700.22
1241.956	2696.8
1245.219	2741.11
1248.482	2731.35
1251.744	2727.9
1255.006	2877.02
1258.268	2829.41
1261.529	2773.51
1264.79	2777.61
1268.051	2884.81
1271.312	2898.88
1274.572	2862.14
1277.832	2849.28
1281.092	2839.67
1284.351	2813.46
1287.61	2791.14
1290.869	2706.15
1294.128	2683.8
1297.386	2772.84
1300.644	2763.3
1303.902	2776.62
1307.159	2632.06
1310.416	2687.12
1313.673	2716.63
1316.93	2699.71
1320.186	2746.59
1323.442	2790.16
1326.697	2778.12
1329.953	2770.14
1333.208	2794.48
1336.463	2776.18
1339.717	2713
1342.972	2849.06
1346.226	2823.44
1349.479	2755.27
1352.733	2728.39
1355.986	2749.04
1359.238	2725.08
1362.491	2727.81
1365.743	2729.42
1368.995	2722.58
1372.247	2736.44
1375.498	2762.76
1378.749	2776.58
1382	2733.66
1385.251	2788.36
1388.501	2747.17
1391.751	2731.63
1395	2703.98
1398.25	2738.39
1401.499	2745.54
1404.748	2674.39
1407.996	2662.3
1411.244	2648.25
1414.492	2632.18
1417.74	2608.6
1420.987	2618.4
1424.234	2677.38
1427.481	2655.96
1430.728	2712.71
1433.974	2688.77
1437.22	2701.44
1440.465	2702.66
1443.711	2667.66
1446.956	2704.49
1450.201	2688.31
1453.445	2735.11
1456.689	2711.83
1459.933	2725.12
1463.177	2759.49
1466.42	2730.4
1469.663	2710.76
1472.906	2707.19
1476.148	2780.81
1479.391	2744.15
1482.633	2709.82
1485.874	2725.31
1489.115	2712.14
1492.356	2716.23
1495.597	2690.97
1498.838	2690.48
1502.078	2661.91
1505.318	2610.4
1508.557	2652.91
1511.797	2631.59
1515.036	2700.44
1518.274	2685.91
1521.513	2656.29
1524.751	2680.07
1527.989	2692.65
1531.227	2704.49
1534.464	2701.81
1537.701	2720.2
1540.938	2738.67
1544.174	2689.94
1547.41	2687.15
1550.646	2723.7
1553.882	2765.88
1557.117	2816.74
1560.352	2830.31
1563.587	2788.81
1566.821	2750.14
1570.055	2781.11
1573.289	2751.78
1576.523	2829.87
1579.756	2837.82
1582.989	2854.74
1586.222	2816.95
1589.454	2853.8
1592.686	2828.36
1595.918	2852.42
1599.15	2841.12
1602.381	2913.45
1605.612	2871.5
1608.843	2970.14
1612.073	2881.72
1615.303	2864.71
1618.533	2858
1621.762	2862.6
1624.992	2847.3
1628.221	2833.38
1631.449	2818.68
1634.678	2873.84
1637.906	2828.87
1641.134	2869.29
1644.361	2823.49
1647.588	2809.87
1650.815	2828.84
1654.042	2805.22
1657.269	2834.9
1660.495	2789.34
1663.72	2811.23
1666.946	2777.04
1670.171	2720.84
1673.396	2696.64
1676.621	2684.75
1679.845	2701.27
1683.069	2723.38
1686.293	2765.31
1689.517	2737.58
1692.74	2667.28
1695.963	2696.45
1699.185	2713.22
1702.408	2687.03
1705.63	2729.04
1708.852	2741.83
1712.073	2711.94
1715.294	2700.98
1718.515	2760.02
1721.736	2708.02
1724.956	2701.72
1728.176	2728.19
1731.396	2752.03
1734.616	2736.91
1737.835	2764.73
1741.054	2746.34
1744.272	2737.22
1747.491	2771.49
1750.709	2824.89
1753.927	2730.54
1757.144	2776.19
1760.361	2820.03
1763.578	2809.42
1766.795	2750.76
1770.011	2760.07
1773.227	2799.67
1776.443	2833.19
1779.658	2881.89
1782.874	2820.69
1786.089	2798.61
1789.303	2802.43
1792.518	2805.35
1795.732	2792.08
1798.945	2806.34
1802.159	2854.75
1805.372	2758.02
1808.585	2745.4
1811.797	2746.37
1815.01	2792.88
1818.222	2797.35
1821.434	2774.42
1824.645	2832.69
1827.856	2819.62
1831.067	2855.63
1834.278	2808.83
1837.488	2793.03
1840.698	2944.02
1843.908	2865.89
1847.117	2830.9
1850.326	2717.09
1853.535	2817.13
1856.744	2841.78
1859.952	2753.75
1863.16	2755.72
1866.368	2779.88
1869.575	2882.7
1872.782	2768.59
1875.989	2705.34
1879.196	2791.48
1882.402	2781.43
1885.608	2822.73
1888.814	2728.9
1892.019	2619.29
1895.224	2674.13
1898.429	2651.76
1901.634	2628.32
1904.838	2607.37
1908.042	2658.15
1911.246	2667.04
1914.449	2597.49
1917.652	2594.74
1920.855	2577.4
1924.058	2624.95
1927.26	2663.64
1930.462	2691.21
1933.664	2721.47
1936.865	2658.98
1940.066	2668.79
1943.267	2611.26
1946.467	2626.7
1949.668	2654.36
1952.868	2723.7
1956.067	2700.49
1959.267	2633.41
1962.466	2661.97
1965.665	2644.34
1968.863	2638.31
1972.061	2653.56
1975.259	2649.19
1978.457	2732.4
1981.654	2689.44
1984.852	2688.53
1988.048	2621.4
1991.245	2624.85
1994.441	2708.84
1997.637	2693.88
2000.833	2680.49
2004.028	2718.37
2007.223	2773.71
2010.418	2752.31
2013.613	2712.01
2016.807	2682.33
2020.001	2693.66
2023.194	2734.34
2026.388	2712.09
2029.581	2657.44
2032.774	2708.16
2035.966	2708.53
2039.158	2642.09
2042.35	2668.19
2045.542	2595.1
2048.733	2694.05
2051.924	2716.54
2055.115	2742.04
2058.306	2687.09
2061.496	2745.51
2064.686	2809.85
2067.875	2721.68
2071.065	2738.1
2074.254	2765.04
2077.442	2717.39
2080.631	2808.69
2083.819	2701.6
2087.007	2685.27
2090.195	2653.61
2093.382	2687.63
2096.569	2667.4
2099.756	2620.82
2102.942	2647.42
2106.128	2655.42
2109.314	2647.06
2112.5	2609.86
2115.685	2582.82
2118.87	2594.64
2122.055	2656.42
2125.239	2626.09
2128.424	2598.73
2131.608	2702.63
2134.791	2681.49
2137.974	2739.21
2141.157	2722.57
2144.34	2674.52
2147.523	2689.6
2150.705	2705.77
2153.887	2683.22
2157.068	2636.15
2160.25	2634.4
2163.431	2675.28
2166.611	2617.81
2169.792	2637.3
2172.972	2529.71
2176.152	2609.26
2179.331	2644.65
2182.511	2627.57
2185.69	2655.44
2188.868	2653.12
2192.047	2705.95
2195.225	2698.91
2198.403	2649
2201.58	2641.75
2204.758	2637.32
2207.935	2722.21
2211.111	2610.76
2214.288	2594.48
2217.464	2633.4
2220.64	2603.54
2223.815	2659.19
2226.991	2581.37
2230.166	2599.91
2233.34	2629.77
2236.515	2655.11
2239.689	2729.04
2242.863	2670.33
2246.036	2724.89
2249.209	2725
2252.382	2760.17
2255.555	2747.29
2258.727	2682.03
2261.9	2723.35
2265.071	2716.46
2268.243	2716.37
2271.414	2647.52
2274.585	2609.9
2277.756	2679.97
2280.926	2640.26
2284.096	2678.16
2287.266	2585.44
2290.436	2642.07
2293.605	2670.93
2296.774	2702.23
2299.942	2723.02
2303.111	2741.55
2306.279	2790.42
2309.447	2776.38
2312.614	2750.91
2315.781	2765.45
2318.948	2737.35
2322.115	2776.36
2325.281	2679.6
2328.447	2700.41
2331.613	2670.6
2334.779	2643.45
2337.944	2646.69
2341.109	2648.77
2344.274	2630.67
2347.438	2592.3
2350.602	2617.77
2353.766	2636.5
2356.929	2621.88
2360.092	2660.39
2363.255	2612.17
2366.418	2549.67
2369.58	2663.31
2372.742	2447.96
2375.904	2460.02
2379.066	2436.06
2382.227	2476.41
2385.388	2438.13
2388.548	2361.44
2391.709	2418.31
2394.869	2401.51
2398.029	2498.77
2401.188	2509.57
2404.347	2443.86
2407.506	2587.61
2410.665	2617.95
2413.823	2621.91
2416.981	2578.67
2420.139	2609.78
2423.296	2660.84
2426.453	2630.44
2429.61	2656.41
2432.767	2591.33
2435.923	2633.08
2439.079	2592.44
2442.235	2640.19
2445.391	2566.35
2448.546	2599.32
2451.701	2646.1
2454.855	2622.01
2458.009	2674.28
2461.163	2675.69
2464.317	2632.88
2467.471	2668.07
2470.624	2705.14
2473.777	2677.26
2476.929	2691.99
2480.082	2716.8
2483.234	2679.75
2486.385	2634.02
2489.537	2625.5
2492.688	2585.32
2495.839	2606.04
2498.989	2618.82
2502.14	2600.01
2505.29	2581.73
2508.439	2611.85
2511.589	2534.75
2514.738	2542.83
2517.887	2573.97
2521.035	2641.21
2524.183	2623.16
2527.331	2604.53
2530.479	2577.95
2533.627	2585.47
