Data from N_1_DIV_IL_4N_Splice17_11-16-06-026.txt Node
Date: Sat Mar 14 11:16:06 EDT 2020
User: sa697716
Spectrometer: FLMS03696
Trigger mode: 0
Integration Time (sec): 3.180400E-1
Scans to average: 20
Electric dark correction enabled: true
Nonlinearity correction enabled: true
Boxcar width: 5
XAxis mode: Wavelengths
Number of Pixels in Spectrum: 2048
>>>>>Begin Spectral Data<<<<<
187.83	-42778.32
188.298	513.81
188.766	276.17
189.233	188.84
189.701	249.18
190.169	501.03
190.636	157.42
191.104	155.68
191.571	43.07
192.039	-16.65
192.506	-4
192.974	115.54
193.441	4.29
193.908	93.65
194.375	-30.3
194.842	-3.85
195.31	102.2
195.777	108.56
196.244	193.26
196.711	155.29
197.177	175.65
197.644	161.92
198.111	253.48
198.578	317.83
199.045	250.01
199.511	409.72
199.978	422.69
200.445	352.72
200.911	387.9
201.378	405.05
201.844	442.53
202.31	699.31
202.777	773.17
203.243	444.7
203.709	439.63
204.176	528.78
204.642	428.01
205.108	410.21
205.574	341.46
206.04	288.8
206.506	265.64
206.972	216.8
207.438	195.74
207.903	229.89
208.369	213.94
208.835	213.74
209.301	210.52
209.766	219.29
210.232	224.84
210.697	273.67
211.163	325.66
211.628	444.73
212.094	397.73
212.559	535.92
213.024	338.31
213.49	391.26
213.955	370.27
214.42	344.6
214.885	328.36
215.35	312.13
215.815	333.32
216.28	364.85
216.745	298.28
217.21	322.28
217.675	262.17
218.14	262.07
218.604	254.71
219.069	264.38
219.534	282.07
219.998	288.89
220.463	311.72
220.927	287.68
221.392	242.96
221.856	252.48
222.32	247.97
222.785	299.92
223.249	361.62
223.713	379.83
224.177	362.56
224.642	408.74
225.106	443.56
225.57	407.24
226.034	341.26
226.497	456.84
226.961	389.77
227.425	473.07
227.889	461.2
228.353	440.95
228.816	783.15
229.28	777.5
229.744	583.37
230.207	392.09
230.671	440.27
231.134	566.53
231.597	716.25
232.061	643.59
232.524	535.46
232.987	400.38
233.45	386.58
233.914	366.84
234.377	326.21
234.84	313.42
235.303	338.32
235.766	362.67
236.229	429.21
236.691	252.81
237.154	279.68
237.617	253.96
238.08	247.14
238.542	264.95
239.005	199.84
239.468	218.97
239.93	188.4
240.393	189.26
240.855	166.19
241.317	159.07
241.78	161.5
242.242	178.72
242.704	195.87
243.166	182.5
243.629	181.17
244.091	196.31
244.553	201.24
245.015	246.02
245.477	289.33
245.939	404.39
246.4	431.93
246.862	456.3
247.324	417.57
247.786	466.66
248.247	567.91
248.709	502.3
249.17	395.43
249.632	418.63
250.093	517.6
250.555	447.95
251.016	289.16
251.477	268.51
251.939	286.6
252.4	293.41
252.861	301.07
253.322	314.43
253.783	367.36
254.244	443
254.705	321.46
255.166	252.22
255.627	252.45
256.088	359.4
256.549	422.46
257.009	376.65
257.47	431.65
257.931	334.88
258.391	233.54
258.852	240.28
259.312	286.79
259.773	338.97
260.233	314.98
260.694	281.09
261.154	290.44
261.614	254.3
262.074	210.21
262.534	216.1
262.994	226.2
263.455	289.58
263.915	250.49
264.374	204.72
264.834	216.37
265.294	214.01
265.754	211.12
266.214	205.35
266.673	181.37
267.133	240.04
267.593	246.49
268.052	275.7
268.512	226.77
268.971	317.53
269.431	363.22
269.89	347.52
270.349	506.52
270.809	565.27
271.268	512.69
271.727	1018.74
272.186	636.66
272.645	459.71
273.104	310.96
273.563	440.95
274.022	288.91
274.481	300.02
274.94	230.62
275.399	169.37
275.857	188.25
276.316	242.18
276.775	213.38
277.233	206.22
277.692	221.7
278.15	276.16
278.609	329.26
279.067	306.39
279.525	296.07
279.984	391.96
280.442	476.26
280.9	529.42
281.358	341.45
281.816	325.51
282.274	335.9
282.732	314.85
283.19	301.03
283.648	249.23
284.106	260.9
284.564	238.01
285.021	229.89
285.479	189.28
285.937	146.31
286.394	159.41
286.852	158.35
287.309	156.9
287.767	181.49
288.224	189.5
288.682	197.42
289.139	234.87
289.596	217.88
290.053	208.45
290.511	220.7
290.968	281.77
291.425	321.26
291.882	324.4
292.339	284.89
292.796	246.54
293.252	219.89
293.709	202.98
294.166	172.4
294.623	175.27
295.079	150.81
295.536	184.44
295.992	177.04
296.449	188.09
296.905	199.31
297.362	221.84
297.818	233.28
298.274	266.12
298.731	260.12
299.187	255.66
299.643	274.73
300.099	354.19
300.555	359.7
301.011	292.64
301.467	315.46
301.923	317.43
302.379	299.5
302.835	300.33
303.291	276.72
303.746	295.21
304.202	319.93
304.658	334.02
305.113	235.44
305.569	244.33
306.024	237.72
306.479	176.42
306.935	168.06
307.39	155.96
307.845	149.52
308.301	166.64
308.756	153.86
309.211	207.42
309.666	209.48
310.121	277.27
310.576	255.57
311.031	275.33
311.486	325.91
311.94	321.97
312.395	401.74
312.85	685.72
313.305	2640.58
313.759	18446.64
314.214	1147.62
314.668	855.03
315.123	744.82
315.577	333.52
316.032	286.79
316.486	349.69
316.94	310.47
317.394	254.68
317.849	211.12
318.303	202.06
318.757	180.4
319.211	200.62
319.665	191.39
320.119	196.39
320.572	240.49
321.026	233.23
321.48	193.87
321.934	173.21
322.387	170.09
322.841	199.8
323.295	221.32
323.748	214.44
324.202	224.41
324.655	273.76
325.108	410.57
325.562	312.1
326.015	331.16
326.468	245.4
326.921	299.74
327.374	311.75
327.827	344.2
328.28	370.97
328.733	280.15
329.186	243.28
329.639	219.4
330.092	170.99
330.545	174.84
330.997	202.03
331.45	242.89
331.903	304.5
332.355	458.38
332.808	399.19
333.26	330.07
333.713	369.52
334.165	379.37
334.617	518.65
335.069	367.4
335.522	578.69
335.974	612.79
336.426	495.94
336.878	284.6
337.33	173.3
337.782	158.17
338.234	197.93
338.686	209.38
339.137	233.23
339.589	178.61
340.041	202.86
340.493	195.91
340.944	194.97
341.396	200.02
341.847	206.79
342.299	238.75
342.75	344.32
343.201	277.91
343.653	319.38
344.104	322.39
344.555	274.77
345.006	340.76
345.457	324.85
345.908	260.49
346.359	277.61
346.81	213.85
347.261	221.4
347.712	199.15
348.163	200.17
348.613	226.9
349.064	242.46
349.515	221.16
349.965	241.98
350.416	259.66
350.866	262.17
351.317	267.13
351.767	441.59
352.217	512.73
352.668	467.74
353.118	441.7
353.568	314.31
354.018	326.53
354.468	356.2
354.918	255.51
355.368	220.59
355.818	324.13
356.268	813.36
356.718	3365.96
357.168	915.27
357.617	424.14
358.067	487.54
358.517	555.65
358.966	631.15
359.416	727.98
359.865	756.56
360.315	833.55
360.764	399.38
361.213	271.56
361.663	228.71
362.112	254.53
362.561	371.71
363.01	258.33
363.459	209.64
363.908	185.22
364.357	188.64
364.806	305.21
365.255	238.36
365.703	235.9
366.152	222.85
366.601	211.75
367.05	209.79
367.498	217.79
367.947	231.69
368.395	225.81
368.844	209.12
369.292	209.64
369.74	163.47
370.189	205.99
370.637	237.57
371.085	210.57
371.533	228.02
371.981	187.17
372.429	178.93
372.877	178.72
373.325	179.52
373.773	175.49
374.221	150.49
374.669	179.71
375.116	159.8
375.564	166.63
376.012	173.68
376.459	165.91
376.907	196.88
377.354	215.76
377.801	205.93
378.249	259.5
378.696	311.33
379.143	420.21
379.591	438.62
380.038	803.06
380.485	566.07
380.932	605.28
381.379	565.78
381.826	466.01
382.273	329.53
382.72	289.2
383.166	265.87
383.613	198.32
384.06	164.84
384.506	179.6
384.953	153.6
385.4	155.57
385.846	136.38
386.292	124
386.739	99.29
387.185	93.65
387.631	99.87
388.078	105.65
388.524	109.57
388.97	114.7
389.416	104.11
389.862	107.79
390.308	103.6
390.754	105.51
391.2	107.27
391.645	108.19
392.091	120.45
392.537	125.48
392.983	107.46
393.428	121.77
393.874	123.05
394.319	133.23
394.765	139.92
395.21	130.72
395.655	131.6
396.101	131.49
396.546	124.39
396.991	108.58
397.436	94.65
397.881	95.17
398.326	76
398.771	79.28
399.216	64.37
399.661	47.74
400.106	52.3
400.551	48.63
400.995	42.74
401.44	40.75
401.885	43.5
402.329	44.33
402.774	44.15
403.218	52.19
403.663	44.34
404.107	47.06
404.551	51.88
404.995	48.4
405.44	47.42
405.884	44.66
406.328	38.3
406.772	36.31
407.216	35.55
407.66	29.4
408.104	20.45
408.547	21.79
408.991	21.13
409.435	17.45
409.879	19.32
410.322	18.55
410.766	19.56
411.209	24.71
411.653	23.99
412.096	23.75
412.54	25.27
412.983	26.58
413.426	28.9
413.869	24.5
414.312	27.5
414.756	23.54
415.199	22.46
415.642	23.61
416.085	24.12
416.527	23.94
416.97	21.4
417.413	22.51
417.856	21.23
418.298	19.79
418.741	18.94
419.184	15.75
419.626	12.75
420.069	13.09
420.511	13.3
420.953	16.12
421.396	16.8
421.838	17.55
422.28	14.28
422.722	14.87
423.164	11.6
423.606	14.33
424.048	12.71
424.49	15.48
424.932	14.51
425.374	14.9
425.816	10.75
426.258	10.4
426.699	10.89
427.141	15.2
427.582	13.83
428.024	15.9
428.465	12.68
428.907	12.14
429.348	12.67
429.789	15.13
430.231	14.71
430.672	13.62
431.113	13.94
431.554	13.82
431.995	13.95
432.436	15.14
432.877	16.35
433.318	19.96
433.759	20.92
434.2	20.88
434.64	17.76
435.081	18.67
435.522	20.57
435.962	20.39
436.403	21.48
436.843	18.31
437.284	16.66
437.724	13.83
438.164	8.57
438.604	8.62
439.045	11.25
439.485	14.45
439.925	14.78
440.365	14.44
440.805	13.64
441.245	13.79
441.685	14.15
442.125	14.3
442.564	14.78
443.004	16.78
443.444	16.9
443.883	15.01
444.323	11.52
444.762	7.37
445.202	4.74
445.641	5.44
446.081	3.16
446.52	4.27
446.959	6.02
447.398	7.47
447.837	8.11
448.276	6.81
448.716	8.11
449.154	6.86
449.593	8.32
450.032	9.75
450.471	6.64
450.91	6.07
451.349	6.4
451.787	6.68
452.226	5.8
452.664	5.08
453.103	5.99
453.541	3.13
453.98	6.98
454.418	7.35
454.856	8.64
455.295	9.32
455.733	10.57
456.171	9.44
456.609	9.33
457.047	9.31
457.485	11.1
457.923	12.52
458.361	13.35
458.798	11.47
459.236	11.47
459.674	10.1
460.111	11.36
460.549	11.12
460.987	10.27
461.424	9.03
461.862	9.53
462.299	9.54
462.736	9.03
463.173	9.27
463.611	11.88
464.048	12.29
464.485	12.05
464.922	10.93
465.359	9.88
465.796	15.96
466.233	16.54
466.67	17.36
467.106	18.17
467.543	17.81
467.98	16.78
468.416	15.3
468.853	14.32
469.29	14.89
469.726	14.9
470.162	15.21
470.599	10.17
471.035	9.58
471.471	8.29
471.907	5.82
472.344	4.71
472.78	5.16
473.216	3.95
473.652	4.68
474.088	5
474.523	5.16
474.959	4.88
475.395	5.37
475.831	5.43
476.266	5.46
476.702	4.99
477.138	5.71
477.573	5.12
478.008	5.5
478.444	6.46
478.879	6.22
479.314	6.43
479.75	6.08
480.185	5.54
480.62	5.08
481.055	4.82
481.49	6.08
481.925	6.14
482.36	8.82
482.795	8.16
483.229	6.89
483.664	6.32
484.099	6.46
484.534	7.45
484.968	8.08
485.403	7.7
485.837	7.28
486.271	6.97
486.706	6.27
487.14	4.02
487.574	4.91
488.009	4.17
488.443	4.21
488.877	4.19
489.311	3.59
489.745	3.37
490.179	3.56
490.613	4.58
491.046	3.94
491.48	4.51
491.914	5.12
492.348	4.81
492.781	5.58
493.215	5.51
493.648	4.87
494.082	4.22
494.515	4.55
494.948	5.49
495.382	4.49
495.815	4.94
496.248	5.28
496.681	4.88
497.114	4.69
497.547	4.76
497.98	5.65
498.413	6.88
498.846	7.75
499.279	7.37
499.711	6.77
500.144	7.08
500.577	7.63
501.009	6.74
501.442	7.07
501.874	7.28
502.306	6.62
502.739	7.83
503.171	7.15
503.603	7.15
504.036	7.04
504.468	7.56
504.9	7.43
505.332	7.15
505.764	8.06
506.196	7.92
506.627	8.11
507.059	8.5
507.491	6.81
507.923	7.11
508.354	7.48
508.786	7.29
509.217	6.84
509.649	6.71
510.08	6.32
510.512	6.52
510.943	6.53
511.374	6.43
511.805	6.02
512.237	5.56
512.668	4.8
513.099	4.09
513.53	4.67
513.961	5.1
514.391	5.44
514.822	6.18
515.253	6.07
515.684	5.85
516.114	5.61
516.545	5.91
516.975	5.42
517.406	5.49
517.836	5.09
518.267	4.79
518.697	5.15
519.127	4.91
519.558	3.87
519.988	2.85
520.418	2.51
520.848	1.71
521.278	1.92
521.708	18.2
522.138	19.05
522.567	18.46
522.997	18.43
523.427	17.76
523.857	17.95
524.286	18.33
524.716	18.86
525.145	19.51
525.575	21
526.004	20.46
526.433	5.16
526.863	4.19
527.292	5.48
527.721	5.78
528.15	5.5
528.579	5.49
529.008	5.79
529.437	5.24
529.866	4.46
530.295	3.45
530.724	4.14
531.152	4.18
531.581	5.2
532.01	4.72
532.438	4.27
532.867	4.01
533.295	4.25
533.723	4.09
534.152	4.91
534.58	5.5
535.008	6.01
535.436	6.9
535.865	6.53
536.293	5.49
536.721	5.43
537.149	5.54
537.576	6.21
538.004	6.19
538.432	5.94
538.86	5.71
539.287	5.51
539.715	5.49
540.143	4.33
540.57	4.72
540.998	4.85
541.425	6.57
541.852	6.72
542.28	6.5
542.707	6.47
543.134	6.88
543.561	6.75
543.988	7.23
544.415	6.61
544.842	6.54
545.269	6.68
545.696	7.68
546.123	6.75
546.549	6.56
546.976	6.5
547.403	6.31
547.829	5.53
548.256	5.31
548.682	4.83
549.108	5.66
549.535	5.28
549.961	4.89
550.387	4.02
550.813	4.43
551.24	5.07
551.666	4.58
552.092	4.29
552.518	4.27
552.943	4.4
553.369	4.2
553.795	3.98
554.221	4.35
554.646	4.31
555.072	5.37
555.498	4.13
555.923	3.2
556.349	3.66
556.774	3.79
557.199	4.13
557.625	3.28
558.05	3.98
558.475	3.83
558.9	4.13
559.325	4.08
559.75	3.46
560.175	3.95
560.6	4
561.025	3.54
561.449	3.62
561.874	3.48
562.299	4.62
562.723	4.21
563.148	4.18
563.572	3.38
563.997	3.1
564.421	2.19
564.846	1.54
565.27	1.72
565.694	1.77
566.118	2.16
566.542	2.97
566.966	3.18
567.39	3.01
567.814	3.7
568.238	4.39
568.662	4.14
569.086	4.51
569.509	4.39
569.933	5.44
570.357	5.55
570.78	5.13
571.204	5.17
571.627	4.67
572.05	4.75
572.474	4.95
572.897	5.04
573.32	6.33
573.743	6.71
574.166	7.47
574.589	6.58
575.012	6.36
575.435	6.08
575.858	5.54
576.281	5.88
576.704	5.03
577.126	4.44
577.549	3.83
577.972	2.79
578.394	2.67
578.817	4.13
579.239	4.05
579.661	4.14
580.084	4.87
580.506	5.02
580.928	4.81
581.35	5.81
581.772	5.84
582.194	6.13
582.616	6.23
583.038	5.55
583.46	3.97
583.882	4.29
584.303	4.11
584.725	3.7
585.147	6.75
585.568	6.98
585.99	7.17
586.411	7.03
586.833	7.16
587.254	7.06
587.675	7.31
588.096	7.32
588.518	6.85
588.939	7.15
589.36	7.13
589.781	3.38
590.202	5.41
590.623	5.19
591.043	4.52
591.464	4.5
591.885	5.33
592.305	5.14
592.726	4.84
593.147	5.03
593.567	5.51
593.987	5.67
594.408	5.85
594.828	3.28
595.248	3.81
595.669	4.83
596.089	4.66
596.509	4.01
596.929	4.51
597.349	4.92
597.769	4.35
598.189	4.35
598.608	4.3
599.028	4.26
599.448	4.36
599.867	3.75
600.287	3.18
600.706	3.78
601.126	4.38
601.545	4.62
601.965	4.41
602.384	4.37
602.803	3.87
603.222	3.56
603.641	3.76
604.061	3.82
604.48	3.88
604.898	3.94
605.317	3.05
605.736	2.52
606.155	2.76
606.574	2.78
606.992	3.1
607.411	3.84
607.829	3.77
608.248	3.25
608.666	3.27
609.085	3.68
609.503	3.76
609.921	4.23
610.339	4.78
610.758	3.87
611.176	3.81
611.594	4.35
612.012	4.07
612.43	4.84
612.847	5.27
613.265	5.65
613.683	5.39
614.101	5.67
614.518	5.55
614.936	4.88
615.353	5.87
615.771	6.21
616.188	6.21
616.606	5.96
617.023	6.04
617.44	6.4
617.857	5.68
618.274	5.37
618.691	5.62
619.108	5.79
619.525	5.8
619.942	5.25
620.359	5.01
620.776	4.85
621.192	5.72
621.609	5.72
622.026	5.64
622.442	5.9
622.859	5.28
623.275	4.91
623.691	5.14
624.108	5.79
624.524	5.52
624.94	5.5
625.356	4.73
625.772	4.19
626.188	3.58
626.604	3.35
627.02	3.16
627.436	4.12
627.852	5.03
628.268	4.92
628.683	4.22
629.099	4.56
629.514	4.57
629.93	4.91
630.345	4.08
630.761	3.96
631.176	4.37
631.591	6.2
632.007	6.51
632.422	5.47
632.837	4.91
633.252	5.76
633.667	5.6
634.082	5.93
634.497	6.69
634.911	8.23
635.326	8.44
635.741	7.83
636.155	6.31
636.57	6.82
636.984	6.76
637.399	8.24
637.813	7.33
638.228	7
638.642	6.5
639.056	5.78
639.47	4.79
639.884	4.73
640.298	4.78
640.712	6.12
641.126	5.85
641.54	5.97
641.954	3.66
642.368	4.35
642.781	7.32
643.195	7.65
643.609	8.26
644.022	8.68
644.436	8.76
644.849	8.73
645.262	8.39
645.676	7.43
646.089	7.13
646.502	8.75
646.915	8.59
647.328	6.94
647.741	7.18
648.154	7.63
648.567	8.5
648.98	9.37
649.393	9.86
649.805	9.67
650.218	9.68
650.631	10.11
651.043	10.34
651.456	11.12
651.868	10.65
652.28	10.31
652.693	9.28
653.105	8.59
653.517	8.34
653.929	8.42
654.341	8.47
654.753	9.93
655.165	9.73
655.577	9.25
655.989	8.97
656.401	8.85
656.813	9.41
657.224	10.03
657.636	9.92
658.047	10.21
658.459	9.52
658.87	8.5
659.282	7.81
659.693	8.43
660.104	8.95
660.515	7.96
660.926	6.92
661.338	7.14
661.749	6.25
662.159	6.63
662.57	5.75
662.981	6.19
663.392	7
663.803	6.48
664.213	5.58
664.624	5.12
665.035	5.91
665.445	6.2
665.855	6.37
666.266	7.61
666.676	7.73
667.086	7.52
667.497	7.92
667.907	6.93
668.317	6.78
668.727	10.04
669.137	9.56
669.547	9.07
669.956	9.47
670.366	8.93
670.776	9.23
671.186	8.67
671.595	8.79
672.005	7.93
672.414	9.26
672.824	10.52
673.233	7.87
673.642	8.16
674.052	8.78
674.461	9.96
674.87	10.28
675.279	10.07
675.688	9.67
676.097	10.56
676.506	11.29
676.915	10.81
677.323	10.84
677.732	9.99
678.141	9.88
678.549	9.44
678.958	7.59
679.366	6.32
679.775	5.25
680.183	6.76
680.592	6.44
681	6.52
681.408	6.43
681.816	5.99
682.224	6.09
682.632	7.33
683.04	6.95
683.448	8.03
683.856	10
684.264	11.14
684.671	9.93
685.079	9.73
685.487	9.2
685.894	8.79
686.302	7.33
686.709	8.2
687.116	7.4
687.524	7.26
687.931	8.36
688.338	7.62
688.745	6.94
689.152	6.72
689.559	6.8
689.966	8.57
690.373	8.41
690.78	9.69
691.187	9.84
691.593	11.25
692	12.57
692.407	12.07
692.813	13.87
693.22	14.38
693.626	13.62
694.032	14.28
694.439	13.35
694.845	13.75
695.251	13.13
695.657	13.38
696.063	11.97
696.469	11.53
696.875	11.11
697.281	9.86
697.687	9.5
698.093	10.26
698.498	10.85
698.904	9.95
699.31	10.92
699.715	12.84
700.12	12.18
700.526	12.47
700.931	11.53
701.337	12.32
701.742	12.34
702.147	12.05
702.552	13.17
702.957	11.34
703.362	12.22
703.767	11.1
704.172	9.19
704.577	9.46
704.981	7.68
705.386	7.86
705.791	8.03
706.195	7.06
706.6	7.54
707.004	4.64
707.408	4.65
707.813	4.99
708.217	6.04
708.621	6.66
709.025	5.71
709.43	7.88
709.834	8.98
710.237	7.81
710.641	8.18
711.045	8.82
711.449	10.46
711.853	13.38
712.256	12.63
712.66	11.99
713.064	12.13
713.467	13.95
713.87	13.86
714.274	13.86
714.677	14.89
715.08	15.78
715.484	15.95
715.887	19.35
716.29	17.71
716.693	19.22
717.096	20.31
717.499	20.45
717.901	18.33
718.304	17.24
718.707	16.21
719.109	15.35
719.512	13.66
719.915	14.33
720.317	12.41
720.719	11.34
721.122	10.73
721.524	11.45
721.926	15.41
722.328	17.25
722.731	17.63
723.133	18.54
723.535	19.41
723.937	21.64
724.338	22.97
724.74	23.63
725.142	59.57
725.544	63.62
725.945	72.57
726.347	69.06
726.748	68.54
727.15	69.72
727.551	71.1
727.952	69.97
728.354	67.07
728.755	65.69
729.156	63.32
729.557	28.01
729.958	23.3
730.359	13.84
730.76	13.77
731.161	13.43
731.562	11.25
731.962	9.7
732.363	9.71
732.763	10.65
733.164	9.7
733.564	10.83
733.965	11.63
734.365	11.85
734.766	11.83
735.166	11.16
735.566	12.03
735.966	13.61
736.366	13.87
736.766	14.44
737.166	13.95
737.566	13.23
737.966	13.07
738.365	13.65
738.765	13.9
739.165	14.41
739.564	14.62
739.964	13.44
740.363	12.37
740.763	10.87
741.162	10.67
741.561	10.49
741.96	10.61
742.36	9.06
742.759	8.76
743.158	7.92
743.557	6.53
743.955	5.37
744.354	5.65
744.753	5.33
745.152	6.17
745.55	5.86
745.949	6.76
746.348	7.43
746.746	7.99
747.144	9.62
747.543	9.22
747.941	9.03
748.339	9.89
748.737	10.05
749.136	10.39
749.534	9.33
749.932	10.62
750.33	10
750.727	8.54
751.125	8.48
751.523	7.7
751.921	10.51
752.318	10.81
752.716	11.27
753.113	11
753.511	11.25
753.908	13.13
754.305	15.13
754.703	15.75
755.1	17.88
755.497	19.2
755.894	18.3
756.291	17.17
756.688	17.79
757.085	19.41
757.482	21.53
757.878	24.39
758.275	24.62
758.672	21.15
759.068	21.4
759.465	21.4
759.861	22.62
760.258	23.01
760.654	24.9
761.05	30.09
761.447	25.69
761.843	23.2
762.239	20.59
762.635	18.47
763.031	14.8
763.427	14.9
763.822	14.46
764.218	12.41
764.614	13.21
765.01	9.4
765.405	6.79
765.801	7.38
766.196	7.26
766.592	6.79
766.987	8.11
767.382	10.73
767.778	11.11
768.173	10.54
768.568	10.65
768.963	11.02
769.358	12.72
769.753	14.31
770.148	14.87
770.542	15.09
770.937	14.11
771.332	13.7
771.726	12.89
772.121	14.82
772.515	15.26
772.91	14.77
773.304	13.7
773.699	13.62
774.093	12.15
774.487	11.31
774.881	11.16
775.275	11.38
775.669	10.64
776.063	10.37
776.457	9.73
776.851	8.92
777.245	10.66
777.638	11.25
778.032	10.7
778.425	11.42
778.819	13.74
779.212	16.04
779.606	18.83
779.999	18.66
780.392	20.4
780.786	18.17
781.179	18.96
781.572	18.31
781.965	19.33
782.358	20.63
782.751	19.29
783.143	18.68
783.536	18.16
783.929	16.33
784.322	18.68
784.714	15.79
785.107	17
785.499	19.54
785.891	21.1
786.284	20.81
786.676	19.49
787.068	22.38
787.46	22.3
787.852	21.12
788.245	21.21
788.636	18.35
789.028	21.48
789.42	23.32
789.812	22.77
790.204	23.28
790.595	24.48
790.987	25.39
791.378	25.07
791.77	23.78
792.161	23.85
792.553	22.69
792.944	25.22
793.335	23.97
793.726	23.11
794.117	23.41
794.508	19.49
794.899	16.46
795.29	16.67
795.681	16.31
796.072	16.69
796.463	28.47
796.853	32.48
797.244	34.37
797.634	34.91
798.025	34.59
798.415	32.01
798.806	35.48
799.196	37.63
799.586	39.27
799.976	39.21
800.366	39.22
800.756	24.89
801.146	23.6
801.536	20.95
801.926	20.38
802.316	20.49
802.706	22.57
803.095	21.34
803.485	20.47
803.874	18.72
804.264	18.6
804.653	19.25
805.043	24.45
805.432	25.04
805.821	26.41
806.21	26.82
806.599	24.48
806.988	23.92
807.377	21.2
807.766	20.6
808.155	20.14
808.544	20.11
808.933	18.84
809.321	18.35
809.71	14.61
810.098	15.28
810.487	13.97
810.875	15.88
811.264	17.72
811.652	26.25
812.04	29.38
812.428	30.9
812.816	30.43
813.204	33.57
813.592	31.56
813.98	33.32
814.368	38.57
814.756	40.49
815.144	40.94
815.531	43.29
815.919	36.93
816.306	35.85
816.694	37.49
817.081	41.38
817.469	42.47
817.856	40.29
818.243	38.16
818.63	31.43
819.017	31.93
819.404	33.66
819.791	30.08
820.178	30.16
820.565	32.01
820.952	37.17
821.339	37.47
821.725	41.03
822.112	46.37
822.498	53.62
822.885	50.42
823.271	50.35
823.657	44.91
824.044	46.87
824.43	44.58
824.816	51.31
825.202	45.46
825.588	44.6
825.974	42.6
826.36	40.3
826.746	32.97
827.132	36.14
827.517	40.18
827.903	43.44
828.289	46.95
828.674	46.7
829.06	40.36
829.445	39.19
829.83	37.41
830.216	33.79
830.601	34.6
830.986	45.02
831.371	43.93
831.756	44.4
832.141	47.53
832.526	44.77
832.911	50.15
833.295	48.75
833.68	50.32
834.065	53.46
834.449	54
834.834	52.81
835.218	50.81
835.603	53.75
835.987	48.57
836.371	46.16
836.755	44.23
837.139	39.46
837.524	38.24
837.908	36.4
838.291	37.17
838.675	37.06
839.059	38.3
839.443	33.76
839.827	30.15
840.21	27.92
840.594	31.23
840.977	35.56
841.361	38.06
841.744	37.32
842.127	37.88
842.511	35.08
842.894	34.05
843.277	33.39
843.66	30.47
844.043	31.17
844.426	36.63
844.809	31.73
845.191	28.9
845.574	28.32
845.957	28.94
846.339	31.99
846.722	32.16
847.104	30.86
847.487	28.94
847.869	32.86
848.252	36.15
848.634	33.92
849.016	35.31
849.398	32.07
849.78	29.82
850.162	31.26
850.544	27.07
850.926	27.48
851.307	28.57
851.689	30.61
852.071	25.92
852.452	24.6
852.834	27.21
853.215	28.55
853.597	27.2
853.978	35.06
854.359	39.18
854.741	42.59
855.122	42.97
855.503	41.99
855.884	39.3
856.265	42.2
856.646	40.66
857.026	39.22
857.407	40.88
857.788	41.95
858.169	32.84
858.549	35.49
858.93	34.03
859.31	34.5
859.69	39.11
860.071	41.94
860.451	42.97
860.831	41.12
861.211	40.96
861.591	38.24
861.971	39.72
862.351	42.83
862.731	34.83
863.111	36.02
863.491	33.99
863.87	34.2
864.25	29.83
864.629	33.32
865.009	30.09
865.388	32.3
865.768	34.66
866.147	34.46
866.526	36.09
866.905	41.65
867.284	32.86
867.663	26.48
868.042	20.76
868.421	23.93
868.8	16.33
869.179	26.59
869.558	23.48
869.936	22.83
870.315	26.44
870.693	29.23
871.072	25.55
871.45	26.45
871.828	32.01
872.207	34.27
872.585	33.63
872.963	35.54
873.341	36.59
873.719	44.4
874.097	43.7
874.475	41.64
874.853	39.5
875.23	38.43
875.608	46.56
875.986	47.75
876.363	48.58
876.741	54.79
877.118	62.14
877.495	63.59
877.873	56.02
878.25	56.76
878.627	54.39
879.004	47.74
879.381	47.21
879.758	48.41
880.135	47.62
880.512	47.27
880.889	41.4
881.265	35.97
881.642	29.72
882.019	30.04
882.395	37.83
882.772	39.83
883.148	43.08
883.524	43.91
883.901	41.59
884.277	41.79
884.653	41.94
885.029	46.63
885.405	53.5
885.781	52.75
886.157	49.76
886.532	43.16
886.908	42.94
887.284	48.37
887.659	48.83
888.035	46.55
888.411	46.6
888.786	46.6
889.161	43.23
889.537	37.05
889.912	39.98
890.287	43.48
890.662	41.86
891.037	33.67
891.412	27.09
891.787	23.35
892.162	28.97
892.536	33.26
892.911	36.33
893.286	35.1
893.66	38.16
894.035	39.56
894.409	37.21
894.784	44.02
895.158	47.86
895.532	54.3
895.906	64.76
896.281	64.7
896.655	61.18
897.029	66.12
897.402	73.21
897.776	69.52
898.15	72.42
898.524	76.47
898.898	74.13
899.271	86.69
899.645	80.24
900.018	71.58
900.392	73.84
900.765	70.85
901.138	70.67
901.511	64.49
901.884	71.39
902.258	68.34
902.631	71.11
903.003	76.19
903.376	64.46
903.749	70.22
904.122	76.41
904.495	81.38
904.867	67
905.24	59.87
905.612	52.89
905.985	47.59
906.357	42.77
906.729	45.97
907.102	42.08
907.474	44.9
907.846	56.35
908.218	50.94
908.59	54.53
908.962	66.49
909.334	68.51
909.705	80.88
910.077	78.67
910.449	81.42
910.82	94.74
911.192	111.44
911.563	127.59
911.935	113.52
912.306	117.53
912.677	114.3
913.048	120.11
913.419	131
913.79	121.56
914.161	118.65
914.532	126.64
914.903	95.27
915.274	73.69
915.645	70.61
916.015	63.53
916.386	65.37
916.756	64.27
917.127	60.01
917.497	58.43
917.868	72.61
918.238	81.05
918.608	72.11
918.978	75.93
919.348	82.77
919.718	75.15
920.088	85.04
920.458	90.93
920.828	85.89
921.198	76.29
921.567	75.92
921.937	65.24
922.306	66.15
922.676	73.25
923.045	78.81
923.415	86.32
923.784	87.14
924.153	91.32
924.522	96.44
924.891	95.33
925.26	105.94
925.629	101.73
925.998	105.44
926.367	103.38
926.736	108.3
927.104	111.48
927.473	104.36
927.842	109.45
928.21	102.49
928.578	81.47
928.947	102.44
929.315	106.81
929.683	138.9
930.051	125.85
930.42	147.92
930.788	134.87
931.156	138.88
931.523	163.39
931.891	176.04
932.259	185.79
932.627	229.53
932.994	301.87
933.362	275.45
933.729	235.69
934.097	245.66
934.464	231.8
934.831	251.78
935.199	247.87
935.566	233.65
935.933	253.48
936.3	288.28
936.667	228.32
937.034	256.18
937.401	230.8
937.767	211.14
938.134	176.09
938.501	197.95
938.867	239.65
939.234	391.72
939.6	315.22
939.967	259.31
940.333	210.59
940.699	184.03
941.065	94.93
941.431	139.93
941.798	166.42
942.163	279.32
942.529	198.64
942.895	173.52
943.261	126.78
943.627	175.67
943.992	181.51
944.358	164.68
944.723	185.07
945.089	179.99
945.454	178.93
945.82	156.51
946.185	131.04
946.55	150.32
946.915	139.33
947.28	154.97
947.645	132.52
948.01	125.68
948.375	132.05
948.74	136.62
949.104	155.5
949.469	184.81
949.834	371.74
950.198	431.65
950.562	301.92
950.927	241.78
951.291	293.35
951.655	239.95
952.02	191.58
952.384	158.24
952.748	163.87
953.112	197.96
953.476	175.26
953.839	157.29
954.203	164.56
954.567	184
954.931	245.21
955.294	220.98
955.658	209.8
956.021	359.68
956.385	570.19
956.748	807.35
957.111	886.49
957.474	899.59
957.837	915.05
958.2	551.02
958.563	206.29
958.926	180.56
959.289	238.08
959.652	320.4
960.015	261.42
960.377	373.37
960.74	318
961.102	522.58
961.465	654.33
961.827	683.62
962.189	1231.57
962.552	891.76
962.914	704.27
963.276	458.86
963.638	373.67
964	366.7
964.362	247.72
964.724	254.69
965.085	208.1
965.447	185.16
965.809	144.23
966.17	148.49
966.532	162.33
966.893	153.45
967.255	134.13
967.616	149.55
967.977	119.28
968.338	125.59
968.699	117.13
969.061	102.66
969.421	99.71
969.782	105.5
970.143	107.67
970.504	133.58
970.865	150.29
971.225	172.43
971.586	176.21
971.946	220.43
972.307	196.3
972.667	225.08
973.027	248.46
973.388	273.24
973.748	195.49
974.108	224.69
974.468	225.04
974.828	235.02
975.188	188.22
975.548	166.15
975.907	167.14
976.267	181.8
976.627	178.94
976.986	187.3
977.346	174.1
977.705	169.95
978.064	138.48
978.424	125.78
978.783	93.05
979.142	88.55
979.501	88.47
979.86	87.54
980.219	73.08
980.578	65.94
980.937	56.09
981.296	70.66
981.654	77.89
982.013	114.34
982.371	149.62
982.73	190.2
983.088	233.91
983.447	259.96
983.805	390.2
984.163	944.25
984.521	1049.82
984.879	1500.26
985.237	-2477.16
985.595	2396.02
985.953	598.41
986.311	302.88
986.669	169.53
987.026	144.88
987.384	175.45
987.741	161.15
988.099	182.5
988.456	152.28
988.814	137.25
989.171	118.44
989.528	99
989.885	85.99
990.242	92.38
990.599	90.74
990.956	88.22
991.313	66.36
991.67	62.65
992.027	85.71
992.383	84.03
992.74	84.52
993.096	89.15
993.453	97.39
993.809	102.83
994.165	117.35
994.522	157.37
994.878	159.16
995.234	201.57
995.59	199.19
995.946	127.03
996.302	140.59
996.658	158.6
997.013	153
997.369	213.66
997.725	275.48
998.08	174.87
998.436	143.09
998.791	232.01
999.147	238.11
999.502	271.71
999.857	188.19
1000.212	265
1000.567	383.91
1000.922	272.04
1001.277	158.38
1001.632	142.97
1001.987	190.86
1002.342	163.38
1002.696	142.27
1003.051	120.06
1003.406	144.76
1003.76	148.85
1004.114	162.2
1004.469	131.45
1004.823	120.41
1005.177	128.16
1005.531	102.89
1005.885	116.26
1006.239	138.34
1006.593	178.39
1006.947	251.24
1007.301	187.71
1007.655	211.26
1008.008	156.54
1008.362	178.03
1008.715	251.91
1009.069	218.31
1009.422	349.3
1009.776	590.28
1010.129	308.18
1010.482	238.54
1010.835	156.99
1011.188	230.36
1011.541	222.11
1011.894	-1008.19
1012.247	3978.43
1012.6	248.81
1012.952	196.79
1013.305	73.61
1013.657	79.62
1014.01	99.34
1014.362	85.57
1014.715	127.11
1015.067	145
1015.419	143.75
1015.771	146.28
1016.123	150.25
1016.475	149.74
1016.827	150.86
1017.179	184.87
1017.531	175.37
1017.883	178.05
1018.234	203.18
1018.586	233.15
1018.938	244.33
1019.289	337.29
1019.64	339.94
1019.992	253.52
1020.343	219.23
1020.694	203.59
1021.045	166.17
1021.396	191.28
1021.747	221.75
1022.098	216.13
1022.449	174.91
1022.8	165.48
1023.151	139.5
1023.501	152.14
1023.852	170.98
1024.202	202.81
1024.553	206.53
1024.903	223.51
1025.253	215.85
1025.604	213.64
1025.954	264.62
1026.304	280.87
1026.654	324.74
1027.004	430.95
1027.354	631.32
1027.703	665.99
1028.053	786.51
1028.403	1452.66
1028.753	1940.56
1029.102	2072.02
1029.452	6713.87
1029.801	199.69
1030.15	155.41
1030.499	100.02
897.758	1269.06
901.051	1226.48
904.343	1249.83
907.636	1250.49
910.928	1284.53
914.22	1240.24
917.511	1248.24
920.803	1270.25
924.094	1264.49
927.384	1270.29
930.675	1250.26
933.965	1232.77
937.255	1251.84
940.544	1234.54
943.834	1237.18
947.123	1204.94
950.411	1255.75
953.7	1245.27
956.988	1239.69
960.276	1197.86
963.563	1222.14
966.851	1225.63
970.138	1244.38
973.424	1246.34
976.711	1217.07
979.997	1240.76
983.283	1263.33
986.568	1227.22
989.853	1219.15
993.138	1229.65
996.423	1282.98
999.708	1259.05
1002.992	1275.05
1006.275	1229.69
1009.559	1229.06
1012.842	1283.11
1016.125	1259.57
1019.408	1244.4
1022.69	1273.23
1025.972	1286.92
1029.254	1276.61
1032.536	1257.35
1035.817	1260.38
1039.098	1243.6
1042.379	1268.08
1045.659	1283.34
1048.939	1252.38
1052.219	1253.08
1055.498	1250.98
1058.778	1242.93
1062.057	1236.66
1065.335	1251.23
1068.614	1252.34
1071.892	1246.93
1075.17	1277.82
1078.447	1279.09
1081.724	1273.36
1085.001	1287.15
1088.278	1272.02
1091.554	1273.51
1094.83	1273.9
1098.106	1287.78
1101.382	1300.81
1104.657	1301.98
1107.932	1303.37
1111.206	1287.7
1114.481	1263.12
1117.755	1265.48
1121.029	1259.88
1124.302	1291.55
1127.575	1277.4
1130.848	1277.45
1134.121	1260.94
1137.393	1238.54
1140.665	1268.42
1143.937	1252.48
1147.208	1232.26
1150.48	1259.88
1153.75	1255.35
1157.021	1258.91
1160.291	1244.58
1163.561	1269.92
1166.831	1251.04
1170.101	1262.79
1173.37	1243.65
1176.639	1223.57
1179.907	1251.84
1183.176	1255.51
1186.444	1258.49
1189.711	1268.75
1192.979	1283.63
1196.246	1260.91
1199.513	1268.28
1202.78	1270.02
1206.046	1275.66
1209.312	1292.26
1212.578	1294.47
1215.843	1273.6
1219.108	1265.83
1222.373	1276.45
1225.638	1261.98
1228.902	1251.44
1232.166	1236.16
1235.43	1227.12
1238.693	1241.4
1241.956	1240.71
1245.219	1264.3
1248.482	1260.27
1251.744	1261.4
1255.006	1322.07
1258.268	1294.61
1261.529	1277.2
1264.79	1277.71
1268.051	1327.29
1271.312	1336.51
1274.572	1316.21
1277.832	1307.96
1281.092	1298.33
1284.351	1295.03
1287.61	1288.49
1290.869	1252.11
1294.128	1253.6
1297.386	1273.58
1300.644	1270.66
1303.902	1272.96
1307.159	1200.98
1310.416	1229.52
1313.673	1241.57
1316.93	1242.5
1320.186	1255.46
1323.442	1269.87
1326.697	1271.45
1329.953	1257.66
1333.208	1276.49
1336.463	1263.61
1339.717	1246.61
1342.972	1307.67
1346.226	1296.09
1349.479	1276.43
1352.733	1262.65
1355.986	1274.18
1359.238	1264.57
1362.491	1264.47
1365.743	1263.66
1368.995	1263.51
1372.247	1273.4
1375.498	1279.28
1378.749	1298.1
1382	1276.03
1385.251	1287.97
1388.501	1269.47
1391.751	1262.82
1395	1252.2
1398.25	1267.41
1401.499	1283.04
1404.748	1257.56
1407.996	1249.87
1411.244	1251.86
1414.492	1242.6
1417.74	1231.34
1420.987	1241.27
1424.234	1268.3
1427.481	1251.97
1430.728	1276.73
1433.974	1266.67
1437.22	1267.82
1440.465	1259.62
1443.711	1260.76
1446.956	1267.3
1450.201	1256.6
1453.445	1283.78
1456.689	1271.79
1459.933	1281.65
1463.177	1300.27
1466.42	1288.23
1469.663	1276.9
1472.906	1282.21
1476.148	1309.86
1479.391	1288.15
1482.633	1279.94
1485.874	1291
1489.115	1291.88
1492.356	1284.42
1495.597	1268.73
1498.838	1264.47
1502.078	1260.32
1505.318	1249.61
1508.557	1263.29
1511.797	1262.52
1515.036	1286.2
1518.274	1264.21
1521.513	1236.28
1524.751	1240.28
1527.989	1250.54
1531.227	1260.7
1534.464	1262.4
1537.701	1256.7
1540.938	1260.11
1544.174	1233.59
1547.41	1226.11
1550.646	1247.86
1553.882	1269.26
1557.117	1302.44
1560.352	1307.34
1563.587	1284.26
1566.821	1269.17
1570.055	1281.68
1573.289	1264.73
1576.523	1291.9
1579.756	1300.33
1582.989	1312.65
1586.222	1286.12
1589.454	1309.39
1592.686	1300.94
1595.918	1311.68
1599.15	1312.88
1602.381	1335.23
1605.612	1325.09
1608.843	1373.23
1612.073	1334.89
1615.303	1327.52
1618.533	1322.78
1621.762	1324.36
1624.992	1306.95
1628.221	1302.73
1631.449	1297.73
1634.678	1312.67
1637.906	1295.39
1641.134	1304.41
1644.361	1289.11
1647.588	1282.74
1650.815	1297.22
1654.042	1279.24
1657.269	1294.23
1660.495	1283.97
1663.72	1278.88
1666.946	1260.63
1670.171	1250.27
1673.396	1233.66
1676.621	1227.56
1679.845	1225.76
1683.069	1228.83
1686.293	1241.96
1689.517	1236.12
1692.74	1213.75
1695.963	1222.93
1699.185	1241.21
1702.408	1229.99
1705.63	1242.37
1708.852	1250.77
1712.073	1235.58
1715.294	1245.74
1718.515	1271.52
1721.736	1248.14
1724.956	1242.91
1728.176	1254.86
1731.396	1263.03
1734.616	1259.6
1737.835	1282.86
1741.054	1267.16
1744.272	1266.67
1747.491	1286.98
1750.709	1297.12
1753.927	1272.04
1757.144	1289.46
1760.361	1316.99
1763.578	1298.1
1766.795	1273.87
1770.011	1270.06
1773.227	1282.37
1776.443	1304.01
1779.658	1322.8
1782.874	1295.19
1786.089	1289.95
1789.303	1290.85
1792.518	1290.84
1795.732	1284.99
1798.945	1294.79
1802.159	1319.64
1805.372	1286.77
1808.585	1278.96
1811.797	1280.33
1815.01	1297.03
1818.222	1311.99
1821.434	1293.58
1824.645	1311.96
1827.856	1314.4
1831.067	1327.84
1834.278	1301.24
1837.488	1291.87
1840.698	1355.48
1843.908	1332.88
1847.117	1315.65
1850.326	1277.25
1853.535	1310.8
1856.744	1329.76
1859.952	1292.36
1863.16	1291.74
1866.368	1307.76
1869.575	1365.47
1872.782	1306.02
1875.989	1272.95
1879.196	1298.81
1882.402	1296.97
1885.608	1312.64
1888.814	1279.76
1892.019	1234.64
1895.224	1265.64
1898.429	1250.43
1901.634	1237.53
1904.838	1228.17
1908.042	1259.48
1911.246	1269.64
1914.449	1250.94
1917.652	1242.52
1920.855	1233.61
1924.058	1246.48
1927.26	1273.91
1930.462	1282.25
1933.664	1303.01
1936.865	1278.27
1940.066	1284.37
1943.267	1255.71
1946.467	1261.72
1949.668	1266.02
1952.868	1304.42
1956.067	1304.21
1959.267	1273.22
1962.466	1285.79
1965.665	1274.89
1968.863	1274.17
1972.061	1271.68
1975.259	1268.74
1978.457	1307.34
1981.654	1287.37
1984.852	1288.41
1988.048	1266.84
1991.245	1255.94
1994.441	1301.8
1997.637	1273.63
2000.833	1265.11
2004.028	1280.15
2007.223	1316.27
2010.418	1305.78
2013.613	1281.05
2016.807	1276.5
2020.001	1276.2
2023.194	1286.57
2026.388	1278.55
2029.581	1249.22
2032.774	1284.04
2035.966	1289.64
2039.158	1262.86
2042.35	1271.99
2045.542	1234.56
2048.733	1278.6
2051.924	1270.93
2055.115	1278.89
2058.306	1262.62
2061.496	1285.59
2064.686	1316.46
2067.875	1262.87
2071.065	1267.07
2074.254	1274.89
2077.442	1250.25
2080.631	1294.14
2083.819	1261.05
2087.007	1256.01
2090.195	1248.84
2093.382	1250.19
2096.569	1250.25
2099.756	1226.21
2102.942	1260.05
2106.128	1261.5
2109.314	1257.8
2112.5	1251.73
2115.685	1235.26
2118.87	1238.34
2122.055	1276.39
2125.239	1262.29
2128.424	1259.1
2131.608	1288.11
2134.791	1277.85
2137.974	1295.51
2141.157	1288.95
2144.34	1276.6
2147.523	1268.48
2150.705	1285.43
2153.887	1264.48
2157.068	1249.88
2160.25	1237.9
2163.431	1251.52
2166.611	1234.38
2169.792	1246.86
2172.972	1195.68
2176.152	1231.01
2179.331	1241.57
2182.511	1241.12
2185.69	1249.98
2188.868	1252.02
2192.047	1271.48
2195.225	1289.49
2198.403	1257.63
2201.58	1249.38
2204.758	1240.79
2207.935	1281.49
2211.111	1234.79
2214.288	1227.3
2217.464	1245.53
2220.64	1224.6
2223.815	1251.05
2226.991	1213.4
2230.166	1217.49
2233.34	1240.58
2236.515	1248.02
2239.689	1288.26
2242.863	1259.8
2246.036	1285.7
2249.209	1279.95
2252.382	1292.11
2255.555	1294.22
2258.727	1272.47
2261.9	1287.94
2265.071	1284.8
2268.243	1286.03
2271.414	1261.13
2274.585	1246.49
2277.756	1279.56
2280.926	1259.17
2284.096	1277.56
2287.266	1239
2290.436	1266.4
2293.605	1272.47
2296.774	1291.58
2299.942	1296.57
2303.111	1306.11
2306.279	1332.19
2309.447	1327.32
2312.614	1317.1
2315.781	1323.41
2318.948	1309.29
2322.115	1332.05
2325.281	1274.69
2328.447	1280.45
2331.613	1264.65
2334.779	1261.63
2337.944	1258.23
2341.109	1258.28
2344.274	1252.01
2347.438	1232.1
2350.602	1247.13
2353.766	1251.22
2356.929	1246.72
2360.092	1271.38
2363.255	1250.05
2366.418	1236.64
2369.58	1255.76
2372.742	1238.87
2375.904	1228.08
2379.066	1224.48
2382.227	1237.84
2385.388	1215.51
2388.548	1190.66
2391.709	1208.99
2394.869	1205.68
2398.029	1237.97
2401.188	1228.27
2404.347	1218.76
2407.506	1214.99
2410.665	1247.64
2413.823	1236.28
2416.981	1228.1
2420.139	1238.42
2423.296	1260.19
2426.453	1245.98
2429.61	1257.53
2432.767	1240.89
2435.923	1260.62
2439.079	1234.86
2442.235	1255.03
2445.391	1220.05
2448.546	1242.78
2451.701	1258.85
2454.855	1256.16
2458.009	1271.49
2461.163	1263.85
2464.317	1245.79
2467.471	1262.74
2470.624	1282.37
2473.777	1274.55
2476.929	1282.82
2480.082	1293.77
2483.234	1283.83
2486.385	1254.89
2489.537	1250.13
2492.688	1242.94
2495.839	1257.67
2498.989	1262.96
2502.14	1252.57
2505.29	1247.36
2508.439	1260.82
2511.589	1229.57
2514.738	1231.53
2517.887	1239.63
2521.035	1281.3
2524.183	1258.11
2527.331	1253.52
2530.479	1245.65
2533.627	1249.95
