Data from N_1_DIV_OH_2N_Splice17_11-29-42-247.txt Node
Date: Sat Mar 14 11:29:42 EDT 2020
User: sa697716
Spectrometer: FLMS03696
Trigger mode: 0
Integration Time (sec): 3.180400E-1
Scans to average: 20
Electric dark correction enabled: true
Nonlinearity correction enabled: true
Boxcar width: 5
XAxis mode: Wavelengths
Number of Pixels in Spectrum: 2048
>>>>>Begin Spectral Data<<<<<
187.83	-117465.56
188.298	991.24
188.766	559.26
189.233	478.45
189.701	689.84
190.169	1014.06
190.636	377.84
191.104	324.27
191.571	28.98
192.039	7.96
192.506	-15.07
192.974	325.21
193.441	-444.4
193.908	-64.88
194.375	-40.65
194.842	32.38
195.31	151.6
195.777	163.54
196.244	281.66
196.711	203.2
197.177	207.49
197.644	228.23
198.111	349.62
198.578	464.8
199.045	339.44
199.511	572.6
199.978	607.19
200.445	500.55
200.911	489.28
201.378	487.15
201.844	480.43
202.31	851.3
202.777	862.76
203.243	471.42
203.709	454.37
204.176	576.74
204.642	456.03
205.108	424.87
205.574	347.93
206.04	327.87
206.506	302.54
206.972	263.05
207.438	243.45
207.903	281.12
208.369	280.61
208.835	274.56
209.301	286.83
209.766	281.27
210.232	287.19
210.697	333.53
211.163	368.34
211.628	527.85
212.094	448.97
212.559	597.96
213.024	370.03
213.49	443.98
213.955	419.86
214.42	364.93
214.885	345.37
215.35	336.31
215.815	384.99
216.28	429.63
216.745	349.71
217.21	391.63
217.675	316.25
218.14	338.52
218.604	327.77
219.069	357.83
219.534	378.6
219.998	395.46
220.463	417.5
220.927	397.77
221.392	334.89
221.856	316.63
222.32	303.85
222.785	341.52
223.249	384.85
223.713	413.23
224.177	376.24
224.642	376.6
225.106	403.01
225.57	407.39
226.034	359.46
226.497	543.78
226.961	494.28
227.425	619.28
227.889	681.71
228.353	660.33
228.816	1226.15
229.28	1216.04
229.744	1034.79
230.207	667.02
230.671	654.26
231.134	911.96
231.597	1052.01
232.061	987.84
232.524	893.08
232.987	580.6
233.45	500.67
233.914	439.95
234.377	385.29
234.84	347.06
235.303	376.15
235.766	414.46
236.229	421.1
236.691	254.61
237.154	265.99
237.617	220.19
238.08	230.88
238.542	294.3
239.005	227.85
239.468	251.63
239.93	239.76
240.393	219.04
240.855	197.14
241.317	185.48
241.78	196.05
242.242	232.54
242.704	276.28
243.166	239.84
243.629	237.35
244.091	278.79
244.553	279.16
245.015	307.01
245.477	376.91
245.939	513.12
246.4	564.31
246.862	542.78
247.324	480.02
247.786	468.96
248.247	545.09
248.709	472.8
249.17	341.29
249.632	429.6
250.093	528.01
250.555	473.17
251.016	334.14
251.477	327.14
251.939	371.85
252.4	379.75
252.861	432.07
253.322	436.85
253.783	484.88
254.244	595.25
254.705	407.85
255.166	322.61
255.627	329.32
256.088	435.31
256.549	456.03
257.009	374.86
257.47	431.35
257.931	353.3
258.391	285.49
258.852	302.04
259.312	329.77
259.773	390.77
260.233	374.81
260.694	326.63
261.154	366.43
261.614	323.26
262.074	295.99
262.534	331.76
262.994	326.06
263.455	396.65
263.915	348.95
264.374	320.04
264.834	348.96
265.294	353.89
265.754	356.73
266.214	318.1
266.673	285.82
267.133	333.05
267.593	291.78
268.052	351.78
268.512	302.21
268.971	398.2
269.431	432.7
269.89	378.31
270.349	556.58
270.809	626.18
271.268	591.88
271.727	1187.25
272.186	778.97
272.645	587.98
273.104	351.12
273.563	500.09
274.022	312.54
274.481	313.88
274.94	260.31
275.399	199.95
275.857	205.06
276.316	237.14
276.775	223.98
277.233	229.77
277.692	253.06
278.15	326.37
278.609	380.68
279.067	341.86
279.525	323.44
279.984	390.43
280.442	443.54
280.9	548.19
281.358	376.8
281.816	377.47
282.274	355.36
282.732	342.58
283.19	346.52
283.648	289.47
284.106	326.74
284.564	300.18
285.021	292.24
285.479	234
285.937	169.1
286.394	171.54
286.852	170.62
287.309	187.83
287.767	207.92
288.224	209.39
288.682	219.73
289.139	248.82
289.596	252.79
290.053	251.05
290.511	286.17
290.968	359.99
291.425	449.78
291.882	382
292.339	345.4
292.796	314.34
293.252	285.26
293.709	257.32
294.166	233.14
294.623	240.82
295.079	216.44
295.536	236.67
295.992	228.2
296.449	225.04
296.905	241.02
297.362	264.42
297.818	271.92
298.274	281.15
298.731	267.29
299.187	261.81
299.643	278.22
300.099	354.85
300.555	384.13
301.011	339.47
301.467	381.42
301.923	410.32
302.379	377.96
302.835	370.25
303.291	387.61
303.746	429.09
304.202	501.34
304.658	507.73
305.113	359.27
305.569	372.89
306.024	361.38
306.479	287.91
306.935	267.58
307.39	248.13
307.845	230.36
308.301	254.62
308.756	257.86
309.211	273.12
309.666	273.1
310.121	372
310.576	352.61
311.031	343.01
311.486	368.58
311.94	336.45
312.395	467.66
312.85	868.55
313.305	3484.57
313.759	19330.25
314.214	1407.69
314.668	1135.09
315.123	918.24
315.577	355.04
316.032	336.65
316.486	429.7
316.94	379.24
317.394	295.74
317.849	232.58
318.303	215.95
318.757	215.44
319.211	234.42
319.665	217.93
320.119	219.86
320.572	273.61
321.026	262.77
321.48	231.73
321.934	230.14
322.387	222.03
322.841	266.19
323.295	297.43
323.748	304.49
324.202	314.63
324.655	352.8
325.108	537.35
325.562	409.18
326.015	471.11
326.468	335.59
326.921	393.58
327.374	389.24
327.827	412.17
328.28	411.71
328.733	295.61
329.186	260.22
329.639	251.98
330.092	205.79
330.545	201.96
330.997	218.9
331.45	270.33
331.903	325.69
332.355	493.4
332.808	456.38
333.26	375.88
333.713	407.9
334.165	397.56
334.617	494.37
335.069	307.06
335.522	493.37
335.974	502.03
336.426	363.17
336.878	191.76
337.33	140.83
337.782	123.95
338.234	177.54
338.686	203.15
339.137	259.45
339.589	286.39
340.041	276.15
340.493	261.64
340.944	272.97
341.396	306.85
341.847	288.26
342.299	345.01
342.75	462.44
343.201	365.68
343.653	414.5
344.104	453.57
344.555	351.29
345.006	492.98
345.457	448.35
345.908	335.22
346.359	338.53
346.81	268.64
347.261	246.44
347.712	220.93
348.163	233.8
348.613	286.17
349.064	285.05
349.515	239.2
349.965	279.02
350.416	289.64
350.866	326.04
351.317	334.11
351.767	570.74
352.217	756.37
352.668	676.19
353.118	665.73
353.568	523.79
354.018	468.53
354.468	514.06
354.918	349.65
355.368	321.55
355.818	421.14
356.268	1129.76
356.718	5136.73
357.168	1309.83
357.617	632.02
358.067	605.64
358.517	597.57
358.966	710.34
359.416	872.93
359.865	942.84
360.315	1020.04
360.764	527.06
361.213	313.12
361.663	235.96
362.112	283.49
362.561	384.82
363.01	321.37
363.459	283.5
363.908	248.48
364.357	263.47
364.806	404.8
365.255	295.75
365.703	284.04
366.152	279.28
366.601	268.57
367.05	240.78
367.498	253.12
367.947	245.42
368.395	242.75
368.844	233.7
369.292	208.78
369.74	163.15
370.189	223.62
370.637	243.5
371.085	218.87
371.533	241.48
371.981	167.9
372.429	163.85
372.877	182.01
373.325	153.57
373.773	147.25
374.221	121.1
374.669	143.69
375.116	120.03
375.564	139.9
376.012	153.07
376.459	133.99
376.907	173.74
377.354	190.62
377.801	184.91
378.249	232.58
378.696	294.54
379.143	403.85
379.591	449.92
380.038	879.07
380.485	664.29
380.932	669.57
381.379	771.95
381.826	653.36
382.273	491.51
382.72	413.02
383.166	405.25
383.613	279.97
384.06	252.85
384.506	272.3
384.953	198.57
385.4	178.95
385.846	153.06
386.292	112.86
386.739	84.4
387.185	57.06
387.631	67.1
388.078	87.44
388.524	88.64
388.97	90.36
389.416	71.89
389.862	70.11
390.308	70.74
390.754	85.96
391.2	92.35
391.645	97.15
392.091	133.32
392.537	131.51
392.983	112.43
393.428	129.37
393.874	124.24
394.319	151.83
394.765	161.72
395.21	167.12
395.655	142.75
396.101	137.69
396.546	132.91
396.991	110.86
397.436	103.76
397.881	97.95
398.326	82.83
398.771	89.95
399.216	70.8
399.661	65.18
400.106	65.79
400.551	77.07
400.995	74.04
401.44	73.2
401.885	72.66
402.329	75.25
402.774	79.43
403.218	83.44
403.663	80.79
404.107	88.38
404.551	90.82
404.995	84.76
405.44	77.97
405.884	76.03
406.328	69.31
406.772	68.21
407.216	61.1
407.66	53.69
408.104	44.68
408.547	38.93
408.991	35.95
409.435	30.54
409.879	32.83
410.322	36.64
410.766	36.94
411.209	41.51
411.653	41.65
412.096	44.25
412.54	43.7
412.983	44.61
413.426	49.37
413.869	49.55
414.312	52.39
414.756	49.56
415.199	45.98
415.642	48.23
416.085	48.19
416.527	45.97
416.97	42.37
417.413	43.29
417.856	41.45
418.298	39.24
418.741	35.12
419.184	31.13
419.626	26.43
420.069	26.72
420.511	24.04
420.953	24.13
421.396	25.4
421.838	28.86
422.28	30.07
422.722	33.89
423.164	32.78
423.606	34.7
424.048	36.03
424.49	39.04
424.932	38.63
425.374	38.86
425.816	36.9
426.258	36.29
426.699	35.73
427.141	36.9
427.582	34.59
428.024	35.25
428.465	32.46
428.907	32.66
429.348	30.56
429.789	32.21
430.231	34.36
430.672	36.28
431.113	35.93
431.554	33.97
431.995	30.82
432.436	34.19
432.877	34.22
433.318	39.4
433.759	40.09
434.2	42.25
434.64	40.77
435.081	39.88
435.522	38.12
435.962	37.33
436.403	39.59
436.843	39.27
437.284	37.33
437.724	35.17
438.164	32.28
438.604	31.04
439.045	31.22
439.485	32.69
439.925	32.34
440.365	31.3
440.805	30.69
441.245	29.66
441.685	30.41
442.125	28.41
442.564	29.3
443.004	28.09
443.444	27.09
443.883	26.53
444.323	23.18
444.762	20.12
445.202	19.79
445.641	22.04
446.081	19.43
446.52	18.8
446.959	19.92
447.398	19.79
447.837	21.08
448.276	20.47
448.716	21.49
449.154	20.08
449.593	21.16
450.032	21.27
450.471	18.24
450.91	19.69
451.349	20.84
451.787	20.36
452.226	19.34
452.664	18.83
453.103	18.87
453.541	17.68
453.98	20.97
454.418	22.32
454.856	23.2
455.295	24.34
455.733	25.07
456.171	24.11
456.609	24.65
457.047	25.57
457.485	27.14
457.923	28.5
458.361	27.84
458.798	26.99
459.236	26.15
459.674	25.52
460.111	25.01
460.549	25.06
460.987	24.72
461.424	23.8
461.862	24.09
462.299	23.42
462.736	23.88
463.173	24.06
463.611	26.21
464.048	27.35
464.485	27.81
464.922	27.61
465.359	26.16
465.796	32.45
466.233	34.23
466.67	36.39
467.106	38
467.543	37.46
467.98	36.62
468.416	34.3
468.853	32.7
469.29	31.65
469.726	31.48
470.162	31.55
470.599	26.28
471.035	24.41
471.471	22.13
471.907	19.17
472.344	18.44
472.78	19.29
473.216	18.38
473.652	18.49
474.088	17.69
474.523	17.96
474.959	17.31
475.395	17.62
475.831	18.49
476.266	18.88
476.702	19.36
477.138	19.41
477.573	19.27
478.008	20.11
478.444	21.67
478.879	23.53
479.314	23.79
479.75	24.15
480.185	23.95
480.62	23.44
481.055	23.47
481.49	23.7
481.925	23.91
482.36	25.55
482.795	24.7
483.229	23.43
483.664	22.83
484.099	22.69
484.534	22.86
484.968	22.68
485.403	21.81
485.837	20.6
486.271	20.79
486.706	20.17
487.14	18.58
487.574	19.07
488.009	19.06
488.443	18.65
488.877	18.83
489.311	18.8
489.745	19.08
490.179	19.45
490.613	21.09
491.046	20.16
491.48	20.23
491.914	20.31
492.348	20.44
492.781	20.46
493.215	20.72
493.648	20.12
494.082	19.53
494.515	19.65
494.948	20.35
495.382	19.17
495.815	19.68
496.248	20.54
496.681	20.2
497.114	19.5
497.547	19.87
497.98	20.76
498.413	22.14
498.846	22.86
499.279	21.8
499.711	21.4
500.144	20.99
500.577	21.62
501.009	20.89
501.442	21.63
501.874	22.3
502.306	21.64
502.739	23.09
503.171	22.61
503.603	22.28
504.036	22.39
504.468	22.71
504.9	22.95
505.332	22.69
505.764	23.02
506.196	22.77
506.627	22.91
507.059	22.9
507.491	20.24
507.923	19.98
508.354	20.52
508.786	20.79
509.217	20.32
509.649	20.56
510.08	20.21
510.512	20.44
510.943	20.43
511.374	20.2
511.805	20.77
512.237	20.73
512.668	19.87
513.099	19.29
513.53	19.58
513.961	20.18
514.391	20.12
514.822	21.48
515.253	21.7
515.684	21.77
516.114	21.92
516.545	21.67
516.975	21.75
517.406	21.78
517.836	21.5
518.267	21.49
518.697	21.77
519.127	21.41
519.558	20.09
519.988	19.52
520.418	19.2
520.848	18.92
521.278	18.35
521.708	36.86
522.138	37.62
522.567	37.39
522.997	37.18
523.427	36.42
523.857	36.94
524.286	37.44
524.716	38.02
525.145	38.89
525.575	39.77
526.004	40.03
526.433	22.12
526.863	21.63
527.292	22.83
527.721	23.69
528.15	23.77
528.579	23.91
529.008	23.77
529.437	22.76
529.866	22
530.295	20.99
530.724	22.11
531.152	22.13
531.581	22.95
532.01	22.63
532.438	21.38
532.867	20.95
533.295	21.58
533.723	21.63
534.152	22.18
534.58	22.8
535.008	23.09
535.436	23.32
535.865	23.59
536.293	22.85
536.721	22.3
537.149	23.03
537.576	23.85
538.004	23.54
538.432	23.05
538.86	23.45
539.287	22.62
539.715	22.87
540.143	21.8
540.57	21.65
540.998	22
541.425	23.37
541.852	22.95
542.28	22.96
542.707	22.54
543.134	22.76
543.561	22.83
543.988	23.46
544.415	22.86
544.842	22.57
545.269	22.39
545.696	23.19
546.123	22.52
546.549	22.63
546.976	22.39
547.403	22.58
547.829	22.47
548.256	22.01
548.682	22.12
549.108	23.2
549.535	23.38
549.961	23.31
550.387	22.49
550.813	23.63
551.24	24.17
551.666	23.42
552.092	23.4
552.518	23.2
552.943	23.98
553.369	23.39
553.795	23.26
554.221	23.56
554.646	23.31
555.072	24.39
555.498	22.8
555.923	22.39
556.349	23.37
556.774	22.89
557.199	23.13
557.625	21.96
558.05	22.47
558.475	21.8
558.9	21.29
559.325	21.85
559.75	21.4
560.175	21.78
560.6	21.22
561.025	20.89
561.449	21.18
561.874	21.03
562.299	21.88
562.723	21.75
563.148	21.47
563.572	21.42
563.997	20.95
564.421	19.56
564.846	19.29
565.27	19.77
565.694	19.89
566.118	19.31
566.542	19.94
566.966	19.65
567.39	19.87
567.814	20.41
568.238	21.15
568.662	20.99
569.086	21.66
569.509	21.05
569.933	22.27
570.357	21.95
570.78	22.66
571.204	23.12
571.627	22.85
572.05	22.32
572.474	23.18
572.897	23.21
573.32	23.87
573.743	23.88
574.166	24.76
574.589	23.61
575.012	23.84
575.435	23.83
575.858	23.55
576.281	23.88
576.704	23.71
577.126	22.81
577.549	22.36
577.972	22.19
578.394	22.3
578.817	24.47
579.239	24.31
579.661	24.49
580.084	25.07
580.506	25.34
580.928	24.69
581.35	24.74
581.772	24.69
582.194	24.7
582.616	24.25
583.038	23.63
583.46	20.97
583.882	21.11
584.303	19.85
584.725	18.83
585.147	21.96
585.568	23.06
585.99	23.42
586.411	24.41
586.833	24.56
587.254	25.1
587.675	25.42
588.096	25.3
588.518	25.18
588.939	26.14
589.36	26.87
589.781	21.52
590.202	22.78
590.623	22.84
591.043	21.42
591.464	21.14
591.885	21.17
592.305	20.38
592.726	20.54
593.147	20.57
593.567	20.37
593.987	20.11
594.408	20.82
594.828	18.52
595.248	19.14
595.669	19.63
596.089	19.57
596.509	18.83
596.929	18.62
597.349	19.09
597.769	18.9
598.189	18.73
598.608	17.91
599.028	17.75
599.448	17.94
599.867	17.03
600.287	16.31
600.706	16.72
601.126	17.27
601.545	18.67
601.965	18.35
602.384	18
602.803	17.89
603.222	18.63
603.641	18.61
604.061	19
604.48	19.15
604.898	19.26
605.317	18.53
605.736	18.2
606.155	18.05
606.574	17.74
606.992	17.87
607.411	18.26
607.829	16.85
608.248	16.67
608.666	15.69
609.085	15.86
609.503	16.26
609.921	16.88
610.339	16.78
610.758	16.23
611.176	16.48
611.594	17.22
612.012	17.21
612.43	18.58
612.847	18.44
613.265	19.59
613.683	19.77
614.101	19.79
614.518	18.92
614.936	18.83
615.353	19
615.771	19.14
616.188	18.85
616.606	18.55
617.023	18.71
617.44	19.14
617.857	17.79
618.274	17.08
618.691	17.4
619.108	18.31
619.525	18.14
619.942	18.4
620.359	18.58
620.776	18.42
621.192	19.24
621.609	19.3
622.026	19.98
622.442	20.61
622.859	20.27
623.275	19.43
623.691	18.61
624.108	19.16
624.524	19.11
624.94	18.03
625.356	17.78
625.772	17.27
626.188	16.47
626.604	15.54
627.02	15.22
627.436	16.48
627.852	18.24
628.268	18.97
628.683	18.53
629.099	18.03
629.514	18.6
629.93	18.67
630.345	18.53
630.761	17.81
631.176	17.85
631.591	19.73
632.007	19.28
632.422	17.59
632.837	16.74
633.252	17.85
633.667	18.11
634.082	17.66
634.497	17.81
634.911	18.74
635.326	19.36
635.741	19.55
636.155	18.62
636.57	18.96
636.984	20.04
637.399	21.39
637.813	20.48
638.228	20.33
638.642	20.76
639.056	21
639.47	19.81
639.884	20.28
640.298	19.91
640.712	19.93
641.126	18.93
641.54	17.61
641.954	15.02
642.368	14.98
642.781	17.73
643.195	17.7
643.609	18.2
644.022	18.76
644.436	18.19
644.849	18.64
645.262	18.17
645.676	17.65
646.089	17.93
646.502	20.34
646.915	19.58
647.328	17.42
647.741	17.76
648.154	17.38
648.567	19.48
648.98	19.57
649.393	19.41
649.805	19.67
650.218	20.17
650.631	20.94
651.043	20.39
651.456	21.05
651.868	21.29
652.28	20.75
652.693	19.94
653.105	17.94
653.517	18.21
653.929	18.4
654.341	18.91
654.753	20.02
655.165	19.23
655.577	18.88
655.989	19.08
656.401	18.21
656.813	19.56
657.224	19.13
657.636	18.41
658.047	19.13
658.459	18.68
658.87	16.94
659.282	16.89
659.693	17.53
660.104	18.93
660.515	18.1
660.926	17.49
661.338	16.61
661.749	16.78
662.159	18.08
662.57	16.23
662.981	16.76
663.392	17.4
663.803	16.22
664.213	15.56
664.624	14.39
665.035	14.75
665.445	14.91
665.855	15.8
666.266	16.3
666.676	15.34
667.086	15.89
667.497	16.16
667.907	15.68
668.317	15.69
668.727	18.21
669.137	17.73
669.547	17.99
669.956	17.94
670.366	16.59
670.776	17.87
671.186	18.16
671.595	18.9
672.005	17.75
672.414	18.85
672.824	19.74
673.233	16.81
673.642	16.98
674.052	17.48
674.461	18.72
674.87	18.97
675.279	18.72
675.688	17.78
676.097	18.44
676.506	18.94
676.915	18.3
677.323	18.74
677.732	19.54
678.141	19.66
678.549	19.26
678.958	17.44
679.366	17.07
679.775	16.02
680.183	17.89
680.592	17.31
681	17.56
681.408	17.57
681.816	16.96
682.224	16.54
682.632	17.89
683.04	17.66
683.448	18.23
683.856	19.6
684.264	20.65
684.671	19.4
685.079	18.61
685.487	17.44
685.894	17.75
686.302	17.26
686.709	16.95
687.116	16.34
687.524	17.21
687.931	18.88
688.338	18
688.745	16.76
689.152	16.37
689.559	18.09
689.966	20.77
690.373	21.7
690.78	23
691.187	23.87
691.593	24.06
692	23.32
692.407	23.63
692.813	25.8
693.22	27.41
693.626	26.36
694.032	25.71
694.439	24.43
694.845	23.63
695.251	22.19
695.657	22.97
696.063	22.25
696.469	22.54
696.875	21.98
697.281	19.74
697.687	17.76
698.093	18.63
698.498	19.97
698.904	18.32
699.31	19.39
699.715	21.48
700.12	21.41
700.526	21.95
700.931	21.94
701.337	21.74
701.742	23.56
702.147	24.31
702.552	24.91
702.957	22.14
703.362	23.93
703.767	23.07
704.172	22.06
704.577	21.3
704.981	20.53
705.386	21.31
705.791	21.92
706.195	20.7
706.6	21.01
707.004	19.88
707.408	20.74
707.813	21.18
708.217	20.58
708.621	20.52
709.025	19.59
709.43	20.68
709.834	20.22
710.237	19.71
710.641	19.73
711.045	20.02
711.449	21.75
711.853	24.92
712.256	24.48
712.66	25.03
713.064	25.8
713.467	27.69
713.87	28.2
714.274	28.9
714.677	29.42
715.08	31.04
715.484	32.19
715.887	34.76
716.29	33.08
716.693	35.06
717.096	36.31
717.499	35.63
717.901	34.27
718.304	33.22
718.707	32.48
719.109	31.48
719.512	29.88
719.915	30.49
720.317	28.42
720.719	27.74
721.122	26.11
721.524	26.14
721.926	29.98
722.328	31.48
722.731	31.36
723.133	31.26
723.535	32.21
723.937	33
724.338	34.34
724.74	35.2
725.142	77.91
725.544	81.5
725.945	91.41
726.347	88.56
726.748	88.21
727.15	89.5
727.551	93.62
727.952	92.34
728.354	89.54
728.755	87.19
729.156	85.03
729.557	42.13
729.958	38.35
730.359	28.4
730.76	27.97
731.161	27.1
731.562	24.6
731.962	20.12
732.363	20.68
732.763	21.46
733.164	20.08
733.564	21.03
733.965	22.53
734.365	23.18
734.766	24
735.166	22.48
735.566	24.01
735.966	25.3
736.366	27.08
736.766	26.66
737.166	26.94
737.566	27.31
737.966	27.55
738.365	27.84
738.765	28.07
739.165	27.19
739.564	27.59
739.964	25.9
740.363	25.49
740.763	24.22
741.162	25.26
741.561	24.65
741.96	25.21
742.36	22.92
742.759	22.53
743.158	22.04
743.557	21.01
743.955	21.73
744.354	21.88
744.753	20.48
745.152	20.56
745.55	19.1
745.949	19.5
746.348	19.42
746.746	19.33
747.144	21.52
747.543	21.1
747.941	21.42
748.339	21.17
748.737	21.72
749.136	24.22
749.534	23.99
749.932	26.17
750.33	26.63
750.727	25.76
751.125	27.79
751.523	26.23
751.921	28.43
752.318	29.04
752.716	30.34
753.113	29.95
753.511	28.66
753.908	29.37
754.305	32.16
754.703	32.31
755.1	33.5
755.497	33.6
755.894	33.04
756.291	32.36
756.688	33.58
757.085	32.93
757.482	35.14
757.878	37.97
758.275	40.54
758.672	34.62
759.068	36.51
759.465	37.82
759.861	38.78
760.258	39.71
760.654	38.99
761.05	39.51
761.447	37.64
761.843	35.2
762.239	35.35
762.635	30.16
763.031	29.18
763.427	27.82
763.822	26.77
764.218	24.64
764.614	25.02
765.01	22.56
765.405	22.27
765.801	23.2
766.196	23.75
766.592	21.82
766.987	23.14
767.382	22.8
767.778	23.06
768.173	22.91
768.568	23.77
768.963	24.18
769.358	26.2
769.753	26.88
770.148	26.78
770.542	26.32
770.937	26.24
771.332	26.52
771.726	27.15
772.121	29.78
772.515	30.17
772.91	30.35
773.304	30.4
773.699	29.68
774.093	28.94
774.487	29.44
774.881	29.4
775.275	29.58
775.669	29.35
776.063	29.63
776.457	28.39
776.851	27.74
777.245	27.65
777.638	27.22
778.032	26.99
778.425	27.59
778.819	30.78
779.212	32.41
779.606	34.1
779.999	33.58
780.392	35.83
780.786	33.23
781.179	34.53
781.572	34.72
781.965	35.54
782.358	35.94
782.751	34.9
783.143	32.61
783.536	32.82
783.929	30.8
784.322	31.36
784.714	28.69
785.107	30.19
785.499	30.91
785.891	31.88
786.284	31.85
786.676	30.98
787.068	32.99
787.46	32.78
787.852	29.87
788.245	30.81
788.636	30.17
789.028	32.63
789.42	35.18
789.812	34.54
790.204	34.36
790.595	36.77
790.987	37.93
791.378	37.51
791.77	37.23
792.161	37.8
792.553	37.46
792.944	36.89
793.335	34.25
793.726	32.65
794.117	34.54
794.508	32.97
794.899	31.14
795.29	30.01
795.681	29.32
796.072	27.38
796.463	45.23
796.853	48.77
797.244	52.31
797.634	52.62
798.025	53.37
798.415	49.41
798.806	51.55
799.196	50.28
799.586	52.1
799.976	53.41
800.366	53.88
800.756	34.76
801.146	31.82
801.536	29.76
801.926	29.75
802.316	30.04
802.706	32.12
803.095	31.91
803.485	33.15
803.874	32.09
804.264	30.67
804.653	33.35
805.043	35.52
805.432	38.67
805.821	41.15
806.21	42.5
806.599	40.83
806.988	41.83
807.377	39.05
807.766	38.93
808.155	40.52
808.544	39.53
808.933	38.81
809.321	41.59
809.71	37.64
810.098	37.08
810.487	35.16
810.875	35.67
811.264	34.96
811.652	47.55
812.04	47.52
812.428	50.03
812.816	52.45
813.204	55.67
813.592	50.94
813.98	53.48
814.368	55.73
814.756	59.47
815.144	60.88
815.531	67.94
815.919	59.07
816.306	63.34
816.694	61
817.081	63.83
817.469	66.28
817.856	64.2
818.243	62.15
818.63	55.15
819.017	56.8
819.404	56.88
819.791	51.69
820.178	46.97
820.565	49.14
820.952	57.14
821.339	55.08
821.725	53.39
822.112	58.66
822.498	61.45
822.885	63.23
823.271	58.68
823.657	53.99
824.044	54.35
824.43	55.81
824.816	58.88
825.202	57.08
825.588	57.41
825.974	57.97
826.36	57.71
826.746	57.25
827.132	57.59
827.517	63.21
827.903	65.12
828.289	70.21
828.674	71.53
829.06	63.84
829.445	55.94
829.83	55.74
830.216	52.2
830.601	55.18
830.986	62.4
831.371	63.58
831.756	65.77
832.141	69.63
832.526	66.64
832.911	64.77
833.295	66.27
833.68	70.68
834.065	71.21
834.449	71.87
834.834	71.45
835.218	68.61
835.603	70.24
835.987	63.78
836.371	60.74
836.755	61.38
837.139	59.99
837.524	57.5
837.908	51.89
838.291	53.99
838.675	53.79
839.059	51.4
839.443	46.51
839.827	44.57
840.21	44.02
840.594	47.99
840.977	47.87
841.361	49.48
841.744	50.51
842.127	53.24
842.511	54.19
842.894	47.98
843.277	48.01
843.66	45.97
844.043	44.25
844.426	47.57
844.809	40.91
845.191	36.7
845.574	37.85
845.957	36.21
846.339	38.91
846.722	35.14
847.104	37
847.487	33.55
847.869	36.86
848.252	42.5
848.634	42.48
849.016	43.8
849.398	45.42
849.78	45.14
850.162	48.57
850.544	49.41
850.926	50.62
851.307	53.47
851.689	55.99
852.071	53.53
852.452	49.51
852.834	49.35
853.215	52.73
853.597	53.48
853.978	60.89
854.359	64.38
854.741	64.3
855.122	60.53
855.503	57.67
855.884	60.59
856.265	63.79
856.646	62.55
857.026	62.94
857.407	60.55
857.788	59.89
858.169	51.62
858.549	53.4
858.93	54.12
859.31	61.57
859.69	68.95
860.071	67.16
860.451	66.86
860.831	64.81
861.211	61.8
861.591	60.6
861.971	59.12
862.351	60.14
862.731	53.78
863.111	50.74
863.491	49.58
863.87	45.3
864.25	40.72
864.629	41.82
865.009	40.74
865.388	47.03
865.768	50.22
866.147	53.28
866.526	52.27
866.905	57.71
867.284	54.5
867.663	47.07
868.042	43.41
868.421	42.54
868.8	37.93
869.179	44.78
869.558	41.14
869.936	42.57
870.315	37.05
870.693	39.66
871.072	33.53
871.45	33.92
871.828	40.04
872.207	43.95
872.585	50.46
872.963	48.62
873.341	54.85
873.719	60.06
874.097	59.02
874.475	65.1
874.853	63.34
875.23	65.96
875.608	72.51
875.986	73.38
876.363	71.95
876.741	85.47
877.118	94.11
877.495	90.98
877.873	92.06
878.25	96.35
878.627	94.13
879.004	98.48
879.381	94.25
879.758	94.73
880.135	89.27
880.512	94.19
880.889	76.77
881.265	70.12
881.642	60.2
882.019	56.06
882.395	62.44
882.772	69.83
883.148	69.1
883.524	72.36
883.901	65.91
884.277	62.13
884.653	53.81
885.029	59.41
885.405	76.21
885.781	82.84
886.157	81.58
886.532	73.52
886.908	67.22
887.284	69.14
887.659	73.43
888.035	80.42
888.411	80.06
888.786	86.89
889.161	86.69
889.537	74.48
889.912	74.27
890.287	75.48
890.662	74.75
891.037	68.03
891.412	63.19
891.787	55.48
892.162	57.29
892.536	62.75
892.911	63.41
893.286	58.25
893.66	55.32
894.035	64.65
894.409	58.61
894.784	61.48
895.158	65.45
895.532	68.6
895.906	75.38
896.281	74.18
896.655	77.41
897.029	82.64
897.402	88.3
897.776	98.01
898.15	90.58
898.524	96.43
898.898	91.49
899.271	112.64
899.645	99.71
900.018	91.56
900.392	93.27
900.765	89.96
901.138	89.5
901.511	86.48
901.884	88.26
902.258	83.67
902.631	95.11
903.003	101.64
903.376	80.98
903.749	95.61
904.122	95.78
904.495	92.68
904.867	85.15
905.24	70.56
905.612	66.76
905.985	46.58
906.357	47.07
906.729	35.01
907.102	47.12
907.474	55.27
907.846	53.06
908.218	59.9
908.59	71.53
908.962	73.02
909.334	81.88
909.705	97.58
910.077	106.01
910.449	99.99
910.82	110.91
911.192	118.48
911.563	126.63
911.935	128.36
912.306	120.26
912.677	106.35
913.048	122.94
913.419	127.77
913.79	112.17
914.161	102.29
914.532	118.18
914.903	105.26
915.274	95.2
915.645	93.8
916.015	77.76
916.386	78.71
916.756	83.96
917.127	65.17
917.497	69.16
917.868	88.51
918.238	95.44
918.608	95.62
918.978	93.01
919.348	91.61
919.718	88.65
920.088	99.92
920.458	114.11
920.828	114.81
921.198	119.42
921.567	120.69
921.937	89.02
922.306	81.11
922.676	76.63
923.045	89.83
923.415	97.15
923.784	96.06
924.153	106.79
924.522	108.3
924.891	102.19
925.26	104.35
925.629	101.37
925.998	111.93
926.367	115.87
926.736	130.22
927.104	132.69
927.473	131.59
927.842	122.4
928.21	91.92
928.578	76.05
928.947	99.12
929.315	106.5
929.683	130.9
930.051	134.47
930.42	149.76
930.788	128.61
931.156	126.91
931.523	157.26
931.891	170.23
932.259	189.48
932.627	245.96
932.994	342.37
933.362	311.27
933.729	263.43
934.097	279.37
934.464	261.31
934.831	282.79
935.199	287.84
935.566	278.83
935.933	254.35
936.3	309.17
936.667	236.89
937.034	261.59
937.401	262.84
937.767	240.62
938.134	214.23
938.501	284.87
938.867	331.71
939.234	532.69
939.6	412.34
939.967	518.21
940.333	377.96
940.699	317.88
941.065	205.81
941.431	256.41
941.798	303.62
942.163	381.46
942.529	230.77
942.895	174.91
943.261	131.79
943.627	165.05
943.992	154.71
944.358	140.74
944.723	161.72
945.089	146.87
945.454	143.6
945.82	126.83
946.185	119.11
946.55	168.31
946.915	179.93
947.28	221.68
947.645	200.52
948.01	212.72
948.375	236.24
948.74	262.21
949.104	296.94
949.469	368.9
949.834	621.61
950.198	672.18
950.562	434.25
950.927	356.1
951.291	376.07
951.655	328.64
952.02	243.27
952.384	178.73
952.748	191.86
953.112	229.07
953.476	207.7
953.839	182.04
954.203	177.81
954.567	198.15
954.931	259.17
955.294	261.61
955.658	257.29
956.021	460.26
956.385	705.73
956.748	863.78
957.111	1018.37
957.474	1180.64
957.837	1333.36
958.2	913
958.563	341.9
958.926	256.44
959.289	306.39
959.652	347.53
960.015	279.84
960.377	427.41
960.74	512.85
961.102	760.04
961.465	882.07
961.827	800.73
962.189	1419.83
962.552	1018.2
962.914	816.75
963.276	543.9
963.638	461.49
964	400.09
964.362	288.66
964.724	243.59
965.085	203.63
965.447	170
965.809	140
966.17	136.84
966.532	118.88
966.893	120.51
967.255	113.08
967.616	117.05
967.977	110.13
968.338	117.94
968.699	124.69
969.061	109.14
969.421	109.1
969.782	114.74
970.143	113.89
970.504	159.89
970.865	194
971.225	218.89
971.586	224.62
971.946	302.13
972.307	253.87
972.667	271.37
973.027	294.86
973.388	344.72
973.748	248.27
974.108	256.71
974.468	231.29
974.828	200.57
975.188	126.42
975.548	102.05
975.907	105.13
976.267	116.99
976.627	137.14
976.986	133.2
977.346	117.17
977.705	111.91
978.064	110.23
978.424	116.59
978.783	91.38
979.142	106.29
979.501	114.92
979.86	116.59
980.219	107.45
980.578	121.74
980.937	114.54
981.296	120.94
981.654	119.28
982.013	137.12
982.371	169.15
982.73	184.15
983.088	181.62
983.447	197.03
983.805	306.8
984.163	752.54
984.521	743.99
984.879	1073.27
985.237	-1875.82
985.595	1772.23
985.953	434.58
986.311	197.45
986.669	128.46
987.026	116.44
987.384	102.19
987.741	72.23
988.099	84.73
988.456	81.98
988.814	117.04
989.171	96.69
989.528	61.11
989.885	83.04
990.242	88.19
990.599	79.47
990.956	83.24
991.313	72.68
991.67	63.4
992.027	99.9
992.383	96
992.74	90.52
993.096	102.15
993.453	116.72
993.809	108.34
994.165	127.17
994.522	175.96
994.878	189.14
995.234	250.35
995.59	263.34
995.946	188.4
996.302	213.69
996.658	241.73
997.013	250.84
997.369	372.3
997.725	513.74
998.08	349.4
998.436	342.05
998.791	472.51
999.147	446.12
999.502	503.43
999.857	361.28
1000.212	541.13
1000.567	775.32
1000.922	428.41
1001.277	198.24
1001.632	149.05
1001.987	189.28
1002.342	175.65
1002.696	156.19
1003.051	137.04
1003.406	156.54
1003.76	136.68
1004.114	122.25
1004.469	116.89
1004.823	105.76
1005.177	118.98
1005.531	112.66
1005.885	110.22
1006.239	134.84
1006.593	164.68
1006.947	198.89
1007.301	139.93
1007.655	167.08
1008.008	148.16
1008.362	156.78
1008.715	219.86
1009.069	198.05
1009.422	341.99
1009.776	620.79
1010.129	399.39
1010.482	330.26
1010.835	258.93
1011.188	566.29
1011.541	485.53
1011.894	-2934.89
1012.247	8622.48
1012.6	603.84
1012.952	360.52
1013.305	122.46
1013.657	112.19
1014.01	71.13
1014.362	27.69
1014.715	81.04
1015.067	80.46
1015.419	98.6
1015.771	97.94
1016.123	106.79
1016.475	122.27
1016.827	127.32
1017.179	158.58
1017.531	147.87
1017.883	174.51
1018.234	234.62
1018.586	291.04
1018.938	323.52
1019.289	426.7
1019.64	452.94
1019.992	397.81
1020.343	303.35
1020.694	295.43
1021.045	245.37
1021.396	302.62
1021.747	342.3
1022.098	318.25
1022.449	221.96
1022.8	236.08
1023.151	185.88
1023.501	182.18
1023.852	188.98
1024.202	247.3
1024.553	248.3
1024.903	269.34
1025.253	257.28
1025.604	255.61
1025.954	310.32
1026.304	346.42
1026.654	364.59
1027.004	526.87
1027.354	748.54
1027.703	785
1028.053	795.66
1028.403	1198.62
1028.753	1504.17
1029.102	1267.82
1029.452	2399.29
1029.801	97.63
1030.15	74.04
1030.499	21.2
897.758	1545.51
901.051	1495.41
904.343	1522.2
907.636	1525.42
910.928	1569.84
914.22	1513.1
917.511	1518.91
920.803	1553.59
924.094	1545.11
927.384	1549.27
930.675	1523.73
933.965	1502.34
937.255	1524.34
940.544	1504.38
943.834	1500.35
947.123	1458.86
950.411	1522.61
953.7	1511.42
956.988	1500.77
960.276	1448.21
963.563	1476.97
966.851	1484.9
970.138	1511.46
973.424	1512.52
976.711	1477.35
979.997	1510.75
983.283	1538.92
986.568	1493.06
989.853	1481.44
993.138	1496.82
996.423	1563.93
999.708	1535.39
1002.992	1554.41
1006.275	1491.82
1009.559	1493.63
1012.842	1559.6
1016.125	1529.65
1019.408	1511.49
1022.69	1549.01
1025.972	1569.42
1029.254	1553.08
1032.536	1529.98
1035.817	1535.46
1039.098	1514.23
1042.379	1545.49
1045.659	1563.61
1048.939	1526.17
1052.219	1525.81
1055.498	1521.24
1058.778	1510.82
1062.057	1495.94
1065.335	1514.45
1068.614	1518.49
1071.892	1511.58
1075.17	1547.79
1078.447	1550.67
1081.724	1547.93
1085.001	1562.04
1088.278	1546.99
1091.554	1547.94
1094.83	1549.21
1098.106	1572.56
1101.382	1590.37
1104.657	1587.09
1107.932	1587.94
1111.206	1571.48
1114.481	1537.76
1117.755	1539.21
1121.029	1535.03
1124.302	1574.45
1127.575	1555.86
1130.848	1554.02
1134.121	1533.91
1137.393	1505.54
1140.665	1547.29
1143.937	1531.38
1147.208	1497.24
1150.48	1537.08
1153.75	1527.27
1157.021	1529.84
1160.291	1515.13
1163.561	1548.2
1166.831	1522.58
1170.101	1538.33
1173.37	1510.59
1176.639	1483.27
1179.907	1516.29
1183.176	1528.57
1186.444	1532.28
1189.711	1545.92
1192.979	1562.07
1196.246	1533.36
1199.513	1542.88
1202.78	1545.32
1206.046	1552.08
1209.312	1573.84
1212.578	1580.04
1215.843	1554.64
1219.108	1538.91
1222.373	1551.49
1225.638	1536.08
1228.902	1527.38
1232.166	1500.72
1235.43	1491.72
1238.693	1514.56
1241.956	1510.94
1245.219	1543.04
1248.482	1534.73
1251.744	1535.15
1255.006	1612.72
1258.268	1578.13
1261.529	1552.86
1264.79	1551.22
1268.051	1615.63
1271.312	1622.68
1274.572	1598.37
1277.832	1589.11
1281.092	1574.21
1284.351	1569.84
1287.61	1559.98
1290.869	1518.67
1294.128	1518.39
1297.386	1542.43
1300.644	1541.09
1303.902	1546.29
1307.159	1459.43
1310.416	1492.69
1313.673	1508
1316.93	1512.31
1320.186	1528.71
1323.442	1549.52
1326.697	1550.99
1329.953	1535.27
1333.208	1562.44
1336.463	1546.02
1339.717	1524.65
1342.972	1597.41
1346.226	1577.07
1349.479	1552.94
1352.733	1535.76
1355.986	1544.75
1359.238	1532.3
1362.491	1534.3
1365.743	1533.03
1368.995	1529.82
1372.247	1539.68
1375.498	1550.43
1378.749	1578.11
1382	1552.41
1385.251	1569.78
1388.501	1543.08
1391.751	1541.59
1395	1525.9
1398.25	1542.96
1401.499	1562.86
1404.748	1531.27
1407.996	1519.22
1411.244	1516.6
1414.492	1507.71
1417.74	1497.34
1420.987	1503.31
1424.234	1542.4
1427.481	1517.04
1430.728	1551.69
1433.974	1540.49
1437.22	1538.1
1440.465	1532.68
1443.711	1536.6
1446.956	1547.09
1450.201	1529.84
1453.445	1558.57
1456.689	1549.76
1459.933	1559.39
1463.177	1585.23
1466.42	1568.7
1469.663	1553.54
1472.906	1563.77
1476.148	1596.56
1479.391	1566.07
1482.633	1553.97
1485.874	1568.48
1489.115	1573.69
1492.356	1561.29
1495.597	1543.3
1498.838	1537.81
1502.078	1530.17
1505.318	1515.17
1508.557	1533.69
1511.797	1531.26
1515.036	1568.37
1518.274	1541.05
1521.513	1502.91
1524.751	1508.04
1527.989	1523.54
1531.227	1534.85
1534.464	1538.86
1537.701	1532.95
1540.938	1537.1
1544.174	1502.47
1547.41	1491.81
1550.646	1515.38
1553.882	1545.27
1557.117	1587.99
1560.352	1592.25
1563.587	1562.96
1566.821	1543.35
1570.055	1558.43
1573.289	1537.44
1576.523	1573.86
1579.756	1581.55
1582.989	1595.95
1586.222	1567.18
1589.454	1590.18
1592.686	1580.44
1595.918	1595.43
1599.15	1594.35
1602.381	1623.86
1605.612	1610.58
1608.843	1672.85
1612.073	1620.67
1615.303	1616.05
1618.533	1612.01
1621.762	1612.2
1624.992	1593.04
1628.221	1590.58
1631.449	1585.96
1634.678	1601.49
1637.906	1578.4
1641.134	1591.88
1644.361	1570.99
1647.588	1565.81
1650.815	1582.13
1654.042	1558.31
1657.269	1574.68
1660.495	1563
1663.72	1553.18
1666.946	1531.53
1670.171	1520.3
1673.396	1500.02
1676.621	1489.97
1679.845	1486.41
1683.069	1488.93
1686.293	1505.22
1689.517	1500.91
1692.74	1473.21
1695.963	1486.02
1699.185	1510.96
1702.408	1494.58
1705.63	1513.14
1708.852	1526.53
1712.073	1505.37
1715.294	1517.65
1718.515	1549.61
1721.736	1522.3
1724.956	1512.11
1728.176	1527.53
1731.396	1540.79
1734.616	1534.49
1737.835	1562.3
1741.054	1539.56
1744.272	1537.03
1747.491	1566.98
1750.709	1578.68
1753.927	1548.54
1757.144	1567.85
1760.361	1605.07
1763.578	1585.26
1766.795	1552.81
1770.011	1545.2
1773.227	1561.04
1776.443	1590.06
1779.658	1616.46
1782.874	1578.71
1786.089	1573.33
1789.303	1574.32
1792.518	1572.92
1795.732	1566.78
1798.945	1576.01
1802.159	1605.65
1805.372	1569.91
1808.585	1564.32
1811.797	1565.9
1815.01	1582.4
1818.222	1601.93
1821.434	1574
1824.645	1600.46
1827.856	1607.82
1831.067	1622.99
1834.278	1587.45
1837.488	1575.12
1840.698	1656.74
1843.908	1624.45
1847.117	1605.99
1850.326	1558.97
1853.535	1595.27
1856.744	1623.91
1859.952	1572.9
1863.16	1574.3
1866.368	1593.2
1869.575	1669.96
1872.782	1592.26
1875.989	1550.92
1879.196	1582.79
1882.402	1578.89
1885.608	1599.29
1888.814	1565.37
1892.019	1508.15
1895.224	1547.39
1898.429	1524.26
1901.634	1509.5
1904.838	1495.66
1908.042	1537.74
1911.246	1547.68
1914.449	1524.45
1917.652	1511.95
1920.855	1499.16
1924.058	1515.46
1927.26	1548.97
1930.462	1561.08
1933.664	1589.21
1936.865	1555.9
1940.066	1564.67
1943.267	1527.29
1946.467	1535.65
1949.668	1545.22
1952.868	1592.78
1956.067	1593.23
1959.267	1546.65
1962.466	1563.71
1965.665	1551.11
1968.863	1548.92
1972.061	1544.76
1975.259	1541.49
1978.457	1591.6
1981.654	1561.52
1984.852	1563.44
1988.048	1537.26
1991.245	1524.41
1994.441	1590.38
1997.637	1551.85
2000.833	1542.72
2004.028	1564.08
2007.223	1613.91
2010.418	1601
2013.613	1567.58
2016.807	1567.74
2020.001	1563.44
2023.194	1574.5
2026.388	1564.13
2029.581	1525.65
2032.774	1574.19
2035.966	1578.22
2039.158	1543.05
2042.35	1553.09
2045.542	1502.57
2048.733	1556.4
2051.924	1544.64
2055.115	1552.95
2058.306	1532.2
2061.496	1568.2
2064.686	1600.2
2067.875	1532.95
2071.065	1534.11
2074.254	1546.51
2077.442	1516.57
2080.631	1573.63
2083.819	1533.9
2087.007	1530
2090.195	1521.96
2093.382	1525.22
2096.569	1519.04
2099.756	1493.41
2102.942	1532.96
2106.128	1541.75
2109.314	1533.72
2112.5	1524.86
2115.685	1502.11
2118.87	1507
2122.055	1551.02
2125.239	1537.27
2128.424	1533.46
2131.608	1567.02
2134.791	1556.07
2137.974	1579.82
2141.157	1571.33
2144.34	1555.73
2147.523	1544.13
2150.705	1566.7
2153.887	1541.07
2157.068	1525.23
2160.25	1509.69
2163.431	1525.35
2166.611	1506.26
2169.792	1523.04
2172.972	1459.45
2176.152	1497.32
2179.331	1512.05
2182.511	1514.77
2185.69	1527.94
2188.868	1529.96
2192.047	1553.22
2195.225	1571.06
2198.403	1532.13
2201.58	1523.14
2204.758	1509.42
2207.935	1562.1
2211.111	1505.94
2214.288	1497.98
2217.464	1521.01
2220.64	1491.62
2223.815	1526.1
2226.991	1477.06
2230.166	1484.68
2233.34	1517.6
2236.515	1526.71
2239.689	1573.19
2242.863	1538.02
2246.036	1573.51
2249.209	1562
2252.382	1576.15
2255.555	1581.96
2258.727	1552.06
2261.9	1572.69
2265.071	1570.52
2268.243	1568.23
2271.414	1533.43
2274.585	1522.14
2277.756	1565.89
2280.926	1537.22
2284.096	1555.67
2287.266	1509.69
2290.436	1544.85
2293.605	1553.87
2296.774	1580.8
2299.942	1583.78
2303.111	1595.23
2306.279	1633.63
2309.447	1624.63
2312.614	1605.11
2315.781	1618.98
2318.948	1603.52
2322.115	1629.51
2325.281	1554.31
2328.447	1561.54
2331.613	1538.11
2334.779	1534.07
2337.944	1530.05
2341.109	1528.88
2344.274	1523.88
2347.438	1500.03
2350.602	1515.42
2353.766	1522.5
2356.929	1516.35
2360.092	1541.85
2363.255	1518.97
2366.418	1504.44
2369.58	1532.35
2372.742	1506.44
2375.904	1490.82
2379.066	1483.24
2382.227	1502.65
2385.388	1475.03
2388.548	1444.86
2391.709	1468.3
2394.869	1467.1
2398.029	1501.49
2401.188	1491.7
2404.347	1478.09
2407.506	1477.15
2410.665	1517.4
2413.823	1501.51
2416.981	1488.92
2420.139	1499.69
2423.296	1527.21
2426.453	1508.54
2429.61	1523.59
2432.767	1507.45
2435.923	1535.04
2439.079	1495.58
2442.235	1520.56
2445.391	1480.8
2448.546	1513.52
2451.701	1535.04
2454.855	1536.39
2458.009	1550.9
2461.163	1541.09
2464.317	1520.86
2467.471	1536.99
2470.624	1560.41
2473.777	1556.35
2476.929	1567.14
2480.082	1581.45
2483.234	1566.76
2486.385	1525.69
2489.537	1519.72
2492.688	1517.63
2495.839	1534.51
2498.989	1541.88
2502.14	1535.17
2505.29	1526.19
2508.439	1543.12
2511.589	1504.77
2514.738	1505.31
2517.887	1516.22
2521.035	1571.15
2524.183	1539.77
2527.331	1532.05
2530.479	1526.55
2533.627	1531.16
