Data from N_1_DEC_CT_2N_Splice17_11-34-59-835.txt Node
Date: Sat Mar 14 11:34:59 EDT 2020
User: sa697716
Spectrometer: FLMS03696
Trigger mode: 0
Integration Time (sec): 3.180400E-1
Scans to average: 20
Electric dark correction enabled: true
Nonlinearity correction enabled: true
Boxcar width: 5
XAxis mode: Wavelengths
Number of Pixels in Spectrum: 2048
>>>>>Begin Spectral Data<<<<<
187.83	-125896.42
188.298	1106.32
188.766	660.03
189.233	629.11
189.701	823.91
190.169	1189.46
190.636	423.99
191.104	409.46
191.571	95.27
192.039	-9.67
192.506	-64.07
192.974	347.19
193.441	-509.19
193.908	-72.18
194.375	52.2
194.842	55.12
195.31	154.64
195.777	135.01
196.244	256.28
196.711	149.23
197.177	121.34
197.644	76.63
198.111	100.73
198.578	138.99
199.045	119.53
199.511	126.39
199.978	106.9
200.445	110.83
200.911	76.06
201.378	20.05
201.844	66.47
202.31	76.13
202.777	71.16
203.243	45.82
203.709	48.56
204.176	30.13
204.642	36.87
205.108	61.2
205.574	30.96
206.04	15.12
206.506	13.7
206.972	-16.53
207.438	-26.21
207.903	-23.78
208.369	5.5
208.835	22.86
209.301	25.13
209.766	6.01
210.232	-16.29
210.697	-32.28
211.163	-62.68
211.628	-113.85
212.094	-40.94
212.559	42.69
213.024	37.61
213.49	42.26
213.955	11.82
214.42	-34.15
214.885	-21.5
215.35	9.3
215.815	82.31
216.28	99.75
216.745	72.46
217.21	94.89
217.675	51.28
218.14	52.79
218.604	36.49
219.069	47.76
219.534	92.81
219.998	88.18
220.463	87.12
220.927	21.06
221.392	23.03
221.856	25.71
222.32	-28.65
222.785	1.77
223.249	-22.41
223.713	-7.06
224.177	-30.87
224.642	-115.11
225.106	-149.98
225.57	-211.13
226.034	-82.69
226.497	-144.01
226.961	-52.95
227.425	-37.33
227.889	-136.87
228.353	-129.35
228.816	-384.98
229.28	-250.79
229.744	-203.22
230.207	-55.3
230.671	-37.23
231.134	-238.05
231.597	-199.47
232.061	-274.29
232.524	-283.27
232.987	-165.66
233.45	-94.16
233.914	-79.92
234.377	-128.68
234.84	-115
235.303	-182.97
235.766	-188.48
236.229	-184.86
236.691	-144.74
237.154	-179.34
237.617	-121.07
238.08	-135.79
238.542	-175.66
239.005	-99.17
239.468	-82.41
239.93	-74.07
240.393	-51.17
240.855	-38.2
241.317	-47.36
241.78	-59.02
242.242	-41.47
242.704	-9.92
243.166	11.25
243.629	36.59
244.091	30.37
244.553	31.8
245.015	59.03
245.477	66.05
245.939	62.38
246.4	64.71
246.862	45.5
247.324	29.79
247.786	-42.95
248.247	-111.4
248.709	-248.21
249.17	-152
249.632	-97.03
250.093	-110.83
250.555	-121.91
251.016	-31.92
251.477	-35.17
251.939	-36.74
252.4	-69.5
252.861	-93.04
253.322	-38.72
253.783	-62.76
254.244	-129.52
254.705	-161.88
255.166	-173.19
255.627	-155.2
256.088	-212.3
256.549	-196.7
257.009	-185.19
257.47	-199.28
257.931	-156.87
258.391	-118.53
258.852	-117.91
259.312	-123.02
259.773	-153.23
260.233	-68.08
260.694	-30.61
261.154	-63.9
261.614	2.1
262.074	20.3
262.534	27.36
262.994	35.24
263.455	14.6
263.915	45.78
264.374	46.38
264.834	62.98
265.294	27.61
265.754	36.05
266.214	32.9
266.673	28.93
267.133	9.9
267.593	18.53
268.052	9.52
268.512	-0.42
268.971	40.73
269.431	43.19
269.89	42.39
270.349	67.76
270.809	57.1
271.268	38.77
271.727	-96.55
272.186	-46.56
272.645	-56.43
273.104	-61.32
273.563	-88.93
274.022	-179.34
274.481	-127.31
274.94	-102.38
275.399	-89.35
275.857	-128.77
276.316	-201.34
276.775	-171.2
277.233	-164.68
277.692	-142.42
278.15	-136.45
278.609	-93.24
279.067	-72.78
279.525	-37.45
279.984	-60.37
280.442	-61.04
280.9	24.25
281.358	29.82
281.816	13.53
282.274	20.45
282.732	-7.49
283.19	-22.19
283.648	-39.28
284.106	-41.85
284.564	-74.96
285.021	-49.62
285.479	-35.44
285.937	-65.93
286.394	-25.91
286.852	-19.18
287.309	-26.39
287.767	9.86
288.224	18.71
288.682	11.47
289.139	6.51
289.596	21.92
290.053	2.57
290.511	-20.86
290.968	-14.26
291.425	-76.76
291.882	-24.58
292.339	-3.12
292.796	-51.53
293.252	-61.12
293.709	-22.6
294.166	-5.7
294.623	-32.06
295.079	-37.85
295.536	-5.28
295.992	1
296.449	7.18
296.905	20.3
297.362	43.35
297.818	45.83
298.274	75.66
298.731	64.44
299.187	62.6
299.643	81.06
300.099	90.38
300.555	83.19
301.011	108.45
301.467	145.09
301.923	115.54
302.379	95.37
302.835	91.63
303.291	71.39
303.746	67.29
304.202	73.7
304.658	51.36
305.113	73.11
305.569	87.67
306.024	34.68
306.479	-37.59
306.935	-13.81
307.39	-61.79
307.845	-35.97
308.301	-7.46
308.756	-4.82
309.211	4.96
309.666	-4.43
310.121	16.22
310.576	-33.96
311.031	-39.74
311.486	-53.54
311.94	-83.56
312.395	-94.04
312.85	-312.49
313.305	-2624.87
313.759	-9371.73
314.214	-911.6
314.668	-656.25
315.123	-530.57
315.577	-135.7
316.032	-129.19
316.486	-186.8
316.94	-115.67
317.394	-57.29
317.849	-25.91
318.303	-29.97
318.757	-36.73
319.211	-35.28
319.665	-26.81
320.119	-35.57
320.572	-65.49
321.026	-42.5
321.48	-17.9
321.934	-42.07
322.387	-45.12
322.841	-36.94
323.295	21.66
323.748	-14.21
324.202	3.99
324.655	26.54
325.108	74.03
325.562	74.28
326.015	76.23
326.468	78.37
326.921	113.95
327.374	148.05
327.827	169.92
328.28	157.93
328.733	135.49
329.186	133.81
329.639	111.98
330.092	99.18
330.545	106.34
330.997	118.17
331.45	155.45
331.903	189.08
332.355	240.23
332.808	203.16
333.26	172.18
333.713	188.41
334.165	163.2
334.617	178.55
335.069	36.3
335.522	-86.72
335.974	-164.57
336.426	-298.1
336.878	-312.39
337.33	-125.42
337.782	-107.59
338.234	-106.31
338.686	-145.2
339.137	-160.67
339.589	-135
340.041	-63.87
340.493	-52.31
340.944	-39.1
341.396	-27.92
341.847	24.53
342.299	73.82
342.75	94.15
343.201	6.44
343.653	-26.94
344.104	-86.71
344.555	-47.86
345.006	-119.7
345.457	7.87
345.908	-18.03
346.359	15.54
346.81	12.01
347.261	-39.69
347.712	-52.02
348.163	-29.62
348.613	35.37
349.064	54.57
349.515	55.19
349.965	69.13
350.416	41.43
350.866	46.85
351.317	15.76
351.767	15.21
352.217	23.71
352.668	20.95
353.118	9.41
353.568	-88.13
354.018	-32.63
354.468	-15.5
354.918	-1.06
355.368	16.86
355.818	24.16
356.268	-41.64
356.718	220.31
357.168	188.06
357.617	122.87
358.067	136.38
358.517	126.88
358.966	170.61
359.416	193.74
359.865	83.26
360.315	38.6
360.764	48.34
361.213	44.47
361.663	-4.32
362.112	-72.55
362.561	-162.66
363.01	-109.31
363.459	-94.54
363.908	-138.08
364.357	-80.97
364.806	-113.49
365.255	-83.99
365.703	-45.05
366.152	-31.3
366.601	3.84
367.05	56.42
367.498	66.81
367.947	45.04
368.395	57.16
368.844	65.89
369.292	14.58
369.74	44.81
370.189	43.37
370.637	16.93
371.085	5.27
371.533	-7.47
371.981	-52.56
372.429	-45.1
372.877	-47.51
373.325	-43.41
373.773	-83.88
374.221	-73.85
374.669	-126.21
375.116	-82.12
375.564	-59.36
376.012	-63.54
376.459	-29.77
376.907	-46.54
377.354	-83.38
377.801	-48.48
378.249	-24.96
378.696	-50.42
379.143	-27.09
379.591	-28.62
380.038	-93.71
380.485	-73.85
380.932	-124.13
381.379	-45.79
381.826	70.5
382.273	42.53
382.72	18.39
383.166	10.63
383.613	34.37
384.06	21.89
384.506	9.96
384.953	-4.05
385.4	-11.62
385.846	-16.28
386.292	-39.95
386.739	-68.68
387.185	-68.09
387.631	-63.4
388.078	-35.72
388.524	-38.67
388.97	-36.9
389.416	-8.88
389.862	2.2
390.308	4.55
390.754	10.68
391.2	0.44
391.645	0.14
392.091	39.74
392.537	46.44
392.983	13.79
393.428	41.41
393.874	43.22
394.319	40.3
394.765	57.14
395.21	51.37
395.655	51.62
396.101	55.95
396.546	60.38
396.991	30.42
397.436	27.8
397.881	24.99
398.326	2.44
398.771	10.98
399.216	-0.12
399.661	-3.2
400.106	0.54
400.551	3.61
400.995	5.71
401.44	1.77
401.885	2.56
402.329	0.6
402.774	8.32
403.218	20.64
403.663	16.76
404.107	23.95
404.551	25.72
404.995	23.02
405.44	17.85
405.884	12.5
406.328	6.04
406.772	5.07
407.216	3.48
407.66	-1.11
408.104	-11.18
408.547	-9.75
408.991	-11.59
409.435	-13.62
409.879	-9.05
410.322	-6.23
410.766	0.04
411.209	7.47
411.653	8.4
412.096	12.29
412.54	11.18
412.983	13.69
413.426	16.65
413.869	15.11
414.312	17.55
414.756	12.75
415.199	12.45
415.642	13.38
416.085	12.57
416.527	12.78
416.97	9.97
417.413	10.41
417.856	8.04
418.298	6.15
418.741	3.23
419.184	0.12
419.626	-3.73
420.069	-5.66
420.511	-6.8
420.953	-5.34
421.396	-7.27
421.838	-8.53
422.28	-8.25
422.722	-4.19
423.164	-4.32
423.606	-1.96
424.048	-3.33
424.49	2.28
424.932	2.19
425.374	0.3
425.816	-2.79
426.258	-3.98
426.699	-2.11
427.141	1.29
427.582	-2.81
428.024	-4.24
428.465	-5.77
428.907	-4.13
429.348	-6.78
429.789	-3.18
430.231	-0.13
430.672	1.06
431.113	4.21
431.554	3.03
431.995	0.27
432.436	3.9
432.877	4.4
433.318	7.65
433.759	5.77
434.2	5.64
434.64	1.87
435.081	2.24
435.522	1.76
435.962	0.63
436.403	3.33
436.843	0.77
437.284	-1.89
437.724	-4.23
438.164	-6.78
438.604	-7.72
439.045	-5.24
439.485	-0.51
439.925	-3.24
440.365	-2.26
440.805	-2.23
441.245	-0.81
441.685	1.45
442.125	1.74
442.564	2.07
443.004	3.18
443.444	4.43
443.883	4.73
444.323	0.82
444.762	-2.61
445.202	-4.8
445.641	-2.44
446.081	-6.47
446.52	-6.31
446.959	-5.22
447.398	-3.18
447.837	-2.88
448.276	-3.76
448.716	-2.7
449.154	-4.96
449.593	-0.68
450.032	1.09
450.471	-2.26
450.91	-1.2
451.349	-0.49
451.787	-1.54
452.226	-3.06
452.664	-4.21
453.103	-4.67
453.541	-7.58
453.98	-4.1
454.418	-4.74
454.856	-3.97
455.295	-2.41
455.733	-1.54
456.171	-0.89
456.609	0.17
457.047	2.07
457.485	3.68
457.923	7.18
458.361	7.26
458.798	5.94
459.236	6.39
459.674	5.52
460.111	5.49
460.549	4.66
460.987	2.51
461.424	2.08
461.862	1.26
462.299	2.1
462.736	2.05
463.173	1.74
463.611	5.22
464.048	5.69
464.485	6.37
464.922	5.69
465.359	5.11
465.796	13.13
466.233	14.41
466.67	17.02
467.106	17.74
467.543	15.54
467.98	14.78
468.416	12.49
468.853	11.18
469.29	11.03
469.726	10.64
470.162	10.85
470.599	4.6
471.035	2.14
471.471	0.41
471.907	-2.85
472.344	-2.31
472.78	-1.38
473.216	-2.42
473.652	-2.36
474.088	-3.31
474.523	-2.81
474.959	-3.55
475.395	-3.36
475.831	-2.34
476.266	-2.01
476.702	-1.29
477.138	-1.15
477.573	-1.63
478.008	-0.79
478.444	-0.04
478.879	2.07
479.314	2.76
479.75	3.26
480.185	2.83
480.62	2.41
481.055	2.03
481.49	2.7
481.925	2.89
482.36	5.01
482.795	3.87
483.229	2.98
483.664	1.41
484.099	1.14
484.534	1.17
484.968	1.88
485.403	1.37
485.837	0.14
486.271	-0.28
486.706	-1.19
487.14	-2.41
487.574	-1.57
488.009	-0.89
488.443	-0.93
488.877	-0.44
489.311	-0.82
489.745	-1.1
490.179	-0.25
490.613	1.93
491.046	1.74
491.48	2.24
491.914	2.48
492.348	2.56
492.781	2.68
493.215	2.98
493.648	2.43
494.082	2.77
494.515	3.03
494.948	3.87
495.382	2.58
495.815	3.16
496.248	3.6
496.681	3.3
497.114	2.1
497.547	2.09
497.98	2.84
498.413	3.91
498.846	4.3
499.279	3.64
499.711	2.62
500.144	1.87
500.577	2.1
501.009	1.4
501.442	2.38
501.874	3.84
502.306	3.36
502.739	5.21
503.171	4.61
503.603	4.66
504.036	4.62
504.468	4.28
504.9	4.75
505.332	4.5
505.764	5.03
506.196	4.52
506.627	4.28
507.059	4.41
507.491	1.39
507.923	1.02
508.354	0.83
508.786	0.86
509.217	1.19
509.649	1.66
510.08	0.87
510.512	1.28
510.943	1.37
511.374	1.62
511.805	1.02
512.237	0.93
512.668	0.61
513.099	0.24
513.53	0.34
513.961	0.67
514.391	0.12
514.822	2.12
515.253	2.03
515.684	2.03
516.114	1.87
516.545	2.65
516.975	2.82
517.406	2.51
517.836	2.4
518.267	2.68
518.697	3.13
519.127	3.15
519.558	1.98
519.988	1.01
520.418	0.21
520.848	-0.6
521.278	-1.04
521.708	18.63
522.138	19.35
522.567	18.75
522.997	18.74
523.427	17.44
523.857	17.58
524.286	17.74
524.716	18.45
525.145	18.81
525.575	19.77
526.004	19.62
526.433	0.93
526.863	0.45
527.292	2.37
527.721	2.73
528.15	3.21
528.579	3.23
529.008	3.13
529.437	2.14
529.866	1.74
530.295	1.12
530.724	2.14
531.152	1.63
531.581	1.93
532.01	0.7
532.438	0.23
532.867	0.05
533.295	0.85
533.723	0.89
534.152	1.47
534.58	2.06
535.008	2.65
535.436	2.77
535.865	2.3
536.293	1.94
536.721	1.93
537.149	1.92
537.576	2.65
538.004	2.29
538.432	1.49
538.86	2.08
539.287	1.23
539.715	0.97
540.143	0.41
540.57	1.38
540.998	1.49
541.425	3.02
541.852	3.23
542.28	2.95
542.707	2.56
543.134	2.94
543.561	2.68
543.988	3.37
544.415	2.95
544.842	2.63
545.269	2.07
545.696	2.61
546.123	1.79
546.549	1.48
546.976	1.6
547.403	1.29
547.829	0.97
548.256	0.73
548.682	0.63
549.108	1.59
549.535	1.47
549.961	1.67
550.387	1.53
550.813	2.07
551.24	2.04
551.666	1.44
552.092	1.86
552.518	1.82
552.943	2.5
553.369	2.19
553.795	2.01
554.221	2.73
554.646	2.55
555.072	3.29
555.498	2.39
555.923	2.19
556.349	2.27
556.774	1.96
557.199	1.73
557.625	0.08
558.05	0.66
558.475	0.41
558.9	-0.33
559.325	-0.15
559.75	-0.51
560.175	-0.53
560.6	-0.42
561.025	-0.63
561.449	-0.54
561.874	-0.47
562.299	0.43
562.723	0.04
563.148	-0.64
563.572	-0.65
563.997	-0.54
564.421	-1.44
564.846	-1.93
565.27	-1.69
565.694	-1.35
566.118	-1.49
566.542	-0.5
566.966	-0.15
567.39	0.13
567.814	1.13
568.238	1.61
568.662	1.21
569.086	1.12
569.509	1.18
569.933	2.14
570.357	2.05
570.78	2.07
571.204	2.65
571.627	2.67
572.05	2.09
572.474	2.35
572.897	2.33
573.32	3.15
573.743	2.85
574.166	3.23
574.589	1.97
575.012	2.08
575.435	2.09
575.858	1.69
576.281	1.38
576.704	1.5
577.126	0.93
577.549	0.27
577.972	-0.7
578.394	-0.01
578.817	1.75
579.239	1.71
579.661	1.92
580.084	3.05
580.506	2.86
580.928	2.67
581.35	2.81
581.772	2.84
582.194	3.25
582.616	3.02
583.038	2.16
583.46	0.27
583.882	0.74
584.303	-0.26
584.725	-1.49
585.147	2.26
585.568	2.83
585.99	3.84
586.411	3.92
586.833	4.15
587.254	4.69
587.675	5.12
588.096	5.7
588.518	5.66
588.939	6.52
589.36	6.92
589.781	2.15
590.202	4.46
590.623	3.65
591.043	3.21
591.464	2.9
591.885	3.38
592.305	3.12
592.726	2.72
593.147	3.09
593.567	2.91
593.987	3.24
594.408	3.26
594.828	0.48
595.248	0.76
595.669	1.96
596.089	2.38
596.509	1.95
596.929	1.98
597.349	2.24
597.769	1.93
598.189	2.21
598.608	1.99
599.028	2.37
599.448	2.09
599.867	2.13
600.287	0.94
600.706	0.93
601.126	1.33
601.545	2.1
601.965	1.86
602.384	1.36
602.803	1.19
603.222	1.63
603.641	1.44
604.061	2.14
604.48	2.02
604.898	2.11
605.317	1.82
605.736	1.43
606.155	1.67
606.574	1.66
606.992	1.81
607.411	2.18
607.829	0.84
608.248	0.51
608.666	-0.13
609.085	0.21
609.503	0.03
609.921	0.85
610.339	1.48
610.758	0.58
611.176	0.77
611.594	1.76
612.012	1.29
612.43	2.74
612.847	2.86
613.265	4.1
613.683	3.36
614.101	3.46
614.518	2.02
614.936	1.15
615.353	2.28
615.771	2.29
616.188	1.69
616.606	1.67
617.023	1.37
617.44	1.58
617.857	0.73
618.274	1.21
618.691	1.55
619.108	2.28
619.525	2.78
619.942	2.66
620.359	2.62
620.776	2.46
621.192	2.96
621.609	3.39
622.026	3.75
622.442	3.93
622.859	3.2
623.275	2.68
623.691	2.51
624.108	2.45
624.524	2.03
624.94	1.44
625.356	1.33
625.772	0.68
626.188	-0.61
626.604	-0.71
627.02	-1.23
627.436	-0.47
627.852	1.08
628.268	1.41
628.683	0.74
629.099	0.46
629.514	0.34
629.93	-0.16
630.345	-0.01
630.761	0.17
631.176	-0.11
631.591	2.05
632.007	2.11
632.422	0.16
632.837	-0.49
633.252	0.85
633.667	0.59
634.082	0.83
634.497	1.89
634.911	3.67
635.326	4
635.741	4.1
636.155	2.33
636.57	3.63
636.984	4.78
637.399	6.3
637.813	5.13
638.228	5.73
638.642	5.79
639.056	5.58
639.47	4.22
639.884	4.54
640.298	4.51
640.712	5.36
641.126	4.11
641.54	3.38
641.954	0.59
642.368	1.6
642.781	3.51
643.195	4.22
643.609	4.26
644.022	4.09
644.436	2.83
644.849	2.74
645.262	2.05
645.676	1.2
646.089	1.16
646.502	3.35
646.915	2.12
647.328	1.04
647.741	0.95
648.154	1.04
648.567	3.1
648.98	4.69
649.393	4.54
649.805	5.1
650.218	4.73
650.631	5.8
651.043	5.2
651.456	6.27
651.868	5.32
652.28	3.83
652.693	3.5
653.105	1.64
653.517	0.86
653.929	1.74
654.341	1.63
654.753	3.14
655.165	2.01
655.577	2.62
655.989	2.31
656.401	2.17
656.813	4.23
657.224	3.79
657.636	3.32
658.047	4.98
658.459	4.79
658.87	3.68
659.282	2.87
659.693	4.34
660.104	4.3
660.515	4.24
660.926	3.54
661.338	2.98
661.749	3
662.159	4.43
662.57	2.39
662.981	2.67
663.392	2.85
663.803	2.24
664.213	1.16
664.624	1.02
665.035	-0.04
665.445	0.15
665.855	0.71
666.266	1.7
666.676	0.92
667.086	0.83
667.497	0.25
667.907	0.41
668.317	1.03
668.727	3.51
669.137	2.24
669.547	2.84
669.956	2.56
670.366	2.42
670.776	2.01
671.186	1.86
671.595	1.94
672.005	1.57
672.414	1.96
672.824	3.06
673.233	0.69
673.642	1.33
674.052	1.83
674.461	3.29
674.87	3.18
675.279	3.83
675.688	2.13
676.097	3.74
676.506	3.6
676.915	2.73
677.323	2.56
677.732	2.12
678.141	2.49
678.549	2.62
678.958	1.17
679.366	-0.57
679.775	-2.33
680.183	-0.06
680.592	-1.21
681	-0.62
681.408	-0.12
681.816	-1.65
682.224	-2.54
682.632	-1.39
683.04	-2.27
683.448	-1.2
683.856	0.82
684.264	3.38
684.671	2.25
685.079	2.18
685.487	1.7
685.894	1.47
686.302	1.32
686.709	2.88
687.116	2.34
687.524	3.81
687.931	3.95
688.338	3.98
688.745	1.69
689.152	1.29
689.559	1.36
689.966	2.65
690.373	2.72
690.78	4.8
691.187	5.11
691.593	5.51
692	5.58
692.407	5.71
692.813	7.2
693.22	8.37
693.626	7.84
694.032	8.41
694.439	9.06
694.845	8.99
695.251	7.05
695.657	7.31
696.063	5.31
696.469	4.81
696.875	5.37
697.281	3.71
697.687	1.97
698.093	2.1
698.498	1.85
698.904	-0.41
699.31	-0.13
699.715	2.6
700.12	2.31
700.526	3.63
700.931	2.79
701.337	2.65
701.742	3.42
702.147	4.69
702.552	5.81
702.957	5.07
703.362	6.28
703.767	6.07
704.172	3.82
704.577	3.02
704.981	1.45
705.386	1.55
705.791	1.2
706.195	-0.03
706.6	-0.33
707.004	-2.19
707.408	-2.11
707.813	-1.29
708.217	-0.05
708.621	0.35
709.025	0.72
709.43	3.46
709.834	4.18
710.237	3.62
710.641	3.4
711.045	4.54
711.449	6.7
711.853	9.71
712.256	8.2
712.66	7.42
713.064	7.8
713.467	8.12
713.87	7.78
714.274	7.51
714.677	8.23
715.08	8.39
715.484	7.72
715.887	9.99
716.29	6.72
716.693	8.64
717.096	8.58
717.499	8.3
717.901	8
718.304	6.85
718.707	5.85
719.109	5.3
719.512	5
719.915	7.86
720.317	5.9
720.719	5.68
721.122	3.1
721.524	3.03
721.926	7.35
722.328	7.43
722.731	7.14
723.133	6.74
723.535	5.72
723.937	6.56
724.338	5.5
724.74	5.79
725.142	53.15
725.544	58.17
725.945	69.71
726.347	65.72
726.748	66.41
727.15	67.94
727.551	72.47
727.952	72.57
728.354	70.65
728.755	69.72
729.156	67.91
729.557	21.69
729.958	17.32
730.359	7.36
730.76	7.12
731.161	6.54
731.562	3.98
731.962	0.22
732.363	0.68
732.763	1.37
733.164	-0.19
733.564	0.77
733.965	1.57
734.365	2.48
734.766	1.96
735.166	2.55
735.566	3.33
735.966	5.51
736.366	6.3
736.766	6.74
737.166	5.86
737.566	6.28
737.966	5.96
738.365	6.45
738.765	7.19
739.165	7.23
739.564	6.69
739.964	4.86
740.363	3.07
740.763	1.21
741.162	1.74
741.561	2.66
741.96	3.55
742.36	2.54
742.759	2.09
743.158	0.31
743.557	-0.38
743.955	-0.95
744.354	-0.14
744.753	-0.57
745.152	1.01
745.55	-0.62
745.949	-0.27
746.348	-0.91
746.746	-1.91
747.144	0.74
747.543	0.91
747.941	-0.28
748.339	0.25
748.737	1.97
749.136	3.8
749.534	2.58
749.932	4.34
750.33	3.75
750.727	3.23
751.125	4.83
751.523	3.1
751.921	5.86
752.318	7.73
752.716	9.38
753.113	8.08
753.511	6.91
753.908	7.93
754.305	10.97
754.703	11.39
755.1	11.87
755.497	11.85
755.894	11.72
756.291	9.23
756.688	9.74
757.085	7.96
757.482	7.99
757.878	11.39
758.275	12.27
758.672	4.68
759.068	3.28
759.465	0.69
759.861	-1.29
760.258	-5.04
760.654	-8.56
761.05	-6.89
761.447	-8.6
761.843	-6.54
762.239	-7.78
762.635	-8.7
763.031	-8.02
763.427	-5.82
763.822	-2.9
764.218	-2.68
764.614	-1.33
765.01	-1.35
765.405	-3.17
765.801	-1.07
766.196	-1.72
766.592	-2.14
766.987	-1.47
767.382	-1.38
767.778	-1.82
768.173	-3.27
768.568	-2.11
768.963	-1.3
769.358	-0.4
769.753	0.99
770.148	0.81
770.542	0.63
770.937	-0.39
771.332	-0.08
771.726	-0.55
772.121	3.08
772.515	3.19
772.91	1.37
773.304	1.31
773.699	2.15
774.093	1.12
774.487	1.76
774.881	1.24
775.275	2.83
775.669	1.24
776.063	1.36
776.457	-0.57
776.851	0.79
777.245	2.44
777.638	2.58
778.032	1.58
778.425	2.37
778.819	4.92
779.212	8.75
779.606	10.01
779.999	10.66
780.392	12.07
780.786	10.4
781.179	10.42
781.572	10.73
781.965	11.31
782.358	12.82
782.751	11.55
783.143	8.24
783.536	6.35
783.929	3.83
784.322	3.98
784.714	3.71
785.107	4.05
785.499	5.3
785.891	5.67
786.284	4.64
786.676	2.61
787.068	6.06
787.46	5.94
787.852	4
788.245	3.05
788.636	0.66
789.028	1.6
789.42	3.87
789.812	3.87
790.204	3.5
790.595	5.47
790.987	7.53
791.378	4.84
791.77	4.64
792.161	3.19
792.553	4.89
792.944	7.74
793.335	5.42
793.726	5.25
794.117	5.99
794.508	3.88
794.899	0.44
795.29	-0.96
795.681	-1.78
796.072	-2.43
796.463	19.14
796.853	23.47
797.244	23.75
797.634	24.38
798.025	23.05
798.415	20.51
798.806	22.48
799.196	25.91
799.586	29.36
799.976	31.26
800.366	31.75
800.756	9.61
801.146	5.49
801.536	4.87
801.926	5.39
802.316	6.58
802.706	7.67
803.095	9.05
803.485	7.47
803.874	2.49
804.264	1.81
804.653	3.95
805.043	8.59
805.432	9.37
805.821	10.6
806.21	11.6
806.599	9.41
806.988	9.57
807.377	6.68
807.766	6.18
808.155	9.06
808.544	8.53
808.933	7.17
809.321	6.74
809.71	3.26
810.098	3.05
810.487	-2.3
810.875	-4.2
811.264	-4.61
811.652	6.38
812.04	7.12
812.428	7.79
812.816	5.31
813.204	7.52
813.592	3.24
813.98	5.5
814.368	11.52
814.756	17.31
815.144	22.36
815.531	25.72
815.919	16.41
816.306	15.77
816.694	14.99
817.081	22.29
817.469	23.65
817.856	22.53
818.243	18.13
818.63	10.59
819.017	12.85
819.404	13.82
819.791	10.89
820.178	6.08
820.565	8.35
820.952	16.07
821.339	16.63
821.725	14.75
822.112	17.28
822.498	20.4
822.885	20.6
823.271	17.39
823.657	11.61
824.044	11.94
824.43	12.08
824.816	19.1
825.202	15.73
825.588	11.11
825.974	11.8
826.36	10.8
826.746	12.89
827.132	13.83
827.517	15.91
827.903	17.78
828.289	22.44
828.674	22.62
829.06	17.09
829.445	11.54
829.83	7.42
830.216	4.68
830.601	9.97
830.986	15.54
831.371	19.13
831.756	15.81
832.141	23.75
832.526	24.16
832.911	29.46
833.295	28.21
833.68	29.2
834.065	30.73
834.449	31.52
834.834	30.11
835.218	29.1
835.603	28.28
835.987	25.51
836.371	19.29
836.755	18
837.139	13.77
837.524	10.09
837.908	7.5
838.291	11.32
838.675	9.3
839.059	5.95
839.443	0.46
839.827	-3.81
840.21	-1.92
840.594	2.09
840.977	3.02
841.361	2.45
841.744	0.84
842.127	3.54
842.511	2.58
842.894	-1.38
843.277	-1.11
843.66	-3.74
844.043	-1.18
844.426	5.9
844.809	-0.07
845.191	1.16
845.574	3.93
845.957	8.12
846.339	11.91
846.722	12.36
847.104	15.06
847.487	12.74
847.869	15.67
848.252	16.37
848.634	14.7
849.016	15
849.398	9.81
849.78	6.94
850.162	10.23
850.544	7.52
850.926	2.29
851.307	3.83
851.689	5.34
852.071	0.45
852.452	0.18
852.834	-2.08
853.215	3.16
853.597	4.16
853.978	7.82
854.359	2.84
854.741	7.11
855.122	6.12
855.503	2.75
855.884	4.06
856.265	7.56
856.646	4.5
857.026	8.5
857.407	6.65
857.788	3.05
858.169	-2.71
858.549	4.48
858.93	-0.26
859.31	5.7
859.69	11.02
860.071	9.91
860.451	12.76
860.831	14.78
861.211	7.84
861.591	2.01
861.971	3.44
862.351	7.56
862.731	0.44
863.111	1.39
863.491	0.33
863.87	-1.16
864.25	0.28
864.629	5.69
865.009	4.11
865.388	8.23
865.768	10.13
866.147	9.88
866.526	6.97
866.905	9.98
867.284	2.61
867.663	-0.53
868.042	-3.76
868.421	-5.88
868.8	-15.35
869.179	-12.72
869.558	-13.2
869.936	-9.81
870.315	-9.65
870.693	-4.2
871.072	-9.35
871.45	-5.97
871.828	-3.59
872.207	-2.2
872.585	4.21
872.963	6.52
873.341	11.89
873.719	19.55
874.097	18.76
874.475	18.42
874.853	12.49
875.23	14.43
875.608	15.4
875.986	15.57
876.363	14.79
876.741	20.1
877.118	26.49
877.495	26.07
877.873	21.65
878.25	20.66
878.627	24.72
879.004	24.9
879.381	26.41
879.758	31.78
880.135	31.04
880.512	32.97
880.889	17.36
881.265	13.81
881.642	5.94
882.019	6.6
882.395	17.76
882.772	23.15
883.148	24.18
883.524	24.36
883.901	21.48
884.277	19.55
884.653	16.36
885.029	25.92
885.405	32.21
885.781	37.76
886.157	34.04
886.532	25.35
886.908	16.14
887.284	13.14
887.659	15.45
888.035	16.34
888.411	16.31
888.786	24.31
889.161	20.44
889.537	8.89
889.912	6.47
890.287	10.41
890.662	10.05
891.037	7.02
891.412	9.4
891.787	3.36
892.162	9.89
892.536	10.54
892.911	12.83
893.286	9.9
893.66	15.74
894.035	15.56
894.409	7
894.784	12
895.158	13.06
895.532	16.56
895.906	19.75
896.281	16.14
896.655	19.15
897.029	10.9
897.402	11.9
897.776	5.34
898.15	3.48
898.524	13.78
898.898	11.87
899.271	18.61
899.645	19.21
900.018	15.78
900.392	9.88
900.765	4.09
901.138	10.06
901.511	1.99
901.884	15.91
902.258	25.29
902.631	28.68
903.003	27.97
903.376	17.26
903.749	12.56
904.122	5.61
904.495	-1.64
904.867	-4.84
905.24	-1.95
905.612	8.4
905.985	-8.8
906.357	-20.75
906.729	-19.36
907.102	-7.76
907.474	5.38
907.846	19.54
908.218	26.86
908.59	38.5
908.962	42.22
909.334	46.43
909.705	56.3
910.077	57.89
910.449	57.31
910.82	62.43
911.192	56.88
911.563	54.81
911.935	37.94
912.306	32.43
912.677	28.05
913.048	30.27
913.419	26.61
913.79	3.89
914.161	-3.9
914.532	16.1
914.903	2.87
915.274	11.49
915.645	23.2
916.015	17.22
916.386	19.18
916.756	20.26
917.127	12.36
917.497	15.6
917.868	30.22
918.238	38.84
918.608	27.36
918.978	36.11
919.348	23.07
919.718	21.96
920.088	28.21
920.458	38.24
920.828	26.96
921.198	31.81
921.567	24.58
921.937	12.07
922.306	4.03
922.676	0.09
923.045	14.3
923.415	37.87
923.784	28.83
924.153	35.97
924.522	43.65
924.891	42.48
925.26	44.26
925.629	42.81
925.998	42.74
926.367	49.2
926.736	77.25
927.104	76.67
927.473	52.59
927.842	58.33
928.21	41.26
928.578	5
928.947	22.87
929.315	42.74
929.683	69.85
930.051	106.25
930.42	119.43
930.788	76.79
931.156	68.14
931.523	95.56
931.891	94.2
932.259	99.97
932.627	143.46
932.994	165.4
933.362	142.77
933.729	129.11
934.097	109.37
934.464	98.59
934.831	93.96
935.199	75.27
935.566	73.46
935.933	134.5
936.3	177.13
936.667	140.12
937.034	215.19
937.401	196.46
937.767	165.32
938.134	131.06
938.501	150.42
938.867	179.29
939.234	307.9
939.6	213
939.967	138.59
940.333	100.73
940.699	75.67
941.065	-12.84
941.431	-1.26
941.798	39.11
942.163	145.31
942.529	93.31
942.895	63.74
943.261	62.82
943.627	88.36
943.992	69.1
944.358	65.24
944.723	96.81
945.089	93.15
945.454	77.44
945.82	62.94
946.185	36.84
946.55	64.16
946.915	59.75
947.28	60.21
947.645	62.41
948.01	86.08
948.375	103.3
948.74	93.59
949.104	88.79
949.469	63.49
949.834	82.55
950.198	179.35
950.562	128
950.927	133.78
951.291	160.91
951.655	129.71
952.02	68.4
952.384	44.67
952.748	73.01
953.112	114.17
953.476	120.75
953.839	110.01
954.203	116.56
954.567	131.74
954.931	159.59
955.294	160.48
955.658	158.04
956.021	293.39
956.385	442.57
956.748	480.69
957.111	342.92
957.474	334.24
957.837	309.52
958.2	95.13
958.563	42.03
958.926	70.58
959.289	47.62
959.652	118.21
960.015	61.96
960.377	89.24
960.74	55.79
961.102	159.83
961.465	341.09
961.827	598.35
962.189	1065.5
962.552	751.12
962.914	609.17
963.276	369.92
963.638	242.8
964	228.21
964.362	179.16
964.724	176.09
965.085	131.69
965.447	114.16
965.809	51.01
966.17	41.92
966.532	43.44
966.893	30.12
967.255	21.22
967.616	7.46
967.977	15.1
968.338	10.04
968.699	39.79
969.061	43.84
969.421	39.64
969.782	32.93
970.143	46.72
970.504	87.02
970.865	112.06
971.225	159.28
971.586	170.95
971.946	229.27
972.307	192.27
972.667	180.09
973.027	172.99
973.388	174.59
973.748	148.9
974.108	162.37
974.468	107.67
974.828	134.1
975.188	79.34
975.548	73.75
975.907	72.81
976.267	79.05
976.627	102.02
976.986	108.61
977.346	86.63
977.705	71.91
978.064	64.95
978.424	73.64
978.783	34.37
979.142	22.98
979.501	27.71
979.86	28.8
980.219	21.8
980.578	3.16
980.937	-23.01
981.296	14.59
981.654	-6.41
982.013	-65.83
982.371	-93.17
982.73	-42.86
983.088	-4.4
983.447	-2.02
983.805	19.06
984.163	8.72
984.521	-23.65
984.879	37.84
985.237	-66.5
985.595	684.86
985.953	193.46
986.311	18.14
986.669	8.37
987.026	-15.77
987.384	-41.66
987.741	-48.08
988.099	72.35
988.456	62.89
988.814	87.33
989.171	86.93
989.528	44.99
989.885	45.02
990.242	55.01
990.599	58.46
990.956	51.45
991.313	37.66
991.67	38.55
992.027	62.27
992.383	58.93
992.74	59.38
993.096	70.76
993.453	84.2
993.809	80.54
994.165	98.66
994.522	141.15
994.878	155
995.234	200.41
995.59	186.32
995.946	86.37
996.302	107.91
996.658	113.44
997.013	79.89
997.369	120.68
997.725	209.63
998.08	153.93
998.436	75.42
998.791	140.88
999.147	154.2
999.502	141.13
999.857	125.07
1000.212	155.61
1000.567	197.27
1000.922	175.69
1001.277	105.65
1001.632	60.95
1001.987	73.9
1002.342	72.97
1002.696	63.44
1003.051	73.04
1003.406	100.81
1003.76	105.1
1004.114	119.42
1004.469	93.7
1004.823	76.88
1005.177	73.65
1005.531	61.85
1005.885	73.34
1006.239	80.72
1006.593	124.73
1006.947	148.31
1007.301	118.02
1007.655	122.41
1008.008	96.33
1008.362	106.76
1008.715	115.6
1009.069	96.06
1009.422	202.39
1009.776	277.44
1010.129	159.64
1010.482	46.74
1010.835	-7.15
1011.188	-155.94
1011.541	-77.96
1011.894	788.43
1012.247	-1761.22
1012.6	-160.79
1012.952	-82.77
1013.305	-104.5
1013.657	-30.85
1014.01	-37.07
1014.362	-33.04
1014.715	37.69
1015.067	73.51
1015.419	59.94
1015.771	63.21
1016.123	68.48
1016.475	86.47
1016.827	81.42
1017.179	114.39
1017.531	91.16
1017.883	93.73
1018.234	147.93
1018.586	165.5
1018.938	179.55
1019.289	254.79
1019.64	258.78
1019.992	176.86
1020.343	161.35
1020.694	213.41
1021.045	172.14
1021.396	162.59
1021.747	212.01
1022.098	129.4
1022.449	71.5
1022.8	74.38
1023.151	65.41
1023.501	74.37
1023.852	85.71
1024.202	106.51
1024.553	84.3
1024.903	120.67
1025.253	143.13
1025.604	145.82
1025.954	204.37
1026.304	243.06
1026.654	244.28
1027.004	335.02
1027.354	480.53
1027.703	575.88
1028.053	619.7
1028.403	851
1028.753	739.83
1029.102	598.74
1029.452	-227.04
1029.801	-84.56
1030.15	-68.66
1030.499	-82.07
897.758	1656.68
901.051	1598.89
904.343	1630.74
907.636	1635.03
910.928	1683.88
914.22	1623.22
917.511	1626.91
920.803	1660.89
924.094	1654.27
927.384	1661.29
930.675	1630.8
933.965	1607.61
937.255	1635.66
940.544	1611.95
943.834	1603.97
947.123	1558.18
950.411	1625.63
953.7	1615.26
956.988	1606.9
960.276	1549.88
963.563	1578.87
966.851	1590.57
970.138	1617.3
973.424	1617.45
976.711	1577.62
979.997	1617.7
983.283	1648.36
986.568	1599.59
989.853	1585
993.138	1601.26
996.423	1673.69
999.708	1644.7
1002.992	1662.93
1006.275	1595.43
1009.559	1596.95
1012.842	1670.82
1016.125	1636.97
1019.408	1618.74
1022.69	1656.39
1025.972	1682.58
1029.254	1666.05
1032.536	1639.54
1035.817	1642.74
1039.098	1620.97
1042.379	1654.74
1045.659	1675.85
1048.939	1634.49
1052.219	1635.13
1055.498	1628.38
1058.778	1619.96
1062.057	1602.61
1065.335	1620.48
1068.614	1624.56
1071.892	1620.14
1075.17	1659.31
1078.447	1664.55
1081.724	1655.56
1085.001	1673.62
1088.278	1655.27
1091.554	1655.64
1094.83	1655.4
1098.106	1678.73
1101.382	1698.09
1104.657	1697.66
1107.932	1698.7
1111.206	1680.17
1114.481	1643.69
1117.755	1647.3
1121.029	1641.72
1124.302	1685.48
1127.575	1666.08
1130.848	1665
1134.121	1645.8
1137.393	1615.77
1140.665	1657.02
1143.937	1640.63
1147.208	1602.63
1150.48	1646.25
1153.75	1635.73
1157.021	1635.18
1160.291	1619.65
1163.561	1657.46
1166.831	1629.91
1170.101	1645.83
1173.37	1615.88
1176.639	1586.72
1179.907	1620.1
1183.176	1635.59
1186.444	1638.76
1189.711	1655.56
1192.979	1674.84
1196.246	1644.08
1199.513	1651.38
1202.78	1655.65
1206.046	1661.72
1209.312	1686.08
1212.578	1692.8
1215.843	1668.41
1219.108	1648.15
1222.373	1664.54
1225.638	1645.74
1228.902	1639.85
1232.166	1608.91
1235.43	1600.97
1238.693	1622.87
1241.956	1618.91
1245.219	1654.64
1248.482	1644.32
1251.744	1644.95
1255.006	1728.19
1258.268	1687.72
1261.529	1661.83
1264.79	1660.04
1268.051	1728.95
1271.312	1737.76
1274.572	1712.11
1277.832	1701.23
1281.092	1684.46
1284.351	1681.61
1287.61	1670.02
1290.869	1625.9
1294.128	1625.52
1297.386	1651.52
1300.644	1646.38
1303.902	1653.35
1307.159	1556.13
1310.416	1595.3
1313.673	1615.44
1316.93	1618.71
1320.186	1638.16
1323.442	1660.3
1326.697	1661.86
1329.953	1641.68
1333.208	1672.68
1336.463	1654.64
1339.717	1631.52
1342.972	1709.67
1346.226	1689.23
1349.479	1660.51
1352.733	1644.64
1355.986	1652.38
1359.238	1637.45
1362.491	1642.97
1365.743	1645.86
1368.995	1640.46
1372.247	1651.9
1375.498	1664.45
1378.749	1699.79
1382	1666.11
1385.251	1684.99
1388.501	1653.87
1391.751	1653.44
1395	1635.31
1398.25	1654.11
1401.499	1675.73
1404.748	1642.91
1407.996	1629.01
1411.244	1624.64
1414.492	1613.54
1417.74	1604.15
1420.987	1611.09
1424.234	1654.98
1427.481	1625
1430.728	1664.83
1433.974	1650.37
1437.22	1647.12
1440.465	1639.81
1443.711	1644.94
1446.956	1657.88
1450.201	1637.65
1453.445	1665.07
1456.689	1657.18
1459.933	1664.45
1463.177	1696.46
1466.42	1675.3
1469.663	1658.98
1472.906	1670.42
1476.148	1705.22
1479.391	1671.89
1482.633	1656.71
1485.874	1676.13
1489.115	1684.96
1492.356	1668.13
1495.597	1651.22
1498.838	1641.45
1502.078	1634.98
1505.318	1619.42
1508.557	1640.78
1511.797	1637.74
1515.036	1677.28
1518.274	1647.08
1521.513	1603.63
1524.751	1609.18
1527.989	1627.66
1531.227	1640.29
1534.464	1648.47
1537.701	1638.44
1540.938	1643.97
1544.174	1602.29
1547.41	1594.44
1550.646	1622
1553.882	1657.74
1557.117	1703.82
1560.352	1707.26
1563.587	1676.51
1566.821	1655.36
1570.055	1665.22
1573.289	1648.28
1576.523	1684.45
1579.756	1698.21
1582.989	1711.65
1586.222	1677.32
1589.454	1701.96
1592.686	1690.85
1595.918	1710.29
1599.15	1707.65
1602.381	1736.4
1605.612	1725.84
1608.843	1792.39
1612.073	1738.6
1615.303	1732.57
1618.533	1727.61
1621.762	1729.73
1624.992	1705.01
1628.221	1705.38
1631.449	1696.09
1634.678	1715.14
1637.906	1690.58
1641.134	1707.93
1644.361	1684.22
1647.588	1676
1650.815	1692.64
1654.042	1666.49
1657.269	1684.7
1660.495	1674.22
1663.72	1659.19
1666.946	1635.27
1670.171	1622.05
1673.396	1603.62
1676.621	1589.83
1679.845	1585.4
1683.069	1588.4
1686.293	1605.87
1689.517	1602.96
1692.74	1572.45
1695.963	1586.92
1699.185	1617.66
1702.408	1602.69
1705.63	1620.28
1708.852	1634.37
1712.073	1611.92
1715.294	1626.98
1718.515	1659.01
1721.736	1631.02
1724.956	1615.69
1728.176	1632.74
1731.396	1645.85
1734.616	1640.89
1737.835	1670.09
1741.054	1648.29
1744.272	1642.97
1747.491	1676.6
1750.709	1688.42
1753.927	1659.91
1757.144	1677.72
1760.361	1720.76
1763.578	1698.09
1766.795	1665.63
1770.011	1652.99
1773.227	1670.62
1776.443	1701.32
1779.658	1731.15
1782.874	1687.2
1786.089	1683.08
1789.303	1684.13
1792.518	1682.48
1795.732	1675.44
1798.945	1687.57
1802.159	1718.8
1805.372	1680.96
1808.585	1676.15
1811.797	1678.56
1815.01	1694.42
1818.222	1717.59
1821.434	1685.47
1824.645	1713.5
1827.856	1721.48
1831.067	1741.73
1834.278	1697.44
1837.488	1686.1
1840.698	1772.72
1843.908	1736.12
1847.117	1715.18
1850.326	1667.76
1853.535	1707.54
1856.744	1738.08
1859.952	1684.76
1863.16	1687.71
1866.368	1704.53
1869.575	1792.75
1872.782	1705.79
1875.989	1661.24
1879.196	1695.01
1882.402	1691.09
1885.608	1715.15
1888.814	1678.76
1892.019	1617
1895.224	1659.26
1898.429	1632.31
1901.634	1619.23
1904.838	1601.14
1908.042	1649.06
1911.246	1660.88
1914.449	1637.98
1917.652	1620.44
1920.855	1606.03
1924.058	1621.8
1927.26	1658.45
1930.462	1673.71
1933.664	1705.43
1936.865	1665.84
1940.066	1677.17
1943.267	1635.47
1946.467	1643.54
1949.668	1652.61
1952.868	1709.5
1956.067	1706.61
1959.267	1660.24
1962.466	1677.65
1965.665	1661.2
1968.863	1658.74
1972.061	1656.5
1975.259	1652.1
1978.457	1707.74
1981.654	1675.5
1984.852	1678.1
1988.048	1646.82
1991.245	1633.49
1994.441	1703.47
1997.637	1663.33
2000.833	1650.44
2004.028	1675.29
2007.223	1725.26
2010.418	1716.27
2013.613	1676.5
2016.807	1677.1
2020.001	1671.3
2023.194	1684.08
2026.388	1673.62
2029.581	1629.73
2032.774	1680.25
2035.966	1689.3
2039.158	1650.35
2042.35	1664.67
2045.542	1609.76
2048.733	1667.66
2051.924	1653.64
2055.115	1664.17
2058.306	1640.79
2061.496	1678.47
2064.686	1714.11
2067.875	1644.74
2071.065	1642.35
2074.254	1655.72
2077.442	1619.85
2080.631	1680.97
2083.819	1638.73
2087.007	1634.38
2090.195	1627.07
2093.382	1633.5
2096.569	1626.88
2099.756	1597.75
2102.942	1637.97
2106.128	1649.93
2109.314	1642.61
2112.5	1636.59
2115.685	1609.53
2118.87	1615.27
2122.055	1663.58
2125.239	1647.72
2128.424	1642.14
2131.608	1677.14
2134.791	1666.06
2137.974	1691.11
2141.157	1684.44
2144.34	1664.87
2147.523	1650.85
2150.705	1675.01
2153.887	1646.85
2157.068	1631.03
2160.25	1610.58
2163.431	1628.16
2166.611	1607.64
2169.792	1625.12
2172.972	1558.78
2176.152	1595.03
2179.331	1612.9
2182.511	1619.72
2185.69	1634.21
2188.868	1638.23
2192.047	1661.7
2195.225	1684.34
2198.403	1641.33
2201.58	1630.37
2204.758	1617.2
2207.935	1673.08
2211.111	1613.87
2214.288	1605.43
2217.464	1629.4
2220.64	1592.06
2223.815	1630.76
2226.991	1578.74
2230.166	1586.84
2233.34	1621.71
2236.515	1632.26
2239.689	1681.37
2242.863	1644.97
2246.036	1682.24
2249.209	1669.75
2252.382	1683.14
2255.555	1695.31
2258.727	1661.05
2261.9	1680.98
2265.071	1678.78
2268.243	1676.12
2271.414	1640.95
2274.585	1630.52
2277.756	1675.19
2280.926	1644.67
2284.096	1663.07
2287.266	1614
2290.436	1649.57
2293.605	1660.25
2296.774	1694.09
2299.942	1694.56
2303.111	1706.91
2306.279	1746.27
2309.447	1736.19
2312.614	1716.73
2315.781	1734.13
2318.948	1718.91
2322.115	1747.33
2325.281	1668.12
2328.447	1673.27
2331.613	1648.37
2334.779	1645.48
2337.944	1640.39
2341.109	1643.21
2344.274	1635.61
2347.438	1610.46
2350.602	1626.4
2353.766	1631.65
2356.929	1625.01
2360.092	1653.78
2363.255	1632.74
2366.418	1613.53
2369.58	1646.14
2372.742	1614.65
2375.904	1595.47
2379.066	1589.53
2382.227	1605.94
2385.388	1576.4
2388.548	1545.23
2391.709	1570.64
2394.869	1567.58
2398.029	1600.13
2401.188	1590.23
2404.347	1575.75
2407.506	1578.82
2410.665	1622.75
2413.823	1605.32
2416.981	1594.38
2420.139	1605.52
2423.296	1634.92
2426.453	1614.49
2429.61	1629.5
2432.767	1614.71
2435.923	1645.81
2439.079	1599.72
2442.235	1626.02
2445.391	1582.67
2448.546	1618.19
2451.701	1641.26
2454.855	1641.98
2458.009	1658.79
2461.163	1648.16
2464.317	1628.04
2467.471	1647.13
2470.624	1669.41
2473.777	1666.98
2476.929	1679.76
2480.082	1694.46
2483.234	1679.78
2486.385	1634.3
2489.537	1629.67
2492.688	1625.12
2495.839	1643.26
2498.989	1652.93
2502.14	1643.32
2505.29	1637.61
2508.439	1654.78
2511.589	1612.48
2514.738	1611.55
2517.887	1624.23
2521.035	1683.72
2524.183	1647.05
2527.331	1641.53
2530.479	1635.72
2533.627	1638.39
