Data from N_1_DEC_VA_2N_Splice17_11-18-43-349.txt Node
Date: Sat Mar 14 11:18:43 EDT 2020
User: sa697716
Spectrometer: FLMS03696
Trigger mode: 0
Integration Time (sec): 3.180400E-1
Scans to average: 20
Electric dark correction enabled: true
Nonlinearity correction enabled: true
Boxcar width: 5
XAxis mode: Wavelengths
Number of Pixels in Spectrum: 2048
>>>>>Begin Spectral Data<<<<<
187.83	-81372.23
188.298	616.79
188.766	345.09
189.233	300.35
189.701	438.63
190.169	626.67
190.636	280.25
191.104	262.49
191.571	68.12
192.039	-6.28
192.506	-16.27
192.974	400.68
193.441	-504.06
193.908	-204.57
194.375	-88.17
194.842	-14.68
195.31	-0.49
195.777	93.7
196.244	169.09
196.711	124.42
197.177	141.95
197.644	160.1
198.111	282.24
198.578	348.53
199.045	260.34
199.511	397.49
199.978	411.09
200.445	363.4
200.911	377.08
201.378	385.46
201.844	390.14
202.31	590.24
202.777	652.92
203.243	377.18
203.709	351.71
204.176	417.5
204.642	357.08
205.108	335.42
205.574	287.17
206.04	243.47
206.506	212.53
206.972	186.35
207.438	183.3
207.903	199.46
208.369	171.88
208.835	191.85
209.301	197.26
209.766	199.14
210.232	194.41
210.697	213.9
211.163	265.6
211.628	403.2
212.094	360.86
212.559	480.61
213.024	299.59
213.49	409.28
213.955	375.86
214.42	355.78
214.885	333.23
215.35	314.08
215.815	334.68
216.28	349.46
216.745	276.58
217.21	289.39
217.675	231.39
218.14	241.47
218.604	218.24
219.069	212.42
219.534	225.08
219.998	235.85
220.463	254.81
220.927	243.97
221.392	214.48
221.856	218.78
222.32	225.95
222.785	288.68
223.249	345.57
223.713	359.54
224.177	363.36
224.642	402.52
225.106	410.17
225.57	410.89
226.034	337.68
226.497	467.77
226.961	439.35
227.425	493.6
227.889	464.91
228.353	422.79
228.816	867.59
229.28	862.64
229.744	722.69
230.207	516.94
230.671	507.99
231.134	694.94
231.597	872.9
232.061	750.23
232.524	690.14
232.987	487.42
233.45	486.69
233.914	416.46
234.377	336.48
234.84	306.37
235.303	291.27
235.766	331.73
236.229	350.97
236.691	190.49
237.154	196.43
237.617	164.37
238.08	154.84
238.542	154.63
239.005	116.85
239.468	147.43
239.93	130.18
240.393	145.84
240.855	132.06
241.317	117.46
241.78	138.84
242.242	161.41
242.704	201.16
243.166	186.83
243.629	189.99
244.091	218.27
244.553	218.64
245.015	242.25
245.477	273.15
245.939	382.76
246.4	441.72
246.862	403.98
247.324	382.58
247.786	361.8
248.247	428.87
248.709	348.7
249.17	270.46
249.632	346.72
250.093	448.16
250.555	417.96
251.016	276.91
251.477	267.25
251.939	295.6
252.4	287.36
252.861	335.07
253.322	337.63
253.783	384.32
254.244	469.66
254.705	308.77
255.166	206.75
255.627	173.3
256.088	239.74
256.549	242.6
257.009	202.02
257.47	249.48
257.931	170.88
258.391	123.2
258.852	129.84
259.312	134.62
259.773	154.43
260.233	206.06
260.694	195.9
261.154	210.76
261.614	215.6
262.074	190.74
262.534	208.58
262.994	218.88
263.455	266
263.915	243.77
264.374	232.06
264.834	256.81
265.294	257.12
265.754	267.92
266.214	251.62
266.673	212.46
267.133	250.06
267.593	231.91
268.052	263.23
268.512	229.82
268.971	291.47
269.431	295.96
269.89	254.65
270.349	379.08
270.809	452.91
271.268	388.86
271.727	704.75
272.186	482.36
272.645	360.21
273.104	252.72
273.563	360.34
274.022	237.34
274.481	231.99
274.94	196.98
275.399	133.98
275.857	126.01
276.316	140.54
276.775	148.13
277.233	152.63
277.692	163.31
278.15	202.43
278.609	249.21
279.067	234.06
279.525	240.3
279.984	298.85
280.442	373.77
280.9	418.1
281.358	295.48
281.816	280.74
282.274	262.54
282.732	249.86
283.19	239.03
283.648	200.64
284.106	192.68
284.564	200.86
285.021	195.32
285.479	145.29
285.937	99.2
286.394	103.78
286.852	103.15
287.309	112.89
287.767	135.87
288.224	146.2
288.682	147.02
289.139	176.25
289.596	154.8
290.053	146.69
290.511	163.89
290.968	231.36
291.425	284.24
291.882	288.68
292.339	279.14
292.796	246.2
293.252	214.95
293.709	187.69
294.166	160.73
294.623	170.61
295.079	151.84
295.536	178.64
295.992	163.34
296.449	162.97
296.905	173.49
297.362	174.8
297.818	168.06
298.274	175.4
298.731	175.74
299.187	182.81
299.643	189.31
300.099	238.49
300.555	259.77
301.011	208.57
301.467	260.67
301.923	244.38
302.379	236.53
302.835	243.16
303.291	245.25
303.746	275.93
304.202	349.13
304.658	330.53
305.113	248.22
305.569	242.58
306.024	266.01
306.479	188.29
306.935	183.57
307.39	176
307.845	171.1
308.301	176.31
308.756	159.22
309.211	166.6
309.666	168.68
310.121	218.13
310.576	193.78
311.031	182.63
311.486	201.65
311.94	193.18
312.395	259.39
312.85	462.63
313.305	1907.8
313.759	13783.71
314.214	869.24
314.668	779.92
315.123	676.08
315.577	307.33
316.032	273.21
316.486	306.2
316.94	272.79
317.394	205.04
317.849	166.4
318.303	153.21
318.757	135.14
319.211	153.34
319.665	149.85
320.119	151.37
320.572	191.15
321.026	199.76
321.48	176.36
321.934	170.21
322.387	155.43
322.841	167.08
323.295	185.62
323.748	182.64
324.202	185.7
324.655	211.51
325.108	343.96
325.562	264.44
326.015	292.73
326.468	255.86
326.921	284.87
327.374	316.84
327.827	339.67
328.28	367.88
328.733	273.84
329.186	249.98
329.639	239.69
330.092	188.32
330.545	197.03
330.997	203.69
331.45	239.76
331.903	299.73
332.355	460.38
332.808	444.36
333.26	360.85
333.713	422.99
334.165	430.61
334.617	539.62
335.069	399.62
335.522	606.33
335.974	705.01
336.426	536.71
336.878	296.24
337.33	178.28
337.782	187.75
338.234	257.25
338.686	248.49
339.137	275.09
339.589	285.59
340.041	244.62
340.493	201.56
340.944	205.65
341.396	216.3
341.847	222.31
342.299	257.82
342.75	325.65
343.201	246.61
343.653	274.62
344.104	323.6
344.555	251.08
345.006	310.62
345.457	333.8
345.908	228
346.359	252.54
346.81	202.36
347.261	190.46
347.712	179.36
348.163	191.42
348.613	243.73
349.064	225.79
349.515	187.28
349.965	223.49
350.416	238.37
350.866	269.27
351.317	282.87
351.767	445.48
352.217	565.84
352.668	478.89
353.118	434.24
353.568	330.04
354.018	299.1
354.468	347.37
354.918	247.99
355.368	210.47
355.818	274.95
356.268	588.74
356.718	2803.16
357.168	787.68
357.617	358.63
358.067	395.1
358.517	356.29
358.966	430.7
359.416	508.71
359.865	552.17
360.315	525.82
360.764	281.7
361.213	201.16
361.663	148.79
362.112	146.6
362.561	239.7
363.01	179.52
363.459	182.33
363.908	150.67
364.357	145.29
364.806	236.08
365.255	189.04
365.703	187.36
366.152	184.86
366.601	150.04
367.05	153.11
367.498	143
367.947	153.81
368.395	155.58
368.844	165.14
369.292	169.88
369.74	131.1
370.189	181.59
370.637	215.99
371.085	198.83
371.533	257.46
371.981	213.4
372.429	222.24
372.877	241.84
373.325	218.69
373.773	202.28
374.221	155.28
374.669	180.57
375.116	174.57
375.564	182.17
376.012	178.54
376.459	163.18
376.907	187.39
377.354	200.19
377.801	206.34
378.249	244.78
378.696	287.93
379.143	444.21
379.591	439.08
380.038	679.39
380.485	498.16
380.932	523.55
381.379	546.5
381.826	461.72
382.273	326.9
382.72	266.93
383.166	270.33
383.613	187.06
384.06	162.51
384.506	178.22
384.953	142.57
385.4	122.61
385.846	108.59
386.292	83.31
386.739	78.16
387.185	60.84
387.631	60.16
388.078	60.05
388.524	58.05
388.97	61.03
389.416	61.15
389.862	61.25
390.308	65.4
390.754	69.27
391.2	78.5
391.645	69.7
392.091	107.25
392.537	109.61
392.983	90.65
393.428	115.23
393.874	107.44
394.319	121.31
394.765	133.4
395.21	137.23
395.655	131.51
396.101	127.25
396.546	119.82
396.991	102.71
397.436	93.43
397.881	98.3
398.326	81.06
398.771	82.67
399.216	65.37
399.661	55.06
400.106	60.83
400.551	65.65
400.995	56.17
401.44	53.84
401.885	47.2
402.329	46.96
402.774	46.55
403.218	54.52
403.663	53.08
404.107	56.1
404.551	56.12
404.995	49.88
405.44	45.04
405.884	46.69
406.328	42.82
406.772	43.77
407.216	42.22
407.66	36.39
408.104	27.51
408.547	26.04
408.991	25.19
409.435	23.76
409.879	25.24
410.322	25.74
410.766	25.46
411.209	26.47
411.653	26.61
412.096	25.8
412.54	24.44
412.983	23.42
413.426	24.37
413.869	22.43
414.312	24.56
414.756	21.32
415.199	19.36
415.642	20.38
416.085	21
416.527	18.97
416.97	17.13
417.413	18.75
417.856	16.99
418.298	16.61
418.741	16.27
419.184	12.68
419.626	8.94
420.069	9.37
420.511	9.27
420.953	10.83
421.396	11.87
421.838	11.43
422.28	11.76
422.722	16.67
423.164	14.4
423.606	14.66
424.048	14.68
424.49	17.15
424.932	16.4
425.374	15.52
425.816	13.79
426.258	14.05
426.699	18.36
427.141	19.71
427.582	16.39
428.024	15.61
428.465	12.63
428.907	12.67
429.348	12.23
429.789	13.83
430.231	14.7
430.672	13.61
431.113	12.94
431.554	11.97
431.995	10.27
432.436	13.08
432.877	14.58
433.318	17.36
433.759	14.91
434.2	14.23
434.64	12.07
435.081	12.21
435.522	12.77
435.962	11.3
436.403	10.77
436.843	9.69
437.284	7.18
437.724	5.22
438.164	2.43
438.604	4.03
439.045	5.82
439.485	9.24
439.925	9.21
440.365	9.25
440.805	9.55
441.245	10.79
441.685	11.2
442.125	10.87
442.564	10.94
443.004	11.52
443.444	10.76
443.883	10.67
444.323	7.53
444.762	3.19
445.202	1.84
445.641	2.98
446.081	0.43
446.52	0.9
446.959	1.92
447.398	3.57
447.837	4.79
448.276	5.68
448.716	6.6
449.154	5.3
449.593	8.36
450.032	8.1
450.471	6.24
450.91	5.77
451.349	6.48
451.787	6.08
452.226	5.62
452.664	4.57
453.103	4.17
453.541	2.28
453.98	5.09
454.418	5.24
454.856	7.31
455.295	8.44
455.733	9.07
456.171	7.7
456.609	8.3
457.047	8.55
457.485	10.14
457.923	11.35
458.361	10.95
458.798	10.26
459.236	9.97
459.674	8.31
460.111	8.74
460.549	8.95
460.987	8.93
461.424	7.99
461.862	7.89
462.299	7.84
462.736	8.41
463.173	8.18
463.611	10.94
464.048	12.04
464.485	13.3
464.922	12.83
465.359	11.25
465.796	17.5
466.233	18.65
466.67	19.77
467.106	20.64
467.543	18.97
467.98	19.16
468.416	16.44
468.853	15.13
469.29	14.46
469.726	13.69
470.162	14.09
470.599	8.39
471.035	6.83
471.471	6.95
471.907	5.51
472.344	5.15
472.78	5.28
473.216	4.65
473.652	3.91
474.088	2.88
474.523	3.22
474.959	2.87
475.395	3.35
475.831	4.02
476.266	2.93
476.702	2.43
477.138	3.02
477.573	2.63
478.008	3.17
478.444	4.24
478.879	5.82
479.314	6.27
479.75	6.62
480.185	6.63
480.62	6.27
481.055	6.56
481.49	7.16
481.925	7.54
482.36	9.2
482.795	8.44
483.229	7.73
483.664	7.13
484.099	6.72
484.534	7.11
484.968	7.16
485.403	7.56
485.837	6.9
486.271	6.47
486.706	6.04
487.14	5.39
487.574	5.72
488.009	5.02
488.443	4.58
488.877	4.92
489.311	4.27
489.745	4.31
490.179	4
490.613	5.06
491.046	4.6
491.48	4.41
491.914	3.79
492.348	4.31
492.781	5.15
493.215	5.55
493.648	4.61
494.082	5.51
494.515	5.45
494.948	6.18
495.382	5.28
495.815	5.89
496.248	6.21
496.681	6.6
497.114	5.51
497.547	5.38
497.98	5.68
498.413	7.36
498.846	6.32
499.279	5.86
499.711	4.9
500.144	4.9
500.577	5.66
501.009	4.98
501.442	5.13
501.874	5.28
502.306	5.03
502.739	6.57
503.171	5.93
503.603	6.42
504.036	6.61
504.468	7.02
504.9	7.07
505.332	6.06
505.764	6.44
506.196	6.54
506.627	7.09
507.059	7.4
507.491	5.45
507.923	5.28
508.354	5.76
508.786	6.16
509.217	6.44
509.649	6.05
510.08	5.84
510.512	6.28
510.943	6.18
511.374	5.94
511.805	5.46
512.237	5.09
512.668	4.77
513.099	3.75
513.53	3.21
513.961	3.21
514.391	3.72
514.822	4.87
515.253	4.96
515.684	5.26
516.114	5.02
516.545	5.3
516.975	6.14
517.406	6.1
517.836	5.97
518.267	6.14
518.697	6.48
519.127	6.38
519.558	5.41
519.988	4.7
520.418	3.55
520.848	2.97
521.278	2.81
521.708	18.27
522.138	18.41
522.567	17.97
522.997	17.66
523.427	17.09
523.857	16.91
524.286	17.6
524.716	18.17
525.145	19.07
525.575	20.07
526.004	19.51
526.433	3.7
526.863	3.28
527.292	4.68
527.721	4.98
528.15	4.55
528.579	4.61
529.008	4.42
529.437	3.35
529.866	2.5
530.295	2.13
530.724	3.14
531.152	3.71
531.581	4.81
532.01	4.29
532.438	3.8
532.867	3.87
533.295	4.04
533.723	3.47
534.152	4.35
534.58	5.09
535.008	5.45
535.436	6.21
535.865	5.65
536.293	4.96
536.721	4.94
537.149	5.47
537.576	6.17
538.004	6.25
538.432	5.92
538.86	6.27
539.287	5.86
539.715	5.99
540.143	4.95
540.57	5.19
540.998	4.94
541.425	5.94
541.852	5.97
542.28	5.42
542.707	5.13
543.134	5.84
543.561	5.68
543.988	6.03
544.415	5.49
544.842	5.18
545.269	5.18
545.696	5.55
546.123	5.17
546.549	5.17
546.976	5.43
547.403	5.79
547.829	5.21
548.256	4.36
548.682	4.31
549.108	4.62
549.535	4.99
549.961	5.33
550.387	4.97
550.813	5.72
551.24	5.88
551.666	5.6
552.092	5.22
552.518	5.12
552.943	6.12
553.369	5.76
553.795	6.05
554.221	5.56
554.646	4.71
555.072	5.59
555.498	4.34
555.923	3.62
556.349	3.29
556.774	3.12
557.199	3.33
557.625	2.53
558.05	2.52
558.475	1.95
558.9	2.61
559.325	3.31
559.75	3.27
560.175	3.34
560.6	3.22
561.025	3.06
561.449	3.37
561.874	2.83
562.299	3.63
562.723	3.77
563.148	3.64
563.572	3.9
563.997	4.16
564.421	3.38
564.846	2.75
565.27	3.08
565.694	3.2
566.118	2.59
566.542	3.61
566.966	3.19
567.39	3.01
567.814	3.93
568.238	3.18
568.662	2.51
569.086	2.66
569.509	2.4
569.933	3.79
570.357	4.59
570.78	5.23
571.204	5.83
571.627	5.76
572.05	6.02
572.474	6.05
572.897	6.51
573.32	7.15
573.743	6.92
574.166	7.94
574.589	6.68
575.012	5.98
575.435	5.44
575.858	4.74
576.281	5
576.704	4.69
577.126	3.79
577.549	3.1
577.972	2.42
578.394	2.66
578.817	3.92
579.239	3.97
579.661	4.13
580.084	5.41
580.506	5.38
580.928	5.2
581.35	5.28
581.772	5.5
582.194	5.6
582.616	5.17
583.038	4
583.46	2.81
583.882	3.02
584.303	2.71
584.725	1.89
585.147	5.18
585.568	5.3
585.99	6.13
586.411	6.46
586.833	7.35
587.254	7.98
587.675	8.79
588.096	8.56
588.518	9.11
588.939	9.6
589.36	9.83
589.781	5.88
590.202	7.56
590.623	7.55
591.043	6.92
591.464	6.52
591.885	6.96
592.305	7.24
592.726	6.82
593.147	5.92
593.567	5.86
593.987	5.25
594.408	5.08
594.828	3.17
595.248	2.99
595.669	4.2
596.089	4.39
596.509	3.86
596.929	3.33
597.349	3.9
597.769	3.82
598.189	3.66
598.608	4.03
599.028	4.64
599.448	4.61
599.867	4.21
600.287	3.6
600.706	3.9
601.126	4.05
601.545	4.72
601.965	4.81
602.384	4.39
602.803	4.39
603.222	4.57
603.641	4.28
604.061	4.74
604.48	4.49
604.898	4.21
605.317	3.37
605.736	3.44
606.155	3.97
606.574	3.7
606.992	3.98
607.411	4.44
607.829	3.78
608.248	3.69
608.666	3.28
609.085	3.55
609.503	3.44
609.921	3.68
610.339	3.91
610.758	2.8
611.176	2.56
611.594	3.24
612.012	3.02
612.43	3.89
612.847	4.17
613.265	4.71
613.683	4.7
614.101	4.97
614.518	4.69
614.936	3.92
615.353	4.72
615.771	5.18
616.188	5.03
616.606	4.5
617.023	4.19
617.44	3.87
617.857	2.62
618.274	2.68
618.691	2.99
619.108	3.56
619.525	3.91
619.942	3.73
620.359	3.43
620.776	3.13
621.192	4.2
621.609	4.69
622.026	4.68
622.442	5.45
622.859	4.77
623.275	4.06
623.691	3.91
624.108	3.86
624.524	3.79
624.94	4.3
625.356	3.8
625.772	3.24
626.188	2.47
626.604	2.8
627.02	2.93
627.436	3.77
627.852	4.89
628.268	5.4
628.683	5.53
629.099	5.17
629.514	4.44
629.93	5.29
630.345	5.28
630.761	5.47
631.176	5.04
631.591	6.02
632.007	6.43
632.422	5.73
632.837	4.87
633.252	5.95
633.667	6.21
634.082	6.91
634.497	7.3
634.911	8.12
635.326	8.06
635.741	8.65
636.155	7.58
636.57	7.89
636.984	7.59
637.399	8.99
637.813	8.07
638.228	7.75
638.642	6.7
639.056	5.98
639.47	4.81
639.884	5.17
640.298	5.51
640.712	6.18
641.126	5.99
641.54	6.3
641.954	4.45
642.368	4.3
642.781	6.8
643.195	7.79
643.609	8.24
644.022	8.64
644.436	8.24
644.849	6.26
645.262	5.94
645.676	5.19
646.089	5.22
646.502	6.96
646.915	6.86
647.328	5.65
647.741	5.75
648.154	5.73
648.567	7.19
648.98	7.73
649.393	8.79
649.805	8.72
650.218	8.63
650.631	9.41
651.043	8.79
651.456	8.79
651.868	8.32
652.28	7.03
652.693	6.05
653.105	5.43
653.517	5.04
653.929	5.3
654.341	5.83
654.753	6.72
655.165	5.46
655.577	5.78
655.989	5.96
656.401	5.32
656.813	7.45
657.224	7.92
657.636	6.71
658.047	6.68
658.459	7.22
658.87	5.32
659.282	4.86
659.693	5.33
660.104	5.22
660.515	5.1
660.926	4.83
661.338	3.79
661.749	3.13
662.159	4.04
662.57	3.4
662.981	3.07
663.392	3.97
663.803	3.55
664.213	4.7
664.624	4.56
665.035	4.04
665.445	4.22
665.855	4.83
666.266	6.04
666.676	6.19
667.086	5.99
667.497	6.53
667.907	7.09
668.317	7.43
668.727	8.13
669.137	7.01
669.547	7.6
669.956	7.24
670.366	6.49
670.776	6.67
671.186	6.13
671.595	7.23
672.005	6.4
672.414	6.56
672.824	7
673.233	5.08
673.642	5.63
674.052	5.72
674.461	7.09
674.87	7.81
675.279	8.54
675.688	7.27
676.097	8.28
676.506	8.92
676.915	8.16
677.323	7.65
677.732	8.26
678.141	8.25
678.549	8.02
678.958	7.18
679.366	5.17
679.775	3.74
680.183	6.07
680.592	4.92
681	5.34
681.408	5.71
681.816	6.21
682.224	5.54
682.632	6.95
683.04	6.58
683.448	6.78
683.856	8.73
684.264	8.86
684.671	7.84
685.079	7.68
685.487	6.45
685.894	6.28
686.302	5.55
686.709	6.4
687.116	5.5
687.524	7.04
687.931	7.7
688.338	7.77
688.745	8.05
689.152	8.15
689.559	8.79
689.966	10.24
690.373	10.28
690.78	11.68
691.187	11.97
691.593	12.64
692	12.1
692.407	12.24
692.813	14.04
693.22	14.52
693.626	12.48
694.032	12.27
694.439	11.89
694.845	12.86
695.251	11.82
695.657	11.63
696.063	10.25
696.469	10.09
696.875	9.48
697.281	7.58
697.687	6.92
698.093	8.52
698.498	8.4
698.904	7.76
699.31	6.94
699.715	7.95
700.12	7.72
700.526	9.28
700.931	9.21
701.337	9.46
701.742	10.52
702.147	10.56
702.552	11.21
702.957	11.2
703.362	11.35
703.767	10.99
704.172	10.06
704.577	9.84
704.981	7.92
705.386	7.94
705.791	8.13
706.195	6.76
706.6	6.74
707.004	5.15
707.408	4.46
707.813	4.91
708.217	5.71
708.621	5.5
709.025	4.83
709.43	6.8
709.834	6.4
710.237	5.76
710.641	6.34
711.045	7.32
711.449	8.92
711.853	11.8
712.256	11.41
712.66	11.6
713.064	12.22
713.467	13.57
713.87	12.89
714.274	14.57
714.677	16.21
715.08	17
715.484	17.04
715.887	19.19
716.29	17.43
716.693	17.73
717.096	18.32
717.499	18.19
717.901	16.76
718.304	15.98
718.707	14.7
719.109	13.98
719.512	12.96
719.915	15.52
720.317	13.51
720.719	12.35
721.122	12.57
721.524	11.93
721.926	15.87
722.328	17.17
722.731	17.39
723.133	17.45
723.535	16.24
723.937	16.51
724.338	16.03
724.74	15.62
725.142	53.07
725.544	56.41
725.945	64.39
726.347	60.72
726.748	60.67
727.15	63.26
727.551	65.84
727.952	64.99
728.354	64.07
728.755	63
729.156	63.11
729.557	26.58
729.958	23.08
730.359	15.56
730.76	15.05
731.161	14.37
731.562	11.36
731.962	9.24
732.363	9.67
732.763	9.77
733.164	8.22
733.564	8.28
733.965	9.74
734.365	9.94
734.766	9.98
735.166	10.26
735.566	12.01
735.966	13.38
736.366	13.29
736.766	13.96
737.166	13.37
737.566	14.52
737.966	14.11
738.365	13.4
738.765	14.61
739.165	14.73
739.564	14.64
739.964	12.96
740.363	12.39
740.763	12.11
741.162	13.42
741.561	13.57
741.96	13.09
742.36	11.96
742.759	12.7
743.158	10.68
743.557	10.36
743.955	10.76
744.354	11.14
744.753	10.18
745.152	10.51
745.55	8.35
745.949	8.92
746.348	9.32
746.746	8.76
747.144	10.66
747.543	10.44
747.941	9.45
748.339	8.24
748.737	8.47
749.136	9.53
749.534	7.98
749.932	10.13
750.33	9.53
750.727	8.05
751.125	9.67
751.523	7.36
751.921	9.87
752.318	10.32
752.716	12.12
753.113	11.76
753.511	11.17
753.908	12.16
754.305	14.33
754.703	14.54
755.1	15.55
755.497	15.69
755.894	16.76
756.291	15.76
756.688	17.07
757.085	15.89
757.482	16.76
757.878	20.22
758.275	23.8
758.672	19.4
759.068	21.18
759.465	21.03
759.861	19.62
760.258	17.89
760.654	18.85
761.05	21.72
761.447	21.69
761.843	19.91
762.239	17.68
762.635	11.78
763.031	9.65
763.427	9.11
763.822	10.48
764.218	10.54
764.614	10.58
765.01	6.93
765.405	4.83
765.801	6.03
766.196	5.37
766.592	3.2
766.987	5.03
767.382	6.56
767.778	6.89
768.173	6.41
768.568	7.76
768.963	9.19
769.358	10.95
769.753	12.15
770.148	12.73
770.542	13.28
770.937	13.58
771.332	13.4
771.726	11.61
772.121	13.96
772.515	14.43
772.91	13.09
773.304	11.9
773.699	12.85
774.093	11.37
774.487	9.85
774.881	9.6
775.275	10.95
775.669	11.42
776.063	12.87
776.457	11.02
776.851	10.69
777.245	12.5
777.638	12.36
778.032	10.82
778.425	12.97
778.819	16
779.212	18.54
779.606	19.87
779.999	17.91
780.392	19.05
780.786	18.69
781.179	19.71
781.572	20.16
781.965	21.96
782.358	22.9
782.751	21.65
783.143	18.81
783.536	17.5
783.929	15.57
784.322	17.32
784.714	15.76
785.107	16.57
785.499	17.62
785.891	18.13
786.284	17.71
786.676	16.11
787.068	17.86
787.46	19.48
787.852	17.74
788.245	16.82
788.636	15.82
789.028	18.01
789.42	17.96
789.812	17.27
790.204	16.33
790.595	18.74
790.987	21.1
791.378	20.63
791.77	19.5
792.161	20.33
792.553	21.58
792.944	21.56
793.335	20.2
793.726	19.89
794.117	20.57
794.508	18.87
794.899	14.91
795.29	12.95
795.681	12.41
796.072	13
796.463	27.76
796.853	31.55
797.244	34.01
797.634	35.04
798.025	35.53
798.415	32.77
798.806	35.68
799.196	39.22
799.586	41.99
799.976	43.43
800.366	41.33
800.756	25.65
801.146	21.78
801.536	20.03
801.926	17.72
802.316	19.39
802.706	21.13
803.095	20.04
803.485	16
803.874	13.83
804.264	11.7
804.653	14.88
805.043	16.75
805.432	20.1
805.821	21.76
806.21	24.8
806.599	21.41
806.988	21.85
807.377	19.74
807.766	19.92
808.155	22
808.544	21.97
808.933	21.25
809.321	24.41
809.71	20.01
810.098	19.18
810.487	14.17
810.875	14.88
811.264	15.14
811.652	25.07
812.04	27.37
812.428	28.45
812.816	27.79
813.204	29.48
813.592	21.67
813.98	24.42
814.368	30.13
814.756	32.13
815.144	33.83
815.531	37.41
815.919	29.71
816.306	31.23
816.694	30.5
817.081	33.06
817.469	32.85
817.856	33.48
818.243	31
818.63	24.92
819.017	32.06
819.404	36.99
819.791	34.83
820.178	33.73
820.565	37.51
820.952	43.18
821.339	44.53
821.725	47.43
822.112	49.26
822.498	52.97
822.885	53.09
823.271	48.35
823.657	39.4
824.044	39.87
824.43	41.16
824.816	42.86
825.202	39.94
825.588	38.95
825.974	39.4
826.36	42.95
826.746	41.87
827.132	41.57
827.517	44.12
827.903	46.61
828.289	49.72
828.674	49.06
829.06	44.16
829.445	40.87
829.83	36.54
830.216	34.66
830.601	34.71
830.986	38.89
831.371	43.1
831.756	42.4
832.141	47.51
832.526	45.18
832.911	47.75
833.295	44.87
833.68	46.25
834.065	50.57
834.449	47.77
834.834	46.97
835.218	45.41
835.603	43.23
835.987	40.71
836.371	34.67
836.755	34.23
837.139	28.71
837.524	28.39
837.908	24.05
838.291	27.39
838.675	28.67
839.059	28.87
839.443	25.72
839.827	23.98
840.21	24.25
840.594	27.42
840.977	28.18
841.361	27.13
841.744	25.38
842.127	30.44
842.511	26.94
842.894	24.5
843.277	23.61
843.66	24.88
844.043	26.93
844.426	27.99
844.809	23.46
845.191	25.39
845.574	26.98
845.957	31.96
846.339	34.09
846.722	33.64
847.104	35.56
847.487	33.91
847.869	36.26
848.252	36.72
848.634	35.77
849.016	36.84
849.398	32.43
849.78	33.01
850.162	33.28
850.544	33.76
850.926	31.45
851.307	30.97
851.689	30.17
852.071	25.28
852.452	25.06
852.834	29.19
853.215	37.02
853.597	35.83
853.978	42.37
854.359	42.15
854.741	39.9
855.122	35.82
855.503	34.35
855.884	37.33
856.265	38.32
856.646	33.85
857.026	36.2
857.407	32.26
857.788	32.14
858.169	25.37
858.549	30.93
858.93	29.62
859.31	38.62
859.69	44.98
860.071	44.56
860.451	45.33
860.831	49
861.211	43.54
861.591	42.3
861.971	43.39
862.351	43.71
862.731	36.81
863.111	39.01
863.491	36.8
863.87	33.06
864.25	28.19
864.629	32.09
865.009	28.1
865.388	31.12
865.768	29.9
866.147	34.71
866.526	34.97
866.905	33.9
867.284	25.89
867.663	25.45
868.042	20.42
868.421	26.69
868.8	19.49
869.179	24
869.558	25.24
869.936	26.29
870.315	20.16
870.693	22.36
871.072	22.57
871.45	24.23
871.828	26.27
872.207	32.9
872.585	31.97
872.963	37.97
873.341	41.82
873.719	46.45
874.097	49.3
874.475	52.88
874.853	53.37
875.23	53.48
875.608	58.49
875.986	61.67
876.363	60.87
876.741	70.31
877.118	71.42
877.495	73.61
877.873	70.95
878.25	63.37
878.627	61.47
879.004	60.19
879.381	57.25
879.758	54.08
880.135	51.82
880.512	51.26
880.889	35.56
881.265	31.07
881.642	23.06
882.019	20.19
882.395	33.07
882.772	36.91
883.148	40.92
883.524	44.64
883.901	48.86
884.277	42.54
884.653	38.5
885.029	46.85
885.405	51
885.781	57.88
886.157	54.85
886.532	51.82
886.908	46.07
887.284	41.61
887.659	40.69
888.035	38.21
888.411	38.08
888.786	39.43
889.161	39.18
889.537	37.28
889.912	30.64
890.287	33.64
890.662	24.4
891.037	23.8
891.412	19.74
891.787	15.11
892.162	15.29
892.536	21.07
892.911	23.24
893.286	14.9
893.66	14.98
894.035	19.15
894.409	12.52
894.784	19.72
895.158	22.48
895.532	26.97
895.906	35.43
896.281	40.16
896.655	43.75
897.029	46.45
897.402	64.81
897.776	78.76
898.15	79.93
898.524	84.37
898.898	90.29
899.271	104.19
899.645	105.23
900.018	95.06
900.392	100.08
900.765	94.68
901.138	92.77
901.511	75.02
901.884	72.7
902.258	71.23
902.631	83.44
903.003	79.04
903.376	72.7
903.749	75
904.122	71.15
904.495	58.42
904.867	51.39
905.24	51.04
905.612	56.62
905.985	45.12
906.357	44.44
906.729	41.45
907.102	51.58
907.474	54.51
907.846	55.66
908.218	64.59
908.59	79.91
908.962	87.9
909.334	93.92
909.705	101.86
910.077	103.43
910.449	99.11
910.82	104.78
911.192	112.73
911.563	120.28
911.935	114.31
912.306	101.11
912.677	87.13
913.048	85.49
913.419	77.62
913.79	71.07
914.161	63.74
914.532	79.06
914.903	69.65
915.274	62.44
915.645	55.53
916.015	56.19
916.386	66.13
916.756	66.46
917.127	53.25
917.497	64.23
917.868	73.73
918.238	85.18
918.608	76.39
918.978	72.06
919.348	64.92
919.718	70.98
920.088	79.42
920.458	94.47
920.828	91.12
921.198	106.81
921.567	101.42
921.937	82.2
922.306	74.52
922.676	80.72
923.045	87.47
923.415	93.91
923.784	86.33
924.153	94.69
924.522	93.04
924.891	93.69
925.26	89.59
925.629	85.13
925.998	88.96
926.367	89.26
926.736	97.05
927.104	98.59
927.473	100.1
927.842	103.93
928.21	83.47
928.578	58.65
928.947	63.36
929.315	75.15
929.683	113.51
930.051	120.58
930.42	142.45
930.788	117.54
931.156	104.51
931.523	139.42
931.891	142.68
932.259	143.16
932.627	176.7
932.994	235.15
933.362	218.15
933.729	182.7
934.097	189.4
934.464	165.31
934.831	182.57
935.199	196.44
935.566	178.94
935.933	148.44
936.3	177.34
936.667	154.11
937.034	195.78
937.401	195.16
937.767	168.54
938.134	138.5
938.501	180.93
938.867	215.56
939.234	349.88
939.6	237.27
939.967	329.08
940.333	262.3
940.699	226.12
941.065	135.44
941.431	167.72
941.798	212.47
942.163	325.67
942.529	183.71
942.895	138.14
943.261	94.72
943.627	127.79
943.992	130.3
944.358	110.38
944.723	125.14
945.089	115.14
945.454	96.7
945.82	75.17
946.185	66.86
946.55	103.42
946.915	105.12
947.28	126.36
947.645	131.19
948.01	116.5
948.375	136.84
948.74	153.53
949.104	175.27
949.469	226.38
949.834	388.53
950.198	458.36
950.562	288.34
950.927	259.98
951.291	275.42
951.655	233.72
952.02	187.6
952.384	146.66
952.748	144.36
953.112	169.45
953.476	159.09
953.839	140.5
954.203	135.22
954.567	147.73
954.931	180.43
955.294	167.14
955.658	156.15
956.021	274.01
956.385	383.87
956.748	427.15
957.111	337.15
957.474	289.16
957.837	299.19
958.2	45.79
958.563	28.25
958.926	58.45
959.289	75.19
959.652	95.42
960.015	104.25
960.377	121.97
960.74	227.52
961.102	415.2
961.465	623.11
961.827	635.12
962.189	1150.39
962.552	829.23
962.914	631.46
963.276	435.94
963.638	358.5
964	303.15
964.362	252.94
964.724	225.38
965.085	179.29
965.447	139.34
965.809	103.84
966.17	105.56
966.532	106.15
966.893	110.58
967.255	96.57
967.616	98.33
967.977	96.21
968.338	80.18
968.699	75.59
969.061	75.69
969.421	85.46
969.782	89.32
970.143	91.78
970.504	119.74
970.865	138.33
971.225	155.44
971.586	159.39
971.946	216.38
972.307	193.58
972.667	239.16
973.027	220.68
973.388	207.95
973.748	149.22
974.108	141.84
974.468	130.28
974.828	152.72
975.188	106.55
975.548	86.57
975.907	80.07
976.267	91.95
976.627	85.09
976.986	89.4
977.346	73.13
977.705	65.76
978.064	76.26
978.424	82.31
978.783	46.02
979.142	35.67
979.501	49.92
979.86	51.22
980.219	40.92
980.578	34.67
980.937	19.83
981.296	43.5
981.654	42.51
982.013	24.01
982.371	39.35
982.73	86.04
983.088	123.61
983.447	96.11
983.805	135.21
984.163	298.54
984.521	345.7
984.879	656.53
985.237	-1318.52
985.595	1520.03
985.953	407.6
986.311	179.11
986.669	108.26
987.026	96.66
987.384	115.87
987.741	106.28
988.099	147.93
988.456	129.34
988.814	147.46
989.171	133.41
989.528	97.35
989.885	79.26
990.242	72.9
990.599	62.49
990.956	60.33
991.313	55.27
991.67	53.93
992.027	80.24
992.383	73.11
992.74	64.68
993.096	61.95
993.453	73.28
993.809	77.41
994.165	91.74
994.522	142.71
994.878	156.17
995.234	202.82
995.59	193.66
995.946	111.64
996.302	137.64
996.658	135.23
997.013	153.63
997.369	215.31
997.725	309.89
998.08	219.52
998.436	151.85
998.791	189.84
999.147	141.57
999.502	166.55
999.857	181.4
1000.212	271.59
1000.567	425.05
1000.922	271.07
1001.277	169.42
1001.632	117.67
1001.987	138.87
1002.342	144.58
1002.696	152.89
1003.051	156.82
1003.406	210.41
1003.76	174.65
1004.114	145.64
1004.469	137.89
1004.823	120.03
1005.177	116.41
1005.531	93.89
1005.885	107.48
1006.239	119.57
1006.593	135.01
1006.947	150.64
1007.301	83.19
1007.655	104.82
1008.008	93.77
1008.362	107.08
1008.715	164.54
1009.069	165.01
1009.422	293.86
1009.776	451.87
1010.129	260.61
1010.482	216.79
1010.835	135.29
1011.188	304.78
1011.541	267.99
1011.894	-1534.71
1012.247	3430.74
1012.6	133.15
1012.952	87.16
1013.305	24.56
1013.657	51.37
1014.01	58.97
1014.362	50.35
1014.715	121.18
1015.067	126.9
1015.419	135.9
1015.771	141.16
1016.123	146.6
1016.475	163.1
1016.827	169.89
1017.179	197.05
1017.531	173.77
1017.883	167.9
1018.234	196.93
1018.586	217.61
1018.938	254.08
1019.289	340.81
1019.64	348.16
1019.992	282.54
1020.343	253.57
1020.694	265.28
1021.045	232.38
1021.396	273.9
1021.747	362.4
1022.098	361.67
1022.449	245.99
1022.8	213.64
1023.151	189.94
1023.501	194.38
1023.852	203.88
1024.202	209.3
1024.553	201.81
1024.903	226.72
1025.253	224.56
1025.604	204.32
1025.954	254.75
1026.304	303.35
1026.654	343.6
1027.004	425.04
1027.354	604.98
1027.703	706.82
1028.053	892.15
1028.403	1347.43
1028.753	1571.08
1029.102	1616.11
1029.452	5281.97
1029.801	196.19
1030.15	133.55
1030.499	86.19
897.758	1312.36
901.051	1273.84
904.343	1295.4
907.636	1295.57
910.928	1330.19
914.22	1286.6
917.511	1293.08
920.803	1317.1
924.094	1309.98
927.384	1314.84
930.675	1292.93
933.965	1277.15
937.255	1294.03
940.544	1277.24
943.834	1277.04
947.123	1244.11
950.411	1293.05
953.7	1283.5
956.988	1274.81
960.276	1235.08
963.563	1258.73
966.851	1264.85
970.138	1283.46
973.424	1284.95
976.711	1255.23
979.997	1282.23
983.283	1305.09
986.568	1268.02
989.853	1259.59
993.138	1271.5
996.423	1326.31
999.708	1303
1002.992	1315.89
1006.275	1270.89
1009.559	1271.3
1012.842	1326.44
1016.125	1300.38
1019.408	1287.36
1022.69	1316.33
1025.972	1331.28
1029.254	1319.17
1032.536	1296.99
1035.817	1299.46
1039.098	1286.3
1042.379	1309.04
1045.659	1321.62
1048.939	1292.78
1052.219	1296.15
1055.498	1291.51
1058.778	1284.01
1062.057	1274.52
1065.335	1291.64
1068.614	1291.39
1071.892	1286.18
1075.17	1316.34
1078.447	1317.03
1081.724	1313.54
1085.001	1325.54
1088.278	1311.08
1091.554	1311.91
1094.83	1313.89
1098.106	1327.77
1101.382	1345.04
1104.657	1344.65
1107.932	1345.45
1111.206	1332.09
1114.481	1306.01
1117.755	1309.41
1121.029	1304.07
1124.302	1335.28
1127.575	1319.7
1130.848	1318.9
1134.121	1304.3
1137.393	1277.66
1140.665	1313.82
1143.937	1298.65
1147.208	1271.54
1150.48	1303.13
1153.75	1296.11
1157.021	1297.38
1160.291	1282.92
1163.561	1311.93
1166.831	1290.08
1170.101	1302.15
1173.37	1284.29
1176.639	1261.4
1179.907	1289.94
1183.176	1298.42
1186.444	1302.13
1189.711	1313.95
1192.979	1328.17
1196.246	1305.55
1199.513	1312.43
1202.78	1314.71
1206.046	1320.57
1209.312	1334.48
1212.578	1338.69
1215.843	1316.16
1219.108	1307.46
1222.373	1316.29
1225.638	1301.36
1228.902	1293.63
1232.166	1276.85
1235.43	1268.23
1238.693	1284.86
1241.956	1282.03
1245.219	1309
1248.482	1302.64
1251.744	1306.36
1255.006	1365.31
1258.268	1338.16
1261.529	1319.91
1264.79	1319.5
1268.051	1368.11
1271.312	1377.93
1274.572	1357.73
1277.832	1350.69
1281.092	1339.37
1284.351	1336.33
1287.61	1328.32
1290.869	1294.12
1294.128	1294.27
1297.386	1313.94
1300.644	1311.17
1303.902	1315.68
1307.159	1242.13
1310.416	1270.28
1313.673	1282.97
1316.93	1284.24
1320.186	1297.21
1323.442	1313.43
1326.697	1313.31
1329.953	1298.13
1333.208	1319.36
1336.463	1305.53
1339.717	1288.01
1342.972	1349.45
1346.226	1336.2
1349.479	1315.96
1352.733	1301.05
1355.986	1311.77
1359.238	1301.59
1362.491	1302.38
1365.743	1303.91
1368.995	1303.9
1372.247	1314.87
1375.498	1322.19
1378.749	1340.7
1382	1321.21
1385.251	1333.53
1388.501	1312.67
1391.751	1307.48
1395	1295.64
1398.25	1311.73
1401.499	1326.29
1404.748	1297.53
1407.996	1289.27
1411.244	1288.72
1414.492	1279.55
1417.74	1268.89
1420.987	1280.12
1424.234	1309.42
1427.481	1291.02
1430.728	1317.63
1433.974	1307.89
1437.22	1307.38
1440.465	1302.68
1443.711	1303.9
1446.956	1312.57
1450.201	1300.15
1453.445	1322.91
1456.689	1310.51
1459.933	1320.86
1463.177	1342.81
1466.42	1330.68
1469.663	1318.11
1472.906	1325.37
1476.148	1352.77
1479.391	1328.95
1482.633	1319.06
1485.874	1331.84
1489.115	1337.02
1492.356	1327.42
1495.597	1312.21
1498.838	1306.03
1502.078	1300.36
1505.318	1289.38
1508.557	1303.12
1511.797	1301.04
1515.036	1330.43
1518.274	1307.58
1521.513	1277.71
1524.751	1281.16
1527.989	1295.07
1531.227	1305.1
1534.464	1308.99
1537.701	1301.54
1540.938	1304.54
1544.174	1279.29
1547.41	1270.99
1550.646	1290.36
1553.882	1314.44
1557.117	1347.6
1560.352	1353.85
1563.587	1327.4
1566.821	1311.59
1570.055	1323.32
1573.289	1308.64
1576.523	1335.38
1579.756	1343.04
1582.989	1355.32
1586.222	1330.55
1589.454	1351.47
1592.686	1342.36
1595.918	1353.18
1599.15	1354.36
1602.381	1378.8
1605.612	1368.19
1608.843	1416.11
1612.073	1376.51
1615.303	1369.58
1618.533	1363.97
1621.762	1364.55
1624.992	1348.78
1628.221	1347.48
1631.449	1340.93
1634.678	1353.79
1637.906	1335.85
1641.134	1345.84
1644.361	1329.25
1647.588	1324.38
1650.815	1338.26
1654.042	1320.79
1657.269	1335.62
1660.495	1324.65
1663.72	1319.01
1666.946	1301.65
1670.171	1292.34
1673.396	1274
1676.621	1268.39
1679.845	1265.04
1683.069	1267.6
1686.293	1281.9
1689.517	1277.11
1692.74	1254.37
1695.963	1264.34
1699.185	1282.79
1702.408	1270.09
1705.63	1284.94
1708.852	1295.21
1712.073	1277.89
1715.294	1290.24
1718.515	1315.27
1721.736	1292.25
1724.956	1284.96
1728.176	1297.79
1731.396	1306.62
1734.616	1303.32
1737.835	1328.37
1741.054	1308.69
1744.272	1310.28
1747.491	1331.24
1750.709	1340.12
1753.927	1316.71
1757.144	1328.92
1760.361	1358.45
1763.578	1341.83
1766.795	1315.9
1770.011	1310.5
1773.227	1320.85
1776.443	1346.52
1779.658	1361.38
1782.874	1335.3
1786.089	1332.34
1789.303	1331.04
1792.518	1333.67
1795.732	1326.33
1798.945	1333.69
1802.159	1361.47
1805.372	1328.18
1808.585	1323.86
1811.797	1321.34
1815.01	1340.2
1818.222	1354.24
1821.434	1334.21
1824.645	1356.7
1827.856	1361.45
1831.067	1375.9
1834.278	1347.64
1837.488	1335.04
1840.698	1401.84
1843.908	1377.15
1847.117	1361.13
1850.326	1321.04
1853.535	1353.88
1856.744	1373.32
1859.952	1331.5
1863.16	1330.39
1866.368	1347.22
1869.575	1407.82
1872.782	1347
1875.989	1313.78
1879.196	1341.55
1882.402	1338.1
1885.608	1355.24
1888.814	1322.93
1892.019	1274.98
1895.224	1308.59
1898.429	1294.13
1901.634	1281.04
1904.838	1268.89
1908.042	1299.69
1911.246	1313.27
1914.449	1292.07
1917.652	1284.18
1920.855	1275.21
1924.058	1289.55
1927.26	1319.68
1930.462	1328.42
1933.664	1349.58
1936.865	1321.78
1940.066	1328.72
1943.267	1301.19
1946.467	1303.33
1949.668	1309.56
1952.868	1350.54
1956.067	1348.48
1959.267	1313.89
1962.466	1326.77
1965.665	1315.13
1968.863	1317.45
1972.061	1313.51
1975.259	1311.47
1978.457	1352.7
1981.654	1332.87
1984.852	1332.72
1988.048	1310.41
1991.245	1299.76
1994.441	1349.15
1997.637	1320.42
2000.833	1311.47
2004.028	1326.04
2007.223	1363.38
2010.418	1352.57
2013.613	1328.48
2016.807	1323.76
2020.001	1322.98
2023.194	1333.27
2026.388	1321.74
2029.581	1293.06
2032.774	1329.04
2035.966	1335.93
2039.158	1305.32
2042.35	1317.42
2045.542	1278.36
2048.733	1321.14
2051.924	1310.66
2055.115	1319.82
2058.306	1303.61
2061.496	1332.47
2064.686	1359.05
2067.875	1303.21
2071.065	1303.34
2074.254	1312.97
2077.442	1289.34
2080.631	1334.46
2083.819	1299.94
2087.007	1297.1
2090.195	1290.08
2093.382	1292.31
2096.569	1289.81
2099.756	1266.1
2102.942	1301.23
2106.128	1306.64
2109.314	1302.8
2112.5	1295.01
2115.685	1276.16
2118.87	1279.68
2122.055	1318.97
2125.239	1303.74
2128.424	1298.51
2131.608	1328.91
2134.791	1318.96
2137.974	1337.84
2141.157	1331.62
2144.34	1316.95
2147.523	1307.44
2150.705	1327.05
2153.887	1305.58
2157.068	1289.73
2160.25	1278.16
2163.431	1292.73
2166.611	1274.88
2169.792	1288.55
2172.972	1234.88
2176.152	1268.45
2179.331	1279.89
2182.511	1280.78
2185.69	1288.7
2188.868	1292.58
2192.047	1312.95
2195.225	1328.82
2198.403	1296.12
2201.58	1287.19
2204.758	1279.25
2207.935	1324.04
2211.111	1275.77
2214.288	1268.2
2217.464	1286.54
2220.64	1267.16
2223.815	1291.91
2226.991	1252.02
2230.166	1257.34
2233.34	1281.85
2236.515	1291.64
2239.689	1331.72
2242.863	1301.31
2246.036	1329.27
2249.209	1321.65
2252.382	1335.31
2255.555	1337.25
2258.727	1314.45
2261.9	1331.98
2265.071	1329.16
2268.243	1331.69
2271.414	1302.39
2274.585	1290.03
2277.756	1323.39
2280.926	1304.14
2284.096	1321.59
2287.266	1282.06
2290.436	1310.31
2293.605	1317.23
2296.774	1337.14
2299.942	1344.01
2303.111	1351.42
2306.279	1381.78
2309.447	1373.53
2312.614	1361.15
2315.781	1368.48
2318.948	1358.14
2322.115	1381.16
2325.281	1320.87
2328.447	1327.06
2331.613	1310.11
2334.779	1304.86
2337.944	1300.56
2341.109	1300.55
2344.274	1295.14
2347.438	1275.43
2350.602	1288.56
2353.766	1294.6
2356.929	1290.87
2360.092	1311.61
2363.255	1290.4
2366.418	1276.87
2369.58	1297.79
2372.742	1282.32
2375.904	1270.22
2379.066	1266.51
2382.227	1278.31
2385.388	1256.69
2388.548	1228.72
2391.709	1245.86
2394.869	1245.67
2398.029	1275.99
2401.188	1266.79
2404.347	1256.33
2407.506	1250.25
2410.665	1283.78
2413.823	1272.2
2416.981	1265.73
2420.139	1276.79
2423.296	1296.36
2426.453	1282.66
2429.61	1294.52
2432.767	1280.06
2435.923	1300.73
2439.079	1273.19
2442.235	1291.92
2445.391	1257.79
2448.546	1280.53
2451.701	1297.74
2454.855	1294.36
2458.009	1311.98
2461.163	1305.14
2464.317	1285.96
2467.471	1299.84
2470.624	1322.47
2473.777	1312.81
2476.929	1323.6
2480.082	1335.21
2483.234	1326.01
2486.385	1293.18
2489.537	1289.05
2492.688	1282.65
2495.839	1295.92
2498.989	1302.66
2502.14	1296.25
2505.29	1287.51
2508.439	1303.19
2511.589	1271.72
2514.738	1271.96
2517.887	1281.45
2521.035	1326.88
2524.183	1300.45
2527.331	1294.29
2530.479	1287.32
2533.627	1291.95
