Data from N_1_DIV_OH_2N_Splice17_11-30-11-930.txt Node
Date: Sat Mar 14 11:30:11 EDT 2020
User: sa697716
Spectrometer: FLMS03696
Trigger mode: 0
Integration Time (sec): 3.180400E-1
Scans to average: 20
Electric dark correction enabled: true
Nonlinearity correction enabled: true
Boxcar width: 5
XAxis mode: Wavelengths
Number of Pixels in Spectrum: 2048
>>>>>Begin Spectral Data<<<<<
187.83	-117788.91
188.298	863.07
188.766	473.66
189.233	439.45
189.701	642.79
190.169	827.15
190.636	272.22
191.104	171.35
191.571	-5.46
192.039	-69.93
192.506	-56.51
192.974	167.98
193.441	-548.8
193.908	-299.74
194.375	-76.32
194.842	-1.39
195.31	24.91
195.777	85.58
196.244	177.17
196.711	164.88
197.177	173.9
197.644	201.61
198.111	326.36
198.578	447.18
199.045	368.01
199.511	589
199.978	633.48
200.445	548.28
200.911	582.1
201.378	579.87
201.844	539.6
202.31	899.58
202.777	913.62
203.243	494.63
203.709	487.78
204.176	581.7
204.642	489.98
205.108	440.84
205.574	346.79
206.04	311.67
206.506	292.78
206.972	262.97
207.438	249.3
207.903	271.19
208.369	245.04
208.835	252.82
209.301	255
209.766	241.11
210.232	230.83
210.697	265.21
211.163	301.95
211.628	440.33
212.094	392.94
212.559	552.23
213.024	368.74
213.49	464.32
213.955	433.51
214.42	390.24
214.885	367.17
215.35	390.3
215.815	409.91
216.28	431.57
216.745	340.19
217.21	358.65
217.675	284.13
218.14	299.19
218.604	288.8
219.069	308.57
219.534	333.94
219.998	345.75
220.463	356.32
220.927	363.42
221.392	314.09
221.856	303.18
222.32	311.67
222.785	361.4
223.249	421.83
223.713	447.83
224.177	395.45
224.642	418.25
225.106	469.79
225.57	472.76
226.034	379.22
226.497	532.08
226.961	530.82
227.425	642.27
227.889	674.52
228.353	626.02
228.816	1140.59
229.28	1148.51
229.744	932.97
230.207	597.78
230.671	603.07
231.134	792.49
231.597	929.79
232.061	856.86
232.524	788.67
232.987	538.22
233.45	526.38
233.914	473.74
234.377	414.17
234.84	349.83
235.303	355.72
235.766	363.03
236.229	408.89
236.691	225.14
237.154	217.9
237.617	163.76
238.08	145.44
238.542	136.93
239.005	116.34
239.468	135.08
239.93	144.15
240.393	150.9
240.855	146.28
241.317	142.68
241.78	165.17
242.242	187.55
242.704	232.49
243.166	210.97
243.629	227.43
244.091	255.99
244.553	269.93
245.015	304.39
245.477	381.71
245.939	503.6
246.4	549.23
246.862	544.47
247.324	473.82
247.786	478.62
248.247	589.67
248.709	454.89
249.17	355.65
249.632	433.37
250.093	533.56
250.555	417.42
251.016	304.05
251.477	278.87
251.939	310.99
252.4	322.6
252.861	366.06
253.322	376.11
253.783	426.3
254.244	535.35
254.705	362.43
255.166	278.87
255.627	291.74
256.088	396.3
256.549	448.28
257.009	349.19
257.47	422.88
257.931	345.92
258.391	277.5
258.852	305.63
259.312	305.74
259.773	368.99
260.233	365.05
260.694	328.09
261.154	348.31
261.614	304.9
262.074	276.69
262.534	303.06
262.994	305.79
263.455	372.49
263.915	312.27
264.374	301.77
264.834	317.08
265.294	305.68
265.754	304.15
266.214	274.8
266.673	239.02
267.133	285.81
267.593	262.2
268.052	302.33
268.512	261.72
268.971	368.39
269.431	367.2
269.89	329.41
270.349	514.38
270.809	586.39
271.268	557.52
271.727	1138.66
272.186	818.66
272.645	621.23
273.104	398.36
273.563	539.03
274.022	349.08
274.481	341.38
274.94	290
275.399	207.54
275.857	225.31
276.316	272.94
276.775	248.94
277.233	217.06
277.692	231.91
278.15	292.01
278.609	376.75
279.067	355.09
279.525	349
279.984	426.81
280.442	492.79
280.9	517.75
281.358	355.72
281.816	352.37
282.274	340.28
282.732	302.01
283.19	296.91
283.648	206.34
284.106	220.53
284.564	218.79
285.021	229.49
285.479	173.28
285.937	136.18
286.394	145.99
286.852	138.96
287.309	170.7
287.767	198.75
288.224	196.6
288.682	213.93
289.139	260.83
289.596	246.43
290.053	228.37
290.511	268.71
290.968	343.91
291.425	405.08
291.882	381.71
292.339	338.55
292.796	305.62
293.252	277.35
293.709	266.42
294.166	235.19
294.623	226.7
295.079	211.31
295.536	238.82
295.992	228.77
296.449	228.18
296.905	225.93
297.362	230.13
297.818	250.47
298.274	266.2
298.731	244.73
299.187	228.48
299.643	254.16
300.099	318.87
300.555	341.96
301.011	296.69
301.467	355.67
301.923	373.12
302.379	354.21
302.835	339.74
303.291	349.79
303.746	381
304.202	503.61
304.658	528.44
305.113	353.49
305.569	348.87
306.024	344.04
306.479	251.4
306.935	252.46
307.39	248.98
307.845	217.1
308.301	240.47
308.756	225.5
309.211	210.7
309.666	212.77
310.121	307.66
310.576	285.16
311.031	277.43
311.486	300.49
311.94	269.59
312.395	331.66
312.85	656.67
313.305	2170.27
313.759	16006.53
314.214	1113.15
314.668	844.15
315.123	735.6
315.577	328.77
316.032	284.55
316.486	355.82
316.94	291.19
317.394	223.42
317.849	179.69
318.303	178.11
318.757	174.35
319.211	190.68
319.665	166.22
320.119	153.85
320.572	196.28
321.026	200.25
321.48	166.12
321.934	166.87
322.387	161.28
322.841	195.24
323.295	216.85
323.748	196.63
324.202	216.08
324.655	250.18
325.108	428.7
325.562	337.03
326.015	383.28
326.468	307.12
326.921	350.47
327.374	367.97
327.827	375.94
328.28	383.53
328.733	289.46
329.186	249.5
329.639	249.52
330.092	186.61
330.545	179.04
330.997	187.18
331.45	229.97
331.903	284.44
332.355	440.3
332.808	434.76
333.26	389.1
333.713	426.96
334.165	423.85
334.617	537.56
335.069	398.99
335.522	609.37
335.974	706.6
336.426	547.24
336.878	329.58
337.33	192.66
337.782	151.49
338.234	194.73
338.686	214.15
339.137	245.56
339.589	248.43
340.041	218.01
340.493	194.91
340.944	183.33
341.396	212.56
341.847	211.39
342.299	257.54
342.75	389.24
343.201	291.27
343.653	319.31
344.104	413.64
344.555	319.01
345.006	421.36
345.457	406.33
345.908	316.76
346.359	294.62
346.81	249.02
347.261	241.1
347.712	204.06
348.163	211.52
348.613	262.62
349.064	214.12
349.515	190.58
349.965	221.82
350.416	234.67
350.866	251.53
351.317	268.11
351.767	407.29
352.217	476.2
352.668	400.36
353.118	401.99
353.568	277.64
354.018	302.63
354.468	303.96
354.918	227.66
355.368	197.09
355.818	286.81
356.268	773.68
356.718	4032.14
357.168	1093.29
357.617	547.95
358.067	552.42
358.517	578.4
358.966	657.56
359.416	856.9
359.865	954.08
360.315	1129.55
360.764	508.83
361.213	292.46
361.663	216.25
362.112	245.41
362.561	379.29
363.01	330.53
363.459	266.46
363.908	258.1
364.357	229.45
364.806	286.94
365.255	180.99
365.703	229.72
366.152	254.89
366.601	231.43
367.05	220.23
367.498	215.62
367.947	195.39
368.395	199.26
368.844	181.05
369.292	170.3
369.74	141.24
370.189	186.43
370.637	190.35
371.085	164.71
371.533	171.73
371.981	141.27
372.429	159.68
372.877	188.76
373.325	149.79
373.773	150.43
374.221	149.55
374.669	189.99
375.116	185.18
375.564	182.47
376.012	163.13
376.459	138.07
376.907	140.97
377.354	161.36
377.801	165.2
378.249	222.74
378.696	277.14
379.143	320.96
379.591	314.24
380.038	513.1
380.485	356.19
380.932	430.56
381.379	516.57
381.826	454.55
382.273	291.56
382.72	235.05
383.166	251.52
383.613	162.58
384.06	153.01
384.506	189
384.953	148.3
385.4	140.43
385.846	122.32
386.292	96.88
386.739	81.36
387.185	66.65
387.631	68.89
388.078	78.92
388.524	82.77
388.97	78.04
389.416	68.02
389.862	72.91
390.308	76.75
390.754	81.94
391.2	90.27
391.645	87.34
392.091	112.77
392.537	117.49
392.983	100.8
393.428	120.84
393.874	121.38
394.319	133.15
394.765	151.69
395.21	148.65
395.655	143.22
396.101	140.55
396.546	138.23
396.991	127.08
397.436	121.62
397.881	111.4
398.326	95.64
398.771	99.06
399.216	80.25
399.661	60.95
400.106	66.75
400.551	75.93
400.995	66.91
401.44	63.2
401.885	64.88
402.329	61
402.774	65.47
403.218	72.89
403.663	72.6
404.107	77.8
404.551	86.06
404.995	79.3
405.44	69.01
405.884	69.76
406.328	65.15
406.772	55.76
407.216	52.3
407.66	45.17
408.104	35.87
408.547	32.92
408.991	33.25
409.435	27.81
409.879	30.53
410.322	32.02
410.766	34
411.209	36.78
411.653	40.06
412.096	43.03
412.54	43.85
412.983	46.16
413.426	48.61
413.869	45.93
414.312	49.39
414.756	44.28
415.199	42.97
415.642	43.78
416.085	45.43
416.527	42.44
416.97	38.87
417.413	39.63
417.856	36.14
418.298	34.03
418.741	31
419.184	26.38
419.626	24.89
420.069	24.41
420.511	22.39
420.953	22.68
421.396	25.68
421.838	25.26
422.28	24.71
422.722	27.98
423.164	28.22
423.606	30.82
424.048	30.68
424.49	32.51
424.932	31.07
425.374	31.36
425.816	27.1
426.258	26.88
426.699	27.98
427.141	28.85
427.582	26.66
428.024	25.32
428.465	22.65
428.907	23.65
429.348	23.75
429.789	27.17
430.231	29.65
430.672	33.26
431.113	32.42
431.554	32.23
431.995	31.31
432.436	32.84
432.877	31.89
433.318	33.93
433.759	31.47
434.2	31.69
434.64	30.4
435.081	28.94
435.522	27.51
435.962	25.4
436.403	27.32
436.843	25.44
437.284	24.75
437.724	25.11
438.164	22.83
438.604	23.95
439.045	23.04
439.485	24.99
439.925	23.22
440.365	21.17
440.805	22.03
441.245	21.81
441.685	23.19
442.125	21.09
442.564	21.37
443.004	22.87
443.444	22.36
443.883	23.9
444.323	20.58
444.762	17.8
445.202	18.15
445.641	19.05
446.081	16.91
446.52	17.25
446.959	21.05
447.398	22.13
447.837	21.35
448.276	21.66
448.716	21.6
449.154	20.38
449.593	22.94
450.032	22.66
450.471	20.24
450.91	20.02
451.349	22.9
451.787	20.53
452.226	18.71
452.664	19.09
453.103	18.91
453.541	17.69
453.98	20.55
454.418	20.4
454.856	22.4
455.295	23.92
455.733	24.65
456.171	22.01
456.609	23.78
457.047	24.24
457.485	25.28
457.923	26.13
458.361	24.34
458.798	23.26
459.236	22.46
459.674	21.03
460.111	20.99
460.549	21.24
460.987	20.11
461.424	18.55
461.862	17.91
462.299	16.91
462.736	18.61
463.173	19.95
463.611	22.65
464.048	23.65
464.485	24.22
464.922	23.91
465.359	23.64
465.796	30.61
466.233	31.81
466.67	33.72
467.106	36.01
467.543	34.21
467.98	33.32
468.416	30.34
468.853	29.84
469.29	29.12
469.726	28.28
470.162	26.84
470.599	20.41
471.035	18.39
471.471	17.29
471.907	14.91
472.344	14.12
472.78	14.96
473.216	14.63
473.652	14.49
474.088	13.72
474.523	14.06
474.959	13.88
475.395	14.44
475.831	15.14
476.266	15.09
476.702	14.96
477.138	15.24
477.573	15.14
478.008	15.27
478.444	16.39
478.879	17.99
479.314	18.47
479.75	19.37
480.185	18.83
480.62	18.9
481.055	18.81
481.49	19.36
481.925	19.33
482.36	21.12
482.795	20.75
483.229	19.08
483.664	17.85
484.099	17.27
484.534	17.04
484.968	17.74
485.403	17.42
485.837	16.95
486.271	16.6
486.706	16.44
487.14	14.63
487.574	15.44
488.009	15.62
488.443	15.51
488.877	16.4
489.311	16.24
489.745	16.42
490.179	16.87
490.613	18.56
491.046	18.14
491.48	18.23
491.914	18.34
492.348	18.08
492.781	18.55
493.215	18.46
493.648	17.56
494.082	17.56
494.515	17.49
494.948	18.02
495.382	16.58
495.815	16.97
496.248	17.23
496.681	16.76
497.114	16.38
497.547	16.6
497.98	17.95
498.413	19.32
498.846	20.15
499.279	19.79
499.711	18.8
500.144	18.31
500.577	18.91
501.009	18.47
501.442	20.04
501.874	20.85
502.306	20.53
502.739	22.22
503.171	21.8
503.603	21.28
504.036	21.49
504.468	22
504.9	22.13
505.332	21.86
505.764	22.56
506.196	21.58
506.627	21.1
507.059	20.91
507.491	18.67
507.923	18.85
508.354	19.39
508.786	19.5
509.217	19.47
509.649	19.88
510.08	19.36
510.512	20.14
510.943	20.33
511.374	20.83
511.805	20.98
512.237	20.59
512.668	19.59
513.099	18.16
513.53	17.81
513.961	18.13
514.391	18.28
514.822	19.59
515.253	19.51
515.684	19.94
516.114	20.09
516.545	20.32
516.975	20.3
517.406	20.18
517.836	20.63
518.267	20.63
518.697	20.94
519.127	20.8
519.558	20.36
519.988	19.86
520.418	19.57
520.848	18.68
521.278	18.59
521.708	37.14
522.138	37.95
522.567	37.77
522.997	38.33
523.427	37.69
523.857	37.77
524.286	37.32
524.716	37.46
525.145	38
525.575	39.27
526.004	38.83
526.433	21.24
526.863	20.75
527.292	21.92
527.721	22.44
528.15	22.56
528.579	23.09
529.008	23.52
529.437	22.63
529.866	22.07
530.295	21.07
530.724	22.08
531.152	21.87
531.581	22.76
532.01	22.19
532.438	21.26
532.867	20.86
533.295	21.17
533.723	21.35
534.152	21.89
534.58	22.34
535.008	22.93
535.436	23.91
535.865	23.32
536.293	22.59
536.721	22.55
537.149	22.83
537.576	23.23
538.004	23.09
538.432	22.31
538.86	22.97
539.287	22.28
539.715	22.09
540.143	21.03
540.57	22.09
540.998	22.31
541.425	23.88
541.852	23.83
542.28	24.44
542.707	24
543.134	24.46
543.561	23.93
543.988	24.64
544.415	24.42
544.842	23.74
545.269	24.18
545.696	25
546.123	24.92
546.549	25.01
546.976	24.4
547.403	24.36
547.829	24.06
548.256	23.83
548.682	23.8
549.108	24.28
549.535	24.65
549.961	23.7
550.387	23.01
550.813	23.5
551.24	23.43
551.666	23.28
552.092	23.88
552.518	23.97
552.943	24.66
553.369	24.47
553.795	24.24
554.221	24.29
554.646	24.18
555.072	25.49
555.498	23.35
555.923	23.28
556.349	23.6
556.774	22.94
557.199	23.13
557.625	22.33
558.05	22.18
558.475	22.05
558.9	21.86
559.325	22.66
559.75	22.06
560.175	23.14
560.6	22.7
561.025	22.2
561.449	22.6
561.874	22.48
562.299	23.44
562.723	23.58
563.148	23.55
563.572	23.33
563.997	22.71
564.421	21.33
564.846	20.2
565.27	21.01
565.694	21.63
566.118	21.18
566.542	21.72
566.966	21.38
567.39	21.23
567.814	21.95
568.238	22.7
568.662	22.72
569.086	23.7
569.509	23.9
569.933	25.05
570.357	24.43
570.78	24.52
571.204	25.01
571.627	24.53
572.05	24.69
572.474	24.78
572.897	24.7
573.32	25.36
573.743	24.8
574.166	25.74
574.589	24.7
575.012	24.61
575.435	24.54
575.858	23.58
576.281	23.5
576.704	23.11
577.126	22.58
577.549	22.11
577.972	21.31
578.394	21.38
578.817	22.46
579.239	21.75
579.661	22.36
580.084	23
580.506	23.94
580.928	24.2
581.35	24.14
581.772	23.82
582.194	24.24
582.616	24.02
583.038	23.73
583.46	22.33
583.882	22.69
584.303	21.42
584.725	20.46
585.147	23.77
585.568	23.73
585.99	23.9
586.411	24.06
586.833	23.93
587.254	24.54
587.675	24.53
588.096	23.75
588.518	23.79
588.939	24.72
589.36	25
589.781	20.3
590.202	22.1
590.623	22.48
591.043	21.73
591.464	21.68
591.885	21.81
592.305	21.53
592.726	21.41
593.147	21.14
593.567	20.79
593.987	20.92
594.408	20.36
594.828	18.28
595.248	18.72
595.669	19.91
596.089	19.47
596.509	18.28
596.929	17.86
597.349	18.1
597.769	18.01
598.189	17.96
598.608	17.61
599.028	17.43
599.448	17.02
599.867	16.53
600.287	15.98
600.706	16.51
601.126	17.05
601.545	18.01
601.965	18.09
602.384	17.58
602.803	17.32
603.222	17.63
603.641	18.07
604.061	18.8
604.48	18.29
604.898	17.64
605.317	16.33
605.736	16.25
606.155	16.45
606.574	16.45
606.992	16.78
607.411	16.89
607.829	15.82
608.248	14.97
608.666	14.03
609.085	14.21
609.503	14.4
609.921	15.35
610.339	15.22
610.758	13.81
611.176	13.5
611.594	14.17
612.012	14.56
612.43	15.54
612.847	16.01
613.265	16.96
613.683	16.52
614.101	16.64
614.518	15.98
614.936	15.8
615.353	17.38
615.771	17.94
616.188	17.89
616.606	17.47
617.023	17.36
617.44	17.6
617.857	16.69
618.274	16.6
618.691	17.23
619.108	17.4
619.525	17.39
619.942	16.72
620.359	15.98
620.776	15.03
621.192	15.76
621.609	16.08
622.026	16.36
622.442	17.02
622.859	17.3
623.275	16.49
623.691	16.87
624.108	17.29
624.524	17.25
624.94	17.56
625.356	17.79
625.772	16.84
626.188	16.38
626.604	16.46
627.02	15.87
627.436	15.94
627.852	17.21
628.268	17.38
628.683	16.79
629.099	16.47
629.514	16.09
629.93	16.71
630.345	16.76
630.761	16.48
631.176	16.17
631.591	17.96
632.007	17.9
632.422	16.38
632.837	15.34
633.252	16.34
633.667	16.92
634.082	17.06
634.497	16.84
634.911	18.41
635.326	18.17
635.741	18.15
636.155	17.13
636.57	18.53
636.984	19.11
637.399	20.93
637.813	19.63
638.228	19.5
638.642	19.27
639.056	18.87
639.47	17.58
639.884	17.93
640.298	17.06
640.712	17.49
641.126	16.49
641.54	15.67
641.954	13.29
642.368	13.58
642.781	15.88
643.195	15.98
643.609	16.12
644.022	15.52
644.436	15.23
644.849	15.88
645.262	14.21
645.676	13.44
646.089	14.16
646.502	16.32
646.915	15.76
647.328	13.98
647.741	14.16
648.154	14.88
648.567	17.59
648.98	18.21
649.393	18.43
649.805	19.29
650.218	19.22
650.631	19.1
651.043	18.46
651.456	18.99
651.868	18.79
652.28	18.01
652.693	16.06
653.105	14.18
653.517	13.58
653.929	13.94
654.341	14.61
654.753	15.29
655.165	14.72
655.577	14.26
655.989	14.83
656.401	13.9
656.813	15.81
657.224	16.71
657.636	16.77
658.047	18.12
658.459	17.37
658.87	15.73
659.282	14.51
659.693	16.49
660.104	17.24
660.515	16.58
660.926	16.72
661.338	15.57
661.749	14.74
662.159	15.22
662.57	13.65
662.981	13.9
663.392	14.53
663.803	15.34
664.213	14.32
664.624	13.96
665.035	13.31
665.445	12.95
665.855	14.18
666.266	15.55
666.676	15.74
667.086	16.31
667.497	16.52
667.907	16.71
668.317	16.14
668.727	18.07
669.137	17.28
669.547	17.88
669.956	16.45
670.366	15.54
670.776	15.86
671.186	15.18
671.595	14.98
672.005	13.66
672.414	13.81
672.824	14.93
673.233	12.46
673.642	12.37
674.052	13.1
674.461	15.03
674.87	15.06
675.279	15.24
675.688	13.52
676.097	14.32
676.506	14.55
676.915	14.35
677.323	14.13
677.732	14.8
678.141	14.44
678.549	13.77
678.958	12.38
679.366	11.29
679.775	10.36
680.183	13.54
680.592	13.42
681	13.9
681.408	14
681.816	13.37
682.224	12.26
682.632	14.26
683.04	14.72
683.448	15.87
683.856	17.62
684.264	18.7
684.671	16.79
685.079	16.44
685.487	16.6
685.894	16.17
686.302	15.62
686.709	16.01
687.116	14.41
687.524	15.26
687.931	16.01
688.338	15.94
688.745	14.89
689.152	14.53
689.559	14.37
689.966	15.55
690.373	17.32
690.78	19.27
691.187	20.02
691.593	21.75
692	20.95
692.407	21.17
692.813	23.33
693.22	23
693.626	22.36
694.032	22.64
694.439	22.42
694.845	20.59
695.251	20.04
695.657	20.59
696.063	19.16
696.469	18.6
696.875	18.49
697.281	16.33
697.687	16.54
698.093	17.55
698.498	17.75
698.904	16.86
699.31	17.98
699.715	19.44
700.12	19.19
700.526	21
700.931	21.6
701.337	22.99
701.742	24.55
702.147	25
702.552	25.93
702.957	25.55
703.362	26.43
703.767	25.64
704.172	25.3
704.577	24.55
704.981	22.58
705.386	22.21
705.791	21.96
706.195	19.74
706.6	20.34
707.004	18.07
707.408	17.41
707.813	17.86
708.217	19.27
708.621	17.83
709.025	17.82
709.43	19.62
709.834	19.79
710.237	19.6
710.641	20.21
711.045	20.28
711.449	22.75
711.853	25.23
712.256	24.28
712.66	23.77
713.064	25.24
713.467	26.48
713.87	26.01
714.274	27.6
714.677	27.28
715.08	28.33
715.484	29.6
715.887	31.69
716.29	30.27
716.693	32.84
717.096	32.92
717.499	32.19
717.901	30.68
718.304	31.1
718.707	30.39
719.109	29.01
719.512	28.78
719.915	30.43
720.317	29.04
720.719	27.73
721.122	26.31
721.524	26.42
721.926	30.74
722.328	31.54
722.731	30.15
723.133	30.16
723.535	31.37
723.937	32
724.338	31.41
724.74	32.27
725.142	74.91
725.544	78.38
725.945	89.93
726.347	86.74
726.748	87.86
727.15	89.08
727.551	91.33
727.952	90.26
728.354	89.45
728.755	88.8
729.156	86.57
729.557	46.28
729.958	42.32
730.359	31.19
730.76	29.74
731.161	28.44
731.562	27.2
731.962	24.46
732.363	24.53
732.763	23.85
733.164	20.62
733.564	20.61
733.965	20.21
734.365	20.59
734.766	21.58
735.166	21.33
735.566	22.18
735.966	22.93
736.366	23.73
736.766	23.42
737.166	22.76
737.566	23.68
737.966	23.96
738.365	24.86
738.765	25.89
739.165	25.45
739.564	25.34
739.964	24.16
740.363	22.64
740.763	21.38
741.162	22.8
741.561	23.03
741.96	23.43
742.36	22.86
742.759	23.28
743.158	21.13
743.557	20.81
743.955	21.16
744.354	21.3
744.753	21.77
745.152	22.85
745.55	20.99
745.949	21.11
746.348	20.54
746.746	20.3
747.144	21.86
747.543	22.08
747.941	22.39
748.339	22.16
748.737	22.96
749.136	24.32
749.534	23.5
749.932	25.78
750.33	25.74
750.727	25.45
751.125	25.69
751.523	24.68
751.921	28.02
752.318	27.96
752.716	30.56
753.113	30.44
753.511	29.87
753.908	30.62
754.305	33.37
754.703	34.37
755.1	36.01
755.497	36.63
755.894	36.07
756.291	34.06
756.688	34.48
757.085	34.06
757.482	35.82
757.878	39.6
758.275	42.91
758.672	38
759.068	37.95
759.465	38.65
759.861	39.69
760.258	40.61
760.654	41.41
761.05	46.08
761.447	41.77
761.843	40.55
762.239	36.82
762.635	31.98
763.031	31.84
763.427	31.61
763.822	31.2
764.218	29.59
764.614	29.82
765.01	28.11
765.405	25.43
765.801	26.9
766.196	26.53
766.592	26.56
766.987	27.64
767.382	27.42
767.778	28.07
768.173	27.6
768.568	29.16
768.963	29.64
769.358	30.28
769.753	32.19
770.148	32.1
770.542	32.29
770.937	32.01
771.332	32.71
771.726	33.52
772.121	36.75
772.515	39.12
772.91	39.24
773.304	40.51
773.699	41.38
774.093	41.03
774.487	41.58
774.881	41.86
775.275	42.64
775.669	42.01
776.063	42.05
776.457	40.47
776.851	38.93
777.245	39.55
777.638	40.18
778.032	39.74
778.425	40.47
778.819	43.22
779.212	45.88
779.606	47.05
779.999	47.62
780.392	50.12
780.786	47.67
781.179	48.17
781.572	48.52
781.965	48.12
782.358	48.83
782.751	48.18
783.143	46.32
783.536	45.61
783.929	44.38
784.322	44.86
784.714	42.93
785.107	45.46
785.499	47.94
785.891	49.56
786.284	49.5
786.676	50.22
787.068	52.6
787.46	52.73
787.852	50.45
788.245	51.59
788.636	49.62
789.028	51.5
789.42	52.38
789.812	51.44
790.204	48.69
790.595	51.42
790.987	51.83
791.378	50.81
791.77	51
792.161	50.91
792.553	52.29
792.944	53.19
793.335	51.63
793.726	51.34
794.117	51.55
794.508	50.03
794.899	45.83
795.29	43.76
795.681	43.85
796.072	41.71
796.463	59.5
796.853	62.23
797.244	64.55
797.634	66.59
798.025	66.75
798.415	64.91
798.806	69.59
799.196	72.14
799.586	76.85
799.976	78.19
800.366	79.48
800.756	60.92
801.146	57.04
801.536	54.95
801.926	53.68
802.316	53.25
802.706	55.26
803.095	53.33
803.485	53.93
803.874	51.1
804.264	49.51
804.653	50.57
805.043	54.48
805.432	56.67
805.821	59.3
806.21	59.51
806.599	58.43
806.988	58.7
807.377	57.63
807.766	55.9
808.155	56.1
808.544	53.67
808.933	51.62
809.321	52.09
809.71	48.55
810.098	47.64
810.487	43.23
810.875	43.69
811.264	42.8
811.652	54.44
812.04	53.97
812.428	55.34
812.816	54.92
813.204	58.67
813.592	57.16
813.98	55.72
814.368	57.38
814.756	62.24
815.144	66.59
815.531	70.29
815.919	58.01
816.306	60.41
816.694	55.9
817.081	59.74
817.469	61.87
817.856	59.06
818.243	61.75
818.63	58.67
819.017	58.84
819.404	56.89
819.791	58.72
820.178	57.08
820.565	59.84
820.952	73.5
821.339	72.85
821.725	74.95
822.112	76.06
822.498	78.45
822.885	78.21
823.271	76.9
823.657	72.35
824.044	66.89
824.43	64.83
824.816	72.7
825.202	70.81
825.588	72.26
825.974	70.08
826.36	68.88
826.746	64.51
827.132	66.4
827.517	69.97
827.903	72.75
828.289	77.88
828.674	79.54
829.06	70.93
829.445	64.83
829.83	63.67
830.216	65.69
830.601	68.18
830.986	76.29
831.371	75.32
831.756	79.12
832.141	82.09
832.526	79.03
832.911	80.01
833.295	77.46
833.68	79.46
834.065	79.84
834.449	75.53
834.834	77.97
835.218	75.12
835.603	78.3
835.987	72.01
836.371	68.76
836.755	71.73
837.139	71.17
837.524	69.46
837.908	66.63
838.291	67.12
838.675	64.51
839.059	61.72
839.443	59.26
839.827	52.62
840.21	51.16
840.594	54.16
840.977	53.3
841.361	53.74
841.744	55.25
842.127	56.83
842.511	57.97
842.894	60.09
843.277	60.24
843.66	55.91
844.043	57.72
844.426	60.7
844.809	54.59
845.191	52.92
845.574	51.25
845.957	50.81
846.339	52.76
846.722	53.17
847.104	53.2
847.487	48.53
847.869	55.41
848.252	58.79
848.634	60.07
849.016	61.15
849.398	58.17
849.78	58.02
850.162	61.22
850.544	58.44
850.926	55.49
851.307	55.83
851.689	59.36
852.071	54.68
852.452	55.27
852.834	51.09
853.215	57.23
853.597	60.03
853.978	69.22
854.359	69.18
854.741	72.13
855.122	70.01
855.503	65.93
855.884	67.98
856.265	68.98
856.646	64.68
857.026	67.2
857.407	64.69
857.788	61.87
858.169	53.15
858.549	58.72
858.93	56.4
859.31	60.81
859.69	66.4
860.071	63.88
860.451	59.84
860.831	59.54
861.211	54.14
861.591	51.46
861.971	48.94
862.351	50.93
862.731	37.75
863.111	37.93
863.491	39.19
863.87	35.91
864.25	31.37
864.629	42.32
865.009	44.4
865.388	51.51
865.768	53.04
866.147	60.47
866.526	60.76
866.905	68.43
867.284	64.96
867.663	57.75
868.042	54.03
868.421	58.34
868.8	51.11
869.179	55.82
869.558	52.56
869.936	52.13
870.315	49.8
870.693	56.21
871.072	55.26
871.45	53.91
871.828	56.48
872.207	62.53
872.585	64.14
872.963	61.52
873.341	62.06
873.719	68.8
874.097	71.33
874.475	72.08
874.853	66.24
875.23	66.58
875.608	73.64
875.986	78.47
876.363	73.37
876.741	81.91
877.118	91.04
877.495	93.58
877.873	91.08
878.25	95.03
878.627	90.92
879.004	95.47
879.381	94.54
879.758	98.86
880.135	92.89
880.512	100.28
880.889	84.33
881.265	80.21
881.642	69.59
882.019	65.98
882.395	66.83
882.772	74.01
883.148	73.34
883.524	72.92
883.901	67.48
884.277	67.42
884.653	65.46
885.029	77.54
885.405	90.17
885.781	98.88
886.157	96.93
886.532	93.35
886.908	88.55
887.284	92.86
887.659	94.12
888.035	92.28
888.411	89.04
888.786	89.12
889.161	85.68
889.537	76.79
889.912	71.96
890.287	72.59
890.662	67.48
891.037	63.56
891.412	53.35
891.787	52.8
892.162	59.55
892.536	62.33
892.911	63.63
893.286	58.17
893.66	57.52
894.035	63.14
894.409	60.58
894.784	67.75
895.158	69.7
895.532	75.36
895.906	76.36
896.281	76.89
896.655	79.62
897.029	82.43
897.402	90.57
897.776	90.91
898.15	89.71
898.524	96.98
898.898	90.54
899.271	106.23
899.645	99.46
900.018	101.47
900.392	101.17
900.765	98.43
901.138	99.91
901.511	93.07
901.884	98.5
902.258	91.29
902.631	97.23
903.003	114.68
903.376	100.34
903.749	114.99
904.122	115.55
904.495	117.44
904.867	122
905.24	104.09
905.612	97.68
905.985	89.09
906.357	86.67
906.729	81.08
907.102	68.12
907.474	71.63
907.846	74.79
908.218	77.5
908.59	88.34
908.962	84.76
909.334	92.62
909.705	103.64
910.077	97.5
910.449	100.9
910.82	104.78
911.192	111.9
911.563	123.26
911.935	115.87
912.306	106.23
912.677	79.17
913.048	84.27
913.419	91.1
913.79	83.07
914.161	89.46
914.532	92.72
914.903	83.79
915.274	83.5
915.645	65.98
916.015	61.19
916.386	67.85
916.756	78.46
917.127	71.74
917.497	71.24
917.868	88.93
918.238	93.01
918.608	100.74
918.978	104.42
919.348	102.2
919.718	115.31
920.088	118.14
920.458	119.76
920.828	115.88
921.198	120.11
921.567	120.57
921.937	88.07
922.306	76.6
922.676	73.85
923.045	79.78
923.415	86.06
923.784	76.48
924.153	80.82
924.522	91.15
924.891	87.58
925.26	91.01
925.629	78.83
925.998	80.4
926.367	82.74
926.736	90.59
927.104	81.42
927.473	80.04
927.842	81.82
928.21	67.91
928.578	47.51
928.947	63.29
929.315	58.51
929.683	81.79
930.051	96.31
930.42	114.24
930.788	95.66
931.156	102.08
931.523	115.38
931.891	124.71
932.259	134.49
932.627	186.35
932.994	224.74
933.362	244.43
933.729	221.49
934.097	218.02
934.464	205.01
934.831	216.95
935.199	225.24
935.566	219.81
935.933	200.22
936.3	239.89
936.667	167.49
937.034	232.45
937.401	203.28
937.767	189.97
938.134	179.05
938.501	228.19
938.867	284.76
939.234	422.62
939.6	340.97
939.967	411.79
940.333	287.51
940.699	229.1
941.065	127.91
941.431	177.95
941.798	206.91
942.163	277.69
942.529	178.38
942.895	130.76
943.261	114.11
943.627	160.31
943.992	156.57
944.358	158.49
944.723	189.57
945.089	175.41
945.454	160.4
945.82	146.3
946.185	126.26
946.55	143.17
946.915	139.82
947.28	152.05
947.645	126.57
948.01	146.94
948.375	162.84
948.74	168.23
949.104	176.96
949.469	172.24
949.834	259.11
950.198	384.56
950.562	263.65
950.927	225.67
951.291	248.67
951.655	200
952.02	130.27
952.384	95.22
952.748	100.39
953.112	134.23
953.476	135.98
953.839	130.39
954.203	125.27
954.567	155.11
954.931	182.54
955.294	179.99
955.658	173.05
956.021	287.7
956.385	425.38
956.748	630.79
957.111	635.61
957.474	579.12
957.837	646.86
958.2	243.19
958.563	46.86
958.926	97.53
959.289	131.91
959.652	214.48
960.015	160.36
960.377	231.12
960.74	245.4
961.102	386.15
961.465	671.64
961.827	708.68
962.189	1440.6
962.552	1112.07
962.914	915.17
963.276	578.03
963.638	462.8
964	445.62
964.362	316.94
964.724	289.4
965.085	223.45
965.447	191.84
965.809	128.5
966.17	110.69
966.532	95.43
966.893	79.96
967.255	71.58
967.616	72.14
967.977	65.53
968.338	72.43
968.699	75.45
969.061	66
969.421	53.54
969.782	73.67
970.143	82.76
970.504	122.39
970.865	137.14
971.225	159.78
971.586	156.33
971.946	211.32
972.307	175.77
972.667	162.3
973.027	198.84
973.388	222.53
973.748	145.48
974.108	138.62
974.468	77.39
974.828	140.32
975.188	106.31
975.548	87.46
975.907	83.55
976.267	93.01
976.627	128.59
976.986	108.52
977.346	89.53
977.705	89.32
978.064	86.05
978.424	93.38
978.783	58.77
979.142	46.09
979.501	53.9
979.86	59.43
980.219	47.6
980.578	32.46
980.937	55.94
981.296	60.8
981.654	62.08
982.013	63.2
982.371	45.07
982.73	53.51
983.088	99
983.447	156.28
983.805	273.1
984.163	583.67
984.521	519.45
984.879	513.73
985.237	-1154.19
985.595	1666.9
985.953	456.05
986.311	229.93
986.669	132.22
987.026	88.07
987.384	32.16
987.741	-5.55
988.099	58.01
988.456	78.03
988.814	88.91
989.171	75.89
989.528	47.88
989.885	36.24
990.242	49.35
990.599	63.76
990.956	68.34
991.313	69.77
991.67	60.16
992.027	91.61
992.383	89.23
992.74	95.72
993.096	106.54
993.453	111.27
993.809	118.11
994.165	147.7
994.522	178.18
994.878	188.14
995.234	225.39
995.59	218.46
995.946	144.28
996.302	155.1
996.658	147.38
997.013	134.01
997.369	184.12
997.725	251.46
998.08	166.74
998.436	109.83
998.791	188.93
999.147	215.96
999.502	259.24
999.857	188.95
1000.212	251.18
1000.567	298.8
1000.922	231.55
1001.277	107.95
1001.632	118.3
1001.987	137.02
1002.342	126.65
1002.696	117.56
1003.051	118.65
1003.406	157
1003.76	141.42
1004.114	156.34
1004.469	157.88
1004.823	147.74
1005.177	164.24
1005.531	132.51
1005.885	145.76
1006.239	160.04
1006.593	196.31
1006.947	229.22
1007.301	142.57
1007.655	155.07
1008.008	116.57
1008.362	126.43
1008.715	140.05
1009.069	132.23
1009.422	246.47
1009.776	348.63
1010.129	193.74
1010.482	114.4
1010.835	69.53
1011.188	188.47
1011.541	240.65
1011.894	-1452.84
1012.247	4433.04
1012.6	303.59
1012.952	178.7
1013.305	33.9
1013.657	54.44
1014.01	53.09
1014.362	41.26
1014.715	91.04
1015.067	96.73
1015.419	95.24
1015.771	90.36
1016.123	89.83
1016.475	101.41
1016.827	100.31
1017.179	127.71
1017.531	116.29
1017.883	123.17
1018.234	184.08
1018.586	210.73
1018.938	252.49
1019.289	322.14
1019.64	329.17
1019.992	303.03
1020.343	261.42
1020.694	284.05
1021.045	232.8
1021.396	262.21
1021.747	317.61
1022.098	273.98
1022.449	199.81
1022.8	161.2
1023.151	145.92
1023.501	154.95
1023.852	161.52
1024.202	193.22
1024.553	149.83
1024.903	189.06
1025.253	198.71
1025.604	192.77
1025.954	241.06
1026.304	272.81
1026.654	327.66
1027.004	433.33
1027.354	584.34
1027.703	584.82
1028.053	645.48
1028.403	1123.13
1028.753	1322.29
1029.102	1132.06
1029.452	2050.12
1029.801	42.58
1030.15	35.38
1030.499	-20.05
897.758	1555.35
901.051	1499.33
904.343	1526.32
907.636	1529.98
910.928	1575.15
914.22	1518.11
917.511	1523.82
920.803	1556.82
924.094	1547.63
927.384	1552.91
930.675	1527.23
933.965	1504.66
937.255	1531.05
940.544	1511.14
943.834	1505.97
947.123	1463.45
950.411	1526.08
953.7	1514.52
956.988	1505.15
960.276	1453.31
963.563	1483.9
966.851	1489.86
970.138	1516.51
973.424	1517.08
976.711	1480.94
979.997	1514.78
983.283	1543.53
986.568	1499.79
989.853	1487.94
993.138	1503.79
996.423	1570.52
999.708	1541.05
1002.992	1560.34
1006.275	1496.54
1009.559	1497.71
1012.842	1564.23
1016.125	1535.61
1019.408	1519.02
1022.69	1554.13
1025.972	1576.66
1029.254	1558
1032.536	1535.4
1035.817	1539.45
1039.098	1518.83
1042.379	1550.86
1045.659	1567.79
1048.939	1533.22
1052.219	1530.81
1055.498	1523.95
1058.778	1516.61
1062.057	1499.2
1065.335	1517.79
1068.614	1522.57
1071.892	1514.87
1075.17	1551.65
1078.447	1555.73
1081.724	1551.99
1085.001	1565.48
1088.278	1550.88
1091.554	1551.7
1094.83	1551.7
1098.106	1575.87
1101.382	1594.37
1104.657	1590.72
1107.932	1592.48
1111.206	1576.65
1114.481	1541.31
1117.755	1543.5
1121.029	1538.4
1124.302	1579.47
1127.575	1560.13
1130.848	1558.03
1134.121	1540.15
1137.393	1510.36
1140.665	1551.8
1143.937	1536.5
1147.208	1500.85
1150.48	1542.63
1153.75	1533.77
1157.021	1533.72
1160.291	1517.03
1163.561	1553.62
1166.831	1527.68
1170.101	1541.57
1173.37	1514.43
1176.639	1487.64
1179.907	1519.16
1183.176	1532.27
1186.444	1534.05
1189.711	1548.96
1192.979	1566.89
1196.246	1539.54
1199.513	1548.44
1202.78	1551.44
1206.046	1557.94
1209.312	1578.74
1212.578	1585.17
1215.843	1560.78
1219.108	1544.33
1222.373	1557.54
1225.638	1541.21
1228.902	1532.86
1232.166	1505.65
1235.43	1496.56
1238.693	1518.71
1241.956	1513.91
1245.219	1549.81
1248.482	1538.68
1251.744	1539.75
1255.006	1615.5
1258.268	1581.56
1261.529	1556.47
1264.79	1554.31
1268.051	1618.11
1271.312	1625.45
1274.572	1601.38
1277.832	1593.04
1281.092	1575.88
1284.351	1573.87
1287.61	1564.6
1290.869	1524.93
1294.128	1524.76
1297.386	1548.66
1300.644	1546.12
1303.902	1553.18
1307.159	1462.8
1310.416	1497.75
1313.673	1514.23
1316.93	1518.52
1320.186	1535.19
1323.442	1554.88
1326.697	1557.09
1329.953	1539.92
1333.208	1566.6
1336.463	1550.2
1339.717	1527.98
1342.972	1602.72
1346.226	1582.43
1349.479	1558.06
1352.733	1541.15
1355.986	1549.64
1359.238	1537.65
1362.491	1541.19
1365.743	1538.84
1368.995	1537.77
1372.247	1547.07
1375.498	1557.32
1378.749	1587.54
1382	1558.65
1385.251	1576.48
1388.501	1549.5
1391.751	1547.73
1395	1531.6
1398.25	1547.92
1401.499	1571.37
1404.748	1536.96
1407.996	1527.86
1411.244	1524.49
1414.492	1514.24
1417.74	1504.63
1420.987	1511.12
1424.234	1550.73
1427.481	1524.77
1430.728	1558.69
1433.974	1545.37
1437.22	1541.8
1440.465	1536.25
1443.711	1539.5
1446.956	1550.77
1450.201	1532.75
1453.445	1560.82
1456.689	1551.58
1459.933	1559.13
1463.177	1586.73
1466.42	1571.26
1469.663	1557.41
1472.906	1567.78
1476.148	1601.67
1479.391	1569.77
1482.633	1557.3
1485.874	1572.67
1489.115	1578.95
1492.356	1565.47
1495.597	1549.88
1498.838	1541.4
1502.078	1533.05
1505.318	1518.47
1508.557	1536.37
1511.797	1533.94
1515.036	1571.17
1518.274	1543.29
1521.513	1505.73
1524.751	1511.62
1527.989	1525.96
1531.227	1538.6
1534.464	1544.74
1537.701	1538.81
1540.938	1542.97
1544.174	1508.44
1547.41	1498.11
1550.646	1522.57
1553.882	1554.21
1557.117	1595.41
1560.352	1597.9
1563.587	1570.81
1566.821	1549.67
1570.055	1562.52
1573.289	1543.65
1576.523	1579.52
1579.756	1587.49
1582.989	1602.12
1586.222	1573.03
1589.454	1593.35
1592.686	1585.6
1595.918	1602.66
1599.15	1600.31
1602.381	1630.88
1605.612	1619.48
1608.843	1680.27
1612.073	1628.92
1615.303	1622.55
1618.533	1620.35
1621.762	1620.1
1624.992	1600.39
1628.221	1597.13
1631.449	1589.39
1634.678	1607.62
1637.906	1581.84
1641.134	1595.47
1644.361	1574.17
1647.588	1567.44
1650.815	1585.01
1654.042	1559.11
1657.269	1575.04
1660.495	1566.33
1663.72	1553.79
1666.946	1534.32
1670.171	1521.13
1673.396	1501.94
1676.621	1492.54
1679.845	1489.75
1683.069	1492.89
1686.293	1509.86
1689.517	1504.81
1692.74	1477.61
1695.963	1490.44
1699.185	1518.92
1702.408	1500.48
1705.63	1519.21
1708.852	1532.35
1712.073	1509.76
1715.294	1521.87
1718.515	1552.53
1721.736	1524.59
1724.956	1513.85
1728.176	1529.98
1731.396	1543.21
1734.616	1538.79
1737.835	1569.71
1741.054	1544.09
1744.272	1542.51
1747.491	1572.94
1750.709	1583.75
1753.927	1555.4
1757.144	1573.22
1760.361	1613.13
1763.578	1593.32
1766.795	1560.13
1770.011	1549.24
1773.227	1562.79
1776.443	1594.42
1779.658	1620.78
1782.874	1583.86
1786.089	1580.83
1789.303	1581.04
1792.518	1579.18
1795.732	1571.73
1798.945	1580.68
1802.159	1610.82
1805.372	1575.24
1808.585	1570.91
1811.797	1571.78
1815.01	1588.25
1818.222	1607.94
1821.434	1578.06
1824.645	1604.31
1827.856	1612.08
1831.067	1629.78
1834.278	1589.53
1837.488	1579.15
1840.698	1661.01
1843.908	1629.09
1847.117	1610.93
1850.326	1564.85
1853.535	1600.11
1856.744	1629.13
1859.952	1578.77
1863.16	1582.1
1866.368	1597.64
1869.575	1679.52
1872.782	1600.74
1875.989	1557.39
1879.196	1588.46
1882.402	1584.45
1885.608	1605.3
1888.814	1572.08
1892.019	1513.33
1895.224	1553.73
1898.429	1529.79
1901.634	1517.56
1904.838	1502.93
1908.042	1544.07
1911.246	1557.14
1914.449	1534.45
1917.652	1521.24
1920.855	1507.38
1924.058	1520.82
1927.26	1555.73
1930.462	1569.05
1933.664	1597.07
1936.865	1561.71
1940.066	1570.1
1943.267	1530.32
1946.467	1536.86
1949.668	1547.16
1952.868	1596.96
1956.067	1597
1959.267	1555.88
1962.466	1572.13
1965.665	1555.67
1968.863	1554.22
1972.061	1549.35
1975.259	1545.27
1978.457	1598.6
1981.654	1568.65
1984.852	1569
1988.048	1540.36
1991.245	1527.69
1994.441	1590.6
1997.637	1551.92
2000.833	1545.54
2004.028	1567.98
2007.223	1618.13
2010.418	1607.98
2013.613	1571.83
2016.807	1571.65
2020.001	1569.27
2023.194	1580.22
2026.388	1569.05
2029.581	1529.93
2032.774	1579.11
2035.966	1583.74
2039.158	1546.99
2042.35	1557.13
2045.542	1506.31
2048.733	1560.21
2051.924	1546.82
2055.115	1555.49
2058.306	1535.22
2061.496	1570.52
2064.686	1604.73
2067.875	1536.17
2071.065	1535.37
2074.254	1548.71
2077.442	1517.11
2080.631	1574
2083.819	1535.26
2087.007	1534.87
2090.195	1525.27
2093.382	1529.82
2096.569	1524.48
2099.756	1497.3
2102.942	1539.3
2106.128	1547
2109.314	1539.76
2112.5	1533.84
2115.685	1507.72
2118.87	1513.38
2122.055	1556.1
2125.239	1542.97
2128.424	1537.09
2131.608	1570.89
2134.791	1558.43
2137.974	1580.67
2141.157	1574.36
2144.34	1557.88
2147.523	1544.32
2150.705	1568.97
2153.887	1542.68
2157.068	1526.28
2160.25	1509.75
2163.431	1525.62
2166.611	1507.22
2169.792	1525.21
2172.972	1462.57
2176.152	1500.15
2179.331	1514.35
2182.511	1519.7
2185.69	1530.98
2188.868	1534.48
2192.047	1557.79
2195.225	1577.03
2198.403	1537.71
2201.58	1528.2
2204.758	1513.88
2207.935	1567
2211.111	1511.62
2214.288	1502.4
2217.464	1525.85
2220.64	1497.76
2223.815	1531.06
2226.991	1482.83
2230.166	1490.95
2233.34	1524.59
2236.515	1532.38
2239.689	1581.14
2242.863	1546.08
2246.036	1579.21
2249.209	1568.61
2252.382	1582.86
2255.555	1588.4
2258.727	1558.52
2261.9	1577.14
2265.071	1574.31
2268.243	1572.38
2271.414	1539
2274.585	1527.06
2277.756	1568.56
2280.926	1541.44
2284.096	1559.68
2287.266	1511.73
2290.436	1547.44
2293.605	1558.09
2296.774	1586.66
2299.942	1587.62
2303.111	1599.21
2306.279	1636.25
2309.447	1628.31
2312.614	1611.92
2315.781	1626.4
2318.948	1610.83
2322.115	1638
2325.281	1561.2
2328.447	1565.64
2331.613	1543.09
2334.779	1540.99
2337.944	1536.68
2341.109	1537.21
2344.274	1529.82
2347.438	1504.51
2350.602	1519.55
2353.766	1526.88
2356.929	1520.78
2360.092	1548.32
2363.255	1527.14
2366.418	1511.85
2369.58	1539.85
2372.742	1514.15
2375.904	1498.28
2379.066	1492.76
2382.227	1508.6
2385.388	1480.86
2388.548	1450.83
2391.709	1473.58
2394.869	1471.73
2398.029	1503.43
2401.188	1494.18
2404.347	1479.95
2407.506	1478.6
2410.665	1519.87
2413.823	1503.86
2416.981	1494.34
2420.139	1504.6
2423.296	1530.36
2426.453	1514.6
2429.61	1528.8
2432.767	1513.97
2435.923	1541.06
2439.079	1504.12
2442.235	1527.67
2445.391	1486.5
2448.546	1518.37
2451.701	1541.4
2454.855	1542.93
2458.009	1557.72
2461.163	1546.92
2464.317	1526.89
2467.471	1544.72
2470.624	1566.54
2473.777	1558.55
2476.929	1571.47
2480.082	1586.85
2483.234	1573.23
2486.385	1529.32
2489.537	1523.22
2492.688	1520.68
2495.839	1536.46
2498.989	1545.12
2502.14	1537.83
2505.29	1531.03
2508.439	1549.17
2511.589	1510.22
2514.738	1509.06
2517.887	1520.51
2521.035	1577.29
2524.183	1544.58
2527.331	1539.29
2530.479	1533.92
2533.627	1537.61
