Data from N_1_DEC_NC_4N_Splice17_11-36-16-207.txt Node
Date: Sat Mar 14 11:36:16 EDT 2020
User: sa697716
Spectrometer: FLMS03696
Trigger mode: 0
Integration Time (sec): 3.180400E-1
Scans to average: 20
Electric dark correction enabled: true
Nonlinearity correction enabled: true
Boxcar width: 5
XAxis mode: Wavelengths
Number of Pixels in Spectrum: 2048
>>>>>Begin Spectral Data<<<<<
187.83	-99028.48
188.298	976.59
188.766	591.74
189.233	516.4
189.701	750.27
190.169	1003.64
190.636	344.99
191.104	320.48
191.571	53.98
192.039	-46.58
192.506	-58.89
192.974	316.3
193.441	-190.77
193.908	98.61
194.375	25.63
194.842	88.58
195.31	174.46
195.777	151.6
196.244	263.27
196.711	163.46
197.177	138.63
197.644	85.18
198.111	109.43
198.578	118.17
199.045	76.43
199.511	80.83
199.978	3.03
200.445	19.16
200.911	-16.31
201.378	-99.54
201.844	-91.81
202.31	-223.82
202.777	-216.91
203.243	-129.05
203.709	-138.67
204.176	-151.19
204.642	-94.03
205.108	-68.87
205.574	-60.85
206.04	-65.3
206.506	-50.27
206.972	-68.55
207.438	-54.94
207.903	-78.74
208.369	-46
208.835	-30.79
209.301	-39.15
209.766	-73.28
210.232	-74.71
210.697	-129.75
211.163	-191.09
211.628	-327.49
212.094	-185.93
212.559	-155.01
213.024	-74.25
213.49	-90.78
213.955	-95.73
214.42	-115.98
214.885	-78.97
215.35	-60.15
215.815	18.28
216.28	31
216.745	29.92
217.21	41.39
217.675	1.56
218.14	13.42
218.604	10.43
219.069	13.73
219.534	47.93
219.998	21.3
220.463	27.36
220.927	-40.46
221.392	-21.31
221.856	-5.58
222.32	-56.48
222.785	-42.77
223.249	-79.01
223.713	-92.89
224.177	-105.71
224.642	-194.78
225.106	-197.64
225.57	-219.76
226.034	-83.6
226.497	-180.25
226.961	-112.08
227.425	-101.62
227.889	-129.57
228.353	-121.82
228.816	-286.05
229.28	-209
229.744	-180.73
230.207	-43.3
230.671	-50.6
231.134	-280.77
231.597	-182.72
232.061	-281.77
232.524	-327.89
232.987	-202.4
233.45	-139.66
233.914	-105.34
234.377	-144.13
234.84	-134.06
235.303	-201.57
235.766	-254.26
236.229	-222.88
236.691	-182.39
237.154	-207.5
237.617	-123.47
238.08	-148.35
238.542	-194.2
239.005	-118.64
239.468	-102.82
239.93	-83.39
240.393	-68.38
240.855	-51.26
241.317	-65.66
241.78	-98.15
242.242	-88.74
242.704	-67.5
243.166	-44.18
243.629	-8.24
244.091	-26.28
244.553	-34.3
245.015	-24.02
245.477	-43.4
245.939	-74.85
246.4	-50.51
246.862	-37.03
247.324	-55.2
247.786	-96.47
248.247	-198.73
248.709	-347.82
249.17	-246.06
249.632	-139.6
250.093	-117
250.555	-80.85
251.016	-21.66
251.477	-20.76
251.939	-12.29
252.4	-19
252.861	-56.53
253.322	-6.71
253.783	-12
254.244	-51.44
254.705	-95.57
255.166	-128.56
255.627	-142.38
256.088	-207.72
256.549	-217.56
257.009	-189.75
257.47	-260.55
257.931	-216.36
258.391	-159.02
258.852	-166.31
259.312	-162.71
259.773	-227.06
260.233	-161.17
260.694	-117.97
261.154	-150.87
261.614	-61.51
262.074	-58.21
262.534	-30.43
262.994	-21.7
263.455	-50.68
263.915	-20.69
264.374	-8.99
264.834	13.34
265.294	-7.97
265.754	3.98
266.214	21.85
266.673	-8.74
267.133	-31.2
267.593	-51.68
268.052	-49.3
268.512	-47.27
268.971	0.43
269.431	-18.15
269.89	-43.47
270.349	-51.83
270.809	-48.94
271.268	-46.36
271.727	-192.67
272.186	-52.33
272.645	-47.3
273.104	-93.3
273.563	-154.88
274.022	-200.04
274.481	-138.51
274.94	-84.23
275.399	-62.16
275.857	-106.46
276.316	-186.43
276.775	-176.16
277.233	-180.1
277.692	-132.9
278.15	-121.91
278.609	-74.32
279.067	-76.35
279.525	-51.1
279.984	-101.79
280.442	-133.63
280.9	-19.13
281.358	11.95
281.816	31.25
282.274	10.7
282.732	-62.4
283.19	-65.44
283.648	-78.49
284.106	-92.16
284.564	-118.21
285.021	-76.62
285.479	-57.54
285.937	-99.4
286.394	-77.79
286.852	-89.12
287.309	-98.31
287.767	-44.81
288.224	-25.72
288.682	-27
289.139	-1.19
289.596	-1.53
290.053	-27.1
290.511	-46.2
290.968	-41.21
291.425	-72.48
291.882	-8.96
292.339	28.97
292.796	-0.97
293.252	-19.92
293.709	17.02
294.166	2.6
294.623	2.21
295.079	-1.77
295.536	6.78
295.992	13.05
296.449	19.97
296.905	32.33
297.362	47.44
297.818	49.28
298.274	65.84
298.731	40.25
299.187	33.83
299.643	24.79
300.099	35.02
300.555	33.88
301.011	52.76
301.467	110.36
301.923	59.74
302.379	62.28
302.835	38.98
303.291	24.8
303.746	3.93
304.202	-7.9
304.658	7.4
305.113	7.66
305.569	14
306.024	-23.42
306.479	-102.47
306.935	-46
307.39	-91.52
307.845	-60.56
308.301	-37.47
308.756	-41.72
309.211	-32.92
309.666	-59.9
310.121	-47.32
310.576	-87.34
311.031	-116.93
311.486	-165.83
311.94	-230.14
312.395	-324.48
312.85	-709.03
313.305	-4429.48
313.759	-17857.67
314.214	-1355.71
314.668	-952.64
315.123	-731.93
315.577	-192.74
316.032	-144.84
316.486	-169.31
316.94	-80.21
317.394	-8.06
317.849	17.51
318.303	-2.39
318.757	1.68
319.211	16.77
319.665	20.06
320.119	4.34
320.572	-30.13
321.026	-5.82
321.48	1.14
321.934	-20.47
322.387	-45.33
322.841	-51.08
323.295	25.51
323.748	-15.01
324.202	-6.41
324.655	14.4
325.108	75.82
325.562	93.68
326.015	67.49
326.468	56.63
326.921	77.26
327.374	100.4
327.827	119.07
328.28	89.55
328.733	80.29
329.186	63.27
329.639	45.43
330.092	31.06
330.545	35.3
330.997	53.67
331.45	79.19
331.903	91.28
332.355	92.55
332.808	39.08
333.26	17.64
333.713	13.17
334.165	-5.81
334.617	-26.43
335.069	-90.23
335.522	-303.37
335.974	-376.32
336.426	-426.04
336.878	-369.74
337.33	-151.33
337.782	-129.65
338.234	-104.67
338.686	-164.28
339.137	-175.88
339.589	-162.49
340.041	-77.99
340.493	-35.14
340.944	-28.06
341.396	-16.51
341.847	39.49
342.299	58.07
342.75	103.82
343.201	38.78
343.653	47.26
344.104	-11.72
344.555	-21.83
345.006	-132.15
345.457	-50.1
345.908	-53.91
346.359	-16.59
346.81	-22.21
347.261	-63.91
347.712	-92.57
348.163	-115.46
348.613	-45.31
349.064	-29.17
349.515	-22.37
349.965	-13.32
350.416	-35.08
350.866	-49.68
351.317	-143.75
351.767	-245.59
352.217	-274.37
352.668	-199.44
353.118	-164.92
353.568	-316.74
354.018	-170.04
354.468	-133.53
354.918	-72.63
355.368	-81.01
355.818	-134.34
356.268	-424.45
356.718	-1411.66
357.168	-268.14
357.617	-134.68
358.067	-212.58
358.517	-162.99
358.966	-190.95
359.416	-175.96
359.865	-222.93
360.315	-329.37
360.764	-126.71
361.213	-46.52
361.663	-92.37
362.112	-164.61
362.561	-344.29
363.01	-226.04
363.459	-179.37
363.908	-250.35
364.357	-189.14
364.806	-361.24
365.255	-247.67
365.703	-177.23
366.152	-148.92
366.601	-82.25
367.05	-14.77
367.498	26.57
367.947	24.49
368.395	26.81
368.844	36.96
369.292	-5
369.74	16.99
370.189	15.65
370.637	-6.23
371.085	-25.57
371.533	-47.53
371.981	-124.06
372.429	-108.84
372.877	-124.35
373.325	-101.24
373.773	-95.94
374.221	-100.23
374.669	-140.85
375.116	-114.42
375.564	-121.69
376.012	-127.48
376.459	-94.66
376.907	-80.39
377.354	-144.92
377.801	-106.32
378.249	-96.21
378.696	-195.5
379.143	-216.57
379.591	-196.12
380.038	-276.24
380.485	-202.76
380.932	-324.33
381.379	-250.75
381.826	-141.87
382.273	-89.83
382.72	-78
383.166	-68.04
383.613	-14.77
384.06	-3.85
384.506	-2.42
384.953	-8.96
385.4	-18.81
385.846	-5.96
386.292	-28.69
386.739	-51.86
387.185	-57.78
387.631	-60.83
388.078	-44.52
388.524	-42.93
388.97	-35.94
389.416	-28.47
389.862	-22.25
390.308	-14.35
390.754	-4.97
391.2	-8.4
391.645	-11.18
392.091	18.55
392.537	16.95
392.983	-6.91
393.428	7.48
393.874	-6.43
394.319	11.45
394.765	24.12
395.21	5.88
395.655	-0.4
396.101	5.4
396.546	12.86
396.991	-3.35
397.436	-3.65
397.881	-7.84
398.326	-22.2
398.771	-6.93
399.216	-19.26
399.661	-24.32
400.106	-14.48
400.551	-8.32
400.995	-4.42
401.44	-4.95
401.885	-4.85
402.329	-7.07
402.774	0.21
403.218	16.41
403.663	13.35
404.107	14.98
404.551	20.33
404.995	22.58
405.44	18.24
405.884	15.55
406.328	11.17
406.772	10.67
407.216	14.32
407.66	10.06
408.104	-2.43
408.547	-4.92
408.991	-3.87
409.435	-7.41
409.879	-5.76
410.322	-5.54
410.766	-1.89
411.209	4.83
411.653	5.44
412.096	5.82
412.54	3
412.983	6.2
413.426	13.27
413.869	10.54
414.312	13.87
414.756	8.36
415.199	7.98
415.642	8.71
416.085	7.49
416.527	5.33
416.97	2.89
417.413	6.73
417.856	3.72
418.298	-1.64
418.741	-1.94
419.184	-5.68
419.626	-7.94
420.069	-7.84
420.511	-9.1
420.953	-8.48
421.396	-6.69
421.838	-7.33
422.28	-8.41
422.722	-4.24
423.164	-5.69
423.606	-2.22
424.048	-1.97
424.49	0.35
424.932	-0.9
425.374	-2.16
425.816	-5.29
426.258	-6.28
426.699	-4.77
427.141	-2.51
427.582	-6.89
428.024	-6.74
428.465	-10.66
428.907	-9.26
429.348	-10.22
429.789	-8.69
430.231	-6.52
430.672	-4.46
431.113	-3.09
431.554	-3.79
431.995	-3.77
432.436	-0.6
432.877	2.35
433.318	5.92
433.759	3.55
434.2	2.23
434.64	1.76
435.081	2.59
435.522	3.8
435.962	3.07
436.403	4.92
436.843	0.48
437.284	-2.15
437.724	-5.97
438.164	-10.01
438.604	-9.14
439.045	-3.74
439.485	-1.76
439.925	-3.52
440.365	-4.86
440.805	-5.68
441.245	-3.77
441.685	-2.85
442.125	-3.23
442.564	-3.02
443.004	-0.63
443.444	0.5
443.883	0.3
444.323	-2.28
444.762	-5.53
445.202	-6.99
445.641	-5.4
446.081	-8.84
446.52	-7.97
446.959	-7.22
447.398	-4.82
447.837	-5.9
448.276	-7.49
448.716	-7.35
449.154	-7.68
449.593	-3.83
450.032	-3.22
450.471	-6.31
450.91	-6.96
451.349	-4.79
451.787	-4.99
452.226	-6.47
452.664	-5.14
453.103	-4.88
453.541	-6.82
453.98	-3.91
454.418	-5.33
454.856	-2.18
455.295	-0.27
455.733	1.41
456.171	0.92
456.609	2.99
457.047	3.13
457.485	3.83
457.923	6.1
458.361	5.29
458.798	3.17
459.236	3.68
459.674	0.98
460.111	1.47
460.549	1.96
460.987	0.34
461.424	-1.52
461.862	-1.32
462.299	-1.94
462.736	-0.93
463.173	-0.39
463.611	4.13
464.048	4.98
464.485	5.68
464.922	5.29
465.359	4.11
465.796	11.96
466.233	13.16
466.67	15.82
467.106	17.21
467.543	14.53
467.98	14.26
468.416	11.99
468.853	10.64
469.29	9.61
469.726	8.75
470.162	8.68
470.599	3.18
471.035	1.5
471.471	0.09
471.907	-2.19
472.344	-2.07
472.78	-1.53
473.216	-3.77
473.652	-3.41
474.088	-3.86
474.523	-3.63
474.959	-4.26
475.395	-4.68
475.831	-4.22
476.266	-4.79
476.702	-4.93
477.138	-4.84
477.573	-4.55
478.008	-3.96
478.444	-2.67
478.879	-0.39
479.314	0.51
479.75	0.86
480.185	0.37
480.62	0.13
481.055	0.43
481.49	1.54
481.925	2.05
482.36	3.55
482.795	3.29
483.229	2.3
483.664	1.39
484.099	0.8
484.534	1.9
484.968	2.63
485.403	2.09
485.837	1.12
486.271	0.47
486.706	-0.08
487.14	-1.45
487.574	-0.33
488.009	0.01
488.443	-0.37
488.877	0.43
489.311	-0.67
489.745	-0.63
490.179	0.69
490.613	2.51
491.046	2.63
491.48	2.6
491.914	2.91
492.348	1.94
492.781	1.44
493.215	1.77
493.648	0.73
494.082	0.66
494.515	0.81
494.948	0.93
495.382	-0.58
495.815	-0.58
496.248	0.28
496.681	-0.24
497.114	-0.72
497.547	-0.05
497.98	0.85
498.413	2.7
498.846	3.18
499.279	2.56
499.711	2.01
500.144	2.04
500.577	2.83
501.009	1.91
501.442	2.38
501.874	3.77
502.306	3.42
502.739	4.62
503.171	3.23
503.603	3.36
504.036	3.62
504.468	3.73
504.9	3.84
505.332	3.64
505.764	4.61
506.196	4
506.627	3.7
507.059	3.66
507.491	1.31
507.923	1.63
508.354	1.93
508.786	1.81
509.217	1.92
509.649	2.3
510.08	1.57
510.512	1.87
510.943	2.52
511.374	2.34
511.805	2.11
512.237	2.03
512.668	1.4
513.099	0.35
513.53	0.31
513.961	0.58
514.391	0.03
514.822	1.54
515.253	1.4
515.684	1.36
516.114	1.46
516.545	1.83
516.975	2.26
517.406	2.64
517.836	2.69
518.267	3.24
518.697	3.98
519.127	4.31
519.558	3.22
519.988	2.01
520.418	1.64
520.848	0.75
521.278	-0.02
521.708	20.11
522.138	20.41
522.567	20.17
522.997	20.13
523.427	19.06
523.857	18.96
524.286	19.19
524.716	19.94
525.145	20.01
525.575	20.79
526.004	20.64
526.433	0.58
526.863	0.39
527.292	1.95
527.721	2.17
528.15	2.11
528.579	2.51
529.008	2.51
529.437	1.35
529.866	1.07
530.295	0.84
530.724	2.22
531.152	2.31
531.581	3.18
532.01	2.66
532.438	1.97
532.867	1.85
533.295	2.13
533.723	2.23
534.152	2.85
534.58	3.67
535.008	3.93
535.436	4.16
535.865	4.36
536.293	3.09
536.721	2.2
537.149	2.52
537.576	3.38
538.004	3.12
538.432	2.37
538.86	3.2
539.287	2.33
539.715	2.35
540.143	1.64
540.57	1.9
540.998	1.9
541.425	3.51
541.852	3
542.28	2.16
542.707	2.01
543.134	2.65
543.561	2.48
543.988	3.08
544.415	2.44
544.842	2.2
545.269	2.05
545.696	3.26
546.123	3.25
546.549	3.44
546.976	3.78
547.403	3.71
547.829	3.24
548.256	2.64
548.682	2.28
549.108	3.38
549.535	3.04
549.961	2.36
550.387	1.52
550.813	2.21
551.24	2.32
551.666	1.91
552.092	2.06
552.518	2.33
552.943	3.27
553.369	3.08
553.795	2.74
554.221	3.21
554.646	3.81
555.072	5.04
555.498	3.36
555.923	2.67
556.349	2.95
556.774	2.78
557.199	2.43
557.625	1.36
558.05	1.61
558.475	1.25
558.9	1.33
559.325	1.66
559.75	1.52
560.175	1.42
560.6	1.88
561.025	1.74
561.449	1.8
561.874	1.32
562.299	2.28
562.723	2.18
563.148	2.68
563.572	2.17
563.997	1.67
564.421	-0.19
564.846	-0.46
565.27	-0.28
565.694	-0.41
566.118	-0.57
566.542	1.05
566.966	0.99
567.39	1.17
567.814	0.95
568.238	1.64
568.662	1.05
569.086	2.22
569.509	1.96
569.933	3.21
570.357	3.2
570.78	3.02
571.204	2.95
571.627	2.55
572.05	2.69
572.474	3.47
572.897	3.31
573.32	4.59
573.743	3.86
574.166	5.18
574.589	3.7
575.012	4.03
575.435	3.53
575.858	3.29
576.281	3.19
576.704	2.38
577.126	1.03
577.549	0.87
577.972	-0.52
578.394	-0.19
578.817	0.95
579.239	0.76
579.661	1.4
580.084	2.79
580.506	3.07
580.928	2.37
581.35	3.05
581.772	3.87
582.194	3.77
582.616	4.31
583.038	3.34
583.46	1.11
583.882	1.84
584.303	0.37
584.725	-0.16
585.147	2.84
585.568	3.6
585.99	4.11
586.411	4.43
586.833	4.5
587.254	3.83
587.675	4.53
588.096	4.73
588.518	5.19
588.939	5.86
589.36	6.17
589.781	1.59
590.202	4.07
590.623	3.58
591.043	2.43
591.464	2.79
591.885	3.62
592.305	3.25
592.726	3.22
593.147	2.48
593.567	2.29
593.987	1.93
594.408	2.15
594.828	-0.36
595.248	0.33
595.669	1.46
596.089	1.15
596.509	0.91
596.929	0.47
597.349	0.73
597.769	1.11
598.189	1.16
598.608	0.88
599.028	1.14
599.448	0.97
599.867	0.21
600.287	-0.83
600.706	-0.25
601.126	0.35
601.545	1.32
601.965	1.17
602.384	0.67
602.803	0.66
603.222	1.44
603.641	1.13
604.061	1.65
604.48	1.69
604.898	1.96
605.317	1.58
605.736	0.88
606.155	1.25
606.574	1.52
606.992	1.29
607.411	1.6
607.829	0.44
608.248	0.65
608.666	0.49
609.085	0.92
609.503	0.72
609.921	1.24
610.339	1.25
610.758	0.48
611.176	0.24
611.594	0.78
612.012	0.26
612.43	1.2
612.847	0.94
613.265	1.28
613.683	0.99
614.101	1.01
614.518	-0.48
614.936	-0.32
615.353	0.63
615.771	1.22
616.188	1.52
616.606	2.04
617.023	2.32
617.44	2.8
617.857	1.45
618.274	0.89
618.691	1.99
619.108	3.19
619.525	2.99
619.942	2.96
620.359	2.9
620.776	2.46
621.192	3.33
621.609	3.69
622.026	3.73
622.442	4.78
622.859	4.38
623.275	3.47
623.691	2.66
624.108	2.9
624.524	2.27
624.94	1.88
625.356	1.54
625.772	0.11
626.188	-0.61
626.604	-0.31
627.02	-0.06
627.436	0.93
627.852	1.75
628.268	2.44
628.683	1.77
629.099	1.65
629.514	1.44
629.93	1.55
630.345	1.68
630.761	1.31
631.176	0.66
631.591	1.34
632.007	1.8
632.422	0.39
632.837	-0.15
633.252	1.22
633.667	1.43
634.082	1.57
634.497	2.43
634.911	4.12
635.326	4.22
635.741	4.72
636.155	3.96
636.57	3.91
636.984	4.46
637.399	5.58
637.813	4.49
638.228	4
638.642	3.66
639.056	3.25
639.47	1.75
639.884	1.65
640.298	1.27
640.712	1.62
641.126	1.3
641.54	0.73
641.954	-1.12
642.368	-1.12
642.781	1.34
643.195	1.56
643.609	1.48
644.022	1.8
644.436	1.52
644.849	0.7
645.262	-0.83
645.676	-2.01
646.089	-1.41
646.502	0
646.915	-0.56
647.328	-1
647.741	-0.54
648.154	0.17
648.567	1.73
648.98	1.68
649.393	2.35
649.805	3.52
650.218	4.44
650.631	4.73
651.043	4.25
651.456	5.7
651.868	4.14
652.28	3.23
652.693	1.94
653.105	0.5
653.517	0.78
653.929	0.59
654.341	0.56
654.753	0.25
655.165	-0.17
655.577	0.29
655.989	-0.55
656.401	-1.01
656.813	0.5
657.224	1.01
657.636	0.94
658.047	1.72
658.459	1
658.87	0.17
659.282	0.86
659.693	2.15
660.104	2.05
660.515	1.72
660.926	1.41
661.338	0.02
661.749	-1.16
662.159	-0.34
662.57	-1.99
662.981	-0.88
663.392	-0.81
663.803	-1.23
664.213	-3.13
664.624	-3.65
665.035	-3.8
665.445	-3.98
665.855	-3
666.266	-1.5
666.676	-2.55
667.086	-1.89
667.497	-1.45
667.907	-1.6
668.317	-1.85
668.727	1.98
669.137	1.23
669.547	1.76
669.956	1.65
670.366	1.79
670.776	1.54
671.186	2.71
671.595	2.94
672.005	1.57
672.414	1.95
672.824	2.96
673.233	-0.88
673.642	-0.15
674.052	-0.1
674.461	1.97
674.87	2.01
675.279	3.32
675.688	0.35
676.097	1.57
676.506	2.08
676.915	1.92
677.323	1.27
677.732	2.24
678.141	1.96
678.549	1.95
678.958	0.76
679.366	0.01
679.775	-2.4
680.183	0.85
680.592	0.07
681	0.2
681.408	0.55
681.816	0.21
682.224	-1.05
682.632	1.09
683.04	0.92
683.448	0.1
683.856	0.62
684.264	2.55
684.671	0.24
685.079	-0.03
685.487	-0.79
685.894	-1.73
686.302	-2.83
686.709	-0.56
687.116	-2.44
687.524	-1.92
687.931	-0.42
688.338	-0.25
688.745	-1.34
689.152	-1.46
689.559	-1.68
689.966	0.45
690.373	1.88
690.78	3.85
691.187	2.93
691.593	2.82
692	2.62
692.407	2.78
692.813	5.5
693.22	6.23
693.626	5.58
694.032	5.87
694.439	5.05
694.845	4.13
695.251	2.22
695.657	2.28
696.063	1.64
696.469	1.21
696.875	0.83
697.281	-1.37
697.687	-2.2
698.093	-1.45
698.498	-0.88
698.904	-2.72
699.31	-2.44
699.715	0.32
700.12	0.01
700.526	0.69
700.931	1
701.337	1.46
701.742	2.09
702.147	2.45
702.552	3.4
702.957	1.63
703.362	3.52
703.767	3.24
704.172	1.76
704.577	0.7
704.981	-0.22
705.386	-0.43
705.791	-0.47
706.195	-1.51
706.6	-1.47
707.004	-3.44
707.408	-3.25
707.813	-3.1
708.217	-2.59
708.621	-2.81
709.025	-2.63
709.43	-0.52
709.834	0.04
710.237	-0.03
710.641	0.03
711.045	0.75
711.449	3.66
711.853	6.49
712.256	6.26
712.66	6.43
713.064	6.69
713.467	8.41
713.87	7.28
714.274	7.52
714.677	7.45
715.08	8.25
715.484	7.92
715.887	8.99
716.29	6.16
716.693	7.48
717.096	7.75
717.499	9.09
717.901	7.71
718.304	7.38
718.707	6.81
719.109	5.83
719.512	3.09
719.915	5.35
720.317	2.97
720.719	2.95
721.122	0.76
721.524	0.72
721.926	4.39
722.328	4.23
722.731	3.7
723.133	4.03
723.535	4.64
723.937	6.73
724.338	6.24
724.74	7.59
725.142	52.82
725.544	56.53
725.945	68.21
726.347	63.47
726.748	64.61
727.15	66.5
727.551	70.37
727.952	68.85
728.354	67.29
728.755	66.54
729.156	64.18
729.557	20.37
729.958	17.03
730.359	5.7
730.76	5.54
731.161	6.03
731.562	4.7
731.962	0.47
732.363	1.28
732.763	0.92
733.164	-1.57
733.564	-1.15
733.965	0.45
734.365	1.35
734.766	1.84
735.166	1.18
735.566	2.52
735.966	3.43
736.366	4.25
736.766	4.43
737.166	4.52
737.566	5.21
737.966	5.26
738.365	5.29
738.765	5.64
739.165	5.07
739.564	6.62
739.964	3.63
740.363	2.22
740.763	0.61
741.162	2.13
741.561	2.26
741.96	3.08
742.36	1.59
742.759	1.04
743.158	-0.58
743.557	-1.14
743.955	-2.45
744.354	-2.16
744.753	-2.55
745.152	-0.97
745.55	-3.65
745.949	-4.02
746.348	-4.56
746.746	-4.12
747.144	-2.05
747.543	-2.16
747.941	-2.89
748.339	-2.53
748.737	-0.85
749.136	0.72
749.534	-1.09
749.932	2.02
750.33	2.59
750.727	2.23
751.125	3.8
751.523	2.06
751.921	5.29
752.318	6.64
752.716	8.34
753.113	7.76
753.511	8.02
753.908	9.34
754.305	12.65
754.703	12.42
755.1	13.79
755.497	12.76
755.894	12.1
756.291	9.56
756.688	9.29
757.085	6.94
757.482	7.16
757.878	7.54
758.275	8.56
758.672	-2.12
759.068	-3.7
759.465	-7.64
759.861	-8.66
760.258	-11.39
760.654	-9.69
761.05	-6.23
761.447	-6.15
761.843	-7.36
762.239	-5.03
762.635	-9.28
763.031	-7.42
763.427	-6.26
763.822	-5.17
764.218	-6.27
764.614	-4.31
765.01	-6.23
765.405	-7.45
765.801	-4.67
766.196	-3.92
766.592	-6.41
766.987	-4.12
767.382	-4.04
767.778	-3.38
768.173	-3.08
768.568	-2.14
768.963	-2.08
769.358	-2.06
769.753	-1.19
770.148	-2.11
770.542	-1.57
770.937	-1.25
771.332	-1.03
771.726	-0.8
772.121	2.76
772.515	3.18
772.91	3.75
773.304	2.98
773.699	4.03
774.093	2.75
774.487	3.55
774.881	2.25
775.275	2.27
775.669	1.51
776.063	0.51
776.457	-1.5
776.851	-1.99
777.245	-1.32
777.638	-0.43
778.032	-1.55
778.425	-0.39
778.819	2.89
779.212	5.68
779.606	8.32
779.999	7.17
780.392	9.76
780.786	7.52
781.179	7.88
781.572	7.62
781.965	8.28
782.358	9.32
782.751	7.76
783.143	4.06
783.536	2.78
783.929	-0.48
784.322	1.07
784.714	-1.9
785.107	-0.79
785.499	0.66
785.891	2.45
786.284	2.19
786.676	0.57
787.068	4.45
787.46	4.77
787.852	3.54
788.245	2.7
788.636	0.69
789.028	4.64
789.42	7.08
789.812	7.42
790.204	5.86
790.595	7.84
790.987	7.8
791.378	7.36
791.77	5.87
792.161	5.84
792.553	7.34
792.944	8.25
793.335	5.69
793.726	5.27
794.117	5.59
794.508	4.56
794.899	1.46
795.29	1.57
795.681	0.59
796.072	2.24
796.463	20.8
796.853	25.45
797.244	26.3
797.634	27.23
798.025	25.61
798.415	22.25
798.806	24.05
799.196	25.89
799.586	28.74
799.976	29.58
800.366	29.2
800.756	8.66
801.146	6.54
801.536	7.43
801.926	6.19
802.316	5.93
802.706	8.43
803.095	8.67
803.485	8.06
803.874	5.31
804.264	3.47
804.653	4.07
805.043	7.64
805.432	7.68
805.821	10.35
806.21	13.4
806.599	13.02
806.988	11.97
807.377	6.84
807.766	5.1
808.155	5.94
808.544	5.92
808.933	5.51
809.321	6.68
809.71	2.83
810.098	0.16
810.487	-5.02
810.875	-6.46
811.264	-5.45
811.652	9.8
812.04	12.05
812.428	14.24
812.816	11.08
813.204	12.95
813.592	6.09
813.98	5.68
814.368	10.55
814.756	12.64
815.144	13.93
815.531	16.62
815.919	3.75
816.306	3.26
816.694	0.71
817.081	2.86
817.469	4.73
817.856	2.94
818.243	3.48
818.63	-4.06
819.017	-0.28
819.404	0.8
819.791	-0.52
820.178	-5.79
820.565	-2.71
820.952	4.29
821.339	8.04
821.725	6.15
822.112	11.72
822.498	11.39
822.885	10.45
823.271	5.62
823.657	3.66
824.044	2.82
824.43	5.72
824.816	12.8
825.202	10.21
825.588	8.3
825.974	8.01
826.36	9.03
826.746	9.82
827.132	8.78
827.517	18.42
827.903	16.89
828.289	22.79
828.674	22.51
829.06	17.5
829.445	14.69
829.83	13.07
830.216	11.83
830.601	13.51
830.986	21.18
831.371	27.6
831.756	25.61
832.141	35.14
832.526	32.86
832.911	35.73
833.295	34.23
833.68	32.93
834.065	35.93
834.449	34.05
834.834	35.91
835.218	35.83
835.603	35.65
835.987	29.61
836.371	22.18
836.755	22.23
837.139	17.26
837.524	11.49
837.908	11.32
838.291	12.83
838.675	14.65
839.059	9.16
839.443	2.53
839.827	-1
840.21	-1.19
840.594	4.33
840.977	5.63
841.361	5.01
841.744	5.15
842.127	6.87
842.511	3.01
842.894	-2.71
843.277	-2.26
843.66	-2.24
844.043	-1.04
844.426	5.95
844.809	-1.32
845.191	-3
845.574	-1.51
845.957	3.22
846.339	5
846.722	5.19
847.104	7.13
847.487	4.16
847.869	6.89
848.252	9.56
848.634	5.72
849.016	7.29
849.398	4.89
849.78	5.35
850.162	6.46
850.544	4.65
850.926	2.09
851.307	4.5
851.689	6.5
852.071	0.03
852.452	-1.11
852.834	-0.58
853.215	4.08
853.597	-0.33
853.978	8.15
854.359	4.79
854.741	8.89
855.122	7.64
855.503	2.9
855.884	3.76
856.265	6.21
856.646	0.75
857.026	1.64
857.407	1.22
857.788	3.36
858.169	-8.56
858.549	-4.58
858.93	-7.92
859.31	-2.41
859.69	5.53
860.071	9.92
860.451	13.01
860.831	16.21
861.211	13.04
861.591	10.75
861.971	7.51
862.351	9.84
862.731	5.84
863.111	5.46
863.491	7.26
863.87	-0.25
864.25	-5.37
864.629	-1.21
865.009	-3.58
865.388	-0.75
865.768	-3.73
866.147	2.01
866.526	6.1
866.905	11.92
867.284	6.64
867.663	0.2
868.042	-0.81
868.421	-1.93
868.8	-9.68
869.179	-4.28
869.558	-7.13
869.936	-2.79
870.315	-4.79
870.693	1.11
871.072	-5.2
871.45	-1.79
871.828	1.1
872.207	7.23
872.585	9.95
872.963	9.84
873.341	13.51
873.719	22
874.097	23.96
874.475	23.18
874.853	16.71
875.23	16.84
875.608	23.62
875.986	26.61
876.363	28.79
876.741	38.86
877.118	45.95
877.495	47.86
877.873	42.96
878.25	35.21
878.627	34.68
879.004	34.76
879.381	33.71
879.758	29.63
880.135	27.43
880.512	20
880.889	8.46
881.265	4.3
881.642	-6.11
882.019	-6.43
882.395	6.37
882.772	14.56
883.148	18.95
883.524	24.26
883.901	28.54
884.277	27.52
884.653	27.64
885.029	36.45
885.405	46.59
885.781	48.83
886.157	45.04
886.532	34.37
886.908	25.61
887.284	19.5
887.659	18.27
888.035	9.58
888.411	7.82
888.786	8.15
889.161	0.48
889.537	-14.12
889.912	-12.17
890.287	-3.51
890.662	-3.86
891.037	-8.24
891.412	-5.78
891.787	-10.15
892.162	-2.65
892.536	-1.72
892.911	4.73
893.286	0.28
893.66	5.71
894.035	8.64
894.409	-2.8
894.784	2.87
895.158	9.66
895.532	11.61
895.906	14.74
896.281	11.9
896.655	24.21
897.029	17.52
897.402	20.98
897.776	18.48
898.15	20.12
898.524	24.95
898.898	36.43
899.271	41.32
899.645	34.52
900.018	32.24
900.392	32.6
900.765	15.26
901.138	19.47
901.511	15.24
901.884	29.81
902.258	31.54
902.631	43.85
903.003	33.66
903.376	25.71
903.749	33.07
904.122	28.38
904.495	19.44
904.867	12.61
905.24	16.5
905.612	20.3
905.985	1.64
906.357	-0.02
906.729	-10.48
907.102	-2.93
907.474	2.15
907.846	7.83
908.218	13.38
908.59	27.57
908.962	24.62
909.334	24.57
909.705	28.16
910.077	31.35
910.449	21.91
910.82	27.9
911.192	32.86
911.563	36.27
911.935	20.2
912.306	9.93
912.677	-2.02
913.048	19.45
913.419	15.27
913.79	11.06
914.161	11.56
914.532	31.52
914.903	29.31
915.274	18.74
915.645	20.01
916.015	21.48
916.386	25.76
916.756	26.51
917.127	7.94
917.497	18.3
917.868	27.55
918.238	29.63
918.608	10.25
918.978	11.19
919.348	9.48
919.718	7.37
920.088	8.48
920.458	25.57
920.828	18.38
921.198	38.79
921.567	30.5
921.937	14.33
922.306	8.62
922.676	8.49
923.045	22.8
923.415	28.96
923.784	28.43
924.153	39.76
924.522	39.91
924.891	41.82
925.26	42.33
925.629	38.18
925.998	38.66
926.367	46.88
926.736	68.77
927.104	60.02
927.473	49.2
927.842	45.01
928.21	28.44
928.578	-2.79
928.947	8.9
929.315	12.94
929.683	36.61
930.051	58.47
930.42	53.58
930.788	26.64
931.156	17.47
931.523	64.9
931.891	77.01
932.259	80.33
932.627	130.53
932.994	157.92
933.362	165.1
933.729	129.55
934.097	114.21
934.464	108.52
934.831	99.63
935.199	105.47
935.566	78.82
935.933	122.68
936.3	158.62
936.667	105.13
937.034	181.23
937.401	150.9
937.767	140.38
938.134	115.75
938.501	131.92
938.867	179.32
939.234	265.9
939.6	216.71
939.967	141.29
940.333	119.12
940.699	72.81
941.065	-34.44
941.431	-54.87
941.798	-9.35
942.163	23.77
942.529	16.57
942.895	-20.65
943.261	6.23
943.627	-4.25
943.992	3.44
944.358	-12.47
944.723	31.47
945.089	49.14
945.454	62.2
945.82	43.49
946.185	44.87
946.55	47.96
946.915	58.93
947.28	67.2
947.645	57.75
948.01	61.3
948.375	75.2
948.74	63.5
949.104	22.7
949.469	-47.41
949.834	-24.62
950.198	78.58
950.562	106.65
950.927	104.69
951.291	114.4
951.655	103.74
952.02	46.43
952.384	50.92
952.748	69.59
953.112	127.71
953.476	136.28
953.839	115.61
954.203	131.43
954.567	142.44
954.931	160.88
955.294	170.62
955.658	168.95
956.021	314
956.385	415.49
956.748	498.59
957.111	454.53
957.474	367.22
957.837	250.42
958.2	-169.39
958.563	-45.93
958.926	34.03
959.289	-4.41
959.652	45.44
960.015	32.15
960.377	35.44
960.74	96.41
961.102	15.44
961.465	164.2
961.827	450.8
962.189	897.33
962.552	666.14
962.914	514.99
963.276	316.84
963.638	229.61
964	201.91
964.362	168.91
964.724	143.37
965.085	112.51
965.447	75.4
965.809	0.45
966.17	-26.43
966.532	-38.43
966.893	-42.65
967.255	-28.38
967.616	-49.36
967.977	-24.37
968.338	-38.28
968.699	-5.03
969.061	20.9
969.421	43.84
969.782	61.71
970.143	80.5
970.504	112.11
970.865	146.13
971.225	157.14
971.586	171.08
971.946	218.92
972.307	177.85
972.667	168.77
973.027	151.22
973.388	139.03
973.748	97.27
974.108	102.11
974.468	76.97
974.828	111.99
975.188	65.02
975.548	61.83
975.907	72.73
976.267	79.27
976.627	94.46
976.986	90.06
977.346	66.6
977.705	50.81
978.064	40.93
978.424	25.59
978.783	-18.02
979.142	-20.44
979.501	-20.76
979.86	-30.15
980.219	-40.53
980.578	-91.73
980.937	-136.04
981.296	-111.12
981.654	-114.52
982.013	-222.73
982.371	-237.92
982.73	-158.6
983.088	-206.09
983.447	-194.33
983.805	-277.79
984.163	-545.54
984.521	-572.34
984.879	-977.3
985.237	1253.69
985.595	-801.89
985.953	-194.23
986.311	-199.85
986.669	-117.21
987.026	-85.84
987.384	-172.05
987.741	-205.5
988.099	-58.96
988.456	-51.16
988.814	-9.98
989.171	-8.45
989.528	-44.82
989.885	-38.54
990.242	-5.46
990.599	-35.08
990.956	-29
991.313	-6.38
991.67	-0.74
992.027	26.05
992.383	42.18
992.74	43.41
993.096	59.29
993.453	60.27
993.809	50.07
994.165	49.94
994.522	99.11
994.878	116.68
995.234	139.92
995.59	138.32
995.946	66.08
996.302	53.64
996.658	41.61
997.013	-17.94
997.369	16.28
997.725	52.88
998.08	61.33
998.436	-103.04
998.791	-171.73
999.147	-186.37
999.502	-178.18
999.857	-142.15
1000.212	-283
1000.567	-338.06
1000.922	-106.31
1001.277	-33.59
1001.632	-8.84
1001.987	-40.01
1002.342	18.3
1002.696	26.21
1003.051	58.55
1003.406	49.75
1003.76	33.53
1004.114	53.16
1004.469	45.5
1004.823	25.5
1005.177	-14.83
1005.531	-14.32
1005.885	12.6
1006.239	15.1
1006.593	16.37
1006.947	8.23
1007.301	8.18
1007.655	2.43
1008.008	13.49
1008.362	14.45
1008.715	32.23
1009.069	50.45
1009.422	181.01
1009.776	237.45
1010.129	112.22
1010.482	62.2
1010.835	-1.75
1011.188	10.68
1011.541	44.48
1011.894	92.87
1012.247	-582.84
1012.6	-77.7
1012.952	1.24
1013.305	-90.66
1013.657	-38.58
1014.01	-32.76
1014.362	-23.64
1014.715	42.94
1015.067	68.02
1015.419	64.97
1015.771	66.59
1016.123	76.34
1016.475	94.12
1016.827	89.96
1017.179	108.06
1017.531	94.52
1017.883	79.4
1018.234	130.33
1018.586	110.59
1018.938	138.23
1019.289	185.37
1019.64	155.04
1019.992	112.84
1020.343	72.39
1020.694	120.89
1021.045	116.06
1021.396	112.45
1021.747	181.85
1022.098	115.15
1022.449	93.06
1022.8	52.41
1023.151	61.76
1023.501	83.87
1023.852	85.74
1024.202	103.26
1024.553	71.7
1024.903	86.19
1025.253	117.46
1025.604	105.86
1025.954	129.23
1026.304	127.19
1026.654	137.59
1027.004	149.11
1027.354	192.6
1027.703	259.12
1028.053	197.43
1028.403	486.15
1028.753	377.57
1029.102	-91.65
1029.452	-2546.32
1029.801	-123.94
1030.15	-49.43
1030.499	-60.4
897.758	1685.67
901.051	1624.07
904.343	1655.6
907.636	1659.07
910.928	1707.01
914.22	1646.85
917.511	1650.19
920.803	1687.51
924.094	1678.34
927.384	1683.14
930.675	1653.74
933.965	1628.1
937.255	1657.45
940.544	1633.08
943.834	1626.69
947.123	1582.17
950.411	1649.51
953.7	1637.85
956.988	1627.09
960.276	1573.53
963.563	1603.87
966.851	1612.17
970.138	1641.83
973.424	1642
976.711	1602.41
979.997	1641.46
983.283	1671.89
986.568	1621.27
989.853	1609.28
993.138	1626.91
996.423	1697.42
999.708	1668.75
1002.992	1690.34
1006.275	1619.81
1009.559	1623.22
1012.842	1697.26
1016.125	1663.56
1019.408	1645.86
1022.69	1683.05
1025.972	1706.82
1029.254	1688.37
1032.536	1663.29
1035.817	1664.49
1039.098	1641.78
1042.379	1676.8
1045.659	1695.33
1048.939	1655.45
1052.219	1656.04
1055.498	1649.17
1058.778	1642.34
1062.057	1626.54
1065.335	1646.65
1068.614	1649.22
1071.892	1646.27
1075.17	1685.5
1078.447	1690.86
1081.724	1682.55
1085.001	1698.64
1088.278	1680.83
1091.554	1680.17
1094.83	1679.88
1098.106	1701.67
1101.382	1720.96
1104.657	1722.97
1107.932	1722.86
1111.206	1704.37
1114.481	1666.61
1117.755	1670.63
1121.029	1665.29
1124.302	1710.56
1127.575	1691.69
1130.848	1691.37
1134.121	1670.21
1137.393	1639.71
1140.665	1681.91
1143.937	1666.18
1147.208	1626.04
1150.48	1671.14
1153.75	1661.39
1157.021	1663.44
1160.291	1645.01
1163.561	1681.65
1166.831	1652
1170.101	1670.47
1173.37	1641.08
1176.639	1611.29
1179.907	1642.45
1183.176	1659.85
1186.444	1662.86
1189.711	1679.9
1192.979	1696.69
1196.246	1667.38
1199.513	1677.4
1202.78	1681.78
1206.046	1688.96
1209.312	1710.63
1212.578	1718.53
1215.843	1695.57
1219.108	1673.75
1222.373	1689.48
1225.638	1671.23
1228.902	1666.77
1232.166	1632.58
1235.43	1623.85
1238.693	1648.16
1241.956	1641.5
1245.219	1680.42
1248.482	1668.02
1251.744	1668.53
1255.006	1756.58
1258.268	1715.75
1261.529	1687.56
1264.79	1684.78
1268.051	1756.19
1271.312	1763.45
1274.572	1736.88
1277.832	1726.17
1281.092	1708.32
1284.351	1705.26
1287.61	1693.29
1290.869	1647.68
1294.128	1648.69
1297.386	1674.2
1300.644	1669.66
1303.902	1678.86
1307.159	1579.5
1310.416	1618.66
1313.673	1639.7
1316.93	1643.4
1320.186	1663.12
1323.442	1686.53
1326.697	1690.47
1329.953	1667.72
1333.208	1700.87
1336.463	1680.28
1339.717	1655.11
1342.972	1736.87
1346.226	1714.9
1349.479	1684.67
1352.733	1668.21
1355.986	1674.6
1359.238	1661.3
1362.491	1663.11
1365.743	1663.89
1368.995	1658.38
1372.247	1671.8
1375.498	1685.02
1378.749	1719.41
1382	1689.15
1385.251	1708.42
1388.501	1675.75
1391.751	1677.42
1395	1658.23
1398.25	1678.19
1401.499	1700.34
1404.748	1666.56
1407.996	1651.18
1411.244	1646.44
1414.492	1637.54
1417.74	1626.64
1420.987	1633.81
1424.234	1679.1
1427.481	1648.31
1430.728	1688.04
1433.974	1672.26
1437.22	1669.98
1440.465	1664.15
1443.711	1670.18
1446.956	1685.49
1450.201	1661.55
1453.445	1690.7
1456.689	1681.93
1459.933	1690.73
1463.177	1722.12
1466.42	1702.93
1469.663	1686.47
1472.906	1700.64
1476.148	1734.22
1479.391	1701.07
1482.633	1684.49
1485.874	1704.7
1489.115	1711.45
1492.356	1696.5
1495.597	1676.68
1498.838	1668.26
1502.078	1658.57
1505.318	1643.16
1508.557	1663.78
1511.797	1661.93
1515.036	1701.55
1518.274	1672.19
1521.513	1628.76
1524.751	1633.81
1527.989	1651.29
1531.227	1667.21
1534.464	1674.74
1537.701	1666.95
1540.938	1672.04
1544.174	1631.34
1547.41	1620.47
1550.646	1647.45
1553.882	1683.05
1557.117	1727.17
1560.352	1732.48
1563.587	1702.21
1566.821	1679.01
1570.055	1687.82
1573.289	1669.47
1576.523	1708.6
1579.756	1720.43
1582.989	1736.72
1586.222	1704.46
1589.454	1727.14
1592.686	1717.06
1595.918	1736.43
1599.15	1733.43
1602.381	1763.96
1605.612	1755.71
1608.843	1823.31
1612.073	1765.78
1615.303	1757.81
1618.533	1754.42
1621.762	1754.38
1624.992	1731.07
1628.221	1732.04
1631.449	1722.92
1634.678	1741.43
1637.906	1715.27
1641.134	1732.55
1644.361	1707.37
1647.588	1701.3
1650.815	1719.73
1654.042	1688.76
1657.269	1708.82
1660.495	1698.41
1663.72	1683.01
1666.946	1659.73
1670.171	1647.17
1673.396	1626.48
1676.621	1613.58
1679.845	1608.89
1683.069	1610.03
1686.293	1629.09
1689.517	1628.89
1692.74	1596.87
1695.963	1611.01
1699.185	1644.13
1702.408	1627.42
1705.63	1644.07
1708.852	1660.79
1712.073	1636.41
1715.294	1652.31
1718.515	1686.62
1721.736	1657.28
1724.956	1641.07
1728.176	1657.67
1731.396	1671.47
1734.616	1665.33
1737.835	1696.02
1741.054	1672.47
1744.272	1666.01
1747.491	1701
1750.709	1713.3
1753.927	1682.62
1757.144	1699.16
1760.361	1743.77
1763.578	1720.03
1766.795	1686.46
1770.011	1674.74
1773.227	1689.77
1776.443	1724.48
1779.658	1756.45
1782.874	1711.64
1786.089	1708.99
1789.303	1710.34
1792.518	1708.34
1795.732	1701.49
1798.945	1714.21
1802.159	1746.28
1805.372	1708.38
1808.585	1705.57
1811.797	1705.17
1815.01	1720.67
1818.222	1744.9
1821.434	1708.54
1824.645	1736.21
1827.856	1747.52
1831.067	1767.08
1834.278	1723.8
1837.488	1710.53
1840.698	1798.15
1843.908	1762.16
1847.117	1742.29
1850.326	1690.99
1853.535	1731.06
1856.744	1765.57
1859.952	1711.25
1863.16	1713.81
1866.368	1729.56
1869.575	1816.42
1872.782	1731.28
1875.989	1684.74
1879.196	1717.38
1882.402	1714.07
1885.608	1740.12
1888.814	1702.08
1892.019	1640.26
1895.224	1683.28
1898.429	1655.97
1901.634	1644.06
1904.838	1628.02
1908.042	1674.04
1911.246	1687.95
1914.449	1663.89
1917.652	1648.66
1920.855	1635
1924.058	1651.16
1927.26	1686.59
1930.462	1701.18
1933.664	1733.73
1936.865	1692.15
1940.066	1703.64
1943.267	1660.28
1946.467	1668.09
1949.668	1679.31
1952.868	1733.32
1956.067	1730.44
1959.267	1681.6
1962.466	1699.6
1965.665	1685.83
1968.863	1682.4
1972.061	1680.89
1975.259	1677.57
1978.457	1734.87
1981.654	1700.19
1984.852	1702.87
1988.048	1670.93
1991.245	1658.07
1994.441	1729.46
1997.637	1688.91
2000.833	1673.75
2004.028	1700.68
2007.223	1750.99
2010.418	1739.37
2013.613	1701.1
2016.807	1701.95
2020.001	1695.88
2023.194	1707.54
2026.388	1697.37
2029.581	1653.26
2032.774	1704.24
2035.966	1714.34
2039.158	1673.82
2042.35	1687.88
2045.542	1630.44
2048.733	1691.65
2051.924	1676.2
2055.115	1689.19
2058.306	1667.49
2061.496	1704.88
2064.686	1741.59
2067.875	1668.95
2071.065	1667.21
2074.254	1679.36
2077.442	1644.28
2080.631	1708.5
2083.819	1663.05
2087.007	1660.52
2090.195	1649.8
2093.382	1656.12
2096.569	1648.76
2099.756	1622.24
2102.942	1665.32
2106.128	1676.79
2109.314	1667.77
2112.5	1661.19
2115.685	1633.45
2118.87	1639.18
2122.055	1689.2
2125.239	1673.83
2128.424	1667.52
2131.608	1702.43
2134.791	1687.78
2137.974	1712.31
2141.157	1705.17
2144.34	1688.91
2147.523	1675.19
2150.705	1699.82
2153.887	1672.27
2157.068	1655.1
2160.25	1634.74
2163.431	1651.45
2166.611	1633.03
2169.792	1650.66
2172.972	1583.47
2176.152	1620.96
2179.331	1638.51
2182.511	1644.65
2185.69	1658.27
2188.868	1662.61
2192.047	1685.93
2195.225	1707.58
2198.403	1664.32
2201.58	1651.3
2204.758	1639.74
2207.935	1696.02
2211.111	1636
2214.288	1626.47
2217.464	1651.06
2220.64	1616.44
2223.815	1653.52
2226.991	1601.51
2230.166	1611.1
2233.34	1648.79
2236.515	1659.48
2239.689	1706.27
2242.863	1670.43
2246.036	1708.01
2249.209	1695.9
2252.382	1709.03
2255.555	1719.17
2258.727	1685.72
2261.9	1706.1
2265.071	1702.12
2268.243	1699.99
2271.414	1664.04
2274.585	1655.79
2277.756	1701.21
2280.926	1670.61
2284.096	1688.92
2287.266	1638.64
2290.436	1674.47
2293.605	1686.48
2296.774	1721.02
2299.942	1722.82
2303.111	1732.56
2306.279	1774.41
2309.447	1764.61
2312.614	1744.72
2315.781	1760.89
2318.948	1746.08
2322.115	1775.96
2325.281	1693.16
2328.447	1697.16
2331.613	1670.78
2334.779	1667.66
2337.944	1664.46
2341.109	1665.66
2344.274	1655.69
2347.438	1631.33
2350.602	1647.59
2353.766	1653.68
2356.929	1646.02
2360.092	1678.39
2363.255	1656.3
2366.418	1639.36
2369.58	1671.63
2372.742	1635.81
2375.904	1617.18
2379.066	1612.16
2382.227	1628.54
2385.388	1599.44
2388.548	1565.09
2391.709	1592.47
2394.869	1587.55
2398.029	1619.35
2401.188	1608.29
2404.347	1593.87
2407.506	1601.21
2410.665	1645.44
2413.823	1628.09
2416.981	1615.53
2420.139	1626.54
2423.296	1656.42
2426.453	1637.26
2429.61	1652.21
2432.767	1639.41
2435.923	1671.63
2439.079	1624.37
2442.235	1650.32
2445.391	1606.18
2448.546	1641.13
2451.701	1666.24
2454.855	1666.23
2458.009	1685.03
2461.163	1672.87
2464.317	1653.81
2467.471	1672.91
2470.624	1693.7
2473.777	1694.52
2476.929	1705.28
2480.082	1722.26
2483.234	1708.51
2486.385	1659.7
2489.537	1655.93
2492.688	1652.08
2495.839	1668.39
2498.989	1678.99
2502.14	1668.31
2505.29	1665.41
2508.439	1678.8
2511.589	1638.15
2514.738	1635.19
2517.887	1648.02
2521.035	1710.02
2524.183	1673
2527.331	1666.7
2530.479	1661.83
2533.627	1663.81
