Data from N_1_HIR_WI_4N_Splice17_11-39-44-771.txt Node
Date: Sat Mar 14 11:39:44 EDT 2020
User: sa697716
Spectrometer: FLMS03696
Trigger mode: 0
Integration Time (sec): 3.180400E-1
Scans to average: 20
Electric dark correction enabled: true
Nonlinearity correction enabled: true
Boxcar width: 5
XAxis mode: Wavelengths
Number of Pixels in Spectrum: 2048
>>>>>Begin Spectral Data<<<<<
187.83	-51048.37
188.298	527.86
188.766	361.69
189.233	328.54
189.701	403.14
190.169	622.38
190.636	215.06
191.104	176.14
191.571	0.9
192.039	-76.94
192.506	-114.28
192.974	153.35
193.441	-414.33
193.908	-48.62
194.375	0.86
194.842	6.9
195.31	57.92
195.777	102.33
196.244	188.42
196.711	125.69
197.177	84.34
197.644	48.85
198.111	44.83
198.578	71.94
199.045	22.26
199.511	21.54
199.978	-63.3
200.445	-29.85
200.911	-74.36
201.378	-167.46
201.844	-136.12
202.31	-244.81
202.777	-293.37
203.243	-169.22
203.709	-147.18
204.176	-135.64
204.642	-101.73
205.108	-48.89
205.574	-49.54
206.04	-57.48
206.506	-44.06
206.972	-75.29
207.438	-87.88
207.903	-67.97
208.369	-27.98
208.835	-22.68
209.301	-23.41
209.766	-35.97
210.232	-47.15
210.697	-73.05
211.163	-120.37
211.628	-217.51
212.094	-111.19
212.559	-16.61
213.024	-35.5
213.49	-26.43
213.955	-56.83
214.42	-107.3
214.885	-101.97
215.35	-80.91
215.815	14.41
216.28	61.81
216.745	47.07
217.21	69.18
217.675	27.75
218.14	41.22
218.604	15.02
219.069	32.44
219.534	90.15
219.998	83.54
220.463	81.28
220.927	-4.16
221.392	-22.54
221.856	2.09
222.32	-80.67
222.785	-87.4
223.249	-131.31
223.713	-126.15
224.177	-115.44
224.642	-257.56
225.106	-339.13
225.57	-362.61
226.034	-179.79
226.497	-275.6
226.961	-162.54
227.425	-84.85
227.889	-136.22
228.353	-110.47
228.816	-284.41
229.28	-283.85
229.744	-229.23
230.207	-38.99
230.671	-47.08
231.134	-243.96
231.597	-151.18
232.061	-298.64
232.524	-397.47
232.987	-225.42
233.45	-160.14
233.914	-146.1
234.377	-183.64
234.84	-157.51
235.303	-210.45
235.766	-247.49
236.229	-234.76
236.691	-204.54
237.154	-243.06
237.617	-138.91
238.08	-161.94
238.542	-208.36
239.005	-126.79
239.468	-115.24
239.93	-112.86
240.393	-104.05
240.855	-82.76
241.317	-99.61
241.78	-139.49
242.242	-132.77
242.704	-119.58
243.166	-104.75
243.629	-66.35
244.091	-87.73
244.553	-92.7
245.015	-86.42
245.477	-127.19
245.939	-208.62
246.4	-184.17
246.862	-146.22
247.324	-147.73
247.786	-211.15
248.247	-288.09
248.709	-435.05
249.17	-301.89
249.632	-211.1
250.093	-160.15
250.555	-149.28
251.016	-47.34
251.477	-41.42
251.939	-35.81
252.4	-43.43
252.861	-93.75
253.322	-49.84
253.783	-87.45
254.244	-151.75
254.705	-171.66
255.166	-215.24
255.627	-197.91
256.088	-288.54
256.549	-291.81
257.009	-237.46
257.47	-272.44
257.931	-202.79
258.391	-153.06
258.852	-148.58
259.312	-150.13
259.773	-196.68
260.233	-100.61
260.694	-48.45
261.154	-59.35
261.614	-0.63
262.074	-13.4
262.534	7.61
262.994	13.07
263.455	-9.84
263.915	22.63
264.374	22.23
264.834	33.55
265.294	-7.2
265.754	-7.99
266.214	-22.1
266.673	-49.15
267.133	-69.89
267.593	-100.14
268.052	-114.18
268.512	-114.68
268.971	-68.07
269.431	-51.99
269.89	-50.23
270.349	-25.43
270.809	-3.91
271.268	21.16
271.727	-36.93
272.186	35.13
272.645	52.85
273.104	0.07
273.563	28.77
274.022	-104.54
274.481	-77.95
274.94	-56.85
275.399	-47.79
275.857	-107.52
276.316	-184.05
276.775	-164.35
277.233	-179.49
277.692	-149.36
278.15	-140.57
278.609	-96.23
279.067	-82.72
279.525	-64.04
279.984	-96.95
280.442	-157.21
280.9	-55.37
281.358	-20.49
281.816	-9.05
282.274	-7.76
282.732	-48.01
283.19	-77.84
283.648	-86.83
284.106	-95.4
284.564	-117.68
285.021	-79.54
285.479	-57.54
285.937	-94.97
286.394	-57.35
286.852	-81.53
287.309	-94.29
287.767	-51.26
288.224	-26
288.682	-32.86
289.139	-15.82
289.596	-3.67
290.053	-23.15
290.511	-42.14
290.968	-31.78
291.425	-99.29
291.882	7.05
292.339	35.65
292.796	-23.29
293.252	-36.29
293.709	-0.95
294.166	-10.59
294.623	-32.74
295.079	-57.13
295.536	-32.75
295.992	-23.2
296.449	-29.44
296.905	-19.72
297.362	-9.04
297.818	-2.62
298.274	10.78
298.731	-13.72
299.187	-31.02
299.643	-15.88
300.099	-4.17
300.555	-11.82
301.011	-2.68
301.467	52.74
301.923	-24.89
302.379	-19.01
302.835	-11.86
303.291	-17.46
303.746	-23.06
304.202	-18.35
304.658	-66.25
305.113	-26.59
305.569	-29.51
306.024	-54.35
306.479	-87.83
306.935	-45.28
307.39	-98.72
307.845	-108.58
308.301	-96.67
308.756	-102.78
309.211	-78.78
309.666	-87.89
310.121	-77.69
310.576	-98.46
311.031	-124.93
311.486	-202.14
311.94	-245.32
312.395	-324.08
312.85	-677.67
313.305	-4227.01
313.759	-18009.29
314.214	-1350.12
314.668	-930.81
315.123	-782.43
315.577	-235.81
316.032	-174.05
316.486	-200.12
316.94	-67.91
317.394	-12.01
317.849	14.15
318.303	7.62
318.757	3.06
319.211	-0.28
319.665	9.32
320.119	2.47
320.572	-15.24
321.026	13.19
321.48	11.41
321.934	-34.85
322.387	-60.88
322.841	-52.76
323.295	7.8
323.748	-25.83
324.202	-23.51
324.655	-27.82
325.108	19.68
325.562	9.74
326.015	-15.1
326.468	5.42
326.921	18.48
327.374	72.83
327.827	77.63
328.28	62.87
328.733	70.27
329.186	64.38
329.639	44.2
330.092	24.39
330.545	31.75
330.997	44.81
331.45	80.74
331.903	108.73
332.355	117.97
332.808	88.86
333.26	67.9
333.713	81.52
334.165	69.21
334.617	40.54
335.069	-41.87
335.522	-100.05
335.974	-144.31
336.426	-274.98
336.878	-262.63
337.33	-106.16
337.782	-122.09
338.234	-117.26
338.686	-172.42
339.137	-210.65
339.589	-164.76
340.041	-66.61
340.493	-52.9
340.944	-58.28
341.396	-44.94
341.847	18.21
342.299	18.4
342.75	80.92
343.201	3.32
343.653	21.49
344.104	12.52
344.555	22.12
345.006	-81.72
345.457	37.04
345.908	12.43
346.359	40.06
346.81	13.58
347.261	4.72
347.712	-36.4
348.163	-36.3
348.613	21.64
349.064	24.67
349.515	18.3
349.965	28.7
350.416	-37.49
350.866	-47.28
351.317	-103.36
351.767	-187.66
352.217	-256.81
352.668	-116.29
353.118	-104
353.568	-268.1
354.018	-161.83
354.468	-168.29
354.918	-67.18
355.368	-35.67
355.818	-58.96
356.268	-347.8
356.718	-986.68
357.168	-179.45
357.617	-158.68
358.067	-198.01
358.517	-200.83
358.966	-239.12
359.416	-93.86
359.865	-210.45
360.315	-372.05
360.764	-111.26
361.213	-13.01
361.663	-61.11
362.112	-133.26
362.561	-217.49
363.01	-127.82
363.459	-82.75
363.908	-134.87
364.357	-113.19
364.806	-233.32
365.255	-155.34
365.703	-137.91
366.152	-139.99
366.601	-87.89
367.05	-19.46
367.498	-11.44
367.947	-56.44
368.395	-65.74
368.844	-40.97
369.292	-102.28
369.74	-35.81
370.189	-64.62
370.637	-119.34
371.085	-123.93
371.533	-156.26
371.981	-188.84
372.429	-127.46
372.877	-119.54
373.325	-87.36
373.773	-121.45
374.221	-101.56
374.669	-157.13
375.116	-127.94
375.564	-111.23
376.012	-128.6
376.459	-111.21
376.907	-133.74
377.354	-186.44
377.801	-117.18
378.249	-131.2
378.696	-164.72
379.143	-222.77
379.591	-236.12
380.038	-429.61
380.485	-222.53
380.932	-208.34
381.379	-80.7
381.826	24.48
382.273	-17.38
382.72	-72.61
383.166	-47.1
383.613	-3.52
384.06	-9.22
384.506	-6.48
384.953	6.57
385.4	-27.96
385.846	-30.24
386.292	-48.78
386.739	-61.02
387.185	-60.31
387.631	-57.42
388.078	-47.49
388.524	-55.74
388.97	-38.52
389.416	-20.06
389.862	-25.6
390.308	-15.04
390.754	-6.52
391.2	-7.56
391.645	-15.47
392.091	14.4
392.537	21.15
392.983	7.05
393.428	37.2
393.874	34.33
394.319	43.31
394.765	60.06
395.21	58.09
395.655	57.81
396.101	56.11
396.546	57.11
396.991	30.5
397.436	33.04
397.881	21.01
398.326	-1.68
398.771	8.52
399.216	-4.46
399.661	-8.75
400.106	-2
400.551	1.79
400.995	3.5
401.44	4.43
401.885	8.03
402.329	10.35
402.774	18.64
403.218	31.8
403.663	27.4
404.107	32.21
404.551	35.94
404.995	28.15
405.44	19.66
405.884	18.59
406.328	10.85
406.772	5.56
407.216	2.77
407.66	0.83
408.104	-10.07
408.547	-9.3
408.991	-9.93
409.435	-14.94
409.879	-11.1
410.322	-7.39
410.766	-7.05
411.209	-0.95
411.653	2.17
412.096	4.43
412.54	3.31
412.983	3.46
413.426	4.05
413.869	0.14
414.312	6.17
414.756	4.87
415.199	3.57
415.642	7.23
416.085	5.59
416.527	3.72
416.97	1.84
417.413	1.39
417.856	1.22
418.298	1.92
418.741	1.74
419.184	-3.1
419.626	-7.36
420.069	-7.57
420.511	-9.65
420.953	-5.32
421.396	-2.68
421.838	-4.23
422.28	-3.94
422.722	-0.7
423.164	-4.86
423.606	-2.77
424.048	-1.47
424.49	1.17
424.932	2.56
425.374	1.46
425.816	-2.32
426.258	-3.47
426.699	-1.93
427.141	3.48
427.582	0.12
428.024	1.94
428.465	-0.29
428.907	-0.19
429.348	-1.47
429.789	0.46
430.231	3.61
430.672	4.05
431.113	4.5
431.554	4.5
431.995	1.44
432.436	4.01
432.877	4.83
433.318	9.52
433.759	7.43
434.2	9.21
434.64	6.46
435.081	6.91
435.522	8.08
435.962	7.63
436.403	9.9
436.843	7.78
437.284	7.74
437.724	5.08
438.164	-1.02
438.604	-0.43
439.045	1.43
439.485	3.63
439.925	0.56
440.365	-0.1
440.805	-2.1
441.245	-2.25
441.685	-2.06
442.125	-4.86
442.564	-4.74
443.004	-1.86
443.444	-0.79
443.883	-2.04
444.323	-5.58
444.762	-9.53
445.202	-10.53
445.641	-7.6
446.081	-10.5
446.52	-10.23
446.959	-9.29
447.398	-6.57
447.837	-5.87
448.276	-7.06
448.716	-5.68
449.154	-6.19
449.593	-2.09
450.032	-2.29
450.471	-4.35
450.91	-4.87
451.349	-2.33
451.787	-2.43
452.226	-4.35
452.664	-6.22
453.103	-6.83
453.541	-8.68
453.98	-5.41
454.418	-5.28
454.856	-3.49
455.295	-3.09
455.733	-2.16
456.171	-3.69
456.609	-1.15
457.047	-0.21
457.485	2.6
457.923	4.22
458.361	2.93
458.798	1.69
459.236	2.46
459.674	0.89
460.111	2.29
460.549	3.5
460.987	1.76
461.424	0.49
461.862	0.59
462.299	0.25
462.736	2.06
463.173	3.69
463.611	7.15
464.048	7.72
464.485	9.19
464.922	7.88
465.359	6.16
465.796	14.47
466.233	15.6
466.67	17.37
467.106	17.77
467.543	16.05
467.98	14.29
468.416	11.44
468.853	9.77
469.29	8.71
469.726	8.2
470.162	8.05
470.599	2.01
471.035	0.14
471.471	-1.41
471.907	-3.05
472.344	-3.11
472.78	-2.32
473.216	-3.5
473.652	-3.3
474.088	-3.87
474.523	-3.32
474.959	-3.14
475.395	-3.05
475.831	-2.64
476.266	-2.34
476.702	-3.16
477.138	-3.36
477.573	-2.8
478.008	-1.97
478.444	-1.43
478.879	0.36
479.314	0.57
479.75	1.17
480.185	0.6
480.62	0.22
481.055	0.13
481.49	1.39
481.925	1.82
482.36	3.92
482.795	2.78
483.229	1.83
483.664	0.8
484.099	0.7
484.534	1.19
484.968	2.34
485.403	2.99
485.837	1.86
486.271	1.34
486.706	1.3
487.14	-0.34
487.574	0.67
488.009	1.31
488.443	1.04
488.877	1.72
489.311	1.04
489.745	0.86
490.179	0.76
490.613	3.17
491.046	2.89
491.48	2.7
491.914	2.62
492.348	2.46
492.781	2.49
493.215	2.55
493.648	1.59
494.082	0.91
494.515	1.18
494.948	1.74
495.382	0.12
495.815	0.37
496.248	0.83
496.681	0.25
497.114	-0.03
497.547	0.33
497.98	1.17
498.413	2.5
498.846	3.52
499.279	2.56
499.711	2.03
500.144	1.88
500.577	3.23
501.009	1.96
501.442	3.51
501.874	4.11
502.306	3.71
502.739	5.54
503.171	5.12
503.603	5.3
504.036	4.75
504.468	4.78
504.9	4.73
505.332	3.67
505.764	4.76
506.196	3.78
506.627	3.83
507.059	3.9
507.491	1.11
507.923	1.27
508.354	0.9
508.786	1.33
509.217	1.45
509.649	1.62
510.08	1.2
510.512	1.79
510.943	2.29
511.374	2.35
511.805	1.94
512.237	2.13
512.668	0.93
513.099	0.26
513.53	0.3
513.961	0.34
514.391	0.35
514.822	2.15
515.253	1.69
515.684	1.2
516.114	0.95
516.545	1.53
516.975	1.41
517.406	2.13
517.836	2.13
518.267	2.9
518.697	3.48
519.127	3.5
519.558	2.33
519.988	2.02
520.418	1.51
520.848	0.53
521.278	0.01
521.708	31.14
522.138	32
522.567	31.88
522.997	31.69
523.427	31.31
523.857	31.75
524.286	31.73
524.716	32.18
525.145	32.89
525.575	33.99
526.004	33.71
526.433	3.44
526.863	1.65
527.292	2.85
527.721	3.07
528.15	2.53
528.579	2.67
529.008	2.9
529.437	1.81
529.866	1.68
530.295	0.74
530.724	1.74
531.152	1.87
531.581	2.92
532.01	2.72
532.438	2.23
532.867	1.75
533.295	1.64
533.723	1.36
534.152	1.83
534.58	2.02
535.008	2.46
535.436	3
535.865	2.07
536.293	1.07
536.721	0.49
537.149	0.7
537.576	1.97
538.004	2.25
538.432	1.53
538.86	2.09
539.287	1.76
539.715	1.91
540.143	0.73
540.57	1.61
540.998	1.95
541.425	3.5
541.852	3.4
542.28	2.75
542.707	2.09
543.134	2.64
543.561	2.3
543.988	2.18
544.415	1.71
544.842	1.67
545.269	1.26
545.696	1.9
546.123	1.1
546.549	1.26
546.976	1.51
547.403	1.85
547.829	1.21
548.256	0.96
548.682	0.91
549.108	2.02
549.535	1.96
549.961	1.84
550.387	1.59
550.813	2.66
551.24	2.31
551.666	1.93
552.092	1.68
552.518	1.89
552.943	2.78
553.369	2.49
553.795	1.98
554.221	2.17
554.646	2.42
555.072	3.44
555.498	1.87
555.923	1.6
556.349	1.78
556.774	1.89
557.199	1.47
557.625	-0.03
558.05	0.75
558.475	0.51
558.9	0.78
559.325	0.82
559.75	0.74
560.175	1.01
560.6	0.73
561.025	-0.04
561.449	-0.47
561.874	-0.85
562.299	0.09
562.723	-0.13
563.148	0.12
563.572	-0.43
563.997	-0.39
564.421	-1.89
564.846	-2.71
565.27	-2.28
565.694	-1.5
566.118	-1.45
566.542	0.31
566.966	0.23
567.39	0.04
567.814	0.3
568.238	0.76
568.662	0.19
569.086	1.17
569.509	1.27
569.933	2.87
570.357	2.41
570.78	2.54
571.204	2.81
571.627	2.77
572.05	2.83
572.474	3.73
572.897	3.88
573.32	5.32
573.743	4.35
574.166	5.32
574.589	3.9
575.012	4.07
575.435	3.23
575.858	2.81
576.281	2.44
576.704	1.99
577.126	1.29
577.549	0.56
577.972	-1.1
578.394	-0.67
578.817	1.14
579.239	1.62
579.661	1.95
580.084	4.01
580.506	4.43
580.928	4.94
581.35	4.82
581.772	4.74
582.194	5.09
582.616	5.17
583.038	4.71
583.46	2.76
583.882	2.41
584.303	1.33
584.725	-0.05
585.147	3.75
585.568	4.25
585.99	4.99
586.411	5.08
586.833	5.5
587.254	6.1
587.675	5.86
588.096	5.56
588.518	5.73
588.939	6.44
589.36	6.89
589.781	1.84
590.202	3.66
590.623	3.74
591.043	2.66
591.464	2.15
591.885	2.2
592.305	2.08
592.726	1.89
593.147	2.01
593.567	2.28
593.987	2.3
594.408	1.71
594.828	-1.59
595.248	-0.89
595.669	0.02
596.089	0.13
596.509	-0.54
596.929	-0.49
597.349	-0.35
597.769	-0.58
598.189	-0.63
598.608	-0.99
599.028	-0.83
599.448	-0.77
599.867	-1.12
600.287	-1.12
600.706	-0.45
601.126	0.06
601.545	1.07
601.965	1.21
602.384	1.07
602.803	0.67
603.222	1.23
603.641	1.21
604.061	2.46
604.48	2.2
604.898	1.74
605.317	1.1
605.736	1.72
606.155	2.26
606.574	1.82
606.992	1.89
607.411	2.11
607.829	1.08
608.248	1.26
608.666	-0.03
609.085	-0.2
609.503	-0.79
609.921	-0.05
610.339	-0.66
610.758	-1.88
611.176	-1.4
611.594	-0.8
612.012	-0.77
612.43	0.56
612.847	0.6
613.265	2.06
613.683	1.68
614.101	2.4
614.518	1.52
614.936	2.09
615.353	3.17
615.771	3.42
616.188	3.29
616.606	3.42
617.023	3.18
617.44	3.03
617.857	1.94
618.274	2.24
618.691	2.76
619.108	2.66
619.525	1.85
619.942	1.39
620.359	1.22
620.776	1.29
621.192	2.28
621.609	2.2
622.026	2.4
622.442	2.74
622.859	2.45
623.275	1.85
623.691	1.75
624.108	1.73
624.524	1.43
624.94	0.74
625.356	-0.08
625.772	-1.06
626.188	-1.58
626.604	-1.59
627.02	-2.05
627.436	-1.64
627.852	-0.37
628.268	0.25
628.683	0.11
629.099	0.3
629.514	0.58
629.93	0.95
630.345	0.78
630.761	0.47
631.176	0.68
631.591	2.41
632.007	2.12
632.422	0.43
632.837	0.24
633.252	1.54
633.667	1.41
634.082	1.89
634.497	2.54
634.911	4.56
635.326	4.75
635.741	4.64
636.155	3.94
636.57	5.17
636.984	5.64
637.399	6.61
637.813	5.5
638.228	5.22
638.642	4.84
639.056	4.57
639.47	3.1
639.884	3.77
640.298	3.99
640.712	4.81
641.126	4.78
641.54	4.12
641.954	1.41
642.368	1.63
642.781	4.84
643.195	4.73
643.609	4.75
644.022	4.32
644.436	3
644.849	2.39
645.262	1.13
645.676	-0.34
646.089	0.01
646.502	2.79
646.915	2.46
647.328	0.56
647.741	1.29
648.154	0.83
648.567	3.07
648.98	3.66
649.393	3.52
649.805	2.95
650.218	2.68
650.631	3.49
651.043	3.15
651.456	3.49
651.868	3.31
652.28	2.22
652.693	1.49
653.105	-0.45
653.517	-0.42
653.929	-0.41
654.341	0.59
654.753	1.69
655.165	0.68
655.577	-0.28
655.989	-1.02
656.401	-2.66
656.813	-0.77
657.224	-0.05
657.636	-0.85
658.047	0.47
658.459	1.4
658.87	0.01
659.282	-0.32
659.693	1.44
660.104	1.75
660.515	2.16
660.926	2.51
661.338	1.02
661.749	0.13
662.159	1.59
662.57	-0.49
662.981	-1.28
663.392	-0.63
663.803	-1.32
664.213	-2.92
664.624	-3.41
665.035	-3.98
665.445	-4.42
665.855	-3.69
666.266	-1.98
666.676	-1.96
667.086	-1.8
667.497	-1.18
667.907	-1.56
668.317	-0.91
668.727	2.02
669.137	1.56
669.547	2.22
669.956	1.77
670.366	1.43
670.776	1.18
671.186	-0.38
671.595	0.99
672.005	0.22
672.414	0.78
672.824	1.47
673.233	-1.62
673.642	-1.09
674.052	-1.31
674.461	1.22
674.87	1.19
675.279	1.6
675.688	0.77
676.097	1.74
676.506	2.22
676.915	1.4
677.323	1.63
677.732	2.11
678.141	1.87
678.549	2.15
678.958	0.13
679.366	-0.48
679.775	-1.7
680.183	0.41
680.592	-1.66
681	-0.97
681.408	-0.11
681.816	-1.19
682.224	-1.8
682.632	-0.47
683.04	-0.09
683.448	-0.22
683.856	1.02
684.264	2.06
684.671	0.17
685.079	0.63
685.487	-0.84
685.894	-1.81
686.302	-3.11
686.709	-2.99
687.116	-4.05
687.524	-3.61
687.931	-1.92
688.338	-1.24
688.745	-2.38
689.152	-1.17
689.559	-0.95
689.966	1.05
690.373	1.89
690.78	3.87
691.187	4.1
691.593	4.22
692	2.89
692.407	2.61
692.813	4.46
693.22	4.95
693.626	3.82
694.032	5.17
694.439	4.89
694.845	4.41
695.251	3.37
695.657	3.58
696.063	2.51
696.469	2.04
696.875	1.76
697.281	-0.6
697.687	-1.47
698.093	-1.52
698.498	-2.61
698.904	-4.14
699.31	-4.71
699.715	-1.54
700.12	-2.21
700.526	-1.01
700.931	-0.82
701.337	1.25
701.742	1.73
702.147	1.83
702.552	3.63
702.957	2.08
703.362	2.66
703.767	2.95
704.172	0.09
704.577	0.32
704.981	-1.01
705.386	-0.31
705.791	-1.82
706.195	-3.75
706.6	-2.97
707.004	-5.31
707.408	-5.29
707.813	-4.37
708.217	-3.19
708.621	-3.3
709.025	-3.68
709.43	-1.92
709.834	-1.09
710.237	-1.26
710.641	0.39
711.045	0.74
711.449	3.48
711.853	7.93
712.256	7.64
712.66	6.89
713.064	7.76
713.467	9.67
713.87	9.63
714.274	9.1
714.677	9.96
715.08	9.55
715.484	9.92
715.887	12.17
716.29	8.48
716.693	9.41
717.096	10.99
717.499	11.14
717.901	9.1
718.304	8.89
718.707	8.17
719.109	6.92
719.512	6.66
719.915	8.18
720.317	5.61
720.719	5.64
721.122	5.51
721.524	5.01
721.926	8.99
722.328	10.36
722.731	10.39
723.133	11.15
723.535	11.04
723.937	12
724.338	12.34
724.74	13.76
725.142	61.28
725.544	63.26
725.945	76.19
726.347	73.49
726.748	72.95
727.15	73.22
727.551	76.25
727.952	75.84
728.354	74.69
728.755	73.43
729.156	69.93
729.557	23.78
729.958	20.92
730.359	8.2
730.76	6.19
731.161	6.2
731.562	5.04
731.962	1.89
732.363	1.19
732.763	1.04
733.164	-1.55
733.564	0.83
733.965	1.05
734.365	1.18
734.766	1.22
735.166	0.33
735.566	1
735.966	1.73
736.366	1.61
736.766	2.52
737.166	1.73
737.566	2.68
737.966	2.06
738.365	2.78
738.765	3.68
739.165	3.65
739.564	5.17
739.964	3.66
740.363	3.23
740.763	2.32
741.162	3.25
741.561	3.55
741.96	4.42
742.36	4.18
742.759	3.98
743.158	1.76
743.557	1.23
743.955	0.8
744.354	1.15
744.753	0.7
745.152	2.18
745.55	1.09
745.949	1.04
746.348	1.18
746.746	-0.52
747.144	1.19
747.543	0.98
747.941	0.31
748.339	0.56
748.737	1.58
749.136	2.47
749.534	0.28
749.932	1.16
750.33	1.29
750.727	0.22
751.125	1.87
751.523	0.68
751.921	4.36
752.318	5.8
752.716	6.57
753.113	5.82
753.511	5.72
753.908	7.6
754.305	12.02
754.703	12.56
755.1	14.08
755.497	14.06
755.894	13.02
756.291	10.2
756.688	9.91
757.085	8.53
757.482	9.18
757.878	10.27
758.275	10.79
758.672	2.97
759.068	1.94
759.465	0.4
759.861	-2.07
760.258	-4.22
760.654	-3.5
761.05	-0.46
761.447	-0.42
761.843	1.49
762.239	0.93
762.635	-1.72
763.031	-2.19
763.427	-0.02
763.822	-0.26
764.218	-0.3
764.614	1.31
765.01	-0.35
765.405	-2.41
765.801	-0.32
766.196	-1.29
766.592	-2.16
766.987	0.32
767.382	0.41
767.778	-0.97
768.173	-1.66
768.568	-0.76
768.963	-0.6
769.358	-0.26
769.753	1.76
770.148	1.96
770.542	1.83
770.937	1.9
771.332	1.05
771.726	-0.2
772.121	3.7
772.515	4.05
772.91	3.29
773.304	3.76
773.699	4.5
774.093	2.84
774.487	2.7
774.881	2
775.275	3.19
775.669	2.16
776.063	3.72
776.457	1.63
776.851	2.63
777.245	3.84
777.638	3.5
778.032	1.16
778.425	3.06
778.819	5.89
779.212	10.47
779.606	12.13
779.999	12.38
780.392	13.17
780.786	10.99
781.179	10.56
781.572	10.47
781.965	9.95
782.358	12.71
782.751	11.57
783.143	9.21
783.536	6.78
783.929	5.05
784.322	5.61
784.714	3.82
785.107	4.96
785.499	6.32
785.891	7.27
786.284	7.82
786.676	6.89
787.068	9.67
787.46	9.12
787.852	7.86
788.245	6.62
788.636	3.76
789.028	6.67
789.42	8.54
789.812	8.11
790.204	8
790.595	10.98
790.987	12.31
791.378	10.11
791.77	8.71
792.161	7.78
792.553	8.57
792.944	11.48
793.335	7.96
793.726	7.6
794.117	7.99
794.508	4.3
794.899	0.96
795.29	-1.84
795.681	-2.83
796.072	-1.9
796.463	18.31
796.853	21.52
797.244	20.32
797.634	21.48
798.025	20.11
798.415	17.09
798.806	21.27
799.196	23.69
799.586	28.35
799.976	30.45
800.366	30.04
800.756	7.1
801.146	4.9
801.536	6.69
801.926	5.44
802.316	7.9
802.706	10.3
803.095	10.32
803.485	8.66
803.874	4.8
804.264	2.92
804.653	4.74
805.043	9.48
805.432	12.58
805.821	13.82
806.21	16.48
806.599	14.78
806.988	14.72
807.377	11.3
807.766	10.29
808.155	10.6
808.544	13.03
808.933	12.2
809.321	12.44
809.71	5.55
810.098	4.63
810.487	1
810.875	-2.27
811.264	-0.84
811.652	10.51
812.04	10.16
812.428	12.17
812.816	5.89
813.204	6.4
813.592	2.57
813.98	2.75
814.368	6.78
814.756	6.35
815.144	9.2
815.531	12.01
815.919	2.95
816.306	5.95
816.694	4.24
817.081	9.77
817.469	11.59
817.856	7.46
818.243	7.1
818.63	0.02
819.017	5.33
819.404	6.31
819.791	-0.34
820.178	-7.22
820.565	-4.77
820.952	2.45
821.339	3.37
821.725	4.43
822.112	11.88
822.498	13.8
822.885	16.38
823.271	16.29
823.657	11.83
824.044	15.7
824.43	18.24
824.816	25.13
825.202	22.81
825.588	19.95
825.974	20.74
826.36	21.68
826.746	22.58
827.132	21.54
827.517	23.93
827.903	27.47
828.289	32.48
828.674	32.37
829.06	22.66
829.445	17.85
829.83	15.11
830.216	12.29
830.601	13.83
830.986	21.82
831.371	26.13
831.756	26.45
832.141	36.67
832.526	35.59
832.911	33.43
833.295	34.46
833.68	38.42
834.065	44.52
834.449	42.58
834.834	42.43
835.218	40.38
835.603	40.21
835.987	35.72
836.371	28.39
836.755	26.52
837.139	27.17
837.524	24.63
837.908	20.14
838.291	20.51
838.675	19.98
839.059	17.19
839.443	11.69
839.827	6.03
840.21	4.65
840.594	7.62
840.977	8.57
841.361	8.26
841.744	6.35
842.127	9.06
842.511	6.66
842.894	5.11
843.277	2.65
843.66	2.9
844.043	5.7
844.426	11.06
844.809	3.31
845.191	-0.13
845.574	0.04
845.957	2.41
846.339	5.44
846.722	3.95
847.104	2.89
847.487	-0.45
847.869	2.39
848.252	4.34
848.634	3.67
849.016	5.92
849.398	3.93
849.78	4.6
850.162	6.78
850.544	2.35
850.926	-1.77
851.307	-2.45
851.689	2.76
852.071	-3.75
852.452	-3.36
852.834	-7.34
853.215	-5.08
853.597	-5.14
853.978	0.29
854.359	0.5
854.741	6.48
855.122	10.54
855.503	12.27
855.884	10.59
856.265	14.16
856.646	6.82
857.026	13.42
857.407	16.36
857.788	17.37
858.169	9.38
858.549	15.42
858.93	13.99
859.31	14.63
859.69	21.26
860.071	24.51
860.451	23.68
860.831	25.13
861.211	20.19
861.591	12.11
861.971	10.28
862.351	12.92
862.731	7.73
863.111	6.49
863.491	11.53
863.87	5.59
864.25	0.56
864.629	10.26
865.009	8.54
865.388	10.07
865.768	11.32
866.147	16.55
866.526	18
866.905	18.44
867.284	13.94
867.663	6.23
868.042	0.45
868.421	1.2
868.8	-8.44
869.179	-0.17
869.558	-3.32
869.936	0.95
870.315	-2.99
870.693	3.43
871.072	-2.44
871.45	-4.88
871.828	-0.39
872.207	4.95
872.585	9.33
872.963	6.53
873.341	12.29
873.719	22.09
874.097	19.68
874.475	17.22
874.853	8.34
875.23	14.07
875.608	19.39
875.986	18.54
876.363	20.46
876.741	31.4
877.118	46.83
877.495	46.78
877.873	42.46
878.25	42.37
878.627	44.5
879.004	43.34
879.381	39.3
879.758	40.5
880.135	36.18
880.512	31.84
880.889	11.46
881.265	0.4
881.642	-9.41
882.019	-7.03
882.395	4.84
882.772	10.04
883.148	13.37
883.524	15.73
883.901	12.41
884.277	12.65
884.653	13.92
885.029	26.66
885.405	35.88
885.781	40.15
886.157	30.96
886.532	19.79
886.908	18.19
887.284	18.14
887.659	19.33
888.035	20.63
888.411	20.92
888.786	24.17
889.161	22.19
889.537	10.65
889.912	7.77
890.287	12.04
890.662	11.07
891.037	0.76
891.412	-1.38
891.787	-8.7
892.162	-7.54
892.536	-8.5
892.911	-8.58
893.286	-15.88
893.66	-11.26
894.035	-6.35
894.409	-10.36
894.784	-1.28
895.158	1.02
895.532	2.71
895.906	8.07
896.281	12.6
896.655	22.12
897.029	23.92
897.402	32.16
897.776	26.16
898.15	16.61
898.524	13.59
898.898	8.29
899.271	25.23
899.645	25.35
900.018	27.97
900.392	32.55
900.765	16.15
901.138	20.18
901.511	14.51
901.884	29.34
902.258	37.44
902.631	47.38
903.003	48.91
903.376	34.06
903.749	44.27
904.122	27.62
904.495	13.25
904.867	16.61
905.24	10.62
905.612	12.36
905.985	-2.27
906.357	-20.06
906.729	-17.63
907.102	-3.99
907.474	3.82
907.846	0.24
908.218	6.14
908.59	17.7
908.962	20.79
909.334	21.07
909.705	29.94
910.077	28.77
910.449	35.24
910.82	36.16
911.192	37.7
911.563	45.09
911.935	32.57
912.306	31.46
912.677	33.41
913.048	39.02
913.419	43.72
913.79	22.95
914.161	28.02
914.532	39.93
914.903	30.88
915.274	24.33
915.645	12.75
916.015	16.33
916.386	19.17
916.756	10.87
917.127	-7.13
917.497	-4.07
917.868	0.25
918.238	4.29
918.608	-8.19
918.978	-6.71
919.348	-17.1
919.718	-8.23
920.088	-1
920.458	5.26
920.828	-12.35
921.198	3.38
921.567	-4.96
921.937	5.65
922.306	-5.7
922.676	-14.77
923.045	4.23
923.415	21.18
923.784	19.78
924.153	28.68
924.522	33.99
924.891	36.94
925.26	34.59
925.629	32.01
925.998	27.4
926.367	28.41
926.736	53
927.104	42.88
927.473	18.29
927.842	4.38
928.21	-22.72
928.578	-55.12
928.947	-33.51
929.315	-32.3
929.683	-13.47
930.051	-11.45
930.42	14.38
930.788	-0.69
931.156	2.41
931.523	57.14
931.891	72.95
932.259	91.42
932.627	129.99
932.994	153.4
933.362	170.6
933.729	154.56
934.097	147.2
934.464	127.93
934.831	131.13
935.199	133.13
935.566	111.45
935.933	148.49
936.3	180.24
936.667	156.54
937.034	237.29
937.401	200.07
937.767	163.96
938.134	154.52
938.501	189.1
938.867	225.83
939.234	340.54
939.6	250.28
939.967	174.07
940.333	116.52
940.699	51.69
941.065	-81.01
941.431	-90.32
941.798	-40.04
942.163	-26.99
942.529	-42.83
942.895	-59.85
943.261	-24.16
943.627	-38.41
943.992	-34.48
944.358	-42.66
944.723	4.12
945.089	36.4
945.454	36.08
945.82	24.22
946.185	1.32
946.55	21.18
946.915	20.62
947.28	30.54
947.645	47.56
948.01	66.23
948.375	85.05
948.74	56.85
949.104	53.54
949.469	5.26
949.834	-60.08
950.198	72.19
950.562	115.51
950.927	108.58
951.291	115.54
951.655	70.47
952.02	14.25
952.384	26.28
952.748	67.37
953.112	98.65
953.476	115.39
953.839	112.61
954.203	109.91
954.567	111.78
954.931	143.76
955.294	129.43
955.658	137.02
956.021	276.99
956.385	379.9
956.748	451.01
957.111	420.96
957.474	243.1
957.837	155.35
958.2	6.55
958.563	31.03
958.926	48.58
959.289	50.14
959.652	48.23
960.015	27.51
960.377	7.38
960.74	2.52
961.102	-193.94
961.465	-23.87
961.827	399.17
962.189	669.45
962.552	481.55
962.914	363.69
963.276	202.21
963.638	204.09
964	189.54
964.362	169.76
964.724	135.81
965.085	131.16
965.447	114.67
965.809	36.5
966.17	22.22
966.532	2.86
966.893	2.03
967.255	12.13
967.616	-22.17
967.977	-11
968.338	-13.14
968.699	7.31
969.061	0.1
969.421	4.05
969.782	5.49
970.143	33.65
970.504	65.09
970.865	86
971.225	109.94
971.586	122.02
971.946	134.43
972.307	101.33
972.667	94.51
973.027	108.17
973.388	104.73
973.748	77.12
974.108	90.4
974.468	38.17
974.828	97.06
975.188	42.58
975.548	38.51
975.907	47.26
976.267	33.52
976.627	60.48
976.986	69.2
977.346	61.86
977.705	64.32
978.064	55.13
978.424	64.99
978.783	24.54
979.142	28.53
979.501	40.98
979.86	39.83
980.219	38.87
980.578	14.3
980.937	-28.86
981.296	-13.51
981.654	-11.32
982.013	-71.42
982.371	-135.31
982.73	-121.61
983.088	-137.82
983.447	-137.8
983.805	-162.82
984.163	-335.27
984.521	-263.36
984.879	-289.76
985.237	549.97
985.595	-188.35
985.953	-86.42
986.311	-73.08
986.669	-11.89
987.026	-15.5
987.384	-94.24
987.741	-126.62
988.099	-2.22
988.456	-15.95
988.814	8.72
989.171	6.89
989.528	-38.39
989.885	-32.16
990.242	-2.01
990.599	-38.54
990.956	-15.82
991.313	3.72
991.67	10.35
992.027	42.9
992.383	42.49
992.74	43.18
993.096	51.85
993.453	64.37
993.809	63.01
994.165	79.74
994.522	125.47
994.878	131.91
995.234	149.98
995.59	142.93
995.946	57.54
996.302	84.98
996.658	75.12
997.013	48.93
997.369	77.9
997.725	131.82
998.08	74.87
998.436	-50.69
998.791	-39.88
999.147	-7.71
999.502	-16.01
999.857	-44.42
1000.212	-105.44
1000.567	-9.7
1000.922	98.24
1001.277	37.08
1001.632	17.6
1001.987	47.3
1002.342	69.39
1002.696	51.27
1003.051	72.55
1003.406	117.84
1003.76	122.42
1004.114	118.67
1004.469	106.72
1004.823	63.78
1005.177	57.72
1005.531	53.52
1005.885	61.31
1006.239	88.45
1006.593	120.54
1006.947	150
1007.301	83.53
1007.655	83
1008.008	77.95
1008.362	85.97
1008.715	146.43
1009.069	134.08
1009.422	292.44
1009.776	430.09
1010.129	208.15
1010.482	145.07
1010.835	35.83
1011.188	40.2
1011.541	-3.25
1011.894	835.44
1012.247	-4056
1012.6	-371.84
1012.952	-131.88
1013.305	-165.74
1013.657	-65.97
1014.01	-51.6
1014.362	-40.01
1014.715	43
1015.067	67.71
1015.419	78.63
1015.771	92.47
1016.123	99.94
1016.475	110.28
1016.827	96.52
1017.179	137.45
1017.531	110.45
1017.883	96.35
1018.234	135.76
1018.586	146.05
1018.938	175.54
1019.289	239.91
1019.64	222.54
1019.992	170.04
1020.343	156.43
1020.694	185.73
1021.045	146.62
1021.396	157.64
1021.747	230.37
1022.098	200.45
1022.449	149.52
1022.8	123.47
1023.151	101.52
1023.501	113.14
1023.852	126.74
1024.202	142.66
1024.553	113.04
1024.903	143.45
1025.253	169.09
1025.604	154.63
1025.954	189.38
1026.304	195.05
1026.654	225.09
1027.004	285.53
1027.354	314.86
1027.703	399.7
1028.053	481.85
1028.403	946.17
1028.753	913.36
1029.102	418.09
1029.452	-1574.84
1029.801	-139.88
1030.15	-94.62
1030.499	-124.97
897.758	1774.35
901.051	1706.36
904.343	1738.72
907.636	1746.55
910.928	1796.97
914.22	1732.52
917.511	1735.48
920.803	1773.07
924.094	1764.21
927.384	1774.01
930.675	1743.8
933.965	1715.02
937.255	1749.69
940.544	1725.11
943.834	1713.03
947.123	1666.08
950.411	1737.5
953.7	1724.22
956.988	1715.19
960.276	1655.73
963.563	1685.44
966.851	1695.31
970.138	1727.15
973.424	1725.88
976.711	1683.64
979.997	1727.46
983.283	1758.13
986.568	1705.86
989.853	1692.24
993.138	1711.03
996.423	1785.51
999.708	1757.93
1002.992	1779.29
1006.275	1701.99
1009.559	1704.33
1012.842	1780.87
1016.125	1745.29
1019.408	1729.99
1022.69	1767.65
1025.972	1796.49
1029.254	1776
1032.536	1750.71
1035.817	1751.61
1039.098	1725.8
1042.379	1766.55
1045.659	1786.02
1048.939	1744.51
1052.219	1742.04
1055.498	1733.95
1058.778	1730.02
1062.057	1707.21
1065.335	1728.3
1068.614	1734.6
1071.892	1731.35
1075.17	1772.12
1078.447	1773.41
1081.724	1770.27
1085.001	1788.18
1088.278	1772.24
1091.554	1769.07
1094.83	1768.66
1098.106	1795.88
1101.382	1817.69
1104.657	1814.45
1107.932	1814.73
1111.206	1797.41
1114.481	1756.87
1117.755	1756.84
1121.029	1754.24
1124.302	1802.44
1127.575	1781.94
1130.848	1779.22
1134.121	1758.05
1137.393	1724.4
1140.665	1771.03
1143.937	1754.5
1147.208	1709.4
1150.48	1760.63
1153.75	1751.31
1157.021	1747.49
1160.291	1728.89
1163.561	1771.04
1166.831	1738.93
1170.101	1757.98
1173.37	1723.81
1176.639	1692.36
1179.907	1727.08
1183.176	1746.86
1186.444	1748.26
1189.711	1766.03
1192.979	1786.66
1196.246	1752.73
1199.513	1761.25
1202.78	1768.08
1206.046	1773.87
1209.312	1800.44
1212.578	1810.58
1215.843	1783.37
1219.108	1761.19
1222.373	1779.57
1225.638	1759.69
1228.902	1754.77
1232.166	1721.23
1235.43	1713.98
1238.693	1737.66
1241.956	1733.25
1245.219	1773.99
1248.482	1757.93
1251.744	1759.64
1255.006	1851.43
1258.268	1806.81
1261.529	1776.82
1264.79	1774.63
1268.051	1846.58
1271.312	1854.27
1274.572	1827.55
1277.832	1815.65
1281.092	1796.78
1284.351	1794.32
1287.61	1781.64
1290.869	1733.43
1294.128	1735.03
1297.386	1763.6
1300.644	1757.02
1303.902	1767.3
1307.159	1662.4
1310.416	1703.04
1313.673	1724.99
1316.93	1728.38
1320.186	1748.6
1323.442	1773.55
1326.697	1777.18
1329.953	1752.85
1333.208	1784.9
1336.463	1767.02
1339.717	1741.59
1342.972	1825.1
1346.226	1803.82
1349.479	1770.93
1352.733	1756.03
1355.986	1760.51
1359.238	1747.15
1362.491	1751.76
1365.743	1754.99
1368.995	1749.62
1372.247	1763.35
1375.498	1779.03
1378.749	1820.03
1382	1781.96
1385.251	1804.89
1388.501	1767.53
1391.751	1772.82
1395	1750.48
1398.25	1770.83
1401.499	1795.74
1404.748	1760.7
1407.996	1740.33
1411.244	1734.68
1414.492	1724.8
1417.74	1714.13
1420.987	1719.75
1424.234	1770.14
1427.481	1735.36
1430.728	1778.18
1433.974	1760.42
1437.22	1755.73
1440.465	1748.83
1443.711	1757.36
1446.956	1773.08
1450.201	1744.41
1453.445	1780.55
1456.689	1770.17
1459.933	1777.44
1463.177	1810.74
1466.42	1791.27
1469.663	1775.43
1472.906	1789.92
1476.148	1827.79
1479.391	1791.1
1482.633	1772.8
1485.874	1796.21
1489.115	1800.44
1492.356	1784.23
1495.597	1766.52
1498.838	1755.47
1502.078	1744.71
1505.318	1726
1508.557	1749.25
1511.797	1747.16
1515.036	1789.41
1518.274	1757.35
1521.513	1710.11
1524.751	1717.76
1527.989	1737.53
1531.227	1752.44
1534.464	1765.54
1537.701	1754.38
1540.938	1761.29
1544.174	1718.09
1547.41	1704.11
1550.646	1733.66
1553.882	1773.69
1557.117	1820.98
1560.352	1822.89
1563.587	1791.27
1566.821	1765.82
1570.055	1775.5
1573.289	1756.05
1576.523	1798.34
1579.756	1810.1
1582.989	1827.5
1586.222	1792.93
1589.454	1816.98
1592.686	1804.96
1595.918	1827.18
1599.15	1826.11
1602.381	1856.32
1605.612	1846.19
1608.843	1922.05
1612.073	1860.19
1615.303	1853.31
1618.533	1849.5
1621.762	1849.52
1624.992	1824.38
1628.221	1827.88
1631.449	1818.15
1634.678	1833.46
1637.906	1809.46
1641.134	1825.57
1644.361	1798.27
1647.588	1791.04
1650.815	1808.93
1654.042	1779.46
1657.269	1799.66
1660.495	1789.31
1663.72	1771.53
1666.946	1747.32
1670.171	1736.08
1673.396	1712.3
1676.621	1697.42
1679.845	1690.77
1683.069	1693
1686.293	1713.11
1689.517	1709.99
1692.74	1676.59
1695.963	1691.27
1699.185	1727.45
1702.408	1709.29
1705.63	1727.22
1708.852	1743.2
1712.073	1721.45
1715.294	1738.45
1718.515	1772.23
1721.736	1740.87
1724.956	1723.47
1728.176	1741.54
1731.396	1758.47
1734.616	1750.38
1737.835	1782.1
1741.054	1757.46
1744.272	1754.61
1747.491	1789.24
1750.709	1801.08
1753.927	1769.94
1757.144	1790.13
1760.361	1840.02
1763.578	1813.11
1766.795	1775.52
1770.011	1763.75
1773.227	1780.37
1776.443	1817.46
1779.658	1848.72
1782.874	1801.45
1786.089	1799.19
1789.303	1801.66
1792.518	1795.16
1795.732	1786.5
1798.945	1804.07
1802.159	1837.03
1805.372	1797.41
1808.585	1793.49
1811.797	1793.25
1815.01	1809.6
1818.222	1835.87
1821.434	1799.14
1824.645	1828.89
1827.856	1844.54
1831.067	1865.63
1834.278	1812.58
1837.488	1800.92
1840.698	1894.01
1843.908	1855.46
1847.117	1833.37
1850.326	1781.3
1853.535	1821.6
1856.744	1857.82
1859.952	1799.68
1863.16	1800.63
1866.368	1819.91
1869.575	1915.81
1872.782	1818.24
1875.989	1770.93
1879.196	1806.07
1882.402	1802
1885.608	1829.04
1888.814	1791.35
1892.019	1722.45
1895.224	1767.62
1898.429	1738.97
1901.634	1725.17
1904.838	1708.24
1908.042	1762.02
1911.246	1774.12
1914.449	1749.89
1917.652	1731.54
1920.855	1716.93
1924.058	1732.88
1927.26	1773.48
1930.462	1790.29
1933.664	1826.17
1936.865	1781.05
1940.066	1794.54
1943.267	1747.78
1946.467	1754.78
1949.668	1767.18
1952.868	1827.15
1956.067	1822.31
1959.267	1773.25
1962.466	1791.59
1965.665	1773.7
1968.863	1770.89
1972.061	1769.38
1975.259	1763.38
1978.457	1826.03
1981.654	1792.25
1984.852	1794.62
1988.048	1760.11
1991.245	1746.17
1994.441	1820.92
1997.637	1777.66
2000.833	1764.44
2004.028	1790.94
2007.223	1844.76
2010.418	1835.53
2013.613	1791.34
2016.807	1792.61
2020.001	1784.53
2023.194	1797.47
2026.388	1787.54
2029.581	1739.93
2032.774	1796.47
2035.966	1807.08
2039.158	1765.25
2042.35	1778.17
2045.542	1717.34
2048.733	1781.84
2051.924	1766.04
2055.115	1778.91
2058.306	1755.97
2061.496	1797.68
2064.686	1836.78
2067.875	1756.41
2071.065	1754.19
2074.254	1765.4
2077.442	1729.02
2080.631	1797.34
2083.819	1750.91
2087.007	1747.12
2090.195	1736.67
2093.382	1741.43
2096.569	1731.77
2099.756	1702.07
2102.942	1748.65
2106.128	1760.54
2109.314	1754.56
2112.5	1748.14
2115.685	1717.66
2118.87	1723.02
2122.055	1774.53
2125.239	1759.2
2128.424	1754.81
2131.608	1791.49
2134.791	1777.18
2137.974	1803.9
2141.157	1796.19
2144.34	1776
2147.523	1760.35
2150.705	1786.3
2153.887	1756.05
2157.068	1739.11
2160.25	1716.65
2163.431	1733.51
2166.611	1715.23
2169.792	1736.4
2172.972	1662.82
2176.152	1701.26
2179.331	1721.62
2182.511	1730.34
2185.69	1745.36
2188.868	1753.37
2192.047	1776.08
2195.225	1800.03
2198.403	1755.09
2201.58	1740.69
2204.758	1725.25
2207.935	1787.97
2211.111	1722.8
2214.288	1713.31
2217.464	1739.67
2220.64	1700.47
2223.815	1739.6
2226.991	1684.86
2230.166	1695.93
2233.34	1736.67
2236.515	1747.88
2239.689	1800.96
2242.863	1760.27
2246.036	1805.2
2249.209	1787.58
2252.382	1800
2255.555	1812.83
2258.727	1775.28
2261.9	1798.17
2265.071	1792.31
2268.243	1789.92
2271.414	1750.34
2274.585	1740.43
2277.756	1791.52
2280.926	1756.84
2284.096	1778.9
2287.266	1725.29
2290.436	1763.22
2293.605	1775.74
2296.774	1812.39
2299.942	1811.36
2303.111	1822.7
2306.279	1867.5
2309.447	1856.44
2312.614	1832.91
2315.781	1850.71
2318.948	1833.32
2322.115	1865.98
2325.281	1778.56
2328.447	1783.77
2331.613	1755.62
2334.779	1755.96
2337.944	1750.17
2341.109	1752.96
2344.274	1745.27
2347.438	1716.66
2350.602	1736.81
2353.766	1741.87
2356.929	1735
2360.092	1765.88
2363.255	1743.88
2366.418	1725.08
2369.58	1760.4
2372.742	1709.73
2375.904	1690.84
2379.066	1682.45
2382.227	1701.06
2385.388	1668.38
2388.548	1634.44
2391.709	1662.89
2394.869	1661.86
2398.029	1696.75
2401.188	1684.94
2404.347	1669.15
2407.506	1689.45
2410.665	1736.18
2413.823	1715.65
2416.981	1704.84
2420.139	1714.68
2423.296	1747.31
2426.453	1725.57
2429.61	1740.32
2432.767	1726.59
2435.923	1761.69
2439.079	1709.96
2442.235	1736.5
2445.391	1687.75
2448.546	1728.64
2451.701	1753.99
2454.855	1755.82
2458.009	1773.2
2461.163	1761.72
2464.317	1738.92
2467.471	1759.69
2470.624	1783.15
2473.777	1781.44
2476.929	1795.27
2480.082	1814.53
2483.234	1797.71
2486.385	1746.94
2489.537	1739.47
2492.688	1738.68
2495.839	1751.48
2498.989	1765.33
2502.14	1752.28
2505.29	1748.34
2508.439	1766.77
2511.589	1722.11
2514.738	1718.95
2517.887	1733.68
2521.035	1799.06
2524.183	1759.32
2527.331	1751.81
2530.479	1751.25
2533.627	1752.49
