Data from N_1_DIV_WI_4N_Splice17_11-31-49-065.txt Node
Date: Sat Mar 14 11:31:49 EDT 2020
User: sa697716
Spectrometer: FLMS03696
Trigger mode: 0
Integration Time (sec): 3.180400E-1
Scans to average: 20
Electric dark correction enabled: true
Nonlinearity correction enabled: true
Boxcar width: 5
XAxis mode: Wavelengths
Number of Pixels in Spectrum: 2048
>>>>>Begin Spectral Data<<<<<
187.83	-181636.71
188.298	1415.91
188.766	760.28
189.233	640.96
189.701	922.62
190.169	1209.61
190.636	439.65
191.104	336.89
191.571	4.78
192.039	-68.46
192.506	-99.04
192.974	231.07
193.441	-459.84
193.908	-204.18
194.375	-98.58
194.842	10.1
195.31	10.83
195.777	108.08
196.244	201.88
196.711	100.33
197.177	78.44
197.644	51.36
198.111	24.24
198.578	40.77
199.045	32.09
199.511	12.02
199.978	-61.29
200.445	-28.51
200.911	-67.78
201.378	-129.02
201.844	-86.05
202.31	-126.03
202.777	-108.48
203.243	-25.63
203.709	-25.22
204.176	-18.48
204.642	-19.65
205.108	-4.4
205.574	-3.51
206.04	-33.48
206.506	-32.88
206.972	-55.29
207.438	-75.29
207.903	-89.84
208.369	-39.4
208.835	-26.34
209.301	-28.75
209.766	-26.11
210.232	-31.63
210.697	-63.51
211.163	-89.12
211.628	-182.89
212.094	-109.48
212.559	-37.39
213.024	-1.69
213.49	-12.53
213.955	-26.33
214.42	-58.49
214.885	-50.01
215.35	-34.61
215.815	41.82
216.28	62.43
216.745	72.21
217.21	100.24
217.675	50.49
218.14	48.15
218.604	22.15
219.069	30.95
219.534	65.29
219.998	58.83
220.463	51.94
220.927	-23.68
221.392	-18.37
221.856	-8.17
222.32	-70.47
222.785	-62.54
223.249	-92.97
223.713	-66.51
224.177	-57.09
224.642	-147.39
225.106	-189.01
225.57	-222.72
226.034	-70.24
226.497	-68.47
226.961	-34.55
227.425	10.75
227.889	-15.54
228.353	-9.42
228.816	-121.9
229.28	-109.02
229.744	-61.9
230.207	32.2
230.671	63.23
231.134	-36.89
231.597	-116.79
232.061	-210.85
232.524	-264.52
232.987	-159.91
233.45	-122.05
233.914	-91.46
234.377	-137.12
234.84	-114.68
235.303	-192.18
235.766	-249.9
236.229	-238.07
236.691	-177.03
237.154	-212.83
237.617	-152.88
238.08	-172.17
238.542	-214.45
239.005	-145.71
239.468	-126.99
239.93	-120.05
240.393	-90.87
240.855	-65.77
241.317	-91.38
241.78	-117.11
242.242	-104.06
242.704	-72.4
243.166	-52.64
243.629	-27.29
244.091	-24.98
244.553	-22.73
245.015	-11.02
245.477	-39.27
245.939	-89.81
246.4	-81.96
246.862	-43.01
247.324	-21.19
247.786	-68.04
248.247	-115.36
248.709	-206.98
249.17	-157.51
249.632	-76.27
250.093	-60.06
250.555	-60.4
251.016	8.36
251.477	21.74
251.939	10.12
252.4	-38.9
252.861	-78.44
253.322	-43.12
253.783	-74.97
254.244	-145.77
254.705	-174.67
255.166	-193.27
255.627	-177.9
256.088	-292.27
256.549	-322.29
257.009	-248.24
257.47	-285.26
257.931	-213.2
258.391	-153.8
258.852	-151.38
259.312	-166.07
259.773	-206.93
260.233	-136.53
260.694	-94.17
261.154	-101.95
261.614	-22.39
262.074	-33.16
262.534	-12.37
262.994	0.16
263.455	-18.62
263.915	-1.12
264.374	3.87
264.834	-1.11
265.294	-28.78
265.754	-31.44
266.214	-37.7
266.673	-53.46
267.133	-81.33
267.593	-99.16
268.052	-128.07
268.512	-131.49
268.971	-115.23
269.431	-92.88
269.89	-88.7
270.349	-112.25
270.809	-120.7
271.268	-104.87
271.727	-421.57
272.186	-232.86
272.645	-155.62
273.104	-143.95
273.563	-178.72
274.022	-194.83
274.481	-165.99
274.94	-102.51
275.399	-75.94
275.857	-108.25
276.316	-149.83
276.775	-114.25
277.233	-102.54
277.692	-76.56
278.15	-61.01
278.609	-28.33
279.067	-29.17
279.525	-4.69
279.984	-46.42
280.442	-84.01
280.9	-22.63
281.358	-7.2
281.816	-5.31
282.274	-28.66
282.732	-78.03
283.19	-110.48
283.648	-107.8
284.106	-113.2
284.564	-137.14
285.021	-95.75
285.479	-58.82
285.937	-88.46
286.394	-62.44
286.852	-66.12
287.309	-62.96
287.767	-18.69
288.224	6.53
288.682	-12.64
289.139	-9.99
289.596	3.33
290.053	-12.51
290.511	-55.61
290.968	-15.39
291.425	-57.14
291.882	11.18
292.339	21.79
292.796	-22.52
293.252	-28.25
293.709	20.15
294.166	24.72
294.623	17.32
295.079	-1.08
295.536	42.01
295.992	34.35
296.449	33.05
296.905	15.63
297.362	43.36
297.818	43.14
298.274	53.54
298.731	34.09
299.187	26.49
299.643	19.93
300.099	49.17
300.555	37.42
301.011	57.86
301.467	121.24
301.923	112.58
302.379	106.42
302.835	106.13
303.291	91.39
303.746	98.62
304.202	117.81
304.658	102.83
305.113	63.55
305.569	60.73
306.024	17.8
306.479	-58.37
306.935	-25.69
307.39	-74.02
307.845	-60.8
308.301	-53.44
308.756	-78.96
309.211	-53.54
309.666	-59.68
310.121	-42.59
310.576	-50.93
311.031	-76.32
311.486	-119.34
311.94	-175.81
312.395	-228.57
312.85	-491.36
313.305	-3215.45
313.759	-9808.02
314.214	-923.5
314.668	-715.83
315.123	-641.56
315.577	-210.54
316.032	-173.7
316.486	-210.7
316.94	-96.8
317.394	-49.84
317.849	-36.82
318.303	-30.16
318.757	-45.56
319.211	-39.62
319.665	-21.28
320.119	-20.36
320.572	-46.98
321.026	-9.54
321.48	-14.09
321.934	-38.73
322.387	-58.53
322.841	-34.43
323.295	26.08
323.748	-8.74
324.202	-12.06
324.655	-27.54
325.108	22.84
325.562	31.65
326.015	-8.54
326.468	9.25
326.921	12.72
327.374	59.05
327.827	56.43
328.28	11.42
328.733	32.2
329.186	32.24
329.639	40.98
330.092	12.06
330.545	12.4
330.997	27.14
331.45	65.33
331.903	96
332.355	90.78
332.808	62.1
333.26	52.6
333.713	64.86
334.165	51.88
334.617	28.93
335.069	-21.7
335.522	-96.46
335.974	-137.03
336.426	-324.37
336.878	-282.68
337.33	-108.32
337.782	-100.13
338.234	-109.14
338.686	-175.96
339.137	-248.31
339.589	-224.35
340.041	-135.7
340.493	-113.38
340.944	-121.68
341.396	-79.9
341.847	-44.85
342.299	-40.37
342.75	-26.44
343.201	-61.63
343.653	-49.99
344.104	-65.29
344.555	-52.64
345.006	-180.51
345.457	-67.45
345.908	-60.48
346.359	-43.37
346.81	-41.89
347.261	-74.3
347.712	-103.96
348.163	-115.34
348.613	-84.62
349.064	-75.18
349.515	-56.39
349.965	-39.65
350.416	-70.75
350.866	-109.54
351.317	-131.9
351.767	-233.69
352.217	-353.85
352.668	-257.28
353.118	-211.58
353.568	-281.79
354.018	-164.44
354.468	-166.46
354.918	-100.82
355.368	-100.72
355.818	-110.94
356.268	-537.96
356.718	-1784.83
357.168	-256.89
357.617	-133.78
358.067	-163.64
358.517	-143.82
358.966	-122.27
359.416	-58.46
359.865	-28.08
360.315	-116.92
360.764	-23.67
361.213	23.78
361.663	-39.89
362.112	-115.99
362.561	-165.67
363.01	-120.03
363.459	-77.67
363.908	-140.96
364.357	-105.22
364.806	-287.35
365.255	-159.99
365.703	-118.97
366.152	-114.04
366.601	-34.14
367.05	15.7
367.498	17.56
367.947	-0.68
368.395	-20.7
368.844	9.99
369.292	-27.15
369.74	12.37
370.189	-16.66
370.637	-81.16
371.085	-79.53
371.533	-129.53
371.981	-129.21
372.429	-101.14
372.877	-73.27
373.325	-39.07
373.773	-71.54
374.221	-73.61
374.669	-89.65
375.116	-66.62
375.564	-37
376.012	-54.46
376.459	-9.36
376.907	-28.35
377.354	-85.8
377.801	-72.71
378.249	-107.31
378.696	-113.14
379.143	-112.85
379.591	-169.68
380.038	-376.99
380.485	-280.09
380.932	-332.18
381.379	-265.86
381.826	-114.86
382.273	-72.46
382.72	-64.96
383.166	-44.07
383.613	-33.51
384.06	-22.95
384.506	-17.09
384.953	-1.2
385.4	-3.29
385.846	7.29
386.292	-23.52
386.739	-45.5
387.185	-58.65
387.631	-72.4
388.078	-46.26
388.524	-45.52
388.97	-34.26
389.416	-17.87
389.862	-9.56
390.308	-8.19
390.754	-7.66
391.2	-6.7
391.645	-14.47
392.091	21.4
392.537	25.83
392.983	-1.97
393.428	20.11
393.874	2.26
394.319	6.14
394.765	20.48
395.21	11.45
395.655	7.97
396.101	12.43
396.546	15.92
396.991	-4.37
397.436	-0.09
397.881	0.99
398.326	-13.05
398.771	-4.49
399.216	-11.14
399.661	-14.26
400.106	-10.48
400.551	-4.38
400.995	-3.57
401.44	1
401.885	3.04
402.329	-0.34
402.774	7.94
403.218	17.93
403.663	16.36
404.107	17.37
404.551	18.67
404.995	19.12
405.44	13.56
405.884	14.23
406.328	9.47
406.772	8.67
407.216	9.65
407.66	3.05
408.104	-4.33
408.547	-3.95
408.991	-4.03
409.435	-6.42
409.879	-2.32
410.322	0.16
410.766	1.53
411.209	7.22
411.653	7.56
412.096	10.04
412.54	9.48
412.983	8.25
413.426	11.31
413.869	10.31
414.312	13.43
414.756	10.39
415.199	8.18
415.642	8.28
416.085	7.89
416.527	7.59
416.97	4.67
417.413	6.5
417.856	3.47
418.298	2.51
418.741	1.81
419.184	-2.1
419.626	-8.8
420.069	-7.98
420.511	-8.3
420.953	-8.24
421.396	-9.26
421.838	-7.61
422.28	-7.6
422.722	-3.19
423.164	-6.11
423.606	-4.89
424.048	-6.17
424.49	-0.77
424.932	-2.48
425.374	-3.74
425.816	-7.64
426.258	-7.45
426.699	-7.79
427.141	-4.99
427.582	-7.06
428.024	-6.58
428.465	-9.36
428.907	-6.94
429.348	-7.74
429.789	-4.52
430.231	-0.19
430.672	1.86
431.113	1.8
431.554	2.33
431.995	-0.63
432.436	2.83
432.877	2.63
433.318	7.07
433.759	5.08
434.2	4.68
434.64	3.95
435.081	2.29
435.522	1.95
435.962	2.21
436.403	2.79
436.843	-0.96
437.284	-3.48
437.724	-5.24
438.164	-9.89
438.604	-8.25
439.045	-6.1
439.485	-2.38
439.925	-4.09
440.365	-3.97
440.805	-4.46
441.245	-3.53
441.685	-1.42
442.125	-1.15
442.564	-0.81
443.004	1.23
443.444	0.01
443.883	-0.3
444.323	-4.51
444.762	-6.8
445.202	-7.37
445.641	-5.65
446.081	-8.67
446.52	-7.67
446.959	-7.88
447.398	-5.75
447.837	-5.87
448.276	-4.75
448.716	-3.53
449.154	-4.92
449.593	-2.06
450.032	-1.39
450.471	-3.12
450.91	-3.87
451.349	-2.22
451.787	-2.43
452.226	-3.44
452.664	-3.97
453.103	-4.44
453.541	-6.41
453.98	-3.21
454.418	-3.66
454.856	-2.4
455.295	-2
455.733	-0.4
456.171	-1.74
456.609	-0.45
457.047	0.97
457.485	2.97
457.923	4.72
458.361	4.4
458.798	3.37
459.236	3.5
459.674	2.5
460.111	2.91
460.549	3.56
460.987	2.59
461.424	1.55
461.862	0.86
462.299	1.36
462.736	2.08
463.173	2.43
463.611	3.95
464.048	4.35
464.485	4.19
464.922	4.38
465.359	3.89
465.796	10.84
466.233	12.19
466.67	14.5
467.106	15.69
467.543	13.05
467.98	12.35
468.416	12.28
468.853	11.26
469.29	9.95
469.726	8.86
470.162	8.43
470.599	3.52
471.035	1.85
471.471	0.21
471.907	-3.53
472.344	-2.91
472.78	-2.64
473.216	-4.67
473.652	-4.5
474.088	-4.53
474.523	-3.82
474.959	-4.31
475.395	-4.87
475.831	-3.79
476.266	-3.71
476.702	-3.33
477.138	-2.47
477.573	-1.54
478.008	-1.01
478.444	0.03
478.879	1.77
479.314	1.68
479.75	1.53
480.185	1.95
480.62	1.22
481.055	0.47
481.49	1.66
481.925	1.61
482.36	3.16
482.795	2.64
483.229	1.56
483.664	1.07
484.099	1.39
484.534	2.35
484.968	2.83
485.403	3.01
485.837	2.61
486.271	1.69
486.706	1.16
487.14	-0.61
487.574	0.04
488.009	-0.05
488.443	-0.03
488.877	0.32
489.311	-0.26
489.745	-0.69
490.179	-0.4
490.613	1.93
491.046	1.68
491.48	1.57
491.914	1.96
492.348	2.03
492.781	2.34
493.215	2.22
493.648	1.61
494.082	1.63
494.515	2.24
494.948	2.81
495.382	0.76
495.815	1.31
496.248	1.56
496.681	1.01
497.114	0
497.547	0.28
497.98	1.4
498.413	2.4
498.846	3.05
499.279	1.85
499.711	1.26
500.144	1.16
500.577	1.97
501.009	1.66
501.442	2.87
501.874	3.96
502.306	3.67
502.739	5.06
503.171	4.66
503.603	4.59
504.036	4.96
504.468	4.78
504.9	5.09
505.332	4.09
505.764	4.93
506.196	4.33
506.627	3.98
507.059	4.43
507.491	1.24
507.923	1.25
508.354	1.29
508.786	1.34
509.217	1.68
509.649	1.98
510.08	1.53
510.512	1.58
510.943	1.35
511.374	2
511.805	1.24
512.237	1.55
512.668	0.9
513.099	-0.16
513.53	-0.22
513.961	-0.2
514.391	-1.01
514.822	1.01
515.253	1.29
515.684	1.37
516.114	1.43
516.545	2.07
516.975	2.11
517.406	1.87
517.836	1.77
518.267	1.48
518.697	2.08
519.127	2.71
519.558	1.34
519.988	0.86
520.418	0.27
520.848	-1.2
521.278	-1.64
521.708	17.76
522.138	18.55
522.567	17.97
522.997	18.02
523.427	16.96
523.857	17.13
524.286	17.35
524.716	17.63
525.145	18.29
525.575	19.23
526.004	18.71
526.433	-0.06
526.863	-0.81
527.292	0.7
527.721	1.11
528.15	0.97
528.579	0.91
529.008	0.72
529.437	-0.23
529.866	-0.92
530.295	-1.84
530.724	-0.73
531.152	-0.43
531.581	0.8
532.01	0.66
532.438	0.17
532.867	-0
533.295	0.84
533.723	1.07
534.152	0.99
534.58	1.57
535.008	2.62
535.436	3.11
535.865	2.48
536.293	1.41
536.721	1.14
537.149	1.36
537.576	2.42
538.004	1.51
538.432	1.12
538.86	1.59
539.287	1.36
539.715	0.97
540.143	0.31
540.57	0.54
540.998	0.45
541.425	2.1
541.852	2.17
542.28	1.29
542.707	1.1
543.134	0.73
543.561	1.11
543.988	1.38
544.415	0.83
544.842	0.66
545.269	0.58
545.696	0.92
546.123	-0.06
546.549	0.3
546.976	0.63
547.403	1.05
547.829	0.99
548.256	0.07
548.682	-0.24
549.108	0.85
549.535	0.59
549.961	0.37
550.387	0.41
550.813	1.3
551.24	1.21
551.666	0.99
552.092	0.9
552.518	1.59
552.943	2.79
553.369	2.54
553.795	1.65
554.221	2.08
554.646	2.19
555.072	3.27
555.498	1.53
555.923	0.89
556.349	1
556.774	0.68
557.199	0.07
557.625	-1.15
558.05	-0.82
558.475	-0.26
558.9	-0.36
559.325	0.17
559.75	-0.25
560.175	0.32
560.6	0.48
561.025	-0.04
561.449	0.24
561.874	0.15
562.299	1.14
562.723	0.57
563.148	0.42
563.572	-0.33
563.997	-0.52
564.421	-1.66
564.846	-1.74
565.27	-1.69
565.694	-1.33
566.118	-1.8
566.542	-0.63
566.966	-0.79
567.39	0.29
567.814	0.44
568.238	0.97
568.662	0.66
569.086	0.93
569.509	0.39
569.933	1.69
570.357	1.89
570.78	2.38
571.204	2.55
571.627	1.98
572.05	1.51
572.474	2.26
572.897	2.58
573.32	3.01
573.743	2.75
574.166	3.28
574.589	2.29
575.012	2.02
575.435	1.53
575.858	1.01
576.281	1.33
576.704	0.76
577.126	-0.57
577.549	-1.91
577.972	-2.28
578.394	-1.98
578.817	-0.47
579.239	-0.83
579.661	-0.33
580.084	0.62
580.506	0.74
580.928	0.65
581.35	1.25
581.772	1.85
582.194	2.91
582.616	2.52
583.038	1.6
583.46	-0.19
583.882	-0.11
584.303	-1.02
584.725	-1.96
585.147	1.87
585.568	2.24
585.99	2.81
586.411	3.43
586.833	3.52
587.254	3.49
587.675	4.28
588.096	4.18
588.518	4.13
588.939	3.98
589.36	4.34
589.781	-0.79
590.202	1.22
590.623	0.22
591.043	-1.4
591.464	-1.22
591.885	0.07
592.305	-0.4
592.726	0.09
593.147	0.5
593.567	1.05
593.987	1.14
594.408	1.2
594.828	-1.47
595.248	-0.43
595.669	0.89
596.089	0.51
596.509	-0.97
596.929	-0.77
597.349	-0.96
597.769	-1.25
598.189	-1.11
598.608	-1.66
599.028	-1.44
599.448	-1.65
599.867	-2.18
600.287	-2.78
600.706	-2.36
601.126	-1.24
601.545	-0.54
601.965	-0.52
602.384	-0.77
602.803	-0.96
603.222	-0.11
603.641	-0.01
604.061	0.73
604.48	0.77
604.898	0.62
605.317	0.75
605.736	0.19
606.155	0.29
606.574	0.66
606.992	1.12
607.411	1.75
607.829	0.84
608.248	0.42
608.666	-0.21
609.085	0.04
609.503	-0.17
609.921	0.24
610.339	0.74
610.758	0.07
611.176	-0.46
611.594	-0.46
612.012	-0.6
612.43	0.31
612.847	0.17
613.265	1.34
613.683	0.89
614.101	1.46
614.518	0.25
614.936	-0.07
615.353	0.68
615.771	1.32
616.188	1.74
616.606	1.56
617.023	1.98
617.44	2.31
617.857	1.28
618.274	0.95
618.691	1.31
619.108	1.8
619.525	1.59
619.942	1.81
620.359	1.48
620.776	1.47
621.192	2.32
621.609	2.29
622.026	2.62
622.442	3.08
622.859	3.2
623.275	2.54
623.691	2.03
624.108	2.26
624.524	1.72
624.94	2.13
625.356	1.57
625.772	0.24
626.188	-0.3
626.604	-0.31
627.02	-0.87
627.436	0.04
627.852	1.73
628.268	3.14
628.683	3.11
629.099	2.32
629.514	1.53
629.93	1.43
630.345	1.8
630.761	0.67
631.176	0.69
631.591	1.85
632.007	1.98
632.422	-0.37
632.837	-2.05
633.252	-1.29
633.667	-0.35
634.082	-0.03
634.497	0.27
634.911	1.71
635.326	2.49
635.741	2.54
636.155	2.21
636.57	2.64
636.984	3.64
637.399	5.52
637.813	4.53
638.228	3.8
638.642	3.64
639.056	3.86
639.47	3.15
639.884	3.41
640.298	3.77
640.712	3.87
641.126	3.43
641.54	2.86
641.954	0.71
642.368	0.79
642.781	3.34
643.195	3.06
643.609	3.1
644.022	2.27
644.436	1.32
644.849	0.45
645.262	0.13
645.676	-1.12
646.089	-0.69
646.502	0.77
646.915	0.77
647.328	-0.1
647.741	0.55
648.154	0.67
648.567	2.52
648.98	3.72
649.393	4.12
649.805	3.86
650.218	3.55
650.631	3.61
651.043	3.57
651.456	3.79
651.868	2.57
652.28	1.35
652.693	0.52
653.105	-0.53
653.517	-1
653.929	-1.31
654.341	-0.56
654.753	1.15
655.165	-0.03
655.577	-0.04
655.989	-0.33
656.401	-0.96
656.813	0.24
657.224	0.29
657.636	-0.8
658.047	-0.38
658.459	-0.15
658.87	-1.42
659.282	-2.17
659.693	-0.52
660.104	-1.2
660.515	-1.54
660.926	-1.61
661.338	-2.15
661.749	-2.67
662.159	-1.34
662.57	-2.13
662.981	-1.88
663.392	-1.08
663.803	-1.49
664.213	-2.24
664.624	-2.37
665.035	-2.83
665.445	-2.57
665.855	-1.49
666.266	-0.51
666.676	-0.63
667.086	-1.18
667.497	-1.05
667.907	-1.33
668.317	-1
668.727	1.34
669.137	0.88
669.547	1.24
669.956	0.34
670.366	0.25
670.776	0.31
671.186	-0.49
671.595	0.2
672.005	-0.88
672.414	-0.48
672.824	0.23
673.233	-2.28
673.642	-1.18
674.052	-0.57
674.461	1.68
674.87	1.08
675.279	2.27
675.688	1.18
676.097	2.25
676.506	3.06
676.915	2.65
677.323	1.88
677.732	2.3
678.141	1.29
678.549	1.09
678.958	-0.84
679.366	-1.74
679.775	-4.07
680.183	-1.91
680.592	-2.86
681	-2.71
681.408	-3
681.816	-2.69
682.224	-3.1
682.632	-0.64
683.04	-0.51
683.448	-0.02
683.856	1.61
684.264	3.21
684.671	1.41
685.079	0.08
685.487	-0.87
685.894	-1.31
686.302	-3.23
686.709	-2.54
687.116	-4.34
687.524	-3.48
687.931	-2.01
688.338	-1.9
688.745	-2.68
689.152	-2.71
689.559	-1.36
689.966	0.1
690.373	1.38
690.78	3.6
691.187	3.39
691.593	4.32
692	3.27
692.407	3.09
692.813	5.42
693.22	5.54
693.626	5.44
694.032	5.73
694.439	5.57
694.845	5.23
695.251	5.22
695.657	4.98
696.063	3.32
696.469	4.08
696.875	3.14
697.281	0.49
697.687	0.15
698.093	1.02
698.498	1.83
698.904	0.34
699.31	0.27
699.715	0.84
700.12	0.39
700.526	1.41
700.931	0.18
701.337	1.17
701.742	1.15
702.147	0.53
702.552	0.97
702.957	-0.94
703.362	0.17
703.767	-0.04
704.172	-0.89
704.577	-0.56
704.981	-2.1
705.386	-1.07
705.791	-1.19
706.195	-1.99
706.6	-1.18
707.004	-3.39
707.408	-3.07
707.813	-2.71
708.217	-2.48
708.621	-2.41
709.025	-2.66
709.43	-0.22
709.834	-0.52
710.237	-0.9
710.641	-0.23
711.045	0.57
711.449	2.67
711.853	5.65
712.256	4.91
712.66	4.57
713.064	4.88
713.467	5.62
713.87	4.94
714.274	5.91
714.677	6.44
715.08	7.21
715.484	7.15
715.887	8.56
716.29	6.01
716.693	7.01
717.096	8.3
717.499	8.05
717.901	7.27
718.304	6.49
718.707	4.39
719.109	3.32
719.512	1.95
719.915	3.44
720.317	1.55
720.719	0.83
721.122	0.65
721.524	0.7
721.926	4.87
722.328	4.8
722.731	4.32
723.133	4.69
723.535	4.94
723.937	5.67
724.338	6.47
724.74	8.14
725.142	52.28
725.544	55.36
725.945	65.51
726.347	61.13
726.748	61.47
727.15	62.37
727.551	65.78
727.952	63.75
728.354	62.74
728.755	61.25
729.156	59.91
729.557	16.11
729.958	12.08
730.359	2.06
730.76	2.84
731.161	3.17
731.562	1.33
731.962	-1.75
732.363	-0.57
732.763	-0.46
733.164	-2.47
733.564	-2.4
733.965	-1.16
734.365	-0.23
734.766	-0.94
735.166	-0.87
735.566	0.05
735.966	1.71
736.366	2.12
736.766	2.38
737.166	2.68
737.566	3.94
737.966	4.41
738.365	5.79
738.765	6.36
739.165	6.96
739.564	6.08
739.964	3.29
740.363	2.27
740.763	0.64
741.162	2.11
741.561	1.96
741.96	1.21
742.36	-0.29
742.759	-0.95
743.158	-2.11
743.557	-2.59
743.955	-3.45
744.354	-2.63
744.753	-3.39
745.152	-0.33
745.55	-2.2
745.949	-2.25
746.348	-1.37
746.746	-1.65
747.144	-0.27
747.543	-0.21
747.941	-0.98
748.339	-0.42
748.737	0.96
749.136	2.37
749.534	-0.43
749.932	0.72
750.33	0.21
750.727	-1.1
751.125	0.47
751.523	-1.2
751.921	1.43
752.318	2.91
752.716	4.28
753.113	3.8
753.511	4.01
753.908	5.76
754.305	10.01
754.703	10.32
755.1	12.64
755.497	11.98
755.894	11.86
756.291	9.34
756.688	8.71
757.085	7.13
757.482	7.57
757.878	8.49
758.275	8.8
758.672	1.53
759.068	0.55
759.465	-4.08
759.861	-7.48
760.258	-12.05
760.654	-12.29
761.05	-10.03
761.447	-8.47
761.843	-5.63
762.239	-5.44
762.635	-8.78
763.031	-11.15
763.427	-8.5
763.822	-7.24
764.218	-5.69
764.614	-2.14
765.01	-2.66
765.405	-3.23
765.801	-1.77
766.196	-2.21
766.592	-2.87
766.987	0.07
767.382	0.95
767.778	0.4
768.173	0.71
768.568	1.04
768.963	1.75
769.358	2.07
769.753	3.6
770.148	3.13
770.542	2.36
770.937	2.22
771.332	2.18
771.726	1.35
772.121	4.1
772.515	4.36
772.91	4
773.304	3.62
773.699	3.86
774.093	2.85
774.487	3.39
774.881	3.12
775.275	4.05
775.669	2.59
776.063	3.41
776.457	2.32
776.851	2.68
777.245	4.02
777.638	2.65
778.032	1.77
778.425	3.59
778.819	6.27
779.212	9.68
779.606	11.73
779.999	10.11
780.392	11.8
780.786	9.66
781.179	9.46
781.572	10.1
781.965	10.53
782.358	11.48
782.751	9.66
783.143	6.3
783.536	3.21
783.929	-0.91
784.322	-0.7
784.714	-2.99
785.107	-1.98
785.499	-2
785.891	-1.07
786.284	-0.52
786.676	-2.14
787.068	-0.68
787.46	0.33
787.852	0.33
788.245	0.86
788.636	1.14
789.028	3.27
789.42	4.5
789.812	5.92
790.204	3.98
790.595	6.83
790.987	8.2
791.378	7.23
791.77	5.61
792.161	5.44
792.553	5.64
792.944	7.62
793.335	5.61
793.726	4.45
794.117	4.5
794.508	2.74
794.899	-1.04
795.29	-1.88
795.681	-2.82
796.072	-3.76
796.463	15.03
796.853	18.43
797.244	18.84
797.634	19.31
798.025	20.46
798.415	17.82
798.806	19.69
799.196	21.65
799.586	25.82
799.976	28.34
800.366	27.54
800.756	6.68
801.146	6.09
801.536	4.35
801.926	3.7
802.316	3.38
802.706	3.67
803.095	4.53
803.485	3.63
803.874	0.2
804.264	-1.9
804.653	0.25
805.043	4.41
805.432	5.99
805.821	8.27
806.21	10.42
806.599	8.84
806.988	10.72
807.377	6.28
807.766	4.83
808.155	4.56
808.544	5.55
808.933	6.83
809.321	6.6
809.71	0.73
810.098	0.66
810.487	-5.67
810.875	-7.11
811.264	-9.43
811.652	4.73
812.04	7.54
812.428	10.04
812.816	8.53
813.204	11.21
813.592	6.58
813.98	7.83
814.368	12.12
814.756	18.11
815.144	23.21
815.531	30.62
815.919	16.22
816.306	17.73
816.694	16.13
817.081	17.07
817.469	16.63
817.856	12.53
818.243	10.63
818.63	2.67
819.017	6.78
819.404	4.94
819.791	-1.47
820.178	-3.41
820.565	-4.55
820.952	1.98
821.339	6.04
821.725	5.04
822.112	13.65
822.498	17.19
822.885	16.06
823.271	11.51
823.657	4.96
824.044	5.75
824.43	5.69
824.816	13.14
825.202	11.57
825.588	4.94
825.974	6.47
826.36	5.23
826.746	3.66
827.132	5.08
827.517	10.73
827.903	16
828.289	22.64
828.674	25.76
829.06	20.56
829.445	15.79
829.83	13.57
830.216	9.53
830.601	9.41
830.986	17.24
831.371	20.61
831.756	20.35
832.141	24.02
832.526	22.02
832.911	22.24
833.295	20.51
833.68	18.45
834.065	24.32
834.449	25.09
834.834	27.25
835.218	24.75
835.603	23.8
835.987	19.12
836.371	15
836.755	15.08
837.139	12.95
837.524	8.97
837.908	8.48
838.291	11.17
838.675	9.23
839.059	7.14
839.443	4.95
839.827	0.69
840.21	-1.2
840.594	0.72
840.977	-0.6
841.361	2.52
841.744	2.59
842.127	5.55
842.511	0.43
842.894	-1.55
843.277	-2.73
843.66	-6.62
844.043	-0.82
844.426	4.94
844.809	-0.28
845.191	1.74
845.574	-0.83
845.957	1.41
846.339	1.15
846.722	3.9
847.104	3.78
847.487	1.04
847.869	5.91
848.252	6.29
848.634	3.42
849.016	5.81
849.398	0.5
849.78	0.16
850.162	0.87
850.544	2.18
850.926	0.07
851.307	3.14
851.689	4.66
852.071	-1.56
852.452	-2.09
852.834	-1.64
853.215	4.04
853.597	5.43
853.978	10.1
854.359	13.3
854.741	14.96
855.122	12.05
855.503	11.11
855.884	11.09
856.265	15.13
856.646	7.94
857.026	10.31
857.407	6.31
857.788	6.55
858.169	-1.69
858.549	1.6
858.93	1.37
859.31	6.58
859.69	9.72
860.071	10.16
860.451	8.5
860.831	12.48
861.211	10.58
861.591	4.71
861.971	3.08
862.351	6.7
862.731	0.27
863.111	1.72
863.491	0.65
863.87	-3.24
864.25	-4.82
864.629	0.82
865.009	-0.46
865.388	2.13
865.768	3.78
866.147	7.41
866.526	8.72
866.905	11.3
867.284	2.25
867.663	-1.58
868.042	-1.92
868.421	-0.09
868.8	-8.08
869.179	-4.54
869.558	-8.44
869.936	-0.82
870.315	-3.95
870.693	-2.06
871.072	-8.94
871.45	-8.42
871.828	-4.66
872.207	-3.82
872.585	-1.43
872.963	-1.29
873.341	6.08
873.719	17.43
874.097	15.82
874.475	12.57
874.853	6.75
875.23	11.39
875.608	10.49
875.986	8.94
876.363	13.81
876.741	27.56
877.118	39.91
877.495	37.42
877.873	26.56
878.25	23.84
878.627	27.53
879.004	29.35
879.381	31.33
879.758	42.03
880.135	45.18
880.512	42.67
880.889	22.81
881.265	14.84
881.642	6.49
882.019	8.44
882.395	17.09
882.772	23.54
883.148	28.11
883.524	29.94
883.901	24.77
884.277	20.73
884.653	19.78
885.029	28.59
885.405	38.37
885.781	42.97
886.157	38.55
886.532	33.17
886.908	26.07
887.284	21.71
887.659	18.82
888.035	18.82
888.411	16.83
888.786	19.52
889.161	18.38
889.537	8.17
889.912	7.93
890.287	10.59
890.662	6.17
891.037	3.45
891.412	-2.05
891.787	-4.79
892.162	-1.03
892.536	0.23
892.911	3.37
893.286	-1.52
893.66	-0.82
894.035	-1.92
894.409	-7.14
894.784	0.84
895.158	2.49
895.532	8.75
895.906	10.25
896.281	12.73
896.655	18.83
897.029	14.55
897.402	20.51
897.776	19.4
898.15	15.24
898.524	18.31
898.898	13.78
899.271	20.15
899.645	29.45
900.018	29.26
900.392	22.65
900.765	16.35
901.138	11.31
901.511	3.28
901.884	15.74
902.258	26.6
902.631	33.92
903.003	34.6
903.376	24.14
903.749	24.45
904.122	14.72
904.495	7.02
904.867	1.23
905.24	15.96
905.612	12.66
905.985	-3.72
906.357	-19.23
906.729	-17.63
907.102	-9.69
907.474	-6.7
907.846	-4.74
908.218	5.6
908.59	16.71
908.962	14.08
909.334	19.3
909.705	32.34
910.077	37.76
910.449	44.76
910.82	48.74
911.192	56.14
911.563	77.14
911.935	69.52
912.306	60.68
912.677	54.43
913.048	65.71
913.419	51.26
913.79	33.96
914.161	30.25
914.532	35.51
914.903	22.9
915.274	11.86
915.645	-3.23
916.015	-17.63
916.386	-18.4
916.756	-20.05
917.127	-22.41
917.497	-1.69
917.868	9.28
918.238	14.93
918.608	8.86
918.978	1.19
919.348	-0.68
919.718	3.68
920.088	22.17
920.458	32.99
920.828	14.85
921.198	14.17
921.567	-4.6
921.937	-5.5
922.306	-20.12
922.676	-21.35
923.045	12.78
923.415	23.92
923.784	20.74
924.153	33.69
924.522	38.51
924.891	44.1
925.26	43.24
925.629	37.17
925.998	32.1
926.367	42.23
926.736	58.48
927.104	42.44
927.473	30.54
927.842	30.24
928.21	4.14
928.578	-24.17
928.947	-9.38
929.315	-4.33
929.683	15.28
930.051	28.61
930.42	28.52
930.788	9.03
931.156	5.01
931.523	39.71
931.891	32.52
932.259	51.86
932.627	96.1
932.994	108.93
933.362	117.02
933.729	112.92
934.097	102
934.464	107.58
934.831	94.8
935.199	91.78
935.566	83.95
935.933	85.72
936.3	95.68
936.667	55.88
937.034	131.15
937.401	95.95
937.767	93.82
938.134	94.24
938.501	91.34
938.867	105.37
939.234	188.32
939.6	125.24
939.967	167
940.333	122.54
940.699	99.6
941.065	-1.31
941.431	19.78
941.798	42.39
942.163	45.43
942.529	10.75
942.895	-7.42
943.261	-3.48
943.627	-2.55
943.992	4.74
944.358	18.67
944.723	57.76
945.089	57.66
945.454	56.11
945.82	35.01
946.185	30.55
946.55	56.19
946.915	81.43
947.28	108.62
947.645	104.5
948.01	114.54
948.375	114.06
948.74	88.14
949.104	103.56
949.469	75.13
949.834	98.74
950.198	192.59
950.562	137.05
950.927	109.23
951.291	129.02
951.655	91.81
952.02	26.46
952.384	15.36
952.748	33.4
953.112	52.39
953.476	74.13
953.839	64.93
954.203	77.43
954.567	92.5
954.931	94.27
955.294	81.43
955.658	76.63
956.021	136.69
956.385	157
956.748	307.36
957.111	180.84
957.474	161.99
957.837	-26.88
958.2	-332.44
958.563	-117.68
958.926	-35.18
959.289	-77.54
959.652	-34.22
960.015	30.37
960.377	61.87
960.74	-42.04
961.102	-52.24
961.465	22.13
961.827	456.46
962.189	905.27
962.552	630.09
962.914	532.76
963.276	339.24
963.638	257.63
964	225.97
964.362	170.07
964.724	176.98
965.085	136.83
965.447	130.05
965.809	59.14
966.17	49.8
966.532	40.05
966.893	34.61
967.255	33.04
967.616	14.08
967.977	19.9
968.338	20.6
968.699	34
969.061	44.3
969.421	40.03
969.782	36.92
970.143	44.16
970.504	71.21
970.865	94.73
971.225	119.64
971.586	138.62
971.946	167.08
972.307	128.12
972.667	137.72
973.027	119.34
973.388	74.18
973.748	56.49
974.108	76.53
974.468	28.38
974.828	73.53
975.188	44.89
975.548	25.38
975.907	25.51
976.267	17.55
976.627	28.34
976.986	24.28
977.346	17.1
977.705	31
978.064	31.52
978.424	36.83
978.783	6.13
979.142	-10.79
979.501	-3.77
979.86	-1.41
980.219	2.25
980.578	-26.77
980.937	-47.55
981.296	-17.65
981.654	-24.14
982.013	-91.41
982.371	-94.84
982.73	-118.51
983.088	-114.86
983.447	-115.48
983.805	-95.27
984.163	-124.81
984.521	-138.93
984.879	-269.14
985.237	24.37
985.595	-155.26
985.953	-63.23
986.311	-111.03
986.669	-51.33
987.026	-62.13
987.384	-115.77
987.741	-185.1
988.099	-91.95
988.456	-54.85
988.814	-3.58
989.171	-26.88
989.528	-43.02
989.885	-43.64
990.242	2.44
990.599	-9.97
990.956	-20.45
991.313	-3.69
991.67	1.19
992.027	38.75
992.383	31.1
992.74	27.8
993.096	39.82
993.453	46.17
993.809	43.19
994.165	38.59
994.522	80.36
994.878	98.85
995.234	108.52
995.59	108.91
995.946	32.98
996.302	48.83
996.658	55.22
997.013	20.85
997.369	51.69
997.725	82.15
998.08	62.4
998.436	-71.36
998.791	-80.82
999.147	-36.52
999.502	26.75
999.857	-6.52
1000.212	-48.71
1000.567	-68.9
1000.922	31.71
1001.277	18.73
1001.632	47.3
1001.987	42.7
1002.342	54.59
1002.696	81.97
1003.051	81.54
1003.406	94.02
1003.76	83.16
1004.114	94.99
1004.469	88.36
1004.823	76.25
1005.177	53.95
1005.531	34.86
1005.885	37.64
1006.239	48.59
1006.593	38.95
1006.947	50.79
1007.301	26.97
1007.655	36.79
1008.008	28.31
1008.362	16.68
1008.715	-6.57
1009.069	0.79
1009.422	76.25
1009.776	137.79
1010.129	103.82
1010.482	64.28
1010.835	3.66
1011.188	-30.59
1011.541	-64.4
1011.894	863.24
1012.247	-1221.37
1012.6	-95.42
1012.952	-1.09
1013.305	-89.94
1013.657	-36.05
1014.01	-47.44
1014.362	-53.07
1014.715	8.61
1015.067	33.36
1015.419	40.34
1015.771	44.27
1016.123	57.38
1016.475	69.67
1016.827	58.16
1017.179	92.54
1017.531	69.04
1017.883	59.48
1018.234	117.07
1018.586	117.94
1018.938	156.04
1019.289	219.59
1019.64	219.43
1019.992	147.25
1020.343	126.82
1020.694	163.38
1021.045	133.26
1021.396	146.97
1021.747	178.57
1022.098	128.79
1022.449	90.95
1022.8	30.94
1023.151	41.01
1023.501	74.65
1023.852	62.65
1024.202	76.64
1024.553	49.76
1024.903	88.31
1025.253	115.56
1025.604	128.08
1025.954	144.03
1026.304	143.96
1026.654	185.12
1027.004	193.91
1027.354	168.38
1027.703	273.77
1028.053	270.98
1028.403	589.13
1028.753	370.27
1029.102	-182.91
1029.452	-3627.21
1029.801	-141.3
1030.15	-63.5
1030.499	-89.81
897.758	1596.03
901.051	1539.98
904.343	1568.07
907.636	1572.37
910.928	1615.3
914.22	1560.4
917.511	1565.53
920.803	1596.58
924.094	1588.87
927.384	1595.89
930.675	1567.68
933.965	1544.74
937.255	1571.81
940.544	1550.14
943.834	1544.37
947.123	1503.75
950.411	1565.74
953.7	1554.69
956.988	1546.19
960.276	1492.86
963.563	1522.38
966.851	1531.16
970.138	1556.98
973.424	1556.52
976.711	1519.67
979.997	1555.53
983.283	1584.53
986.568	1537.93
989.853	1525.64
993.138	1540.9
996.423	1607.46
999.708	1580.95
1002.992	1599.71
1006.275	1536.11
1009.559	1536.1
1012.842	1606.08
1016.125	1573.73
1019.408	1558.44
1022.69	1593.61
1025.972	1615.83
1029.254	1600.08
1032.536	1576.88
1035.817	1578.41
1039.098	1556.98
1042.379	1588.58
1045.659	1607.39
1048.939	1569.04
1052.219	1569.8
1055.498	1561.74
1058.778	1554.63
1062.057	1539.96
1065.335	1557.2
1068.614	1561.98
1071.892	1555.63
1075.17	1592.55
1078.447	1598.06
1081.724	1595.01
1085.001	1608.62
1088.278	1592.36
1091.554	1595.17
1094.83	1593.51
1098.106	1614.99
1101.382	1635.15
1104.657	1632.7
1107.932	1633.4
1111.206	1616.93
1114.481	1579.52
1117.755	1582
1121.029	1577.3
1124.302	1620.38
1127.575	1597.24
1130.848	1597.72
1134.121	1577.89
1137.393	1546.08
1140.665	1591.22
1143.937	1575.25
1147.208	1538.88
1150.48	1581.92
1153.75	1571.08
1157.021	1572.98
1160.291	1555.42
1163.561	1594.61
1166.831	1566.57
1170.101	1582.94
1173.37	1556.52
1176.639	1525.99
1179.907	1557.46
1183.176	1572.98
1186.444	1575.6
1189.711	1590.86
1192.979	1608.4
1196.246	1579.39
1199.513	1587.28
1202.78	1591.53
1206.046	1598.22
1209.312	1619.1
1212.578	1625.59
1215.843	1600.97
1219.108	1583.14
1222.373	1598.72
1225.638	1582.02
1228.902	1575.33
1232.166	1545.7
1235.43	1538.55
1238.693	1560.16
1241.956	1555.27
1245.219	1590.63
1248.482	1578.68
1251.744	1581.23
1255.006	1659.8
1258.268	1621.73
1261.529	1596.67
1264.79	1595.25
1268.051	1661.34
1271.312	1666.39
1274.572	1641.72
1277.832	1631.61
1281.092	1617.93
1284.351	1615.04
1287.61	1604
1290.869	1563.29
1294.128	1562.46
1297.386	1587.85
1300.644	1583.25
1303.902	1590.09
1307.159	1498.31
1310.416	1534.67
1313.673	1554.47
1316.93	1554.87
1320.186	1573.52
1323.442	1595.12
1326.697	1595.36
1329.953	1575.24
1333.208	1602.37
1336.463	1587.19
1339.717	1564.97
1342.972	1640.3
1346.226	1620.72
1349.479	1593.3
1352.733	1577.08
1355.986	1585.89
1359.238	1573.11
1362.491	1575.41
1365.743	1579.2
1368.995	1573.98
1372.247	1581.78
1375.498	1593.33
1378.749	1624.53
1382	1593.81
1385.251	1612.71
1388.501	1585.32
1391.751	1584.05
1395	1566.17
1398.25	1586.08
1401.499	1605.58
1404.748	1574.45
1407.996	1563.52
1411.244	1559.89
1414.492	1551.46
1417.74	1541.94
1420.987	1548.21
1424.234	1589.33
1427.481	1560.62
1430.728	1598.54
1433.974	1584.29
1437.22	1582.31
1440.465	1576.95
1443.711	1581.62
1446.956	1594.07
1450.201	1572.62
1453.445	1601.32
1456.689	1592.01
1459.933	1599.96
1463.177	1629.52
1466.42	1612
1469.663	1595.58
1472.906	1606.29
1476.148	1641.22
1479.391	1608.19
1482.633	1594.33
1485.874	1612.79
1489.115	1619.56
1492.356	1606.42
1495.597	1588.96
1498.838	1581.41
1502.078	1572.56
1505.318	1558.85
1508.557	1578.5
1511.797	1574.17
1515.036	1613.66
1518.274	1585
1521.513	1543.51
1524.751	1550.78
1527.989	1565.05
1531.227	1577.83
1534.464	1583.43
1537.701	1576.67
1540.938	1581.57
1544.174	1542.94
1547.41	1534.81
1550.646	1558.78
1553.882	1591.55
1557.117	1636.9
1560.352	1638.32
1563.587	1608.98
1566.821	1588.65
1570.055	1601.08
1573.289	1582.92
1576.523	1618.7
1579.756	1630.22
1582.989	1642.38
1586.222	1612.75
1589.454	1635.88
1592.686	1625.22
1595.918	1643.96
1599.15	1644.16
1602.381	1671.94
1605.612	1660.33
1608.843	1723.8
1612.073	1670.88
1615.303	1664.63
1618.533	1662.06
1621.762	1660.49
1624.992	1638.89
1628.221	1636.35
1631.449	1628.39
1634.678	1645.72
1637.906	1621.79
1641.134	1637
1644.361	1614.76
1647.588	1608.14
1650.815	1625.38
1654.042	1599.4
1657.269	1619.03
1660.495	1607.89
1663.72	1595.87
1666.946	1573.3
1670.171	1561.29
1673.396	1542.37
1676.621	1532.28
1679.845	1527.62
1683.069	1530.34
1686.293	1547.19
1689.517	1545.77
1692.74	1516.88
1695.963	1529.66
1699.185	1558.85
1702.408	1542.13
1705.63	1560.39
1708.852	1573.34
1712.073	1549.65
1715.294	1563.73
1718.515	1595.77
1721.736	1567.52
1724.956	1553.13
1728.176	1569.23
1731.396	1582.72
1734.616	1577.85
1737.835	1608.76
1741.054	1582.88
1744.272	1581.65
1747.491	1613.48
1750.709	1624.23
1753.927	1595.2
1757.144	1614.04
1760.361	1653.49
1763.578	1633.84
1766.795	1600.22
1770.011	1589.05
1773.227	1603.26
1776.443	1635.91
1779.658	1664.35
1782.874	1623.52
1786.089	1619.61
1789.303	1619.77
1792.518	1618.52
1795.732	1610.28
1798.945	1620.63
1802.159	1653.23
1805.372	1616.13
1808.585	1613.07
1811.797	1613.48
1815.01	1626.91
1818.222	1648.5
1821.434	1620.54
1824.645	1647.67
1827.856	1654.2
1831.067	1675.34
1834.278	1632.58
1837.488	1620.84
1840.698	1704.5
1843.908	1670.13
1847.117	1650.87
1850.326	1604.81
1853.535	1643.12
1856.744	1672.22
1859.952	1620.62
1863.16	1623.09
1866.368	1637.67
1869.575	1720.34
1872.782	1638.53
1875.989	1594.57
1879.196	1626.21
1882.402	1622.33
1885.608	1645.6
1888.814	1609.4
1892.019	1547.86
1895.224	1588.45
1898.429	1565.83
1901.634	1554.55
1904.838	1539.82
1908.042	1581.69
1911.246	1596.02
1914.449	1573.23
1917.652	1557.66
1920.855	1544.81
1924.058	1558.54
1927.26	1595.75
1930.462	1608.26
1933.664	1636.39
1936.865	1600.05
1940.066	1609.36
1943.267	1571.63
1946.467	1576.85
1949.668	1586.01
1952.868	1637.93
1956.067	1635.66
1959.267	1593.49
1962.466	1609.32
1965.665	1596.55
1968.863	1593.84
1972.061	1588.98
1975.259	1584.6
1978.457	1637.33
1981.654	1608.82
1984.852	1610.58
1988.048	1583.21
1991.245	1569.14
1994.441	1634.27
1997.637	1596.44
2000.833	1585.85
2004.028	1610.47
2007.223	1659.44
2010.418	1649.22
2013.613	1611.79
2016.807	1611.18
2020.001	1606.82
2023.194	1618.45
2026.388	1609.05
2029.581	1567.62
2032.774	1616.47
2035.966	1621.79
2039.158	1583.6
2042.35	1596.58
2045.542	1545.27
2048.733	1601.99
2051.924	1590.16
2055.115	1599.06
2058.306	1577.35
2061.496	1614.31
2064.686	1651.83
2067.875	1580.43
2071.065	1581.26
2074.254	1592.65
2077.442	1560.69
2080.631	1618.25
2083.819	1577.52
2087.007	1572.63
2090.195	1565.37
2093.382	1570.36
2096.569	1563
2099.756	1533.44
2102.942	1576.42
2106.128	1584.28
2109.314	1579
2112.5	1570.53
2115.685	1545.28
2118.87	1550.94
2122.055	1598.24
2125.239	1582.08
2128.424	1574.87
2131.608	1611.96
2134.791	1600.49
2137.974	1624.27
2141.157	1616.92
2144.34	1599.15
2147.523	1587.55
2150.705	1612.47
2153.887	1584.01
2157.068	1566.33
2160.25	1549.14
2163.431	1567.79
2166.611	1546.24
2169.792	1564.46
2172.972	1499.2
2176.152	1537.81
2179.331	1554.58
2182.511	1556.86
2185.69	1569.09
2188.868	1574.05
2192.047	1597.7
2195.225	1619.13
2198.403	1578
2201.58	1568.56
2204.758	1552.85
2207.935	1607.97
2211.111	1550.51
2214.288	1541.61
2217.464	1566.16
2220.64	1536.81
2223.815	1571.85
2226.991	1522.37
2230.166	1531.06
2233.34	1564.11
2236.515	1572.86
2239.689	1622.77
2242.863	1585.95
2246.036	1621.89
2249.209	1608.18
2252.382	1621.63
2255.555	1627.78
2258.727	1595.95
2261.9	1616.77
2265.071	1612.26
2268.243	1612.81
2271.414	1578.37
2274.585	1566.93
2277.756	1611.68
2280.926	1581.79
2284.096	1603.01
2287.266	1556.26
2290.436	1591.58
2293.605	1601.65
2296.774	1628.61
2299.942	1632.65
2303.111	1642.11
2306.279	1678.79
2309.447	1671.45
2312.614	1650.69
2315.781	1667.37
2318.948	1648.42
2322.115	1676.29
2325.281	1599.03
2328.447	1603.72
2331.613	1584.42
2334.779	1579.59
2337.944	1576.65
2341.109	1579.28
2344.274	1569.18
2347.438	1546.29
2350.602	1562.49
2353.766	1569.22
2356.929	1561.48
2360.092	1589.99
2363.255	1569.78
2366.418	1549.83
2369.58	1578.9
2372.742	1550.56
2375.904	1533.88
2379.066	1530.26
2382.227	1546.71
2385.388	1518.26
2388.548	1489.12
2391.709	1514.89
2394.869	1510.05
2398.029	1542.26
2401.188	1532.87
2404.347	1521.2
2407.506	1521.92
2410.665	1563.2
2413.823	1546.51
2416.981	1535.47
2420.139	1545.65
2423.296	1572.31
2426.453	1552.68
2429.61	1570.33
2432.767	1556
2435.923	1584.17
2439.079	1542.77
2442.235	1566.64
2445.391	1524.43
2448.546	1558.23
2451.701	1581.88
2454.855	1580.75
2458.009	1597.48
2461.163	1589.04
2464.317	1567.88
2467.471	1586.04
2470.624	1607.96
2473.777	1601.86
2476.929	1614.12
2480.082	1630.28
2483.234	1615.97
2486.385	1571.36
2489.537	1566.94
2492.688	1564.6
2495.839	1580.68
2498.989	1589.38
2502.14	1580.23
2505.29	1574.85
2508.439	1590.15
2511.589	1551.63
2514.738	1548.15
2517.887	1559.1
2521.035	1614.35
2524.183	1582.44
2527.331	1576.1
2530.479	1569.18
2533.627	1572.13
