Data from N_1_DEC_CT_2N_Splice17_11-34-39-056.txt Node
Date: Sat Mar 14 11:34:39 EDT 2020
User: sa697716
Spectrometer: FLMS03696
Trigger mode: 0
Integration Time (sec): 3.180400E-1
Scans to average: 20
Electric dark correction enabled: true
Nonlinearity correction enabled: true
Boxcar width: 5
XAxis mode: Wavelengths
Number of Pixels in Spectrum: 2048
>>>>>Begin Spectral Data<<<<<
187.83	-129068.89
188.298	1008.48
188.766	542.81
189.233	490.83
189.701	674.97
190.169	934.44
190.636	366.11
191.104	321.84
191.571	56.33
192.039	-35.88
192.506	-80.01
192.974	146.83
193.441	-215.77
193.908	27.96
194.375	-19.27
194.842	16.27
195.31	82.54
195.777	99.21
196.244	183.59
196.711	84.68
197.177	67.14
197.644	23.72
198.111	20.87
198.578	0.38
199.045	-22.57
199.511	-53.62
199.978	-128.37
200.445	-108.65
200.911	-138.93
201.378	-237.97
201.844	-154.1
202.31	-311.76
202.777	-307.58
203.243	-153.43
203.709	-148.55
204.176	-171.19
204.642	-121.08
205.108	-105.16
205.574	-97.61
206.04	-119.12
206.506	-110.68
206.972	-135.73
207.438	-139.58
207.903	-167.91
208.369	-123.66
208.835	-113.02
209.301	-113.85
209.766	-134.07
210.232	-132.69
210.697	-162.21
211.163	-188.9
211.628	-282.76
212.094	-187.65
212.559	-133.43
213.024	-74.15
213.49	-88.76
213.955	-82.15
214.42	-117.4
214.885	-88.38
215.35	-58.99
215.815	19.42
216.28	34.71
216.745	22.31
217.21	47.13
217.675	15.6
218.14	24.99
218.604	0.02
219.069	-4.12
219.534	39.45
219.998	26.67
220.463	20.24
220.927	-50.66
221.392	-50.57
221.856	-36.44
222.32	-116.7
222.785	-112.45
223.249	-133.92
223.713	-150.83
224.177	-143.1
224.642	-231.6
225.106	-289.94
225.57	-305.9
226.034	-171.72
226.497	-276.25
226.961	-158.67
227.425	-103.69
227.889	-151.14
228.353	-216.85
228.816	-509.13
229.28	-461.21
229.744	-414.97
230.207	-186.83
230.671	-189.62
231.134	-459.13
231.597	-423.49
232.061	-544.84
232.524	-622.9
232.987	-432.01
233.45	-266.49
233.914	-199.23
234.377	-213.92
234.84	-173.64
235.303	-247.62
235.766	-289.25
236.229	-302.96
236.691	-205.23
237.154	-238.98
237.617	-159.57
238.08	-168.07
238.542	-232.21
239.005	-164.08
239.468	-154.7
239.93	-146.41
240.393	-111.64
240.855	-86.48
241.317	-90.28
241.78	-123.73
242.242	-110.68
242.704	-86.58
243.166	-68.89
243.629	-44.33
244.091	-35.86
244.553	-48.91
245.015	-36.07
245.477	-82.9
245.939	-171.41
246.4	-162.23
246.862	-168.77
247.324	-161.59
247.786	-239.77
248.247	-372.69
248.709	-474.1
249.17	-360.89
249.632	-251.35
250.093	-239.5
250.555	-193.71
251.016	-68.35
251.477	-55.75
251.939	-49.6
252.4	-62.86
252.861	-92.27
253.322	-40.87
253.783	-80.31
254.244	-148.07
254.705	-167.85
255.166	-214.28
255.627	-224.07
256.088	-331.34
256.549	-343.44
257.009	-283.04
257.47	-371.29
257.931	-278.99
258.391	-184.46
258.852	-166.73
259.312	-168.87
259.773	-212.63
260.233	-108.21
260.694	-41.34
261.154	-44.9
261.614	-0.71
262.074	-5.42
262.534	19.62
262.994	29.66
263.455	-4.02
263.915	13.03
264.374	11.76
264.834	14.24
265.294	-24.11
265.754	-25.3
266.214	-19.85
266.673	-28.51
267.133	-53.31
267.593	-74.28
268.052	-107.52
268.512	-98.44
268.971	-71.74
269.431	-67.54
269.89	-65.04
270.349	-91.53
270.809	-107.43
271.268	-115.64
271.727	-390.32
272.186	-240.42
272.645	-174.54
273.104	-167.83
273.563	-232.69
274.022	-257.49
274.481	-196.4
274.94	-122.71
275.399	-98.17
275.857	-149.12
276.316	-219.26
276.775	-189.41
277.233	-180.38
277.692	-130.56
278.15	-98.42
278.609	-68.71
279.067	-62.63
279.525	-47.65
279.984	-101.82
280.442	-115.86
280.9	-9.27
281.358	-10.12
281.816	-14.39
282.274	-32.75
282.732	-79.6
283.19	-111.15
283.648	-127.76
284.106	-160.37
284.564	-173.63
285.021	-131.41
285.479	-121.58
285.937	-152.4
286.394	-122.86
286.852	-129.65
287.309	-136.84
287.767	-96.19
288.224	-79
288.682	-89.55
289.139	-68.98
289.596	-66.29
290.053	-102.04
290.511	-122.19
290.968	-129.76
291.425	-196.01
291.882	-100.06
292.339	-53.98
292.796	-93.51
293.252	-103.44
293.709	-44.49
294.166	-50.95
294.623	-68.79
295.079	-53.7
295.536	-32.65
295.992	-22.38
296.449	-14.63
296.905	-14.44
297.362	15.01
297.818	8.56
298.274	36.3
298.731	22.78
299.187	21.27
299.643	32.65
300.099	14.61
300.555	5.57
301.011	32.49
301.467	77.6
301.923	51.13
302.379	28.86
302.835	25.75
303.291	11.08
303.746	-3.72
304.202	-34.25
304.658	-60.95
305.113	-8.55
305.569	-12.74
306.024	-61.15
306.479	-127.09
306.935	-99.26
307.39	-148.91
307.845	-118.78
308.301	-100.24
308.756	-96.27
309.211	-67.71
309.666	-76.73
310.121	-51.28
310.576	-57.72
311.031	-82.56
311.486	-119.05
311.94	-151.55
312.395	-227.01
312.85	-538.66
313.305	-3379.39
313.759	-15047.19
314.214	-1128.83
314.668	-827.27
315.123	-769.33
315.577	-238.63
316.032	-204.47
316.486	-235.9
316.94	-127.29
317.394	-30.72
317.849	-8.72
318.303	-15.76
318.757	-13.69
319.211	-23.55
319.665	-13.66
320.119	-28.32
320.572	-71.94
321.026	-36.45
321.48	-28.2
321.934	-56.99
322.387	-79.67
322.841	-80.9
323.295	-29.36
323.748	-64.02
324.202	-37.64
324.655	-47.7
325.108	11.99
325.562	37.73
326.015	6.15
326.468	11.96
326.921	26.71
327.374	31.39
327.827	48.11
328.28	43.98
328.733	44.22
329.186	19.16
329.639	20.65
330.092	-2.34
330.545	-3.68
330.997	6.78
331.45	29.27
331.903	43.39
332.355	29.97
332.808	-5.58
333.26	7.97
333.713	-4.01
334.165	-48.83
334.617	-100.7
335.069	-139.46
335.522	-326.84
335.974	-410.95
336.426	-481.97
336.878	-394.38
337.33	-182.49
337.782	-183.35
338.234	-242.68
338.686	-315.12
339.137	-344.32
339.589	-333.52
340.041	-241
340.493	-203.49
340.944	-173.82
341.396	-176.52
341.847	-104.33
342.299	-98.3
342.75	-88.29
343.201	-118.77
343.653	-116.47
344.104	-148.99
344.555	-86
345.006	-195.64
345.457	-53.56
345.908	-115.25
346.359	-80.19
346.81	-86.96
347.261	-107.5
347.712	-129.88
348.163	-158.42
348.613	-122.73
349.064	-98.4
349.515	-96.81
349.965	-73.26
350.416	-124
350.866	-106.76
351.317	-143.39
351.767	-240.35
352.217	-318.14
352.668	-232.78
353.118	-197.5
353.568	-291.06
354.018	-214.35
354.468	-169.66
354.918	-104.45
355.368	-104.65
355.818	-166.68
356.268	-686.81
356.718	-2648.78
357.168	-601.62
357.617	-309.11
358.067	-373.91
358.517	-299.92
358.966	-361.47
359.416	-402.68
359.865	-534.59
360.315	-624.1
360.764	-263.11
361.213	-75.05
361.663	-110.1
362.112	-151.22
362.561	-304.91
363.01	-224.09
363.459	-212.46
363.908	-242.26
364.357	-172.58
364.806	-326.98
365.255	-245.1
365.703	-190.28
366.152	-203.85
366.601	-134.82
367.05	-76.23
367.498	-61.26
367.947	-72.05
368.395	-79.33
368.844	-64.65
369.292	-134.4
369.74	-60.97
370.189	-116.86
370.637	-166.39
371.085	-167.19
371.533	-250.88
371.981	-275.82
372.429	-200.4
372.877	-174.69
373.325	-110.14
373.773	-110.21
374.221	-104.88
374.669	-152.97
375.116	-106.48
375.564	-101.96
376.012	-125.04
376.459	-74.62
376.907	-121.89
377.354	-206.52
377.801	-202.81
378.249	-246.46
378.696	-358.07
379.143	-408.56
379.591	-435.34
380.038	-792.99
380.485	-492.76
380.932	-591.84
381.379	-487.91
381.826	-247.84
382.273	-149.95
382.72	-148.51
383.166	-126.5
383.613	-58.5
384.06	-62.16
384.506	-51.13
384.953	-28.71
385.4	-52.88
385.846	-35.46
386.292	-40.93
386.739	-64.28
387.185	-74.33
387.631	-79.62
388.078	-73.93
388.524	-89.29
388.97	-67.78
389.416	-52.37
389.862	-56.84
390.308	-53.1
390.754	-47.85
391.2	-58.78
391.645	-63.26
392.091	-28.83
392.537	-11.62
392.983	-23.58
393.428	6.21
393.874	-1.72
394.319	9.71
394.765	36.36
395.21	34.26
395.655	34.81
396.101	28.18
396.546	34.7
396.991	10.88
397.436	3.6
397.881	1.59
398.326	-17.04
398.771	-7.48
399.216	-16.23
399.661	-25.78
400.106	-17.86
400.551	-15.42
400.995	-9.21
401.44	-10.73
401.885	-4.27
402.329	-2.77
402.774	4.03
403.218	18.59
403.663	12.73
404.107	14.13
404.551	19.67
404.995	13.72
405.44	6.91
405.884	5.17
406.328	0.99
406.772	-4.69
407.216	-3.39
407.66	-9.16
408.104	-21.27
408.547	-19.95
408.991	-23.57
409.435	-26.97
409.879	-23.06
410.322	-20.26
410.766	-18.73
411.209	-13.03
411.653	-11.86
412.096	-8.82
412.54	-10.9
412.983	-7.54
413.426	-3.21
413.869	-2.18
414.312	1.78
414.756	-0.37
415.199	-0.26
415.642	3.46
416.085	3.35
416.527	2.67
416.97	0.29
417.413	3.71
417.856	1.35
418.298	-0.89
418.741	-2.61
419.184	-5.57
419.626	-11.19
420.069	-10.74
420.511	-13.39
420.953	-11.47
421.396	-9.22
421.838	-9.88
422.28	-9.18
422.722	-5.86
423.164	-8.84
423.606	-6.29
424.048	-8.55
424.49	-3.16
424.932	-5.87
425.374	-6.11
425.816	-9.29
426.258	-10.85
426.699	-10.1
427.141	-7.84
427.582	-12.58
428.024	-12.38
428.465	-17.71
428.907	-15.71
429.348	-16.13
429.789	-13.95
430.231	-10.74
430.672	-11.9
431.113	-12.02
431.554	-12.78
431.995	-15.64
432.436	-11.01
432.877	-10.22
433.318	-3.33
433.759	-4.06
434.2	-4.26
434.64	-4.04
435.081	-5.09
435.522	-3.72
435.962	-3.55
436.403	-0.51
436.843	-3.54
437.284	-5.19
437.724	-5.89
438.164	-9.72
438.604	-10.39
439.045	-9.61
439.485	-5.31
439.925	-6.19
440.365	-6.34
440.805	-6.1
441.245	-4.74
441.685	-3.31
442.125	-3.99
442.564	-3.63
443.004	-1.69
443.444	-0.32
443.883	-0.12
444.323	-5.96
444.762	-10.34
445.202	-10.37
445.641	-10.19
446.081	-13.44
446.52	-12.55
446.959	-10.85
447.398	-8.81
447.837	-9.92
448.276	-10.84
448.716	-9.21
449.154	-9.56
449.593	-5.46
450.032	-5.38
450.471	-6.69
450.91	-7.21
451.349	-5.33
451.787	-6.69
452.226	-9.38
452.664	-9.46
453.103	-9.83
453.541	-12.18
453.98	-9.45
454.418	-9.97
454.856	-8.11
455.295	-7.01
455.733	-6.47
456.171	-8.12
456.609	-6.01
457.047	-4.17
457.485	-3.01
457.923	-0.48
458.361	-0.59
458.798	-1.23
459.236	-1.05
459.674	-2.41
460.111	-1.1
460.549	-0.33
460.987	-1.05
461.424	-2.57
461.862	-2.34
462.299	-1.47
462.736	-1.23
463.173	-1.21
463.611	3.01
464.048	3.83
464.485	4
464.922	3.29
465.359	2.38
465.796	10.36
466.233	11.62
466.67	13.98
467.106	14.83
467.543	13.21
467.98	12.52
468.416	9.52
468.853	8.22
469.29	8.02
469.726	6.93
470.162	6.74
470.599	1.01
471.035	-0.62
471.471	-2.06
471.907	-4.62
472.344	-4.19
472.78	-2.62
473.216	-3.33
473.652	-2.93
474.088	-4.31
474.523	-3.39
474.959	-3.97
475.395	-4.26
475.831	-2.98
476.266	-3.06
476.702	-3.61
477.138	-3.9
477.573	-4.48
478.008	-3.82
478.444	-3.11
478.879	-0.82
479.314	-0.83
479.75	-0.22
480.185	-0.54
480.62	-1.19
481.055	-1.79
481.49	-0.49
481.925	0.23
482.36	2.01
482.795	0.63
483.229	-0.68
483.664	-1.17
484.099	-0.78
484.534	-0.16
484.968	-0.27
485.403	-0.53
485.837	-1.39
486.271	-2
486.706	-2.59
487.14	-4.12
487.574	-3.23
488.009	-2.85
488.443	-3.38
488.877	-2.84
489.311	-3.29
489.745	-2.4
490.179	-1.86
490.613	0.24
491.046	0.36
491.48	0.41
491.914	0.93
492.348	0.62
492.781	0.79
493.215	0.95
493.648	-0.36
494.082	-0.49
494.515	-0.28
494.948	0.37
495.382	-1.16
495.815	-0.95
496.248	-0.73
496.681	-1.08
497.114	-1.79
497.547	-1.16
497.98	-0.17
498.413	1.56
498.846	1.88
499.279	0.61
499.711	0.05
500.144	0.06
500.577	0.66
501.009	0.35
501.442	1.34
501.874	2.81
502.306	2.22
502.739	3.72
503.171	2.71
503.603	3.04
504.036	3.1
504.468	2.96
504.9	2.93
505.332	2.08
505.764	2.75
506.196	2.29
506.627	1.93
507.059	1.77
507.491	-0.93
507.923	-0.72
508.354	-0.44
508.786	0.04
509.217	0.24
509.649	0.03
510.08	-0.26
510.512	0.57
510.943	0.33
511.374	0.41
511.805	0.22
512.237	0.41
512.668	-0.3
513.099	-1.56
513.53	-1.7
513.961	-1.41
514.391	-0.84
514.822	1.01
515.253	0.26
515.684	0.38
516.114	0.31
516.545	1.01
516.975	1.22
517.406	0.95
517.836	0.53
518.267	0.82
518.697	0.78
519.127	0.69
519.558	-0.76
519.988	-1.37
520.418	-1.93
520.848	-3.14
521.278	-3.77
521.708	15.83
522.138	16.51
522.567	16.5
522.997	16.03
523.427	15.53
523.857	15.48
524.286	15.84
524.716	16.15
525.145	16.61
525.575	17.81
526.004	17.77
526.433	-1.27
526.863	-1.44
527.292	0.14
527.721	1.14
528.15	0.81
528.579	1.25
529.008	1.51
529.437	0.76
529.866	0.28
530.295	-0.62
530.724	0.25
531.152	-0.19
531.581	0.36
532.01	-0.56
532.438	-1.43
532.867	-1.51
533.295	-1.37
533.723	-1.79
534.152	-1.53
534.58	-0.97
535.008	-0.36
535.436	0.15
535.865	0.22
536.293	-0.99
536.721	-1.27
537.149	-0.99
537.576	-0.25
538.004	-0.39
538.432	-0.84
538.86	-0.54
539.287	-1.2
539.715	-1.07
540.143	-2.42
540.57	-2.27
540.998	-1.92
541.425	-0.21
541.852	-0.43
542.28	-0.84
542.707	-1.29
543.134	-0.89
543.561	-0.59
543.988	0.12
544.415	-0.09
544.842	0.06
545.269	0.02
545.696	0.78
546.123	0.02
546.549	0.18
546.976	0.77
547.403	1.13
547.829	0.7
548.256	-0.05
548.682	-0.14
549.108	0.7
549.535	0.73
549.961	0.73
550.387	0.5
550.813	1.48
551.24	1.52
551.666	0.84
552.092	0.18
552.518	0.4
552.943	1.42
553.369	1.02
553.795	0.55
554.221	0.46
554.646	0.11
555.072	1.22
555.498	-0.9
555.923	-1.23
556.349	-1.46
556.774	-1.62
557.199	-2.11
557.625	-3.3
558.05	-2.64
558.475	-3.14
558.9	-2.8
559.325	-1.92
559.75	-2.29
560.175	-1.77
560.6	-2.01
561.025	-2.07
561.449	-1.53
561.874	-1.58
562.299	-0.86
562.723	-1.8
563.148	-1.82
563.572	-2.26
563.997	-2.49
564.421	-4.01
564.846	-4.22
565.27	-3.66
565.694	-3.72
566.118	-4.01
566.542	-3.33
566.966	-2.97
567.39	-2.61
567.814	-2.34
568.238	-2
568.662	-2.91
569.086	-2.36
569.509	-2.48
569.933	-1.39
570.357	-1.3
570.78	-0.98
571.204	0.15
571.627	-0.51
572.05	-0.68
572.474	0.34
572.897	0.56
573.32	1.75
573.743	1.46
574.166	2.13
574.589	0.44
575.012	0.12
575.435	-0.31
575.858	-0.86
576.281	-0.64
576.704	-0.76
577.126	-2.01
577.549	-2.7
577.972	-3.94
578.394	-3.27
578.817	-1.81
579.239	-1.27
579.661	-0.33
580.084	1.12
580.506	1.47
580.928	1.15
581.35	1.74
581.772	2.07
582.194	2.32
582.616	2.09
583.038	0.82
583.46	-0.82
583.882	-0.37
584.303	-1.45
584.725	-2.53
585.147	0.72
585.568	0.93
585.99	1.55
586.411	2.06
586.833	2.42
587.254	2.81
587.675	3.08
588.096	2.76
588.518	2.58
588.939	3.14
589.36	3.46
589.781	-1.55
590.202	1.58
590.623	0.97
591.043	0.23
591.464	-0.21
591.885	0.27
592.305	0.31
592.726	0.41
593.147	0.47
593.567	0.81
593.987	0.69
594.408	0.62
594.828	-3.03
595.248	-2.52
595.669	-1.72
596.089	-1.33
596.509	-2.09
596.929	-2.42
597.349	-1.7
597.769	-2.21
598.189	-2.81
598.608	-3.06
599.028	-3.11
599.448	-3.16
599.867	-3.84
600.287	-4.48
600.706	-4.22
601.126	-3.32
601.545	-2.07
601.965	-2.6
602.384	-2.33
602.803	-1.99
603.222	-1.37
603.641	-1.35
604.061	-0.49
604.48	-0.79
604.898	-0.96
605.317	-1.65
605.736	-1.89
606.155	-1.68
606.574	-1.57
606.992	-1.74
607.411	-1.75
607.829	-2.98
608.248	-3.02
608.666	-3.7
609.085	-3.5
609.503	-3.97
609.921	-3.02
610.339	-3.06
610.758	-4.22
611.176	-4.12
611.594	-3.42
612.012	-3.16
612.43	-2.19
612.847	-2.18
613.265	-1.42
613.683	-0.68
614.101	0.05
614.518	-0.53
614.936	-0.22
615.353	0.22
615.771	0.46
616.188	-0.17
616.606	-0.48
617.023	-0.17
617.44	0.01
617.857	-0.51
618.274	-1.76
618.691	-1.21
619.108	-1.18
619.525	-1.68
619.942	-1.05
620.359	-1.7
620.776	-1.56
621.192	-1.1
621.609	-0.87
622.026	-0.61
622.442	-0.76
622.859	-0.41
623.275	-1.57
623.691	-1.65
624.108	-1.2
624.524	-2.28
624.94	-1.99
625.356	-2.21
625.772	-2.83
626.188	-3.76
626.604	-3.42
627.02	-3.42
627.436	-3.03
627.852	-1.69
628.268	-1.29
628.683	-2.24
629.099	-1.72
629.514	-2.37
629.93	-2.51
630.345	-2.86
630.761	-3.21
631.176	-3.77
631.591	-1.86
632.007	-1.32
632.422	-2.49
632.837	-3.2
633.252	-1.93
633.667	-1.65
634.082	-1.02
634.497	-0.45
634.911	1.89
635.326	2.36
635.741	3.09
636.155	1.49
636.57	2.36
636.984	2.75
637.399	4.12
637.813	3.47
638.228	3.05
638.642	2.74
639.056	2.76
639.47	1.09
639.884	1.46
640.298	1.13
640.712	2.43
641.126	1.44
641.54	1.37
641.954	-0.8
642.368	-0.38
642.781	1.73
643.195	1.97
643.609	2.56
644.022	2.73
644.436	1.58
644.849	0.34
645.262	-0.51
645.676	-0.71
646.089	-0.6
646.502	1.42
646.915	0.58
647.328	-0.23
647.741	0.52
648.154	-0.07
648.567	2.05
648.98	2.94
649.393	3.94
649.805	3.69
650.218	2.88
650.631	4.1
651.043	2.61
651.456	3.34
651.868	2.51
652.28	1.38
652.693	1.14
653.105	-0.87
653.517	-1.83
653.929	-2.13
654.341	-1.64
654.753	-1.06
655.165	-2.41
655.577	-1.44
655.989	-1.19
656.401	-1.68
656.813	-0.88
657.224	-0.81
657.636	-1.03
658.047	-0.23
658.459	-0.1
658.87	-1.65
659.282	-1.63
659.693	-0.62
660.104	-0.47
660.515	-1.24
660.926	-1.52
661.338	-1.75
661.749	-2.51
662.159	-2.07
662.57	-2.58
662.981	-2.51
663.392	-1.93
663.803	-2.21
664.213	-3.64
664.624	-3.82
665.035	-4.07
665.445	-4.15
665.855	-3.36
666.266	-2.54
666.676	-2.26
667.086	-1.97
667.497	-1.78
667.907	-1.23
668.317	-0.92
668.727	2.54
669.137	1.48
669.547	1.63
669.956	0.97
670.366	0.19
670.776	0.17
671.186	-0.54
671.595	-0.54
672.005	-1.32
672.414	-0.99
672.824	-0.88
673.233	-4.02
673.642	-3.81
674.052	-3.67
674.461	-2.75
674.87	-3.44
675.279	-2.83
675.688	-3.64
676.097	-2.93
676.506	-3.11
676.915	-4.33
677.323	-4.22
677.732	-4.11
678.141	-3.6
678.549	-4.29
678.958	-4.95
679.366	-4.59
679.775	-5.71
680.183	-3.2
680.592	-3.54
681	-2.6
681.408	-2.33
681.816	-2.91
682.224	-3.18
682.632	-1.99
683.04	-1.42
683.448	-1.59
683.856	-0.84
684.264	-0.04
684.671	-2.3
685.079	-2.83
685.487	-4.28
685.894	-5.68
686.302	-7.13
686.709	-6.25
687.116	-7.41
687.524	-5.93
687.931	-3.39
688.338	-3.91
688.745	-5.23
689.152	-4.99
689.559	-4.38
689.966	-1.93
690.373	0.4
690.78	2.05
691.187	1.31
691.593	1.97
692	0.98
692.407	0.18
692.813	3.04
693.22	4.19
693.626	2.45
694.032	2.31
694.439	1.68
694.845	-0.02
695.251	-0.38
695.657	-0.15
696.063	-1.75
696.469	-2
696.875	-2.31
697.281	-4.56
697.687	-5.55
698.093	-4.79
698.498	-4.45
698.904	-5.33
699.31	-5.01
699.715	-3.61
700.12	-4.02
700.526	-3.03
700.931	-3.1
701.337	-2.61
701.742	-2.02
702.147	-2.02
702.552	-0.78
702.957	-2.09
703.362	-1.83
703.767	-1.72
704.172	-3.29
704.577	-4.56
704.981	-5.71
705.386	-5.78
705.791	-6.26
706.195	-7.63
706.6	-6.98
707.004	-8.89
707.408	-8.84
707.813	-8.63
708.217	-7.97
708.621	-8.19
709.025	-7.23
709.43	-5
709.834	-4.46
710.237	-4.61
710.641	-4.71
711.045	-4.45
711.449	-2.39
711.853	1.93
712.256	1.59
712.66	0.68
713.064	1.34
713.467	2.1
713.87	1.42
714.274	1.46
714.677	2.19
715.08	3.54
715.484	3.7
715.887	6.51
716.29	2.18
716.693	3.53
717.096	4.68
717.499	4.58
717.901	4.06
718.304	2.72
718.707	1.72
719.109	1.51
719.512	-0.25
719.915	2.01
720.317	-1.64
720.719	-2.26
721.122	-3.73
721.524	-2.88
721.926	1.81
722.328	1.85
722.731	1.98
723.133	1.53
723.535	1.27
723.937	2.75
724.338	2.48
724.74	4.33
725.142	48.44
725.544	51.59
725.945	62.48
726.347	58.85
726.748	59.4
727.15	60.38
727.551	64.54
727.952	63.27
728.354	60.77
728.755	59.57
729.156	57.36
729.557	14.21
729.958	10.75
730.359	0.01
730.76	-0.99
731.161	-1.66
731.562	-3.7
731.962	-6.77
732.363	-6.35
732.763	-6.28
733.164	-9.41
733.564	-7.71
733.965	-6.59
734.365	-5.3
734.766	-4.85
735.166	-5.07
735.566	-3.17
735.966	-1.77
736.366	-1.22
736.766	-0.92
737.166	-1.22
737.566	0.4
737.966	-1.04
738.365	-0.73
738.765	0.15
739.165	-0.69
739.564	-0.71
739.964	-3.32
740.363	-3.71
740.763	-5.22
741.162	-3.91
741.561	-3.81
741.96	-3.66
742.36	-3.96
742.759	-4.19
743.158	-5.44
743.557	-5.68
743.955	-5.56
744.354	-5.1
744.753	-5.61
745.152	-4.14
745.55	-6.05
745.949	-5.09
746.348	-4.45
746.746	-4.72
747.144	-1.85
747.543	-2.22
747.941	-3.19
748.339	-3.03
748.737	-1.88
749.136	-1.08
749.534	-3.23
749.932	-1.73
750.33	-2.09
750.727	-3.25
751.125	-1.89
751.523	-3.47
751.921	-1.37
752.318	0.08
752.716	1.69
753.113	1.49
753.511	1.43
753.908	3.08
754.305	6.58
754.703	7.58
755.1	8.59
755.497	8.62
755.894	6.63
756.291	4.97
756.688	4.91
757.085	2.49
757.482	2.26
757.878	3.69
758.275	5.06
758.672	-3.52
759.068	-4.87
759.465	-7.91
759.861	-9.25
760.258	-9.76
760.654	-10.14
761.05	-9.34
761.447	-8.73
761.843	-9.2
762.239	-8.72
762.635	-12.56
763.031	-11.94
763.427	-11.39
763.822	-8.49
764.218	-10.46
764.614	-9.85
765.01	-11.81
765.405	-11.95
765.801	-10.42
766.196	-9.67
766.592	-11.46
766.987	-9.13
767.382	-8.97
767.778	-9.63
768.173	-10.1
768.568	-9.44
768.963	-8.43
769.358	-7.43
769.753	-5.98
770.148	-6.37
770.542	-6.96
770.937	-6.45
771.332	-6.52
771.726	-6.39
772.121	-2.35
772.515	-3.07
772.91	-2.97
773.304	-3.27
773.699	-2.99
774.093	-4.74
774.487	-4.79
774.881	-3.75
775.275	-3.89
775.669	-5.24
776.063	-5.01
776.457	-7.14
776.851	-6.44
777.245	-5.94
777.638	-5.56
778.032	-6.24
778.425	-4.51
778.819	-0.65
779.212	1.48
779.606	4.51
779.999	4.66
780.392	5.57
780.786	3.22
781.179	2.89
781.572	4.72
781.965	5.83
782.358	6.15
782.751	4.27
783.143	1.05
783.536	-1.11
783.929	-5.03
784.322	-4.86
784.714	-6
785.107	-4.79
785.499	-3.26
785.891	-4.21
786.284	-6.49
786.676	-6.19
787.068	-4.06
787.46	-3.01
787.852	-4.71
788.245	-4.02
788.636	-6.07
789.028	-3.8
789.42	-2.22
789.812	-2.04
790.204	-2.07
790.595	1.6
790.987	2.96
791.378	3.69
791.77	1.12
792.161	1.84
792.553	1.78
792.944	3.53
793.335	2.02
793.726	2.37
794.117	3.51
794.508	1.06
794.899	-1.73
795.29	-4.27
795.681	-5.62
796.072	-4.36
796.463	12.42
796.853	16.65
797.244	16.33
797.634	15.38
798.025	13.53
798.415	10.37
798.806	12.67
799.196	15.49
799.586	18.83
799.976	21.11
800.366	21.38
800.756	1.27
801.146	-1.64
801.536	-2.59
801.926	-1.99
802.316	-1.05
802.706	1.3
803.095	0.86
803.485	-2.66
803.874	-4.84
804.264	-7.56
804.653	-6.87
805.043	-2.44
805.432	0.04
805.821	4.42
806.21	5.01
806.599	2.61
806.988	2.55
807.377	0.12
807.766	-0.41
808.155	-1.98
808.544	-1.59
808.933	-4.64
809.321	-4.13
809.71	-9.03
810.098	-10.57
810.487	-13.07
810.875	-13.07
811.264	-14.77
811.652	-4.15
812.04	-3.87
812.428	-0.97
812.816	-4.99
813.204	-1.03
813.592	-6.62
813.98	-5.78
814.368	-1.87
814.756	-0.97
815.144	1.14
815.531	3.87
815.919	-6.72
816.306	-4.99
816.694	-4.88
817.081	-2.9
817.469	-1.19
817.856	-3.45
818.243	-5.92
818.63	-12.96
819.017	-9.22
819.404	-8.89
819.791	-11.92
820.178	-16.53
820.565	-12.8
820.952	-8.02
821.339	-3.99
821.725	-4.86
822.112	3.35
822.498	7.27
822.885	8.07
823.271	4.49
823.657	-0.84
824.044	2.05
824.43	3.01
824.816	7.87
825.202	7.16
825.588	4.83
825.974	5.19
826.36	3
826.746	2.2
827.132	2.78
827.517	5.93
827.903	9.71
828.289	11.8
828.674	12.84
829.06	8.35
829.445	3.38
829.83	-0.12
830.216	-2.63
830.601	3.6
830.986	10.28
831.371	14.16
831.756	16.27
832.141	24.11
832.526	22.8
832.911	25.54
833.295	19.95
833.68	19.57
834.065	24.37
834.449	26.28
834.834	22.9
835.218	20.95
835.603	20.58
835.987	18.88
836.371	11.5
836.755	12.96
837.139	7.11
837.524	8.31
837.908	8.74
838.291	13.04
838.675	9.09
839.059	6.54
839.443	1.41
839.827	-4.54
840.21	-10.35
840.594	-6.27
840.977	-6.52
841.361	-3.56
841.744	-3.94
842.127	-4.67
842.511	-9.49
842.894	-10.33
843.277	-10.27
843.66	-13.05
844.043	-9.98
844.426	-5.9
844.809	-13.25
845.191	-12.7
845.574	-9.39
845.957	-7.59
846.339	-5.6
846.722	-3.43
847.104	-3.98
847.487	-5.51
847.869	-1.92
848.252	-1.72
848.634	0.81
849.016	2.95
849.398	-1.24
849.78	-4.78
850.162	-2.23
850.544	-2.32
850.926	-10.83
851.307	-8.46
851.689	-7.91
852.071	-12.76
852.452	-13.48
852.834	-17.94
853.215	-12.95
853.597	-10.59
853.978	-2.15
854.359	-2.27
854.741	-0.02
855.122	5.09
855.503	2.49
855.884	2.74
856.265	6.26
856.646	2.51
857.026	6.85
857.407	5.56
857.788	3.11
858.169	-7.62
858.549	-3.56
858.93	-4.94
859.31	-4.17
859.69	0.05
860.071	2.49
860.451	4.51
860.831	6.74
861.211	2.58
861.591	-1.75
861.971	-4.92
862.351	-2.27
862.731	-12.18
863.111	-10.68
863.491	-9.5
863.87	-11.95
864.25	-15.36
864.629	-10.49
865.009	-12.2
865.388	-11.61
865.768	-17.55
866.147	-10.27
866.526	-3.24
866.905	3.42
867.284	-2.16
867.663	-6.01
868.042	-9.37
868.421	-13.43
868.8	-23.65
869.179	-16.4
869.558	-17.8
869.936	-9.75
870.315	-16.96
870.693	-17.25
871.072	-26.17
871.45	-29.83
871.828	-23.6
872.207	-23.33
872.585	-14.65
872.963	-15.5
873.341	-12.11
873.719	-1.71
874.097	-3.26
874.475	-3.78
874.853	-8.76
875.23	-4.11
875.608	0.89
875.986	-7.28
876.363	-3.74
876.741	4.32
877.118	14.86
877.495	13.99
877.873	9.27
878.25	9.84
878.627	14.85
879.004	12.91
879.381	6.93
879.758	7.43
880.135	9.49
880.512	9.01
880.889	-6.17
881.265	-13.79
881.642	-21.44
882.019	-23.76
882.395	-14.93
882.772	-11.75
883.148	-3.83
883.524	3.87
883.901	5.1
884.277	2.63
884.653	-1.61
885.029	3.33
885.405	12.07
885.781	15.71
886.157	16.54
886.532	9.86
886.908	3.59
887.284	-5.84
887.659	-9.49
888.035	-10.44
888.411	-7.02
888.786	-2.5
889.161	-2.56
889.537	-12.38
889.912	-14.3
890.287	-11.04
890.662	-12.65
891.037	-16.15
891.412	-15.55
891.787	-20.75
892.162	-17.5
892.536	-18.95
892.911	-16.79
893.286	-19.84
893.66	-17.34
894.035	-15.1
894.409	-29.23
894.784	-26.13
895.158	-23.78
895.532	-25.03
895.906	-20.56
896.281	-22.14
896.655	-17.18
897.029	-25.49
897.402	-25.01
897.776	-31.41
898.15	-36.56
898.524	-35.38
898.898	-34.79
899.271	-26.08
899.645	-16.12
900.018	-15.08
900.392	-19.64
900.765	-30.26
901.138	-20.47
901.511	-23.31
901.884	-10.81
902.258	-0.23
902.631	12.17
903.003	2
903.376	-11.77
903.749	-11.29
904.122	-14.9
904.495	-23.73
904.867	-21.69
905.24	-15.66
905.612	-12.63
905.985	-23.65
906.357	-36.99
906.729	-36.81
907.102	-13.01
907.474	-6.74
907.846	-1.55
908.218	-2.79
908.59	12.97
908.962	11.56
909.334	4.52
909.705	3.67
910.077	2.54
910.449	2.81
910.82	3.05
911.192	-8.74
911.563	-3.52
911.935	-25.87
912.306	-42.96
912.677	-68.26
913.048	-56.41
913.419	-63.6
913.79	-72.97
914.161	-75.22
914.532	-56.19
914.903	-52.42
915.274	-52.79
915.645	-53.07
916.015	-41.8
916.386	-28.49
916.756	-24.49
917.127	-44.07
917.497	-20.12
917.868	-7.75
918.238	-8.08
918.608	-18.59
918.978	-19.71
919.348	-21.38
919.718	-13.93
920.088	-8.68
920.458	3.07
920.828	-8.98
921.198	4.31
921.567	-16.72
921.937	-10.9
922.306	-14.86
922.676	-33.1
923.045	-10.37
923.415	-5.32
923.784	-11
924.153	-4.39
924.522	-2.51
924.891	2.84
925.26	2.97
925.629	-3.1
925.998	-16
926.367	-5.71
926.736	23.58
927.104	10.66
927.473	2.18
927.842	-3.56
928.21	-12.18
928.578	-36.74
928.947	-20.68
929.315	-2.98
929.683	11.47
930.051	25.35
930.42	17.02
930.788	11.31
931.156	12.57
931.523	54.99
931.891	56.03
932.259	61.73
932.627	81.6
932.994	67.13
933.362	71.08
933.729	67.83
934.097	57.86
934.464	60.45
934.831	40.2
935.199	19.55
935.566	2.99
935.933	59.72
936.3	85.85
936.667	62.72
937.034	150.4
937.401	117.73
937.767	120.07
938.134	107.86
938.501	108.53
938.867	133.87
939.234	189.18
939.6	101.46
939.967	-57.81
940.333	-51.8
940.699	-38.86
941.065	-114.15
941.431	-138.59
941.798	-109.12
942.163	-121.76
942.529	-66.14
942.895	-81.61
943.261	-40.73
943.627	-38.87
943.992	0.84
944.358	-18.35
944.723	14.67
945.089	18.31
945.454	11.82
945.82	-7.99
946.185	-17.31
946.55	-2.14
946.915	7.96
947.28	38.86
947.645	31.38
948.01	41.83
948.375	63.3
948.74	44.82
949.104	41.26
949.469	1.06
949.834	-45.54
950.198	36.66
950.562	47.11
950.927	51.54
951.291	44.81
951.655	43.54
952.02	-28.26
952.384	-10.78
952.748	9.65
953.112	51.41
953.476	72.78
953.839	74.75
954.203	81.73
954.567	77.15
954.931	71.94
955.294	69.22
955.658	49.17
956.021	119.41
956.385	113.72
956.748	164.18
957.111	-176.6
957.474	-416.72
957.837	-865.71
958.2	-1012.05
958.563	-320.67
958.926	-155.35
959.289	-289.52
959.652	-225.43
960.015	-159.19
960.377	-227.03
960.74	-279.32
961.102	-561.33
961.465	-381.59
961.827	252.31
962.189	644.93
962.552	453.64
962.914	302.43
963.276	201.2
963.638	133.06
964	93.96
964.362	86.83
964.724	67.82
965.085	81.11
965.447	60.44
965.809	-25.09
966.17	-38.93
966.532	-73.04
966.893	-62.62
967.255	-51.87
967.616	-80.74
967.977	-55.99
968.338	-79.25
968.699	-49.88
969.061	-40.76
969.421	-26.12
969.782	-27.13
970.143	3.49
970.504	58.57
970.865	73.88
971.225	92.88
971.586	103.1
971.946	120.42
972.307	110.16
972.667	98.94
973.027	87.91
973.388	36.94
973.748	40.46
974.108	38.23
974.468	-56.51
974.828	2.14
975.188	-14.22
975.548	-6.7
975.907	21.57
976.267	12.88
976.627	38.18
976.986	17.89
977.346	9.5
977.705	7.73
978.064	4.77
978.424	11.87
978.783	-24.8
979.142	-35.13
979.501	-37.54
979.86	-40.05
980.219	-36.61
980.578	-67.95
980.937	-81.06
981.296	-66.58
981.654	-78.32
982.013	-153.97
982.371	-148.89
982.73	-115
983.088	-130.01
983.447	-93.77
983.805	-135.35
984.163	-403.31
984.521	-575.47
984.879	-856.7
985.237	1209.17
985.595	-1122.35
985.953	-434.44
986.311	-348.32
986.669	-186.35
987.026	-178.7
987.384	-316.85
987.741	-378.24
988.099	-190.14
988.456	-129.43
988.814	-93.6
989.171	-68.03
989.528	-78.83
989.885	-67.22
990.242	-37.18
990.599	-81.71
990.956	-70.77
991.313	-32.92
991.67	-12.82
992.027	23.81
992.383	23.34
992.74	22.07
993.096	34.07
993.453	38.68
993.809	30.41
994.165	37.24
994.522	91.62
994.878	110.51
995.234	128.07
995.59	106.43
995.946	15.36
996.302	22.08
996.658	20.5
997.013	-20.05
997.369	24.88
997.725	99.07
998.08	53.09
998.436	-104.81
998.791	-134.24
999.147	-110.16
999.502	-87.98
999.857	-43.87
1000.212	-109.09
1000.567	-153.28
1000.922	-65.31
1001.277	-105.4
1001.632	-85.41
1001.987	-130.15
1002.342	-66.79
1002.696	-43.18
1003.051	-13.77
1003.406	-2.77
1003.76	-20.44
1004.114	-23.36
1004.469	-16.15
1004.823	-6.25
1005.177	-2.41
1005.531	-0.86
1005.885	27.71
1006.239	42.28
1006.593	50.17
1006.947	53.13
1007.301	13.79
1007.655	16.02
1008.008	8.86
1008.362	0.47
1008.715	-22.43
1009.069	-26.13
1009.422	7.45
1009.776	-127.97
1010.129	-131.89
1010.482	-147.66
1010.835	-179.4
1011.188	-368.21
1011.541	-336.74
1011.894	2234.7
1012.247	-7124.81
1012.6	-529.18
1012.952	-337.92
1013.305	-218.6
1013.657	-150.02
1014.01	-158.79
1014.362	-134.01
1014.715	-63.27
1015.067	-39.15
1015.419	-33.1
1015.771	-16.36
1016.123	10.73
1016.475	22.93
1016.827	21.95
1017.179	33.38
1017.531	32.99
1017.883	36.03
1018.234	85.5
1018.586	76.15
1018.938	101.02
1019.289	123.82
1019.64	90.4
1019.992	40.25
1020.343	-5.69
1020.694	52.42
1021.045	50.75
1021.396	23.06
1021.747	52.23
1022.098	-28.41
1022.449	-24.99
1022.8	-22.71
1023.151	8.04
1023.501	32.94
1023.852	21.11
1024.202	58.55
1024.553	25.06
1024.903	52.18
1025.253	82.65
1025.604	76.08
1025.954	95.1
1026.304	95.15
1026.654	64.46
1027.004	10.01
1027.354	-14.85
1027.703	132.26
1028.053	22.75
1028.403	94.2
1028.753	-349.2
1029.102	-1048.15
1029.452	-7160.53
1029.801	-368.87
1030.15	-234.59
1030.499	-209.23
897.758	1652.7
901.051	1592.99
904.343	1623.42
907.636	1628.32
910.928	1676.86
914.22	1616.06
917.511	1619.66
920.803	1654.21
924.094	1647.54
927.384	1654.24
930.675	1624.06
933.965	1600.94
937.255	1629.19
940.544	1607.05
943.834	1597.88
947.123	1551.84
950.411	1620.36
953.7	1609.02
956.988	1601.07
960.276	1544.58
963.563	1572.35
966.851	1582.04
970.138	1609.3
973.424	1609.81
976.711	1569.31
979.997	1609.15
983.283	1640.47
986.568	1590.31
989.853	1577.12
993.138	1593.13
996.423	1661.89
999.708	1634.54
1002.992	1653.88
1006.275	1586.79
1009.559	1588.65
1012.842	1662.88
1016.125	1628.97
1019.408	1611.74
1022.69	1649.22
1025.972	1674.43
1029.254	1657.4
1032.536	1633.95
1035.817	1635.88
1039.098	1613.62
1042.379	1648.13
1045.659	1667.5
1048.939	1625.48
1052.219	1626.02
1055.498	1619.23
1058.778	1611.73
1062.057	1593.97
1065.335	1612.18
1068.614	1617.3
1071.892	1615.41
1075.17	1651.92
1078.447	1655.88
1081.724	1649.09
1085.001	1666.73
1088.278	1648.75
1091.554	1649.23
1094.83	1648.04
1098.106	1671.62
1101.382	1690.95
1104.657	1688.94
1107.932	1688.32
1111.206	1671.41
1114.481	1636.22
1117.755	1639.14
1121.029	1633.42
1124.302	1677.72
1127.575	1658.05
1130.848	1657.33
1134.121	1638.51
1137.393	1607.38
1140.665	1650.09
1143.937	1632.42
1147.208	1596.33
1150.48	1639.41
1153.75	1628.43
1157.021	1628.21
1160.291	1613.64
1163.561	1649.38
1166.831	1623.03
1170.101	1638.77
1173.37	1610.84
1176.639	1580.65
1179.907	1614.18
1183.176	1629.34
1186.444	1632.24
1189.711	1650.15
1192.979	1667.92
1196.246	1637.44
1199.513	1646.87
1202.78	1648.58
1206.046	1656.47
1209.312	1677.67
1212.578	1686.01
1215.843	1660.96
1219.108	1640.87
1222.373	1656.79
1225.638	1638.59
1228.902	1634.93
1232.166	1602.15
1235.43	1593.52
1238.693	1616.94
1241.956	1610.31
1245.219	1648.58
1248.482	1637.28
1251.744	1638.16
1255.006	1720.01
1258.268	1681.32
1261.529	1654.15
1264.79	1652.17
1268.051	1721.9
1271.312	1728.97
1274.572	1703.57
1277.832	1695.03
1281.092	1677.17
1284.351	1673.02
1287.61	1662.42
1290.869	1620.06
1294.128	1619.48
1297.386	1645.69
1300.644	1639.61
1303.902	1646.71
1307.159	1553.1
1310.416	1589.73
1313.673	1609.53
1316.93	1612.71
1320.186	1632.34
1323.442	1655.02
1326.697	1655.59
1329.953	1635.23
1333.208	1666.09
1336.463	1648.75
1339.717	1624.7
1342.972	1699.63
1346.226	1680.95
1349.479	1651.37
1352.733	1635.82
1355.986	1642.14
1359.238	1627.61
1362.491	1633.93
1365.743	1632.81
1368.995	1629.2
1372.247	1640.12
1375.498	1653.09
1378.749	1688.16
1382	1656.4
1385.251	1674.97
1388.501	1643.13
1391.751	1644.71
1395	1627.01
1398.25	1644.47
1401.499	1670.1
1404.748	1634.95
1407.996	1621.28
1411.244	1617.48
1414.492	1606.28
1417.74	1598.25
1420.987	1603.7
1424.234	1649.57
1427.481	1617.46
1430.728	1656.92
1433.974	1642.7
1437.22	1637.1
1440.465	1631.95
1443.711	1637.94
1446.956	1649.38
1450.201	1629.47
1453.445	1656.78
1456.689	1648.74
1459.933	1655.02
1463.177	1688.48
1466.42	1668.77
1469.663	1650.68
1472.906	1663.94
1476.148	1697.95
1479.391	1663.18
1482.633	1650.07
1485.874	1668.87
1489.115	1675.64
1492.356	1662.59
1495.597	1643.18
1498.838	1634.08
1502.078	1625.92
1505.318	1612.4
1508.557	1632.09
1511.797	1629.22
1515.036	1670.83
1518.274	1639.39
1521.513	1598.57
1524.751	1603.64
1527.989	1620.07
1531.227	1635.3
1534.464	1643.1
1537.701	1633.17
1540.938	1638.59
1544.174	1598.71
1547.41	1589.99
1550.646	1614.69
1553.882	1650.75
1557.117	1693.78
1560.352	1698.63
1563.587	1667.83
1566.821	1646.52
1570.055	1657
1573.289	1638.71
1576.523	1675.66
1579.756	1688.61
1582.989	1701.29
1586.222	1670.38
1589.454	1697.07
1592.686	1686.95
1595.918	1704.4
1599.15	1703.34
1602.381	1729.6
1605.612	1719.09
1608.843	1787.58
1612.073	1732.76
1615.303	1725.39
1618.533	1720.56
1621.762	1721.86
1624.992	1694.35
1628.221	1695.23
1631.449	1687.51
1634.678	1704.81
1637.906	1681.54
1641.134	1698.57
1644.361	1672.91
1647.588	1667.54
1650.815	1685.03
1654.042	1658.86
1657.269	1677.56
1660.495	1668.52
1663.72	1652.47
1666.946	1629.28
1670.171	1616.79
1673.396	1599.31
1676.621	1583.89
1679.845	1581.32
1683.069	1583.02
1686.293	1600.67
1689.517	1598.47
1692.74	1567.82
1695.963	1581.12
1699.185	1612.62
1702.408	1596.37
1705.63	1615.72
1708.852	1627.64
1712.073	1606.28
1715.294	1620.28
1718.515	1653.74
1721.736	1625.13
1724.956	1610.64
1728.176	1627.13
1731.396	1641
1734.616	1635.01
1737.835	1665.04
1741.054	1640.56
1744.272	1637.43
1747.491	1671.46
1750.709	1683.43
1753.927	1652.43
1757.144	1670.82
1760.361	1713.08
1763.578	1692.57
1766.795	1657.84
1770.011	1646.7
1773.227	1661.65
1776.443	1694.51
1779.658	1723.91
1782.874	1681.64
1786.089	1677.29
1789.303	1678.23
1792.518	1675.95
1795.732	1669.18
1798.945	1678.82
1802.159	1712.81
1805.372	1674
1808.585	1671.55
1811.797	1671.12
1815.01	1687.78
1818.222	1710.02
1821.434	1678.95
1824.645	1707.24
1827.856	1716.63
1831.067	1735.77
1834.278	1693.35
1837.488	1679.05
1840.698	1767.84
1843.908	1731.93
1847.117	1710.73
1850.326	1662.71
1853.535	1702.31
1856.744	1733.61
1859.952	1680.5
1863.16	1682.57
1866.368	1700.09
1869.575	1785.25
1872.782	1700
1875.989	1652.91
1879.196	1686.07
1882.402	1682.52
1885.608	1706.45
1888.814	1669.51
1892.019	1606.88
1895.224	1647.49
1898.429	1622.44
1901.634	1609.56
1904.838	1592.83
1908.042	1640.03
1911.246	1652.6
1914.449	1629.68
1917.652	1615.57
1920.855	1600.91
1924.058	1616.06
1927.26	1652.31
1930.462	1666.56
1933.664	1697.47
1936.865	1657.11
1940.066	1668.29
1943.267	1628.83
1946.467	1636.29
1949.668	1646.47
1952.868	1698.95
1956.067	1696.94
1959.267	1651.43
1962.466	1669.07
1965.665	1653.03
1968.863	1652.47
1972.061	1649.09
1975.259	1645.44
1978.457	1698.81
1981.654	1668.61
1984.852	1669.87
1988.048	1640.49
1991.245	1627.73
1994.441	1697.71
1997.637	1657.22
2000.833	1647.55
2004.028	1668.3
2007.223	1720.5
2010.418	1711.28
2013.613	1671.31
2016.807	1670.05
2020.001	1664.6
2023.194	1677.96
2026.388	1667.23
2029.581	1621.34
2032.774	1673.62
2035.966	1680.16
2039.158	1642.91
2042.35	1655.86
2045.542	1599.15
2048.733	1660
2051.924	1646.9
2055.115	1658.05
2058.306	1634.82
2061.496	1671.32
2064.686	1710.3
2067.875	1635.33
2071.065	1636.4
2074.254	1649.95
2077.442	1614.99
2080.631	1677.23
2083.819	1632.84
2087.007	1628.61
2090.195	1621.12
2093.382	1628.59
2096.569	1622.42
2099.756	1592.53
2102.942	1636.78
2106.128	1645.07
2109.314	1638.02
2112.5	1631.14
2115.685	1604.61
2118.87	1610.93
2122.055	1658.03
2125.239	1641.95
2128.424	1634.28
2131.608	1668.2
2134.791	1657.84
2137.974	1682.51
2141.157	1676.28
2144.34	1657.09
2147.523	1643.93
2150.705	1667.41
2153.887	1638.71
2157.068	1623.3
2160.25	1604.29
2163.431	1620.86
2166.611	1601.55
2169.792	1618.09
2172.972	1551.84
2176.152	1589.94
2179.331	1607.36
2182.511	1613.71
2185.69	1627.85
2188.868	1632.17
2192.047	1656.19
2195.225	1677.1
2198.403	1635.51
2201.58	1625.34
2204.758	1610.91
2207.935	1667.51
2211.111	1606.4
2214.288	1598.12
2217.464	1621.97
2220.64	1586.54
2223.815	1624.29
2226.991	1572.97
2230.166	1580.73
2233.34	1615.37
2236.515	1624.91
2239.689	1675.29
2242.863	1638.34
2246.036	1676.95
2249.209	1665.45
2252.382	1678.89
2255.555	1689.04
2258.727	1655.81
2261.9	1675.13
2265.071	1672.82
2268.243	1669.63
2271.414	1636.35
2274.585	1625.12
2277.756	1669.88
2280.926	1637.46
2284.096	1654.34
2287.266	1606.29
2290.436	1643.4
2293.605	1652.98
2296.774	1686.96
2299.942	1687.63
2303.111	1700.67
2306.279	1738.16
2309.447	1728.52
2312.614	1710.8
2315.781	1729.02
2318.948	1714.6
2322.115	1741.42
2325.281	1662.09
2328.447	1668.07
2331.613	1641.34
2334.779	1639.17
2337.944	1634.73
2341.109	1638.14
2344.274	1629.66
2347.438	1604.2
2350.602	1620.56
2353.766	1623.53
2356.929	1617.86
2360.092	1645.89
2363.255	1625.9
2366.418	1608.21
2369.58	1638.95
2372.742	1607.97
2375.904	1588.19
2379.066	1583.32
2382.227	1601.17
2385.388	1569.28
2388.548	1540.17
2391.709	1564.27
2394.869	1562.21
2398.029	1593.03
2401.188	1584.23
2404.347	1570.65
2407.506	1573.28
2410.665	1616.65
2413.823	1599.68
2416.981	1585.64
2420.139	1599.73
2423.296	1627.78
2426.453	1607.91
2429.61	1623.63
2432.767	1610.53
2435.923	1640.26
2439.079	1595.46
2442.235	1621.14
2445.391	1578.45
2448.546	1613.08
2451.701	1637.05
2454.855	1637.42
2458.009	1653.16
2461.163	1642.5
2464.317	1620.84
2467.471	1639.83
2470.624	1662.53
2473.777	1659.15
2476.929	1669.76
2480.082	1686.05
2483.234	1671.18
2486.385	1623.94
2489.537	1618.27
2492.688	1617.45
2495.839	1635.21
2498.989	1645.3
2502.14	1634.37
2505.29	1629.53
2508.439	1646.83
2511.589	1607.02
2514.738	1603.64
2517.887	1617.59
2521.035	1679.17
2524.183	1640.78
2527.331	1634.5
2530.479	1629.65
2533.627	1632.3
