Data from N_1_HIR_WI_4N_Splice17_11-39-15-091.txt Node
Date: Sat Mar 14 11:39:15 EDT 2020
User: sa697716
Spectrometer: FLMS03696
Trigger mode: 0
Integration Time (sec): 3.180400E-1
Scans to average: 20
Electric dark correction enabled: true
Nonlinearity correction enabled: true
Boxcar width: 5
XAxis mode: Wavelengths
Number of Pixels in Spectrum: 2048
>>>>>Begin Spectral Data<<<<<
187.83	-86825.39
188.298	800.78
188.766	455.68
189.233	392.64
189.701	570.94
190.169	781.75
190.636	242.88
191.104	206.9
191.571	-16.69
192.039	-114.48
192.506	-143.24
192.974	104.76
193.441	95.44
193.908	102.41
194.375	5.39
194.842	17.08
195.31	45.53
195.777	117.71
196.244	212.47
196.711	106.92
197.177	91.32
197.644	65.67
198.111	77.07
198.578	76.67
199.045	46.75
199.511	73.55
199.978	37.75
200.445	38.14
200.911	-12.79
201.378	-88.65
201.844	-57.64
202.31	-155.53
202.777	-203.67
203.243	-107.04
203.709	-115.64
204.176	-116.79
204.642	-93.33
205.108	-63.24
205.574	-66.4
206.04	-79.78
206.506	-66.53
206.972	-76.54
207.438	-80.79
207.903	-84.27
208.369	-46.93
208.835	-26.81
209.301	-37.46
209.766	-50.14
210.232	-61.6
210.697	-71.28
211.163	-105.67
211.628	-175.46
212.094	-127.49
212.559	-94.83
213.024	-48.54
213.49	-76.07
213.955	-104.55
214.42	-118.39
214.885	-93.58
215.35	-81.13
215.815	-5.16
216.28	-4.4
216.745	-14.36
217.21	22
217.675	-5.31
218.14	7.21
218.604	-5.11
219.069	7.89
219.534	48.11
219.998	29.33
220.463	27.17
220.927	-36.06
221.392	-20.68
221.856	-8.48
222.32	-69.64
222.785	-55.88
223.249	-85.83
223.713	-114.43
224.177	-111.64
224.642	-210.2
225.106	-272.19
225.57	-302.41
226.034	-193.7
226.497	-257.61
226.961	-174.58
227.425	-164.06
227.889	-211.22
228.353	-239.63
228.816	-450.71
229.28	-448.32
229.744	-382.03
230.207	-150.65
230.671	-124.38
231.134	-359.74
231.597	-406.46
232.061	-454.78
232.524	-483.69
232.987	-278.48
233.45	-214.95
233.914	-212.59
234.377	-261.85
234.84	-220.96
235.303	-308.87
235.766	-318.45
236.229	-283.56
236.691	-214.85
237.154	-254.69
237.617	-177.6
238.08	-209.34
238.542	-253.51
239.005	-145.74
239.468	-110.43
239.93	-103.98
240.393	-74.62
240.855	-71.2
241.317	-92.37
241.78	-132.64
242.242	-117.67
242.704	-89.39
243.166	-60.16
243.629	-21.89
244.091	-19.71
244.553	-31.16
245.015	-16.59
245.477	-34.83
245.939	-69.47
246.4	-33.05
246.862	-5.71
247.324	-25.5
247.786	-71.52
248.247	-163.21
248.709	-286.37
249.17	-232.77
249.632	-144.26
250.093	-134.56
250.555	-115.55
251.016	-39.3
251.477	-43.35
251.939	-29.58
252.4	-50.13
252.861	-94.46
253.322	-64.83
253.783	-122.38
254.244	-178.99
254.705	-203.17
255.166	-231.15
255.627	-235.99
256.088	-316.41
256.549	-333.37
257.009	-285.51
257.47	-348.16
257.931	-291.51
258.391	-196.64
258.852	-192.72
259.312	-221.96
259.773	-280.24
260.233	-166.18
260.694	-109.95
261.154	-147.05
261.614	-56.76
262.074	-63.15
262.534	-41.4
262.994	-16.52
263.455	-35.72
263.915	-5.87
264.374	1.08
264.834	2.18
265.294	-45.54
265.754	-47.24
266.214	-51.5
266.673	-68.29
267.133	-89.09
267.593	-126.5
268.052	-150.67
268.512	-158.72
268.971	-145.99
269.431	-162.89
269.89	-138.14
270.349	-170.18
270.809	-171.32
271.268	-139.22
271.727	-399.04
272.186	-220.89
272.645	-130.77
273.104	-140.9
273.563	-195.68
274.022	-235.43
274.481	-147.98
274.94	-104
275.399	-94.57
275.857	-151.56
276.316	-215.91
276.775	-198.11
277.233	-206.71
277.692	-175.62
278.15	-163.46
278.609	-95.02
279.067	-84.5
279.525	-59.13
279.984	-106.28
280.442	-111.4
280.9	-18.6
281.358	-8.33
281.816	12.97
282.274	8.81
282.732	-28.93
283.19	-47.91
283.648	-86.88
284.106	-94.33
284.564	-139.4
285.021	-100.56
285.479	-73.73
285.937	-98.24
286.394	-63.84
286.852	-90.68
287.309	-98.78
287.767	-47.83
288.224	-42.58
288.682	-46.05
289.139	-37.85
289.596	-14.85
290.053	-36.78
290.511	-76.78
290.968	-75.17
291.425	-172.87
291.882	-62.77
292.339	-31.45
292.796	-93.3
293.252	-88.61
293.709	-33.12
294.166	-36.02
294.623	-58.75
295.079	-67.96
295.536	-37.46
295.992	-38.78
296.449	-25.68
296.905	-39.6
297.362	-19.18
297.818	-19.83
298.274	-13.96
298.731	-48.53
299.187	-45.05
299.643	-49.38
300.099	-48.37
300.555	-56.19
301.011	-47.53
301.467	9.58
301.923	-23.37
302.379	-39.95
302.835	-37.8
303.291	-42.46
303.746	-54.22
304.202	-64.54
304.658	-83.52
305.113	-35.18
305.569	-63.95
306.024	-67.63
306.479	-130.98
306.935	-80.66
307.39	-122.03
307.845	-112.12
308.301	-83.09
308.756	-86.07
309.211	-85.25
309.666	-95.39
310.121	-98.56
310.576	-100.39
311.031	-126.71
311.486	-213.98
311.94	-239.79
312.395	-316.84
312.85	-683.55
313.305	-4594.91
313.759	-19357.86
314.214	-1449.8
314.668	-1091.32
315.123	-917.29
315.577	-238.95
316.032	-192.73
316.486	-207.09
316.94	-145.54
317.394	-72.14
317.849	-31.34
318.303	-19.88
318.757	-16.86
319.211	-12.04
319.665	-0.18
320.119	-5.93
320.572	-78.16
321.026	-48.87
321.48	-32.81
321.934	-64.06
322.387	-69.91
322.841	-66.38
323.295	-22.97
323.748	-75.19
324.202	-98.81
324.655	-126.08
325.108	-142.78
325.562	-70.33
326.015	-118.49
326.468	-84.12
326.921	-67.01
327.374	-29.9
327.827	-9.55
328.28	-26.05
328.733	15.25
329.186	32.98
329.639	38.76
330.092	33.66
330.545	43.8
330.997	46.45
331.45	81.72
331.903	110.17
332.355	97.4
332.808	36.56
333.26	18.38
333.713	17.88
334.165	5.99
334.617	-36.51
335.069	-122.88
335.522	-304.88
335.974	-323.61
336.426	-392
336.878	-378.36
337.33	-150.67
337.782	-136.72
338.234	-142.8
338.686	-206.98
339.137	-239.81
339.589	-206.02
340.041	-126.88
340.493	-115.06
340.944	-135
341.396	-125.03
341.847	-57.22
342.299	-47.2
342.75	-8.48
343.201	-41.71
343.653	-51.32
344.104	-84.39
344.555	-63.84
345.006	-147.15
345.457	-13.15
345.908	0.43
346.359	23.57
346.81	22.3
347.261	-12.08
347.712	-48.16
348.163	-65.69
348.613	-5.78
349.064	10.79
349.515	2.09
349.965	17.21
350.416	-7.69
350.866	-31.5
351.317	-69.04
351.767	-170.87
352.217	-171.49
352.668	-115.4
353.118	-109.08
353.568	-224.44
354.018	-168.18
354.468	-181.7
354.918	-90.92
355.368	-84.13
355.818	-132.14
356.268	-601.18
356.718	-2032.48
357.168	-473.25
357.617	-274.47
358.067	-255.66
358.517	-233.27
358.966	-263.05
359.416	-123.46
359.865	-227.56
360.315	-329.67
360.764	-82.4
361.213	-2.47
361.663	-33.06
362.112	-90.62
362.561	-143.36
363.01	-119.41
363.459	-132.37
363.908	-146.75
364.357	-136.08
364.806	-264.23
365.255	-200.98
365.703	-171.94
366.152	-175.34
366.601	-142.14
367.05	-66.02
367.498	-41.5
367.947	-69.71
368.395	-68.24
368.844	-67.19
369.292	-111.25
369.74	-57.31
370.189	-72.17
370.637	-92.38
371.085	-68.33
371.533	-89.68
371.981	-146.26
372.429	-119.59
372.877	-108.81
373.325	-42.77
373.773	-48.44
374.221	-47.01
374.669	-82.23
375.116	-88.79
375.564	-106.7
376.012	-147.48
376.459	-108.7
376.907	-142.9
377.354	-219.3
377.801	-161.7
378.249	-171.75
378.696	-242.18
379.143	-304.02
379.591	-314.45
380.038	-532.7
380.485	-302.33
380.932	-357.98
381.379	-198.01
381.826	-37.6
382.273	-36.3
382.72	-77.21
383.166	-88.09
383.613	-34.01
384.06	-35.72
384.506	-47.85
384.953	-39.37
385.4	-46.48
385.846	-36.55
386.292	-55.98
386.739	-74.59
387.185	-83.22
387.631	-85.34
388.078	-71.13
388.524	-87.69
388.97	-78.1
389.416	-48.18
389.862	-35.24
390.308	-37.74
390.754	-35.72
391.2	-41.57
391.645	-38.67
392.091	6.01
392.537	19.22
392.983	-0.14
393.428	26.71
393.874	28.25
394.319	38.62
394.765	57.48
395.21	52.62
395.655	59.88
396.101	61.03
396.546	61.45
396.991	40.42
397.436	35.34
397.881	39.96
398.326	25.15
398.771	32.34
399.216	22.11
399.661	13.16
400.106	24.56
400.551	28.94
400.995	27.31
401.44	27.6
401.885	30.61
402.329	32.62
402.774	31.81
403.218	46.15
403.663	42.64
404.107	44.88
404.551	47.1
404.995	40.37
405.44	35.06
405.884	30.82
406.328	26.48
406.772	20.52
407.216	19.46
407.66	14.39
408.104	2.51
408.547	2.03
408.991	4.05
409.435	3.65
409.879	7.28
410.322	11.62
410.766	16.65
411.209	19.5
411.653	21.42
412.096	25.46
412.54	27.12
412.983	29.56
413.426	34.82
413.869	31.74
414.312	33.65
414.756	29.68
415.199	25.34
415.642	26.78
416.085	27.05
416.527	26.68
416.97	22.21
417.413	23.24
417.856	22.55
418.298	20.57
418.741	20.43
419.184	16.86
419.626	13.33
420.069	15.1
420.511	15.05
420.953	18.23
421.396	20.11
421.838	21.91
422.28	23.24
422.722	25.63
423.164	23.26
423.606	23.25
424.048	22.24
424.49	27.68
424.932	24.8
425.374	22.78
425.816	20.12
426.258	18.03
426.699	17.37
427.141	18.74
427.582	15.66
428.024	15.96
428.465	14.66
428.907	15.41
429.348	13.64
429.789	17.44
430.231	20.95
430.672	22.44
431.113	22.94
431.554	23.92
431.995	22.66
432.436	27.12
432.877	28.08
433.318	31.21
433.759	30.77
434.2	30.83
434.64	28.5
435.081	28.75
435.522	27.13
435.962	27.76
436.403	28.7
436.843	28.09
437.284	26.24
437.724	25.22
438.164	22.18
438.604	23.26
439.045	23.96
439.485	27.87
439.925	25.07
440.365	25.23
440.805	24.43
441.245	25.17
441.685	25.09
442.125	23.32
442.564	23.6
443.004	24.36
443.444	23.96
443.883	24.47
444.323	20.32
444.762	16.43
445.202	14.52
445.641	17.81
446.081	15.81
446.52	15.8
446.959	18.1
447.398	19.19
447.837	19.96
448.276	19.71
448.716	21.64
449.154	20.62
449.593	24.83
450.032	26.17
450.471	22.65
450.91	22.86
451.349	24.46
451.787	22
452.226	21.45
452.664	20.53
453.103	20.96
453.541	17.62
453.98	20.49
454.418	20.5
454.856	22.22
455.295	23.95
455.733	24.36
456.171	24.16
456.609	26.39
457.047	27.59
457.485	29.07
457.923	29.83
458.361	29.94
458.798	29.4
459.236	28.87
459.674	27.99
460.111	27.43
460.549	27.56
460.987	26.85
461.424	25.08
461.862	23.87
462.299	23.97
462.736	25.67
463.173	26.39
463.611	29.79
464.048	29.99
464.485	31.18
464.922	30.62
465.359	29.52
465.796	36.7
466.233	38.83
466.67	41.71
467.106	43.73
467.543	41.57
467.98	40.85
468.416	38.29
468.853	37.96
469.29	36.12
469.726	35.27
470.162	35.06
470.599	28.55
471.035	26.16
471.471	24.16
471.907	22.39
472.344	22.49
472.78	23.28
473.216	22.44
473.652	22.21
474.088	21.4
474.523	22.76
474.959	22.52
475.395	22.9
475.831	23.28
476.266	23.46
476.702	22.78
477.138	23.31
477.573	23.36
478.008	23.8
478.444	24.94
478.879	27.02
479.314	27.75
479.75	28.39
480.185	28.37
480.62	28.62
481.055	28.76
481.49	29.67
481.925	30.01
482.36	31.7
482.795	30.98
483.229	30.31
483.664	30.08
484.099	29.24
484.534	29.62
484.968	30
485.403	29.98
485.837	28.7
486.271	27.92
486.706	27.56
487.14	26.11
487.574	26.6
488.009	26.08
488.443	25.46
488.877	26.34
489.311	25.71
489.745	25.65
490.179	26.43
490.613	29.2
491.046	29.23
491.48	29.51
491.914	29.72
492.348	29.96
492.781	31.19
493.215	31.07
493.648	30.33
494.082	30.57
494.515	30.93
494.948	31.32
495.382	29.44
495.815	30.49
496.248	30.25
496.681	29.94
497.114	29.5
497.547	29.51
497.98	31.21
498.413	32.1
498.846	32.88
499.279	32.56
499.711	31.52
500.144	31.27
500.577	31.82
501.009	31.87
501.442	32.52
501.874	32.89
502.306	32.44
502.739	34.07
503.171	34.04
503.603	33.92
504.036	33.39
504.468	34.22
504.9	34.45
505.332	33.75
505.764	34.05
506.196	33.85
506.627	34.36
507.059	34.51
507.491	31.49
507.923	31.13
508.354	31.68
508.786	31.84
509.217	32.17
509.649	32.86
510.08	32.44
510.512	33.55
510.943	33.71
511.374	34.36
511.805	34.44
512.237	34.45
512.668	34.47
513.099	33.42
513.53	33.93
513.961	33.91
514.391	33.95
514.822	36
515.253	35.98
515.684	36.47
516.114	36.54
516.545	37.53
516.975	38.32
517.406	38.43
517.836	38.57
518.267	38.87
518.697	39.83
519.127	40.12
519.558	39.33
519.988	38.45
520.418	37.77
520.848	37.33
521.278	36.4
521.708	66.62
522.138	68.34
522.567	68.69
522.997	69.27
523.427	68.06
523.857	68.4
524.286	68.01
524.716	68.71
525.145	69.76
525.575	70.63
526.004	71.26
526.433	41.63
526.863	40.25
527.292	41.6
527.721	42.69
528.15	43.8
528.579	44.32
529.008	44.86
529.437	44.41
529.866	44.09
530.295	43.85
530.724	44.82
531.152	45.88
531.581	46.84
532.01	46.5
532.438	45.32
532.867	45.07
533.295	45.05
533.723	45.22
534.152	45.73
534.58	46.49
535.008	46.02
535.436	46.8
535.865	46.33
536.293	45.92
536.721	45.58
537.149	46.68
537.576	47.42
538.004	47.42
538.432	46.51
538.86	46.81
539.287	46.59
539.715	47.53
540.143	46.07
540.57	46.76
540.998	47
541.425	48.63
541.852	48.08
542.28	47.89
542.707	47.65
543.134	48.17
543.561	48.31
543.988	48.63
544.415	48.07
544.842	48.26
545.269	47.92
545.696	48.21
546.123	47.81
546.549	47.65
546.976	47.62
547.403	48.14
547.829	47.99
548.256	48.29
548.682	48.47
549.108	49.32
549.535	49
549.961	48.71
550.387	48.58
550.813	49.34
551.24	49.71
551.666	49.25
552.092	48.66
552.518	48.68
552.943	48.8
553.369	48.59
553.795	48.49
554.221	50.09
554.646	50.22
555.072	51.02
555.498	49.56
555.923	48.81
556.349	48.95
556.774	48.95
557.199	48.8
557.625	48.1
558.05	48.19
558.475	47.81
558.9	46.81
559.325	47.28
559.75	47.52
560.175	47.57
560.6	47.51
561.025	47.2
561.449	47.85
561.874	47.83
562.299	48.53
562.723	48.25
563.148	48.01
563.572	47.62
563.997	47.2
564.421	44.98
564.846	44.82
565.27	45.23
565.694	45.33
566.118	44.41
566.542	45.8
566.966	45.15
567.39	45.08
567.814	44.75
568.238	45.09
568.662	44.22
569.086	45.35
569.509	45.01
569.933	46
570.357	45.94
570.78	46.42
571.204	46.21
571.627	45.93
572.05	46.61
572.474	47.73
572.897	47.3
573.32	48.42
573.743	48.16
574.166	48.22
574.589	46.78
575.012	46.19
575.435	45.29
575.858	44.59
576.281	44.67
576.704	43.29
577.126	41.74
577.549	41.06
577.972	40.07
578.394	39.12
578.817	40.9
579.239	40.72
579.661	41.26
580.084	42.62
580.506	42.21
580.928	41.57
581.35	41.77
581.772	42.47
582.194	42.62
582.616	42.32
583.038	42.21
583.46	39.74
583.882	39.78
584.303	38.39
584.725	36.79
585.147	41.22
585.568	42.18
585.99	42.69
586.411	42.6
586.833	42.94
587.254	42.74
587.675	42.6
588.096	42.66
588.518	42.9
588.939	43.55
589.36	44.41
589.781	38.55
590.202	40.44
590.623	39.87
591.043	39.19
591.464	38.78
591.885	39.69
592.305	39.4
592.726	39.8
593.147	39.49
593.567	39.84
593.987	39.13
594.408	38.73
594.828	36.12
595.248	36.85
595.669	37.32
596.089	37.37
596.509	36.31
596.929	35.95
597.349	36.14
597.769	35.91
598.189	36.01
598.608	35.64
599.028	36.1
599.448	35.59
599.867	34.72
600.287	34.11
600.706	34.09
601.126	34.62
601.545	36.23
601.965	36.4
602.384	36.3
602.803	35.71
603.222	36.16
603.641	36.21
604.061	36.81
604.48	36.51
604.898	36.54
605.317	36.56
605.736	36.25
606.155	36.15
606.574	35.36
606.992	35.22
607.411	35.39
607.829	34.43
608.248	34.1
608.666	33.37
609.085	33.85
609.503	33.72
609.921	34.34
610.339	34.83
610.758	33.73
611.176	33.77
611.594	34.56
612.012	34.44
612.43	35.76
612.847	36.28
613.265	37.45
613.683	36.92
614.101	37.1
614.518	35.7
614.936	35.02
615.353	35.04
615.771	34.92
616.188	34.4
616.606	34.15
617.023	33.7
617.44	33.45
617.857	31.47
618.274	31.33
618.691	31.99
619.108	32.21
619.525	32.06
619.942	32.34
620.359	32.96
620.776	32.6
621.192	33.35
621.609	33.42
622.026	33.54
622.442	34.31
622.859	33.81
623.275	32.69
623.691	32.49
624.108	32.58
624.524	32.72
624.94	31.86
625.356	31.6
625.772	31.08
626.188	30.43
626.604	29.92
627.02	29.49
627.436	29.95
627.852	31.43
628.268	32.22
628.683	31.47
629.099	30.92
629.514	30.4
629.93	30.99
630.345	30.93
630.761	30.79
631.176	31.2
631.591	32.94
632.007	33.31
632.422	31.77
632.837	30.44
633.252	31.18
633.667	31.27
634.082	31.86
634.497	32.38
634.911	33.44
635.326	33.8
635.741	33.61
636.155	32.5
636.57	33.64
636.984	33.95
637.399	35.76
637.813	36.08
638.228	36.24
638.642	36.43
639.056	35.28
639.47	34.6
639.884	34.57
640.298	34.53
640.712	34.62
641.126	33.46
641.54	33.25
641.954	31.2
642.368	30.76
642.781	32.97
643.195	32.27
643.609	33.03
644.022	32.41
644.436	31.51
644.849	30.89
645.262	29.89
645.676	28.61
646.089	28.77
646.502	29.76
646.915	29.15
647.328	27.17
647.741	28.75
648.154	28.47
648.567	31.28
648.98	32.25
649.393	32.52
649.805	33.23
650.218	33.6
650.631	33.71
651.043	34.12
651.456	34.88
651.868	35
652.28	33.92
652.693	32.94
653.105	31.22
653.517	30.47
653.929	30.14
654.341	30.5
654.753	31.17
655.165	30.18
655.577	29.82
655.989	29.92
656.401	28.44
656.813	29.18
657.224	29.61
657.636	28.08
658.047	29.51
658.459	29.39
658.87	28.36
659.282	27.75
659.693	28.35
660.104	28.28
660.515	27.41
660.926	27.8
661.338	27.12
661.749	26.46
662.159	27.09
662.57	25.79
662.981	26.1
663.392	25.94
663.803	26.03
664.213	25.34
664.624	25.23
665.035	24.42
665.445	23.69
665.855	24.26
666.266	25.75
666.676	25.08
667.086	24.59
667.497	25.21
667.907	25.66
668.317	25.13
668.727	28.8
669.137	28.03
669.547	28.84
669.956	28.42
670.366	27.93
670.776	27.25
671.186	27.96
671.595	28.39
672.005	27.05
672.414	27.25
672.824	28.22
673.233	24.51
673.642	25.25
674.052	25.66
674.461	27.44
674.87	27.17
675.279	27.97
675.688	26.04
676.097	26.28
676.506	26.87
676.915	26.3
677.323	26.01
677.732	25.85
678.141	25.39
678.549	24.57
678.958	22.7
679.366	22.31
679.775	20.55
680.183	23.68
680.592	23.52
681	24.09
681.408	24.72
681.816	24.89
682.224	25.13
682.632	26.68
683.04	26.73
683.448	27.23
683.856	27.88
684.264	29.07
684.671	26.76
685.079	26.41
685.487	25.31
685.894	25.21
686.302	24.28
686.709	23.82
687.116	22.45
687.524	24.51
687.931	26.85
688.338	27.58
688.745	27.47
689.152	28.35
689.559	29.79
689.966	30.82
690.373	31.75
690.78	33.1
691.187	34.84
691.593	36.08
692	35.33
692.407	34.79
692.813	36.78
693.22	37.58
693.626	36.37
694.032	36.58
694.439	37.38
694.845	36.5
695.251	35.39
695.657	35.77
696.063	34.77
696.469	34.49
696.875	35.18
697.281	33.23
697.687	32.73
698.093	34.13
698.498	35.42
698.904	35.07
699.31	35.73
699.715	39.47
700.12	39.46
700.526	41.23
700.931	42.48
701.337	43.87
701.742	46.18
702.147	46.51
702.552	46.84
702.957	46.08
703.362	47.12
703.767	47.84
704.172	46.21
704.577	46.2
704.981	45.9
705.386	47.08
705.791	46.25
706.195	45.01
706.6	46.01
707.004	46.22
707.408	46.18
707.813	47.87
708.217	49.83
708.621	50.51
709.025	51.5
709.43	53.29
709.834	53.9
710.237	55.12
710.641	55.89
711.045	57.91
711.449	60.41
711.853	64.84
712.256	64.32
712.66	63.51
713.064	64.2
713.467	66.15
713.87	66.55
714.274	67.25
714.677	68.55
715.08	70.34
715.484	70.64
715.887	73.19
716.29	69.46
716.693	71.42
717.096	72.82
717.499	73.37
717.901	71.81
718.304	71.65
718.707	72.5
719.109	72.51
719.512	71.82
719.915	74.09
720.317	72.16
720.719	73.69
721.122	73.67
721.524	74.92
721.926	79.82
722.328	81.74
722.731	81.52
723.133	80.67
723.535	81.34
723.937	83.04
724.338	83.01
724.74	85.09
725.142	137.87
725.544	142.41
725.945	154.33
726.347	150.32
726.748	151.11
727.15	152.12
727.551	155.89
727.952	155.52
728.354	153.33
728.755	152.38
729.156	151.05
729.557	101.36
729.958	96.09
730.359	85.55
730.76	86.14
731.161	85.21
731.562	84.94
731.962	82.57
732.363	83.63
732.763	85.09
733.164	83.83
733.564	84.58
733.965	83.23
734.365	84.4
734.766	85.03
735.166	85.68
735.566	86.28
735.966	87.51
736.366	87.92
736.766	87.09
737.166	86.77
737.566	88.58
737.966	87.25
738.365	89.17
738.765	89.92
739.165	89.36
739.564	87.82
739.964	88.18
740.363	85.69
740.763	85.36
741.162	86.53
741.561	86.15
741.96	85.86
742.36	85.58
742.759	85.14
743.158	84.12
743.557	83.83
743.955	84.68
744.354	83.71
744.753	85.31
745.152	85.98
745.55	84.9
745.949	85.73
746.348	84.69
746.746	84.1
747.144	86.42
747.543	86.97
747.941	86.9
748.339	87.38
748.737	87.92
749.136	88.94
749.534	88.27
749.932	90.54
750.33	90.28
750.727	91.79
751.125	93.77
751.523	91.46
751.921	94.84
752.318	96.5
752.716	98.4
753.113	98.53
753.511	98.91
753.908	101.08
754.305	103.9
754.703	105.77
755.1	107.55
755.497	108.16
755.894	110.92
756.291	110.35
756.688	112.5
757.085	113.78
757.482	118.35
757.878	122.93
758.275	124.31
758.672	118.61
759.068	116.99
759.465	117.96
759.861	119.68
760.258	120.5
760.654	117.41
761.05	113.76
761.447	106.25
761.843	102.58
762.239	99.98
762.635	98.67
763.031	101.08
763.427	103.32
763.822	104.23
764.218	104.37
764.614	102.47
765.01	100.66
765.405	100.69
765.801	103.79
766.196	103.58
766.592	103.74
766.987	103.93
767.382	104.31
767.778	104.77
768.173	103.93
768.568	104.5
768.963	104.21
769.358	107.43
769.753	109.12
770.148	108.82
770.542	109.56
770.937	108.36
771.332	109.72
771.726	110.69
772.121	113.7
772.515	115.53
772.91	115.5
773.304	117.59
773.699	115.69
774.093	114.86
774.487	116.41
774.881	116.96
775.275	119.24
775.669	116.84
776.063	117.03
776.457	114.99
776.851	113.14
777.245	113.76
777.638	112.77
778.032	114
778.425	115.05
778.819	119.66
779.212	121.14
779.606	122.11
779.999	123.36
780.392	124.67
780.786	125.24
781.179	126.71
781.572	127.15
781.965	128.24
782.358	127.16
782.751	126.38
783.143	120.98
783.536	121.4
783.929	118.45
784.322	120
784.714	117.98
785.107	117.44
785.499	119.13
785.891	118.95
786.284	117.85
786.676	118.62
787.068	120.03
787.46	121.16
787.852	119.24
788.245	120.11
788.636	118.81
789.028	121.17
789.42	122.35
789.812	121.35
790.204	121.68
790.595	125.34
790.987	122.84
791.378	121.43
791.77	121.68
792.161	123.22
792.553	125.06
792.944	123.27
793.335	119.12
793.726	120.14
794.117	121.44
794.508	120.65
794.899	116.97
795.29	117.68
795.681	117.81
796.072	114.57
796.463	132.39
796.853	135.58
797.244	139.41
797.634	141.4
798.025	139.94
798.415	137.15
798.806	140.07
799.196	143.01
799.586	146.22
799.976	145.71
800.366	149.27
800.756	128.5
801.146	123.72
801.536	123.03
801.926	121.61
802.316	121.92
802.706	124.47
803.095	122.71
803.485	122.91
803.874	119.65
804.264	121.94
804.653	121.97
805.043	127.63
805.432	131.54
805.821	133.17
806.21	134.2
806.599	135.79
806.988	135.26
807.377	132.11
807.766	131.49
808.155	137.04
808.544	132.8
808.933	130.71
809.321	128.18
809.71	125.26
810.098	123.91
810.487	125.15
810.875	125.69
811.264	121.44
811.652	133.3
812.04	130.65
812.428	130.1
812.816	131.87
813.204	136.46
813.592	134.4
813.98	132.09
814.368	128.34
814.756	130.38
815.144	128.86
815.531	134.13
815.919	121.43
816.306	123.13
816.694	118.07
817.081	118.68
817.469	119.32
817.856	117.19
818.243	121.12
818.63	121.72
819.017	122.51
819.404	124.6
819.791	124.43
820.178	126.34
820.565	131.67
820.952	145.98
821.339	146.03
821.725	144.6
822.112	145.64
822.498	144.51
822.885	145.25
823.271	140.05
823.657	138.67
824.044	140.21
824.43	142.99
824.816	148.89
825.202	141.07
825.588	144.28
825.974	145.35
826.36	145.63
826.746	142.02
827.132	144.29
827.517	146.39
827.903	142.05
828.289	142.74
828.674	136.1
829.06	128.56
829.445	127.19
829.83	126.55
830.216	127.25
830.601	130.42
830.986	138.8
831.371	137.19
831.756	143.17
832.141	144.06
832.526	143.96
832.911	146.95
833.295	143.52
833.68	144.8
834.065	142.69
834.449	136.94
834.834	136.96
835.218	132.13
835.603	137.9
835.987	129.19
836.371	131.54
836.755	128.69
837.139	129.57
837.524	126.81
837.908	124.94
838.291	129.06
838.675	125.52
839.059	120.75
839.443	116.4
839.827	108.74
840.21	110.08
840.594	108.82
840.977	109.97
841.361	108.21
841.744	109.92
842.127	110.43
842.511	107.91
842.894	107.95
843.277	113.21
843.66	114.86
844.043	115.83
844.426	118.36
844.809	112.41
845.191	110.88
845.574	106.2
845.957	105.66
846.339	105.65
846.722	102.33
847.104	103.56
847.487	99.21
847.869	102.27
848.252	105.3
848.634	103.19
849.016	103.94
849.398	102.41
849.78	104.44
850.162	104.33
850.544	104.36
850.926	104.75
851.307	103.5
851.689	103.41
852.071	96.53
852.452	94.63
852.834	91.32
853.215	96.32
853.597	96.42
853.978	102.18
854.359	102.23
854.741	100.54
855.122	96.87
855.503	92.55
855.884	95.76
856.265	100.17
856.646	95.47
857.026	99.9
857.407	100.44
857.788	100.15
858.169	94.59
858.549	99.35
858.93	100.88
859.31	105.06
859.69	112.96
860.071	109.58
860.451	107.75
860.831	107.51
861.211	107.11
861.591	102.89
861.971	101.17
862.351	103.48
862.731	95.3
863.111	93.71
863.491	96.77
863.87	94.95
864.25	92.74
864.629	98.77
865.009	98.2
865.388	103.19
865.768	103.42
866.147	111.91
866.526	110.96
866.905	114.64
867.284	115.76
867.663	104.53
868.042	101.05
868.421	102.94
868.8	95.33
869.179	103.22
869.558	96.73
869.936	99.67
870.315	94.29
870.693	99.98
871.072	103.23
871.45	99.32
871.828	108.46
872.207	116.36
872.585	114.62
872.963	117.67
873.341	115.81
873.719	122.33
874.097	115.93
874.475	117.83
874.853	110.67
875.23	110.89
875.608	119.88
875.986	124.68
876.363	121.69
876.741	136.3
877.118	139.47
877.495	147.43
877.873	143.43
878.25	152.02
878.627	148.05
879.004	151.2
879.381	146.67
879.758	145.58
880.135	134.64
880.512	135.51
880.889	119.59
881.265	116.09
881.642	106.26
882.019	106.51
882.395	111.52
882.772	118.43
883.148	117.08
883.524	118.33
883.901	111.57
884.277	107.39
884.653	105
885.029	118.4
885.405	132.84
885.781	134.91
886.157	128.06
886.532	122.61
886.908	118.76
887.284	128.08
887.659	131.4
888.035	137
888.411	136.41
888.786	140.82
889.161	137.09
889.537	125.52
889.912	127.95
890.287	127.45
890.662	125.09
891.037	118.97
891.412	108.32
891.787	101.38
892.162	99.57
892.536	106.72
892.911	104.88
893.286	92.11
893.66	91.3
894.035	92.77
894.409	91.84
894.784	92.07
895.158	89.78
895.532	95.72
895.906	101.16
896.281	102.26
896.655	102.12
897.029	108.77
897.402	122.37
897.776	131.38
898.15	124.85
898.524	123.51
898.898	119.3
899.271	141.97
899.645	127.62
900.018	120.77
900.392	123.62
900.765	117.67
901.138	113.54
901.511	105.15
901.884	109.94
902.258	107.62
902.631	121.63
903.003	142.25
903.376	118.75
903.749	128.86
904.122	130.74
904.495	127.24
904.867	123.95
905.24	104.42
905.612	96.93
905.985	74.94
906.357	74.13
906.729	65.94
907.102	55.16
907.474	58.56
907.846	60.13
908.218	62.65
908.59	72.27
908.962	69.28
909.334	76.39
909.705	94.12
910.077	89.71
910.449	86.22
910.82	96.97
911.192	102.85
911.563	108.94
911.935	99.77
912.306	86.69
912.677	72.5
913.048	84.47
913.419	87.72
913.79	56.04
914.161	63.94
914.532	81.17
914.903	58.81
915.274	56.24
915.645	56.5
916.015	44.12
916.386	52.74
916.756	49.95
917.127	39.06
917.497	32.05
917.868	45.02
918.238	46.79
918.608	32.56
918.978	39.74
919.348	30.09
919.718	29.46
920.088	47.67
920.458	58.57
920.828	61.08
921.198	64.56
921.567	68.71
921.937	58.65
922.306	44.81
922.676	41.63
923.045	47.84
923.415	62.56
923.784	56.99
924.153	67.74
924.522	70.01
924.891	65.41
925.26	69.74
925.629	61.74
925.998	61.53
926.367	74.43
926.736	96.28
927.104	96.41
927.473	87.06
927.842	104.79
928.21	80.35
928.578	54.56
928.947	71.43
929.315	82.4
929.683	120.7
930.051	129.21
930.42	136.53
930.788	100.75
931.156	93.5
931.523	126.86
931.891	114.02
932.259	115.75
932.627	154.67
932.994	160.23
933.362	157.88
933.729	145.77
934.097	131.85
934.464	112.65
934.831	104.5
935.199	102.11
935.566	70.56
935.933	140.91
936.3	180.43
936.667	137.77
937.034	224.13
937.401	188.68
937.767	151.25
938.134	140.82
938.501	183.93
938.867	229.42
939.234	373.37
939.6	291.83
939.967	170.57
940.333	113.93
940.699	70.95
941.065	-12.9
941.431	21.7
941.798	75.62
942.163	109.76
942.529	59.3
942.895	19.2
943.261	32.24
943.627	62.64
943.992	56.16
944.358	43.78
944.723	78.3
945.089	59.19
945.454	39.5
945.82	12.87
946.185	4.17
946.55	15.17
946.915	19.25
947.28	21.1
947.645	15.99
948.01	51.41
948.375	91.74
948.74	87.72
949.104	105.87
949.469	105.85
949.834	234.41
950.198	311.17
950.562	238.41
950.927	225.57
951.291	211.8
951.655	151.09
952.02	78.97
952.384	57.37
952.748	64.83
953.112	104.42
953.476	99.39
953.839	76.78
954.203	79.2
954.567	82.56
954.931	60.48
955.294	83.99
955.658	91.4
956.021	162.96
956.385	114.99
956.748	138.49
957.111	-119.3
957.474	-234.81
957.837	-308.44
958.2	-317.81
958.563	-102.87
958.926	-0.94
959.289	-16.66
959.652	57.1
960.015	66.14
960.377	122.18
960.74	187.18
961.102	155.34
961.465	425.48
961.827	616.12
962.189	1160.24
962.552	729.05
962.914	616.9
963.276	361.92
963.638	254.84
964	203.76
964.362	179.09
964.724	128.56
965.085	125.03
965.447	100.47
965.809	40.52
966.17	13.88
966.532	22.07
966.893	17.94
967.255	22.36
967.616	6.52
967.977	28.17
968.338	3.07
968.699	39.99
969.061	34
969.421	40.33
969.782	30.42
970.143	57.81
970.504	94.94
970.865	115.33
971.225	147.28
971.586	154.7
971.946	202.71
972.307	190.13
972.667	191.12
973.027	195.41
973.388	179.01
973.748	131.68
974.108	135.18
974.468	87.84
974.828	113.45
975.188	69.42
975.548	65.35
975.907	60.34
976.267	58.77
976.627	75.51
976.986	72.02
977.346	66.29
977.705	70.73
978.064	45.98
978.424	40.01
978.783	6.04
979.142	-1.15
979.501	5.77
979.86	15.42
980.219	6.48
980.578	-35.08
980.937	-57.2
981.296	-20
981.654	-28.74
982.013	-63.09
982.371	-39.77
982.73	-15.45
983.088	-22.45
983.447	-53.05
983.805	-127.19
984.163	-221.16
984.521	-105.75
984.879	-277.77
985.237	568.69
985.595	-316
985.953	-152.09
986.311	-124.33
986.669	-45.35
987.026	-29.54
987.384	-58.16
987.741	-91.2
988.099	14.98
988.456	4.3
988.814	31.81
989.171	43.83
989.528	16.52
989.885	30.47
990.242	42.03
990.599	12.06
990.956	17.13
991.313	33.57
991.67	38.54
992.027	66.6
992.383	61.07
992.74	70.13
993.096	70.28
993.453	77.99
993.809	79.54
994.165	91.69
994.522	139.91
994.878	140.65
995.234	158.2
995.59	147.02
995.946	57.39
996.302	79.65
996.658	71.44
997.013	74.56
997.369	116.99
997.725	161.91
998.08	127.05
998.436	20.92
998.791	28.2
999.147	21.03
999.502	50.6
999.857	53.06
1000.212	-5.47
1000.567	-147.53
1000.922	-138.89
1001.277	-97.53
1001.632	-47.39
1001.987	-61.09
1002.342	-16.92
1002.696	19.57
1003.051	55.83
1003.406	66.03
1003.76	59.63
1004.114	73.79
1004.469	86.26
1004.823	82.6
1005.177	69.7
1005.531	59.84
1005.885	63.06
1006.239	80.22
1006.593	88.68
1006.947	89.99
1007.301	55.28
1007.655	53.91
1008.008	49.08
1008.362	38.29
1008.715	48
1009.069	65.85
1009.422	127.23
1009.776	106.51
1010.129	41.21
1010.482	15.02
1010.835	-34.93
1011.188	-130.28
1011.541	-94.15
1011.894	781.1
1012.247	-2053.26
1012.6	-167.46
1012.952	-126.62
1013.305	-134.99
1013.657	-73.45
1014.01	-81.97
1014.362	-73.09
1014.715	-14.1
1015.067	10.35
1015.419	0.16
1015.771	10.17
1016.123	35.77
1016.475	42.92
1016.827	32.57
1017.179	61.54
1017.531	50.09
1017.883	48.26
1018.234	99.89
1018.586	112.63
1018.938	144.66
1019.289	213.79
1019.64	206.72
1019.992	149.35
1020.343	111.35
1020.694	142.6
1021.045	115.74
1021.396	125.31
1021.747	171.87
1022.098	99.36
1022.449	96.27
1022.8	78.85
1023.151	77.19
1023.501	103.19
1023.852	105.01
1024.202	120.65
1024.553	98.97
1024.903	138.27
1025.253	150.59
1025.604	149.34
1025.954	171.9
1026.304	139.29
1026.654	158.27
1027.004	192.1
1027.354	105.37
1027.703	172.36
1028.053	176.44
1028.403	611.14
1028.753	481.57
1029.102	94.9
1029.452	-3118.63
1029.801	-125.01
1030.15	-40.64
1030.499	-79.22
897.758	1766.6
901.051	1703.13
904.343	1733.68
907.636	1739.28
910.928	1790.97
914.22	1727.59
917.511	1731.24
920.803	1766.39
924.094	1758.33
927.384	1767.44
930.675	1736.37
933.965	1709.08
937.255	1739.17
940.544	1715.95
943.834	1706.35
947.123	1658.25
950.411	1729.08
953.7	1715.6
956.988	1706.91
960.276	1647.73
963.563	1678.16
966.851	1687.78
970.138	1720.59
973.424	1721.56
976.711	1678.57
979.997	1720.8
983.283	1753.53
986.568	1701.07
989.853	1686.05
993.138	1704.73
996.423	1780.43
999.708	1749.83
1002.992	1772.03
1006.275	1695.47
1009.559	1697.95
1012.842	1774.99
1016.125	1739.01
1019.408	1720.99
1022.69	1760.12
1025.972	1788.85
1029.254	1769.62
1032.536	1742.57
1035.817	1746.5
1039.098	1721.53
1042.379	1758.21
1045.659	1777.62
1048.939	1737.05
1052.219	1737
1055.498	1727.64
1058.778	1722.67
1062.057	1701.66
1065.335	1722.03
1068.614	1727.02
1071.892	1723.71
1075.17	1762.92
1078.447	1768.01
1081.724	1763.42
1085.001	1778.84
1088.278	1761.26
1091.554	1762.2
1094.83	1759.02
1098.106	1785.72
1101.382	1806.63
1104.657	1805.39
1107.932	1806.07
1111.206	1786.78
1114.481	1747.2
1117.755	1748.97
1121.029	1747.31
1124.302	1795.34
1127.575	1772.14
1130.848	1771.42
1134.121	1751.16
1137.393	1719.48
1140.665	1765.53
1143.937	1747.94
1147.208	1707.1
1150.48	1756.09
1153.75	1743.44
1157.021	1739.54
1160.291	1722.07
1163.561	1763.73
1166.831	1732.74
1170.101	1750.64
1173.37	1716.13
1176.639	1685.12
1179.907	1718.35
1183.176	1736.42
1186.444	1738.61
1189.711	1758.02
1192.979	1778.5
1196.246	1744.94
1199.513	1754.49
1202.78	1760.17
1206.046	1766.26
1209.312	1793.25
1212.578	1801.46
1215.843	1777.46
1219.108	1754.85
1222.373	1773.1
1225.638	1754.33
1228.902	1750.43
1232.166	1713.04
1235.43	1706.42
1238.693	1729.74
1241.956	1723.93
1245.219	1764.05
1248.482	1750.7
1251.744	1750.83
1255.006	1842.16
1258.268	1797.79
1261.529	1767.25
1264.79	1764.67
1268.051	1841.12
1271.312	1846.32
1274.572	1820.71
1277.832	1811.18
1281.092	1790.72
1284.351	1786.65
1287.61	1774.69
1290.869	1726.38
1294.128	1726.89
1297.386	1753.57
1300.644	1747.91
1303.902	1757.37
1307.159	1654.58
1310.416	1694.07
1313.673	1714.92
1316.93	1720.47
1320.186	1740.79
1323.442	1765.44
1326.697	1769.12
1329.953	1746.49
1333.208	1780.34
1336.463	1760.59
1339.717	1735.38
1342.972	1817.47
1346.226	1795.93
1349.479	1763.35
1352.733	1746.72
1355.986	1752.9
1359.238	1739.68
1362.491	1743.87
1365.743	1746.12
1368.995	1740.71
1372.247	1754.12
1375.498	1768.93
1378.749	1809.64
1382	1773.52
1385.251	1796.96
1388.501	1761.43
1391.751	1765.4
1395	1742.27
1398.25	1761.95
1401.499	1788.3
1404.748	1753.5
1407.996	1734.22
1411.244	1727.91
1414.492	1718.03
1417.74	1708.04
1420.987	1714.48
1424.234	1763.29
1427.481	1726.58
1430.728	1771.91
1433.974	1755.95
1437.22	1750.02
1440.465	1743.26
1443.711	1752.15
1446.956	1767.62
1450.201	1740.66
1453.445	1774.76
1456.689	1763
1459.933	1770.61
1463.177	1807.27
1466.42	1784.74
1469.663	1768.44
1472.906	1782.66
1476.148	1820.69
1479.391	1783.89
1482.633	1766.42
1485.874	1788.64
1489.115	1793.77
1492.356	1778.6
1495.597	1760.55
1498.838	1749.31
1502.078	1739.39
1505.318	1721.92
1508.557	1743.92
1511.797	1741.31
1515.036	1783.93
1518.274	1751.78
1521.513	1706.68
1524.751	1714.24
1527.989	1732.22
1531.227	1746.64
1534.464	1759.15
1537.701	1747.25
1540.938	1752.98
1544.174	1711.58
1547.41	1697.35
1550.646	1727.88
1553.882	1766.39
1557.117	1811.41
1560.352	1814.71
1563.587	1784.65
1566.821	1759.77
1570.055	1768.3
1573.289	1752.89
1576.523	1793.77
1579.756	1804.02
1582.989	1822.19
1586.222	1785.14
1589.454	1810.33
1592.686	1799.06
1595.918	1818.36
1599.15	1816.04
1602.381	1847.14
1605.612	1837.77
1608.843	1907.58
1612.073	1848.19
1615.303	1840.85
1618.533	1839.52
1621.762	1839.96
1624.992	1815.54
1628.221	1818.49
1631.449	1809.5
1634.678	1826.42
1637.906	1801.05
1641.134	1817.17
1644.361	1791.32
1647.588	1784.79
1650.815	1804
1654.042	1771.04
1657.269	1792.51
1660.495	1781.52
1663.72	1763.46
1666.946	1740.19
1670.171	1726.79
1673.396	1703.94
1676.621	1690.27
1679.845	1683.28
1683.069	1685.01
1686.293	1704.64
1689.517	1702.61
1692.74	1668.96
1695.963	1684
1699.185	1720.45
1702.408	1702.14
1705.63	1721.64
1708.852	1738.44
1712.073	1713.11
1715.294	1731.39
1718.515	1765.23
1721.736	1735.35
1724.956	1718.2
1728.176	1735.71
1731.396	1751.41
1734.616	1743.16
1737.835	1775.33
1741.054	1747.69
1744.272	1743.52
1747.491	1780.29
1750.709	1793.08
1753.927	1761.38
1757.144	1780.07
1760.361	1828.68
1763.578	1802
1766.795	1765.78
1770.011	1754.19
1773.227	1768.81
1776.443	1807.18
1779.658	1839.78
1782.874	1792.42
1786.089	1790.3
1789.303	1792.09
1792.518	1786.73
1795.732	1778.24
1798.945	1795.52
1802.159	1829.71
1805.372	1790.13
1808.585	1787.47
1811.797	1787.49
1815.01	1803.77
1818.222	1830.35
1821.434	1791.14
1824.645	1821.45
1827.856	1835.77
1831.067	1857.21
1834.278	1806.08
1837.488	1793.8
1840.698	1887.79
1843.908	1849.17
1847.117	1826.76
1850.326	1773.47
1853.535	1814.76
1856.744	1851.25
1859.952	1793.82
1863.16	1795.36
1866.368	1810.9
1869.575	1906.72
1872.782	1809.9
1875.989	1762.64
1879.196	1796.97
1882.402	1794.12
1885.608	1822.11
1888.814	1783.59
1892.019	1716.01
1895.224	1760.86
1898.429	1732.48
1901.634	1721.02
1904.838	1703.74
1908.042	1757.19
1911.246	1767.92
1914.449	1744.81
1917.652	1727.32
1920.855	1711.84
1924.058	1728.84
1927.26	1768.73
1930.462	1783.47
1933.664	1819.67
1936.865	1775.35
1940.066	1787.44
1943.267	1740.1
1946.467	1748.27
1949.668	1760.45
1952.868	1818.04
1956.067	1814.05
1959.267	1765.15
1962.466	1783.68
1965.665	1767.68
1968.863	1763.41
1972.061	1762.17
1975.259	1755.29
1978.457	1818.05
1981.654	1783.54
1984.852	1786.32
1988.048	1751.95
1991.245	1738.05
1994.441	1813.73
1997.637	1769.05
2000.833	1756.22
2004.028	1782.6
2007.223	1834.83
2010.418	1827.35
2013.613	1783.96
2016.807	1785.3
2020.001	1776.89
2023.194	1791.75
2026.388	1780.63
2029.581	1731.4
2032.774	1789.28
2035.966	1798.24
2039.158	1758.38
2042.35	1773.52
2045.542	1713.56
2048.733	1778.03
2051.924	1761.25
2055.115	1774.85
2058.306	1750.03
2061.496	1792.47
2064.686	1831.79
2067.875	1750.91
2071.065	1749.99
2074.254	1761.89
2077.442	1724.8
2080.631	1790.21
2083.819	1743.54
2087.007	1739.88
2090.195	1729.77
2093.382	1736.58
2096.569	1727.72
2099.756	1697.28
2102.942	1744.73
2106.128	1755.78
2109.314	1748.25
2112.5	1741.38
2115.685	1712.96
2118.87	1718.49
2122.055	1771.09
2125.239	1754.54
2128.424	1749.23
2131.608	1785.61
2134.791	1770.97
2137.974	1797.12
2141.157	1791.94
2144.34	1772.26
2147.523	1755.09
2150.705	1780.79
2153.887	1750.11
2157.068	1731.95
2160.25	1709.96
2163.431	1726.95
2166.611	1708.81
2169.792	1730.3
2172.972	1658.97
2176.152	1696.13
2179.331	1713.85
2182.511	1723.73
2185.69	1738.89
2188.868	1746.3
2192.047	1770.98
2195.225	1795.22
2198.403	1749.57
2201.58	1737.2
2204.758	1719.3
2207.935	1781.09
2211.111	1716.69
2214.288	1709.49
2217.464	1735.8
2220.64	1695.85
2223.815	1734.92
2226.991	1680.63
2230.166	1691.24
2233.34	1731.32
2236.515	1739.26
2239.689	1796.47
2242.863	1753.03
2246.036	1796.85
2249.209	1781.31
2252.382	1793.77
2255.555	1807.33
2258.727	1770.53
2261.9	1792.41
2265.071	1786.86
2268.243	1785.14
2271.414	1747.09
2274.585	1735.99
2277.756	1788.74
2280.926	1754.21
2284.096	1773.67
2287.266	1720.25
2290.436	1758.76
2293.605	1771.39
2296.774	1805.7
2299.942	1807.29
2303.111	1816.82
2306.279	1860.62
2309.447	1850.18
2312.614	1827.14
2315.781	1844.51
2318.948	1826.91
2322.115	1859.42
2325.281	1772.38
2328.447	1778.15
2331.613	1751.1
2334.779	1749.14
2337.944	1744.71
2341.109	1747.35
2344.274	1738.87
2347.438	1710.98
2350.602	1729.93
2353.766	1737.67
2356.929	1730.78
2360.092	1759.99
2363.255	1739.18
2366.418	1720.7
2369.58	1754.63
2372.742	1705.26
2375.904	1686.49
2379.066	1678.41
2382.227	1696.83
2385.388	1663.17
2388.548	1627.75
2391.709	1656.71
2394.869	1655.73
2398.029	1688.09
2401.188	1676.25
2404.347	1662.04
2407.506	1681.55
2410.665	1729.23
2413.823	1708.76
2416.981	1697.8
2420.139	1709.76
2423.296	1742.03
2426.453	1718.88
2429.61	1736.51
2432.767	1723.18
2435.923	1759.05
2439.079	1707.59
2442.235	1732.3
2445.391	1684.72
2448.546	1724.02
2451.701	1748.81
2454.855	1749.36
2458.009	1767.41
2461.163	1756.26
2464.317	1732.55
2467.471	1752.33
2470.624	1775.45
2473.777	1774.53
2476.929	1791.36
2480.082	1806.1
2483.234	1789.73
2486.385	1740.68
2489.537	1734.91
2492.688	1732.72
2495.839	1748.22
2498.989	1760
2502.14	1748.88
2505.29	1743.84
2508.439	1761.48
2511.589	1715.37
2514.738	1714.46
2517.887	1729.72
2521.035	1791.86
2524.183	1753.62
2527.331	1746.96
2530.479	1744.21
2533.627	1746.1
