Data from N_1_DIV_IL_4N_Splice17_11-16-00-089.txt Node
Date: Sat Mar 14 11:16:00 EDT 2020
User: sa697716
Spectrometer: FLMS03696
Trigger mode: 0
Integration Time (sec): 3.180400E-1
Scans to average: 20
Electric dark correction enabled: true
Nonlinearity correction enabled: true
Boxcar width: 5
XAxis mode: Wavelengths
Number of Pixels in Spectrum: 2048
>>>>>Begin Spectral Data<<<<<
187.83	-102939.06
188.298	850.38
188.766	480.11
189.233	425.05
189.701	547.28
190.169	872.46
190.636	319.1
191.104	243.46
191.571	13.03
192.039	-65.35
192.506	-84.46
192.974	248.73
193.441	-240.56
193.908	-55.82
194.375	-0.24
194.842	-1.12
195.31	65.05
195.777	116.65
196.244	151.2
196.711	97.2
197.177	127.98
197.644	157.69
198.111	254.58
198.578	330.74
199.045	262.14
199.511	413.22
199.978	448.68
200.445	390.85
200.911	389.72
201.378	450.5
201.844	450.67
202.31	711.11
202.777	702.33
203.243	421.05
203.709	415.48
204.176	504.42
204.642	409.83
205.108	394.64
205.574	346.82
206.04	310.52
206.506	274.02
206.972	242.05
207.438	240.1
207.903	266.43
208.369	254.41
208.835	265.4
209.301	273.38
209.766	290.78
210.232	292.5
210.697	344
211.163	417.49
211.628	646.18
212.094	573.1
212.559	705.28
213.024	453.99
213.49	544.34
213.955	497.27
214.42	478.59
214.885	419.46
215.35	393.07
215.815	397.67
216.28	409.42
216.745	317.33
217.21	336.69
217.675	285.72
218.14	296.22
218.604	281.21
219.069	289.62
219.534	298.59
219.998	308.94
220.463	337.6
220.927	341.14
221.392	303.83
221.856	296.95
222.32	310.28
222.785	357.32
223.249	417.89
223.713	475.77
224.177	462.07
224.642	499.87
225.106	595.85
225.57	601.88
226.034	461.9
226.497	685.51
226.961	638.69
227.425	769.73
227.889	837.67
228.353	772.13
228.816	1436.9
229.28	1373.55
229.744	1145.65
230.207	693.86
230.671	681.31
231.134	973.83
231.597	1099.72
232.061	992.18
232.524	847.9
232.987	592.59
233.45	558.12
233.914	480.5
234.377	420.99
234.84	388.55
235.303	445.43
235.766	489.93
236.229	507.87
236.691	310.29
237.154	337.72
237.617	269.12
238.08	257.57
238.542	305.21
239.005	230.54
239.468	244.91
239.93	238.59
240.393	228.35
240.855	194.59
241.317	183.49
241.78	190.96
242.242	204.81
242.704	241.15
243.166	216.7
243.629	212.34
244.091	233.59
244.553	268.61
245.015	287.06
245.477	335.44
245.939	477.34
246.4	534.14
246.862	524.83
247.324	479.78
247.786	494.1
248.247	595.13
248.709	527.33
249.17	414.99
249.632	432.86
250.093	543.55
250.555	492.3
251.016	338.42
251.477	333.09
251.939	377.17
252.4	390.53
252.861	451.05
253.322	452.33
253.783	523.35
254.244	634.81
254.705	461.67
255.166	351.77
255.627	337.08
256.088	477.54
256.549	488.52
257.009	419.91
257.47	491.01
257.931	410.97
258.391	306.88
258.852	329.76
259.312	370.68
259.773	435.83
260.233	417.52
260.694	359.16
261.154	374.33
261.614	329.41
262.074	273.17
262.534	290.28
262.994	284.03
263.455	334.43
263.915	291.5
264.374	262.9
264.834	294.64
265.294	313.18
265.754	324.48
266.214	320.34
266.673	298.92
267.133	373.04
267.593	355.92
268.052	399.28
268.512	337.9
268.971	449.52
269.431	494.34
269.89	416.56
270.349	585.7
270.809	654.98
271.268	544.78
271.727	1072.09
272.186	739.14
272.645	580.01
273.104	396.78
273.563	594.96
274.022	387.26
274.481	347.4
274.94	281.85
275.399	213.15
275.857	227.93
276.316	311.4
276.775	279.2
277.233	250.04
277.692	235.99
278.15	310.93
278.609	352.38
279.067	313.64
279.525	320.86
279.984	396.64
280.442	461.98
280.9	529.96
281.358	356.24
281.816	345.05
282.274	360.34
282.732	358.41
283.19	343.54
283.648	294.51
284.106	313.51
284.564	313.08
285.021	326.92
285.479	257.21
285.937	206.85
286.394	193.92
286.852	201.27
287.309	201.27
287.767	224.25
288.224	222.28
288.682	229.36
289.139	274.74
289.596	250.63
290.053	237.19
290.511	268.27
290.968	331.67
291.425	399.52
291.882	348.53
292.339	322.86
292.796	270.73
293.252	236.43
293.709	219.07
294.166	198.45
294.623	214.48
295.079	211.51
295.536	231.74
295.992	224.47
296.449	239.04
296.905	266.48
297.362	277.21
297.818	300.04
298.274	323.64
298.731	318.02
299.187	300.04
299.643	307.17
300.099	359.46
300.555	400.99
301.011	340.65
301.467	361.12
301.923	359.95
302.379	350.67
302.835	331.98
303.291	321.32
303.746	348.32
304.202	447.83
304.658	465.86
305.113	322.31
305.569	303.16
306.024	295.45
306.479	231.92
306.935	226.98
307.39	231.73
307.845	225.9
308.301	247.19
308.756	229.94
309.211	221.45
309.666	225.6
310.121	308.94
310.576	313.82
311.031	309.55
311.486	330.05
311.94	315.3
312.395	426.9
312.85	776.91
313.305	3332.08
313.759	21779.71
314.214	1600.59
314.668	1282.69
315.123	1115.07
315.577	448.76
316.032	426.84
316.486	540.07
316.94	450.24
317.394	318.26
317.849	274.21
318.303	255.02
318.757	241.11
319.211	263.19
319.665	245.44
320.119	251.15
320.572	335.64
321.026	316.23
321.48	276.2
321.934	298.57
322.387	298.05
322.841	325.16
323.295	341.05
323.748	356.49
324.202	392.13
324.655	448.64
325.108	657.24
325.562	493.91
326.015	585.3
326.468	461.33
326.921	509.17
327.374	493.59
327.827	516.03
328.28	548.17
328.733	391.5
329.186	341.52
329.639	337.55
330.092	263.63
330.545	250.52
330.997	259.21
331.45	304.21
331.903	367.11
332.355	598.96
332.808	567.95
333.26	478.74
333.713	531.14
334.165	511.9
334.617	651.35
335.069	506.05
335.522	830.17
335.974	902.71
336.426	723.16
336.878	458.89
337.33	238.33
337.782	216.03
338.234	263.43
338.686	288.66
339.137	328.07
339.589	308.9
340.041	276.21
340.493	241.26
340.944	232.8
341.396	245.94
341.847	232.52
342.299	273.49
342.75	380.36
343.201	326.24
343.653	363.45
344.104	442.93
344.555	342.45
345.006	467.85
345.457	451.03
345.908	369.9
346.359	387.61
346.81	311.16
347.261	314.85
347.712	286.13
348.163	283.24
348.613	340.79
349.064	336.29
349.515	308.81
349.965	331.35
350.416	384.38
350.866	396.15
351.317	419.51
351.767	641.53
352.217	811.61
352.668	670.75
353.118	645.86
353.568	533.72
354.018	405.9
354.468	409.5
354.918	333.62
355.368	277.86
355.818	395.74
356.268	1023.78
356.718	4667.02
357.168	1294.34
357.617	663.36
358.067	692.59
358.517	619.9
358.966	785.12
359.416	1008.42
359.865	1026.07
360.315	1211.12
360.764	603.73
361.213	361.4
361.663	317.85
362.112	355.95
362.561	574.37
363.01	464.78
363.459	411.51
363.908	423.1
364.357	371.17
364.806	547.8
365.255	368.51
365.703	356.47
366.152	353.99
366.601	296.09
367.05	282.75
367.498	265.17
367.947	257.27
368.395	265.85
368.844	235.05
369.292	235.97
369.74	194.2
370.189	266.93
370.637	279.55
371.085	213.42
371.533	269.63
371.981	198.84
372.429	218.24
372.877	235.65
373.325	220.12
373.773	228.46
374.221	198.08
374.669	210.97
375.116	189.02
375.564	226.67
376.012	277.97
376.459	254.08
376.907	299.43
377.354	328.64
377.801	324.09
378.249	367.37
378.696	451.98
379.143	545.87
379.591	602.36
380.038	1028.46
380.485	700.41
380.932	720.36
381.379	680.33
381.826	590.65
382.273	417.67
382.72	359.92
383.166	335.3
383.613	243.77
384.06	223.78
384.506	271.64
384.953	205.95
385.4	203.89
385.846	183.84
386.292	161.13
386.739	151.95
387.185	138.9
387.631	129.95
388.078	147.95
388.524	153.51
388.97	159.9
389.416	140.49
389.862	159.48
390.308	156.82
390.754	168.31
391.2	187.24
391.645	192.55
392.091	224.88
392.537	246.86
392.983	248.43
393.428	275.14
393.874	296.67
394.319	323.65
394.765	337.88
395.21	374.76
395.655	388.86
396.101	412.32
396.546	409.93
396.991	444.3
397.436	448.02
397.881	465.7
398.326	467.6
398.771	486.81
399.216	456.78
399.661	438.82
400.106	465.49
400.551	505.02
400.995	473.65
401.44	491.99
401.885	480.06
402.329	500.17
402.774	496.21
403.218	504.45
403.663	499.29
404.107	527.99
404.551	549.84
404.995	522.83
405.44	521.18
405.884	551.63
406.328	543.03
406.772	550.43
407.216	517.79
407.66	516
408.104	501.32
408.547	485.36
408.991	486.24
409.435	478.83
409.879	483.21
410.322	486.9
410.766	479.55
411.209	473.66
411.653	467.14
412.096	467.35
412.54	477.35
412.983	481.18
413.426	490.21
413.869	494
414.312	492.7
414.756	483.2
415.199	467.29
415.642	458.05
416.085	461.99
416.527	463.38
416.97	475.6
417.413	455.42
417.856	455.07
418.298	453.44
418.741	451.41
419.184	450.71
419.626	464.28
420.069	464.01
420.511	465.45
420.953	457.77
421.396	458.11
421.838	449.57
422.28	463.17
422.722	468.32
423.164	478.23
423.606	476.07
424.048	482.02
424.49	466.94
424.932	468.16
425.374	467.75
425.816	474.41
426.258	478.5
426.699	477.09
427.141	460.08
427.582	459
428.024	452.75
428.465	449.39
428.907	440.87
429.348	442.24
429.789	449.92
430.231	446.62
430.672	459.51
431.113	457.29
431.554	464.93
431.995	471.04
432.436	473.84
432.877	477.14
433.318	480.85
433.759	486.97
434.2	492.07
434.64	490.98
435.081	496.62
435.522	479.89
435.962	469.6
436.403	466.52
436.843	479.47
437.284	474.49
437.724	466.23
438.164	471.01
438.604	465.22
439.045	453.21
439.485	442.89
439.925	439.3
440.365	433.87
440.805	433.79
441.245	432.61
441.685	420.26
442.125	418.9
442.564	422.29
443.004	414.33
443.444	414.02
443.883	414.91
444.323	411.72
444.762	414.33
445.202	420.03
445.641	429.87
446.081	428.09
446.52	433.63
446.959	433.35
447.398	428.47
447.837	428.15
448.276	425.08
448.716	432.74
449.154	437.39
449.593	426.94
450.032	424.93
450.471	415.25
450.91	414.51
451.349	412.12
451.787	408.51
452.226	411.01
452.664	407.7
453.103	404.24
453.541	402.27
453.98	400.6
454.418	403.15
454.856	396.05
455.295	393.79
455.733	394.23
456.171	395.27
456.609	392.8
457.047	392.21
457.485	396.61
457.923	398.55
458.361	391.82
458.798	392.46
459.236	390.54
459.674	393.29
460.111	397.3
460.549	394.34
460.987	392.59
461.424	391.86
461.862	390.18
462.299	385.08
462.736	383.57
463.173	385.79
463.611	382.18
464.048	382.05
464.485	386.88
464.922	385.19
465.359	386.38
465.796	384.51
466.233	384.84
466.67	384.29
467.106	386.13
467.543	385.06
467.98	382.65
468.416	377.8
468.853	379.82
469.29	372.8
469.726	371.04
470.162	364.11
470.599	363.37
471.035	364.26
471.471	359.4
471.907	360.39
472.344	361.62
472.78	364.55
473.216	369.9
473.652	366.61
474.088	367.58
474.523	367.81
474.959	373.02
475.395	369.88
475.831	367.01
476.266	369.25
476.702	368.23
477.138	363.99
477.573	362.67
478.008	361.24
478.444	362.2
478.879	363.22
479.314	363.06
479.75	360.15
480.185	359.66
480.62	360.92
481.055	359.4
481.49	358.48
481.925	359.96
482.36	359.68
482.795	360.9
483.229	361.6
483.664	360.8
484.099	355.88
484.534	356.52
484.968	355.42
485.403	352.07
485.837	348
486.271	345.47
486.706	344.22
487.14	340.77
487.574	337.36
488.009	336.39
488.443	334.44
488.877	337.46
489.311	336.8
489.745	339.01
490.179	340.22
490.613	344.81
491.046	344.68
491.48	344.99
491.914	344.4
492.348	345.68
492.781	346.2
493.215	345.97
493.648	345.56
494.082	347.82
494.515	346.41
494.948	348.38
495.382	348.13
495.815	348.77
496.248	348.94
496.681	350.89
497.114	351.97
497.547	352.43
497.98	354.08
498.413	352.85
498.846	352.2
499.279	351.59
499.711	349.83
500.144	347.59
500.577	348.01
501.009	349.05
501.442	350.17
501.874	348.49
502.306	347.75
502.739	349.63
503.171	353.7
503.603	353.75
504.036	356.13
504.468	356.1
504.9	357.65
505.332	357.66
505.764	356.56
506.196	356.75
506.627	359.14
507.059	360.08
507.491	359.49
507.923	355.38
508.354	357.99
508.786	358.49
509.217	361.36
509.649	363.72
510.08	366.02
510.512	367.44
510.943	367.96
511.374	367.19
511.805	369.63
512.237	371.52
512.668	377.52
513.099	379.43
513.53	380.59
513.961	379.13
514.391	381.18
514.822	384.7
515.253	388.64
515.684	389.89
516.114	393.42
516.545	394.78
516.975	397.79
517.406	398.44
517.836	397.13
518.267	399.32
518.697	405.15
519.127	406.67
519.558	407.95
519.988	408.81
520.418	411.82
520.848	415.77
521.278	417.42
521.708	424.99
522.138	427.74
522.567	434.01
522.997	436.96
523.427	436.63
523.857	436.84
524.286	436.64
524.716	437.42
525.145	440.07
525.575	441.63
526.004	443.44
526.433	436.47
526.863	434.5
527.292	431.74
527.721	433.71
528.15	436.23
528.579	437.86
529.008	440.44
529.437	444.69
529.866	445.4
530.295	446.52
530.724	447.92
531.152	450.92
531.581	452.73
532.01	455.06
532.438	455.13
532.867	457.14
533.295	459.41
533.723	459.35
534.152	458.77
534.58	458.83
535.008	454.86
535.436	454.42
535.865	455.13
536.293	456.8
536.721	457.36
537.149	460.24
537.576	457.73
538.004	458.42
538.432	457.85
538.86	455.8
539.287	456.33
539.715	458.82
540.143	458.22
540.57	457.68
540.998	456.7
541.425	453.27
541.852	450.06
542.28	451.21
542.707	449.17
543.134	448.45
543.561	448.87
543.988	447.55
544.415	448.25
544.842	447.67
545.269	446.6
545.696	447.92
546.123	451.68
546.549	449.87
546.976	447.64
547.403	448.14
547.829	448.33
548.256	449.47
548.682	449.92
549.108	448.8
549.535	449.55
549.961	450.12
550.387	447.46
550.813	446.81
551.24	449.23
551.666	449.92
552.092	448.23
552.518	447.06
552.943	446.69
553.369	447.48
553.795	448.33
554.221	447.87
554.646	446.14
555.072	447.55
555.498	446.23
555.923	445.63
556.349	447.17
556.774	446.27
557.199	445.35
557.625	444.08
558.05	442.21
558.475	443.81
558.9	442.49
559.325	440.99
559.75	439.26
560.175	437.59
560.6	436.33
561.025	435.72
561.449	436.84
561.874	437.32
562.299	437.48
562.723	436.97
563.148	432.56
563.572	432.36
563.997	433.11
564.421	432.7
564.846	431.23
565.27	430.79
565.694	428.4
566.118	428.8
566.542	428.41
566.966	425.16
567.39	423.02
567.814	419.33
568.238	418.19
568.662	418
569.086	417.39
569.509	418.39
569.933	415.61
570.357	414.64
570.78	410.32
571.204	409.02
571.627	407.31
572.05	408.37
572.474	409.45
572.897	407.57
573.32	406.33
573.743	405.38
574.166	403.22
574.589	403.01
575.012	401
575.435	400.52
575.858	398.76
576.281	396.73
576.704	393.7
577.126	391.73
577.549	389.95
577.972	389.47
578.394	387.67
578.817	387.13
579.239	384.2
579.661	382.71
580.084	381.6
580.506	380
580.928	381.11
581.35	379.82
581.772	379.92
582.194	376.91
582.616	373.19
583.038	369.54
583.46	365.68
583.882	364.64
584.303	364.77
584.725	361.68
585.147	362.12
585.568	360.85
585.99	359.34
586.411	356.3
586.833	355.85
587.254	353.71
587.675	354.81
588.096	355.84
588.518	351.68
588.939	346.33
589.36	345.32
589.781	340.13
590.202	336.74
590.623	337.06
591.043	338.39
591.464	337.07
591.885	337.34
592.305	336.75
592.726	333.73
593.147	335.01
593.567	335.18
593.987	333.81
594.408	332.1
594.828	330.1
595.248	328.51
595.669	324.73
596.089	323.64
596.509	322.31
596.929	319.54
597.349	320.05
597.769	316.85
598.189	315
598.608	314.48
599.028	314.84
599.448	314.36
599.867	311.58
600.287	311.19
600.706	310.74
601.126	308.5
601.545	308.86
601.965	308.55
602.384	307.89
602.803	307.8
603.222	307.12
603.641	305.53
604.061	305.07
604.48	304
604.898	305.01
605.317	305.68
605.736	305.36
606.155	303.42
606.574	300.29
606.992	300.55
607.411	298.85
607.829	296.19
608.248	295.18
608.666	293.83
609.085	293.06
609.503	290.26
609.921	288.22
610.339	288.21
610.758	287.2
611.176	286.05
611.594	284.06
612.012	283.21
612.43	283.37
612.847	283.76
613.265	283
613.683	282.69
614.101	282.3
614.518	280.44
614.936	278.36
615.353	276.24
615.771	276.33
616.188	276.46
616.606	275.48
617.023	274.46
617.44	272.53
617.857	271.76
618.274	270.66
618.691	269.97
619.108	268.51
619.525	266.81
619.942	267.22
620.359	266.3
620.776	264.13
621.192	263.46
621.609	262.99
622.026	263.38
622.442	264.31
622.859	263.99
623.275	261.59
623.691	261.6
624.108	262.83
624.524	264.76
624.94	263.91
625.356	265.16
625.772	266.59
626.188	266.67
626.604	265.26
627.02	262.6
627.436	261.43
627.852	262.31
628.268	264.67
628.683	262.45
629.099	260.38
629.514	259.16
629.93	259.63
630.345	259.9
630.761	259.01
631.176	260.02
631.591	260.08
632.007	258.66
632.422	258.11
632.837	255.26
633.252	255.43
633.667	254.11
634.082	252.63
634.497	250.88
634.911	248.93
635.326	249.17
635.741	247.24
636.155	246.03
636.57	247.52
636.984	248.18
637.399	249.56
637.813	250.52
638.228	250.53
638.642	252.36
639.056	251.29
639.47	250.92
639.884	250.83
640.298	250.38
640.712	250.76
641.126	248.65
641.54	247.8
641.954	246.47
642.368	244.34
642.781	244.76
643.195	241.85
643.609	242.55
644.022	240.87
644.436	239.81
644.849	236.74
645.262	234.19
645.676	234.72
646.089	233.45
646.502	231.96
646.915	230.3
647.328	226.84
647.741	226.82
648.154	225.02
648.567	226.97
648.98	224.95
649.393	226.56
649.805	226.73
650.218	226.31
650.631	224.59
651.043	223.54
651.456	223.82
651.868	223.83
652.28	226.48
652.693	226.79
653.105	225.09
653.517	224.59
653.929	221.75
654.341	222.16
654.753	218.82
655.165	219.07
655.577	218.6
655.989	218.07
656.401	217.23
656.813	212.86
657.224	212.74
657.636	210.53
658.047	210.78
658.459	210.1
658.87	210.26
659.282	209.76
659.693	208.27
660.104	207.29
660.515	205.91
660.926	206.06
661.338	206.48
661.749	205.32
662.159	204.51
662.57	203.79
662.981	204.38
663.392	204.49
663.803	206.49
664.213	205.33
664.624	204.5
665.035	204.79
665.445	202.93
665.855	201.9
666.266	201.21
666.676	201.36
667.086	199.59
667.497	200.06
667.907	198
668.317	196.67
668.727	197.5
669.137	196.89
669.547	197.17
669.956	196.71
670.366	196.52
670.776	196.37
671.186	196.5
671.595	197.2
672.005	196.64
672.414	195.96
672.824	194.74
673.233	193.8
673.642	194.95
674.052	194.57
674.461	195.85
674.87	196.78
675.279	195.54
675.688	194.48
676.097	194.69
676.506	193.34
676.915	195.54
677.323	195.41
677.732	194.33
678.141	192.61
678.549	189.57
678.958	187.27
679.366	185.34
679.775	185.17
680.183	186.66
680.592	186.17
681	186.13
681.408	182.9
681.816	182.73
682.224	182.47
682.632	183.16
683.04	186.8
683.448	188.19
683.856	190.21
684.264	191.05
684.671	190.91
685.079	191.39
685.487	191.78
685.894	195.42
686.302	196.26
686.709	196.79
687.116	197.54
687.524	198.41
687.931	199.39
688.338	199.48
688.745	199.92
689.152	199.75
689.559	201.91
689.966	205.43
690.373	204.5
690.78	206.52
691.187	209.57
691.593	210.87
692	209.02
692.407	211.26
692.813	216.15
693.22	218.85
693.626	221.9
694.032	224.38
694.439	227.95
694.845	231.18
695.251	234.26
695.657	238.12
696.063	243.36
696.469	247.65
696.875	250.57
697.281	248.02
697.687	248.17
698.093	248.37
698.498	251.41
698.904	252.2
699.31	256.09
699.715	260.04
700.12	264.44
700.526	264.97
700.931	268.04
701.337	271.82
701.742	276.02
702.147	282.22
702.552	284.34
702.957	287.06
703.362	289.07
703.767	291.09
704.172	293.32
704.577	289.21
704.981	290.9
705.386	292.44
705.791	291.04
706.195	295.33
706.6	296.37
707.004	301.58
707.408	299.68
707.813	301.61
708.217	301.68
708.621	301.35
709.025	308.87
709.43	311.54
709.834	317.21
710.237	322.97
710.641	322.5
711.045	323.64
711.449	324.89
711.853	328.5
712.256	331.44
712.66	332.22
713.064	336.55
713.467	337.49
713.87	340.65
714.274	337.4
714.677	339.04
715.08	342.12
715.484	345.65
715.887	350.08
716.29	352.13
716.693	356.23
717.096	362.28
717.499	361.71
717.901	356.91
718.304	357.5
718.707	362.09
719.109	359.59
719.512	363.85
719.915	362.98
720.317	363.74
720.719	369.48
721.122	369.98
721.524	370.28
721.926	372.46
722.328	379.67
722.731	377.32
723.133	375.81
723.535	384.54
723.937	382.15
724.338	381.42
724.74	382.74
725.142	408.84
725.544	411.23
725.945	419.77
726.347	417.95
726.748	419.9
727.15	422.68
727.551	423.68
727.952	421.41
728.354	420.72
728.755	422.66
729.156	421.71
729.557	395.1
729.958	388.25
730.359	382.91
730.76	386.14
731.161	386.44
731.562	388.67
731.962	391.96
732.363	392.75
732.763	391.36
733.164	396.18
733.564	393.03
733.965	388.08
734.365	387.82
734.766	390.3
735.166	387.62
735.566	384.3
735.966	382.55
736.366	382.71
736.766	377.86
737.166	380.34
737.566	378.65
737.966	377.67
738.365	381.18
738.765	381.76
739.165	376.73
739.564	375.58
739.964	378.04
740.363	375.19
740.763	374.91
741.162	376.43
741.561	375.49
741.96	372.36
742.36	374.78
742.759	376.63
743.158	378.15
743.557	379.11
743.955	382.76
744.354	380.39
744.753	384.81
745.152	383.05
745.55	386.49
745.949	385.62
746.348	384.71
746.746	384.26
747.144	381.72
747.543	380.21
747.941	382.91
748.339	376.89
748.737	376.74
749.136	375.49
749.534	377.98
749.932	375.68
750.33	375.95
750.727	378.88
751.125	378.76
751.523	375.62
751.921	380.09
752.318	377.82
752.716	382.3
753.113	381.49
753.511	382.75
753.908	382.89
754.305	383.59
754.703	388.02
755.1	392.91
755.497	395.27
755.894	405.43
756.291	408.33
756.688	417.89
757.085	425.65
757.482	438.25
757.878	447.56
758.275	449.22
758.672	451.65
759.068	448.81
759.465	450.33
759.861	460.25
760.258	470.05
760.654	463.75
761.05	444.22
761.447	426.09
761.843	411.86
762.239	401.39
762.635	402.6
763.031	406.49
763.427	402.65
763.822	398.95
764.218	392.03
764.614	379.07
765.01	373.15
765.405	375.07
765.801	378.49
766.196	375.42
766.592	376.78
766.987	372.08
767.382	369.18
767.778	371.59
768.173	368.73
768.568	368.96
768.963	365.77
769.358	370.29
769.753	370.02
770.148	366.95
770.542	367.57
770.937	365.45
771.332	370.3
771.726	371.29
772.121	369.39
772.515	374.69
772.91	372.73
773.304	375.88
773.699	371.6
774.093	373.95
774.487	376.79
774.881	377.46
775.275	376.1
775.669	372.35
776.063	374.96
776.457	376.2
776.851	370.13
777.245	369.61
777.638	370.5
778.032	377.28
778.425	374.3
778.819	377.81
779.212	377.74
779.606	377.92
779.999	379.17
780.392	377.51
780.786	378.69
781.179	379.05
781.572	381.86
781.965	382.71
782.358	377.58
782.751	378.39
783.143	371.1
783.536	373.53
783.929	372.04
784.322	376.96
784.714	375.97
785.107	374.09
785.499	377.41
785.891	373.21
786.284	367.81
786.676	371.51
787.068	369.19
787.46	370.49
787.852	365.89
788.245	367.4
788.636	365.6
789.028	368.03
789.42	368.41
789.812	366.79
790.204	369.22
790.595	375.43
790.987	364.82
791.378	364.59
791.77	369.3
792.161	375.91
792.553	378.59
792.944	372.43
793.335	365.72
793.726	369.18
794.117	371.59
794.508	375.55
794.899	370.83
795.29	375.14
795.681	375.79
796.072	368.9
796.463	368.55
796.853	367.86
797.244	373.61
797.634	376.06
798.025	374.11
798.415	370.81
798.806	374.6
799.196	376.36
799.586	378.69
799.976	373.37
800.366	378.99
800.756	375.05
801.146	368.62
801.536	367.23
801.926	365.12
802.316	361.99
802.706	364.03
803.095	357.91
803.485	361.15
803.874	360.48
804.264	370.93
804.653	368.64
805.043	378.08
805.432	382.91
805.821	381.15
806.21	381.2
806.599	383.14
806.988	382.23
807.377	380.4
807.766	379.2
808.155	385.28
808.544	369.04
808.933	365.02
809.321	357.93
809.71	360.73
810.098	362.11
810.487	371.27
810.875	380.06
811.264	371.26
811.652	378.42
812.04	374.15
812.428	371.75
812.816	385.79
813.204	389
813.592	389.36
813.98	391.71
814.368	379.86
814.756	382.08
815.144	373.82
815.531	383.12
815.919	370.04
816.306	376.74
816.694	363.02
817.081	366.5
817.469	375.96
817.856	377.77
818.243	380.41
818.63	385.67
819.017	378.85
819.404	380.22
819.791	380.27
820.178	387.48
820.565	388.9
820.952	413.68
821.339	399.78
821.725	402.22
822.112	384.42
822.498	382.35
822.885	382.48
823.271	376.83
823.657	382.68
824.044	388.54
824.43	392.48
824.816	398.13
825.202	382.5
825.588	398.08
825.974	393.51
826.36	398.58
826.746	397.39
827.132	404.8
827.517	401.92
827.903	383.09
828.289	383.68
828.674	364.79
829.06	354.97
829.445	360.88
829.83	365.21
830.216	373.14
830.601	384.08
830.986	375.44
831.371	369.73
831.756	383.4
832.141	378.64
832.526	373.32
832.911	379.82
833.295	375.11
833.68	385.65
834.065	376.55
834.449	358.63
834.834	357.91
835.218	358.25
835.603	366.35
835.987	357.57
836.371	369.39
836.755	371.16
837.139	376.4
837.524	377.95
837.908	367.86
838.291	373.93
838.675	372.77
839.059	374.02
839.443	370.82
839.827	363.01
840.21	365.24
840.594	363.24
840.977	362.86
841.361	360.2
841.744	367.34
842.127	366.85
842.511	362.33
842.894	369.92
843.277	375.41
843.66	381.37
844.043	383.77
844.426	375.57
844.809	364.83
845.191	362.01
845.574	353.43
845.957	347.67
846.339	345.16
846.722	333
847.104	330.03
847.487	320.21
847.869	321.2
848.252	322.74
848.634	324.29
849.016	327.5
849.398	325.84
849.78	337.86
850.162	336.45
850.544	339.97
850.926	346.43
851.307	341.87
851.689	343.07
852.071	342.44
852.452	343.45
852.834	336.08
853.215	340.74
853.597	342.81
853.978	346.52
854.359	348.51
854.741	333.26
855.122	331.69
855.503	327.85
855.884	333.8
856.265	331.41
856.646	329.87
857.026	331.46
857.407	332.16
857.788	333.18
858.169	332.3
858.549	323.62
858.93	331.94
859.31	334.53
859.69	340.75
860.071	331.68
860.451	331.71
860.831	318.8
861.211	329.37
861.591	328.13
861.971	322.78
862.351	321.32
862.731	317.1
863.111	316.85
863.491	317.71
863.87	320.99
864.25	318.68
864.629	315.43
865.009	317.94
865.388	329.31
865.768	350.99
866.147	353.15
866.526	340.82
866.905	348.35
867.284	360.77
867.663	338.8
868.042	321.77
868.421	324.99
868.8	324.38
869.179	331.17
869.558	307.63
869.936	285.84
870.315	287.23
870.693	291.16
871.072	310.27
871.45	297.67
871.828	308.9
872.207	330.43
872.585	324.15
872.963	330.63
873.341	323.42
873.719	325.62
874.097	324.32
874.475	326.21
874.853	332.25
875.23	317.08
875.608	329.68
875.986	348.29
876.363	332.22
876.741	346.29
877.118	345.01
877.495	358.44
877.873	356.73
878.25	371.07
878.627	358.11
879.004	361.72
879.381	360.33
879.758	356.21
880.135	330.07
880.512	348.51
880.889	328.79
881.265	319.17
881.642	310.45
882.019	313.4
882.395	314.59
882.772	332.69
883.148	316.39
883.524	312.41
883.901	306.17
884.277	307.68
884.653	300.69
885.029	316.43
885.405	353.04
885.781	349.73
886.157	334.46
886.532	324.88
886.908	317.02
887.284	348.16
887.659	358.93
888.035	365.88
888.411	372.87
888.786	376.75
889.161	382.64
889.537	366.6
889.912	380.84
890.287	382.76
890.662	390.46
891.037	375.02
891.412	345.35
891.787	333.06
892.162	320.77
892.536	325.17
892.911	314
893.286	298.61
893.66	282.17
894.035	282.38
894.409	290.4
894.784	276.46
895.158	281
895.532	292.87
895.906	298.06
896.281	297.56
896.655	287.03
897.029	313.02
897.402	324.51
897.776	348.75
898.15	344.13
898.524	348.18
898.898	350.97
899.271	390.6
899.645	350.42
900.018	336.33
900.392	352.95
900.765	360.6
901.138	341.34
901.511	329.44
901.884	313.88
902.258	289.66
902.631	301.25
903.003	345.8
903.376	312.78
903.749	343.07
904.122	362.93
904.495	379.09
904.867	372.63
905.24	317.53
905.612	300.09
905.985	294.29
906.357	304.83
906.729	289.19
907.102	250.07
907.474	240.37
907.846	243.86
908.218	241.9
908.59	231.02
908.962	225.9
909.334	241.83
909.705	254.14
910.077	248.62
910.449	256.94
910.82	269.59
911.192	287.02
911.563	296.12
911.935	302.14
912.306	289.03
912.677	290.16
913.048	296.72
913.419	319.04
913.79	314.89
914.161	329.87
914.532	321.01
914.903	287.5
915.274	288.3
915.645	285.35
916.015	254.35
916.386	252.79
916.756	263.13
917.127	257.77
917.497	240.31
917.868	268.83
918.238	265.41
918.608	260.85
918.978	266.53
919.348	272.19
919.718	275.47
920.088	280.91
920.458	303.06
920.828	319.33
921.198	310.46
921.567	331.18
921.937	261.01
922.306	257.34
922.676	280.58
923.045	252.85
923.415	241
923.784	221.74
924.153	228.35
924.522	231.89
924.891	219.88
925.26	227.4
925.629	214.05
925.998	232.61
926.367	230.64
926.736	230.62
927.104	259.12
927.473	271.37
927.842	312.94
928.21	278.58
928.578	242.32
928.947	234.98
929.315	259.43
929.683	305.17
930.051	304.85
930.42	339
930.788	291.18
931.156	279.87
931.523	295.35
931.891	284.49
932.259	296.75
932.627	369.41
932.994	469.62
933.362	385.56
933.729	343.96
934.097	332.24
934.464	288.08
934.831	311.35
935.199	287.62
935.566	244.58
935.933	288.13
936.3	345.64
936.667	278.66
937.034	333.45
937.401	321.08
937.767	296
938.134	266.03
938.501	347.15
938.867	408.45
939.234	672.19
939.6	591
939.967	619.19
940.333	441.84
940.699	369.3
941.065	239.2
941.431	318.04
941.798	315.35
942.163	460.74
942.529	313.31
942.895	274.7
943.261	200.69
943.627	268.45
943.992	233.95
944.358	223.98
944.723	260.17
945.089	259.4
945.454	246.69
945.82	240.74
946.185	211.1
946.55	242.14
946.915	221.09
947.28	240.97
947.645	211.96
948.01	201.95
948.375	219.23
948.74	218.66
949.104	232.7
949.469	270.28
949.834	440.92
950.198	559.47
950.562	390.17
950.927	311.48
951.291	394.07
951.655	317.91
952.02	251.33
952.384	180.38
952.748	188.38
953.112	227.06
953.476	219
953.839	211.93
954.203	205.85
954.567	225.27
954.931	324.05
955.294	278.98
955.658	289.9
956.021	518.84
956.385	867.48
956.748	1251.74
957.111	1566.52
957.474	1621.42
957.837	1700.64
958.2	1089.26
958.563	433.29
958.926	359.15
959.289	529.22
959.652	574.6
960.015	406.13
960.377	571
960.74	645.3
961.102	1007.43
961.465	1235.25
961.827	934.86
962.189	1800.19
962.552	1281.55
962.914	971.28
963.276	605.56
963.638	506.76
964	506.93
964.362	375.12
964.724	342.21
965.085	275.67
965.447	229.45
965.809	213.21
966.17	204.2
966.532	222.18
966.893	217.44
967.255	210.45
967.616	234.72
967.977	198.6
968.338	212.4
968.699	187.89
969.061	185.28
969.421	188.23
969.782	201.83
970.143	190.19
970.504	216.78
970.865	235.87
971.225	267.6
971.586	272.84
971.946	365.3
972.307	303.04
972.667	373.15
973.027	390.81
973.388	461.78
973.748	319.71
974.108	354.6
974.468	386.32
974.828	345.55
975.188	247.78
975.548	227.39
975.907	214.21
976.267	249.84
976.627	234.83
976.986	232.95
977.346	214.67
977.705	219.32
978.064	197.81
978.424	183.02
978.783	164.89
979.142	187.88
979.501	179.77
979.86	184.57
980.219	161.25
980.578	179.44
980.937	184
981.296	171.52
981.654	160.4
982.013	197.54
982.371	267.15
982.73	256.47
983.088	294.08
983.447	318.07
983.805	485.07
984.163	1192.46
984.521	1393.87
984.879	1897.14
985.237	-3069.73
985.595	3515.13
985.953	976.34
986.311	580.2
986.669	376.54
987.026	300.89
987.384	412.95
987.741	403.46
988.099	325.22
988.456	248.57
988.814	278.57
989.171	246.77
989.528	203.62
989.885	219.46
990.242	185.4
990.599	200
990.956	186.9
991.313	138.98
991.67	120.86
992.027	154.93
992.383	151.14
992.74	139.05
993.096	157.65
993.453	175.86
993.809	173.83
994.165	212.17
994.522	236.2
994.878	240.32
995.234	304.72
995.59	298.95
995.946	203.95
996.302	248.27
996.658	269.21
997.013	269.08
997.369	338.63
997.725	451.63
998.08	312.33
998.436	343.57
998.791	584.75
999.147	559.5
999.502	657.18
999.857	545.66
1000.212	786.61
1000.567	1122.56
1000.922	717.48
1001.277	448.96
1001.632	356.98
1001.987	417.65
1002.342	322.09
1002.696	250.09
1003.051	224.52
1003.406	260.53
1003.76	265.47
1004.114	285.86
1004.469	229.98
1004.823	186.94
1005.177	182.46
1005.531	138.21
1005.885	137.2
1006.239	171.35
1006.593	230.43
1006.947	300.95
1007.301	235.16
1007.655	251.25
1008.008	198.31
1008.362	248.86
1008.715	349.44
1009.069	343.83
1009.422	565.22
1009.776	1097.72
1010.129	740.72
1010.482	590.41
1010.835	471.74
1011.188	938.48
1011.541	881.85
1011.894	-4801.5
1012.247	14282.92
1012.6	928.32
1012.952	623.49
1013.305	292.58
1013.657	226.03
1014.01	189.95
1014.362	146.83
1014.715	174.42
1015.067	168.51
1015.419	174.94
1015.771	161.57
1016.123	164.05
1016.475	174.36
1016.827	182.11
1017.179	213.72
1017.531	207.05
1017.883	211.57
1018.234	243.07
1018.586	299.14
1018.938	349.61
1019.289	474.08
1019.64	520.63
1019.992	457.35
1020.343	409.91
1020.694	363.59
1021.045	331.77
1021.396	387.31
1021.747	433.71
1022.098	482.85
1022.449	332.96
1022.8	280
1023.151	212
1023.501	205.4
1023.852	211.68
1024.202	244.67
1024.553	249.15
1024.903	261.52
1025.253	247.94
1025.604	241.84
1025.954	289.56
1026.304	340.87
1026.654	396.92
1027.004	538.42
1027.354	831.41
1027.703	838.7
1028.053	1041.47
1028.403	1592.07
1028.753	2082.28
1029.102	2274.41
1029.452	8569.62
1029.801	306.12
1030.15	199.49
1030.499	134.46
897.758	1266.9
901.051	1226.48
904.343	1249.75
907.636	1249.87
910.928	1282.91
914.22	1238.87
917.511	1245.4
920.803	1267.87
924.094	1264.18
927.384	1271.06
930.675	1250.43
933.965	1232.97
937.255	1250.51
940.544	1233.35
943.834	1235.07
947.123	1203.69
950.411	1253.7
953.7	1244.49
956.988	1239.71
960.276	1196.08
963.563	1219.86
966.851	1223.58
970.138	1241.87
973.424	1244.17
976.711	1214.06
979.997	1239.71
983.283	1261.37
986.568	1226.53
989.853	1216.95
993.138	1226.48
996.423	1279.61
999.708	1255.69
1002.992	1271.74
1006.275	1227.31
1009.559	1227.21
1012.842	1282
1016.125	1256.33
1019.408	1242.78
1022.69	1270.68
1025.972	1285.21
1029.254	1275.56
1032.536	1255.94
1035.817	1259.33
1039.098	1242.41
1042.379	1266.2
1045.659	1281.01
1048.939	1251.12
1052.219	1251.33
1055.498	1250.12
1058.778	1242.22
1062.057	1233.4
1065.335	1247.22
1068.614	1249.54
1071.892	1244.64
1075.17	1275.36
1078.447	1276.89
1081.724	1270.9
1085.001	1283.08
1088.278	1270.05
1091.554	1268.4
1094.83	1268.5
1098.106	1285.75
1101.382	1298.89
1104.657	1297.6
1107.932	1298.82
1111.206	1283.97
1114.481	1258.75
1117.755	1261.98
1121.029	1256.7
1124.302	1288.18
1127.575	1273.84
1130.848	1274.46
1134.121	1255.91
1137.393	1233.79
1140.665	1266.72
1143.937	1250.43
1147.208	1228.85
1150.48	1257.11
1153.75	1251.8
1157.021	1256.18
1160.291	1241.52
1163.561	1268.71
1166.831	1249.41
1170.101	1261.89
1173.37	1243.16
1176.639	1221.6
1179.907	1250.05
1183.176	1254.54
1186.444	1257.9
1189.711	1267.37
1192.979	1280.88
1196.246	1258.94
1199.513	1266.29
1202.78	1268.35
1206.046	1274.38
1209.312	1290.54
1212.578	1292.55
1215.843	1270.79
1219.108	1264.15
1222.373	1273.46
1225.638	1260.13
1228.902	1250
1232.166	1234.26
1235.43	1225.19
1238.693	1240.63
1241.956	1238.6
1245.219	1262.78
1248.482	1257.8
1251.744	1259.7
1255.006	1318.01
1258.268	1291.35
1261.529	1273.45
1264.79	1274.64
1268.051	1322.91
1271.312	1331.37
1274.572	1311
1277.832	1304.13
1281.092	1292.92
1284.351	1290.25
1287.61	1283.2
1290.869	1248.69
1294.128	1249.7
1297.386	1271.77
1300.644	1267.81
1303.902	1269.98
1307.159	1201.24
1310.416	1228.31
1313.673	1240.65
1316.93	1243.32
1320.186	1256.01
1323.442	1270.86
1326.697	1271.83
1329.953	1258.41
1333.208	1275.21
1336.463	1263.06
1339.717	1247.45
1342.972	1306.34
1346.226	1294.57
1349.479	1274.98
1352.733	1259.53
1355.986	1273.78
1359.238	1263.97
1362.491	1264.53
1365.743	1263.57
1368.995	1263.12
1372.247	1274.27
1375.498	1280.3
1378.749	1298.73
1382	1277.32
1385.251	1288.79
1388.501	1270.81
1391.751	1262.49
1395	1251.01
1398.25	1264.93
1401.499	1281.25
1404.748	1256.23
1407.996	1247.6
1411.244	1248.94
1414.492	1240.01
1417.74	1228.88
1420.987	1240.11
1424.234	1267.03
1427.481	1249.65
1430.728	1274.64
1433.974	1267.72
1437.22	1265.93
1440.465	1258.99
1443.711	1259.75
1446.956	1266.53
1450.201	1255.1
1453.445	1282.12
1456.689	1269.45
1459.933	1279.45
1463.177	1298.9
1466.42	1288.25
1469.663	1274.54
1472.906	1282.34
1476.148	1307.24
1479.391	1286.64
1482.633	1278.43
1485.874	1289.57
1489.115	1290.73
1492.356	1282.07
1495.597	1266.76
1498.838	1262.23
1502.078	1257.54
1505.318	1247.71
1508.557	1260.26
1511.797	1261.07
1515.036	1284.31
1518.274	1263.17
1521.513	1233.8
1524.751	1238.03
1527.989	1249.15
1531.227	1258.81
1534.464	1260.92
1537.701	1255.32
1540.938	1258.16
1544.174	1232.68
1547.41	1225.14
1550.646	1246.85
1553.882	1267.56
1557.117	1300.93
1560.352	1306.11
1563.587	1282.37
1566.821	1267.79
1570.055	1280.49
1573.289	1263.73
1576.523	1290.68
1579.756	1298.41
1582.989	1310.56
1586.222	1285.16
1589.454	1305.96
1592.686	1299.23
1595.918	1308.88
1599.15	1310.18
1602.381	1334.47
1605.612	1323.88
1608.843	1371.95
1612.073	1333.46
1615.303	1327.62
1618.533	1321.98
1621.762	1322.21
1624.992	1306.9
1628.221	1302.66
1631.449	1299.95
1634.678	1313.94
1637.906	1294.38
1641.134	1302.72
1644.361	1287.38
1647.588	1280.76
1650.815	1294.62
1654.042	1275.83
1657.269	1291.31
1660.495	1281.27
1663.72	1276.63
1666.946	1256.41
1670.171	1247.06
1673.396	1230.58
1676.621	1225.74
1679.845	1223.18
1683.069	1226.34
1686.293	1239.17
1689.517	1234.62
1692.74	1211.89
1695.963	1221.38
1699.185	1239.24
1702.408	1228.8
1705.63	1240.46
1708.852	1248.93
1712.073	1234.21
1715.294	1244.67
1718.515	1270.68
1721.736	1247.31
1724.956	1242.57
1728.176	1254.84
1731.396	1263.25
1734.616	1258.55
1737.835	1282.04
1741.054	1265.75
1744.272	1265.72
1747.491	1284.6
1750.709	1295.06
1753.927	1270.2
1757.144	1286.89
1760.361	1313.9
1763.578	1296
1766.795	1270.86
1770.011	1268.64
1773.227	1279.99
1776.443	1302.21
1779.658	1320.96
1782.874	1292.48
1786.089	1287.63
1789.303	1288.42
1792.518	1288.62
1795.732	1282.46
1798.945	1291.5
1802.159	1316.9
1805.372	1283.82
1808.585	1276.64
1811.797	1277.43
1815.01	1295.39
1818.222	1311.63
1821.434	1291.88
1824.645	1310.85
1827.856	1312.88
1831.067	1327.48
1834.278	1300.85
1837.488	1290.61
1840.698	1353.84
1843.908	1331.34
1847.117	1315.73
1850.326	1275.56
1853.535	1307.81
1856.744	1327.08
1859.952	1289.68
1863.16	1290.05
1866.368	1304.97
1869.575	1360.23
1872.782	1302.74
1875.989	1269.74
1879.196	1295.31
1882.402	1292.82
1885.608	1308.75
1888.814	1277.51
1892.019	1231.85
1895.224	1262.25
1898.429	1246.9
1901.634	1233.98
1904.838	1226.45
1908.042	1256.73
1911.246	1267.46
1914.449	1248.5
1917.652	1239.42
1920.855	1229.51
1924.058	1244.48
1927.26	1273.61
1930.462	1280.7
1933.664	1302.16
1936.865	1276.76
1940.066	1282.6
1943.267	1253.88
1946.467	1261.1
1949.668	1265.13
1952.868	1304.14
1956.067	1305.19
1959.267	1269.61
1962.466	1281.63
1965.665	1272.12
1968.863	1271.13
1972.061	1270.64
1975.259	1265.84
1978.457	1304.75
1981.654	1283.91
1984.852	1285.52
1988.048	1263.74
1991.245	1253.65
1994.441	1300.81
1997.637	1272.56
2000.833	1264.71
2004.028	1280.11
2007.223	1314.1
2010.418	1305.39
2013.613	1279.97
2016.807	1275.16
2020.001	1274.84
2023.194	1284.14
2026.388	1274.61
2029.581	1247.26
2032.774	1281.42
2035.966	1285.15
2039.158	1258.6
2042.35	1268.4
2045.542	1230.53
2048.733	1275.34
2051.924	1267.02
2055.115	1274.38
2058.306	1259.63
2061.496	1282.86
2064.686	1310.68
2067.875	1259.46
2071.065	1264
2074.254	1272.19
2077.442	1248.1
2080.631	1291.89
2083.819	1258.63
2087.007	1253.3
2090.195	1247.48
2093.382	1248.13
2096.569	1248.5
2099.756	1225.79
2102.942	1258.19
2106.128	1260.48
2109.314	1256.21
2112.5	1249.98
2115.685	1234.12
2118.87	1236.88
2122.055	1275.46
2125.239	1260.75
2128.424	1258.61
2131.608	1285.95
2134.791	1276.55
2137.974	1293.3
2141.157	1287.56
2144.34	1274.66
2147.523	1265.89
2150.705	1282.08
2153.887	1262.9
2157.068	1248.23
2160.25	1235.98
2163.431	1249.58
2166.611	1232.15
2169.792	1243.7
2172.972	1194.13
2176.152	1229.13
2179.331	1239.88
2182.511	1240.91
2185.69	1249.74
2188.868	1250.46
2192.047	1270.03
2195.225	1287.26
2198.403	1256.47
2201.58	1248.04
2204.758	1239.79
2207.935	1279.89
2211.111	1232.54
2214.288	1225.59
2217.464	1242.37
2220.64	1223.84
2223.815	1249.15
2226.991	1210.72
2230.166	1215.93
2233.34	1237.12
2236.515	1247.98
2239.689	1287.45
2242.863	1260.04
2246.036	1285.22
2249.209	1279.24
2252.382	1292.13
2255.555	1293.36
2258.727	1272.7
2261.9	1288.55
2265.071	1285.38
2268.243	1286.82
2271.414	1260.08
2274.585	1246.74
2277.756	1279.42
2280.926	1257.67
2284.096	1274.92
2287.266	1236.47
2290.436	1263.17
2293.605	1269.43
2296.774	1289.58
2299.942	1293.05
2303.111	1302.29
2306.279	1329.39
2309.447	1323.24
2312.614	1312.81
2315.781	1321.51
2318.948	1307.34
2322.115	1329.86
2325.281	1271.98
2328.447	1278.98
2331.613	1262.9
2334.779	1261.19
2337.944	1256.82
2341.109	1256.11
2344.274	1250.51
2347.438	1230.35
2350.602	1244.61
2353.766	1249.51
2356.929	1244.71
2360.092	1268.71
2363.255	1246.12
2366.418	1232.79
2369.58	1251.8
2372.742	1236.27
2375.904	1225.13
2379.066	1221.5
2382.227	1234.23
2385.388	1212.29
2388.548	1188.47
2391.709	1206.49
2394.869	1203.05
2398.029	1234.59
2401.188	1224.88
2404.347	1215.81
2407.506	1211.51
2410.665	1244.94
2413.823	1233.31
2416.981	1225.28
2420.139	1235.37
2423.296	1255.92
2426.453	1242.03
2429.61	1253.61
2432.767	1237.67
2435.923	1256.57
2439.079	1232.4
2442.235	1251.9
2445.391	1217.34
2448.546	1239.28
2451.701	1257.37
2454.855	1255.51
2458.009	1272
2461.163	1263.89
2464.317	1246.31
2467.471	1260.58
2470.624	1283.09
2473.777	1272.28
2476.929	1280.64
2480.082	1292.13
2483.234	1283.51
2486.385	1251.68
2489.537	1247.32
2492.688	1239.15
2495.839	1253.78
2498.989	1259.89
2502.14	1252.22
2505.29	1244.5
2508.439	1258.45
2511.589	1227.86
2514.738	1228.72
2517.887	1236.3
2521.035	1278.27
2524.183	1254.97
2527.331	1249.97
2530.479	1242.96
2533.627	1246.66
