Data from N_1_DIV_OH_2N_Splice17_11-29-35-493.txt Node
Date: Sat Mar 14 11:29:35 EDT 2020
User: sa697716
Spectrometer: FLMS03696
Trigger mode: 0
Integration Time (sec): 3.180400E-1
Scans to average: 20
Electric dark correction enabled: true
Nonlinearity correction enabled: true
Boxcar width: 5
XAxis mode: Wavelengths
Number of Pixels in Spectrum: 2048
>>>>>Begin Spectral Data<<<<<
187.83	-169030.64
188.298	1281.22
188.766	724.28
189.233	631.3
189.701	910.08
190.169	1328.26
190.636	513.92
191.104	375.48
191.571	72
192.039	27.63
192.506	80.74
192.974	454.5
193.441	-688.69
193.908	-151.25
194.375	-41.49
194.842	44.49
195.31	68.78
195.777	92.51
196.244	172.05
196.711	151.65
197.177	173.42
197.644	208.72
198.111	326.82
198.578	423.3
199.045	305.7
199.511	456.96
199.978	490.43
200.445	475.23
200.911	509.54
201.378	515.04
201.844	471
202.31	823.64
202.777	829.91
203.243	465.58
203.709	458.63
204.176	586.22
204.642	502.11
205.108	469.98
205.574	365.88
206.04	323.94
206.506	316.66
206.972	293.33
207.438	276.34
207.903	311.25
208.369	293.71
208.835	292.44
209.301	301.21
209.766	302.65
210.232	294.38
210.697	353.15
211.163	415.92
211.628	570.3
212.094	507.62
212.559	658.77
213.024	431
213.49	516.38
213.955	474.38
214.42	414.22
214.885	381.17
215.35	372.31
215.815	407.9
216.28	430.51
216.745	342.22
217.21	368.39
217.675	293.16
218.14	303.69
218.604	292.28
219.069	324.59
219.534	351.77
219.998	362.61
220.463	403.35
220.927	386.34
221.392	334.28
221.856	335.33
222.32	327.97
222.785	400.8
223.249	472.94
223.713	518.13
224.177	473.28
224.642	513.67
225.106	583.69
225.57	549.57
226.034	451.88
226.497	685.39
226.961	624.76
227.425	764.02
227.889	793.83
228.353	742.12
228.816	1357.16
229.28	1314.86
229.744	1055.33
230.207	677.45
230.671	665.43
231.134	863.95
231.597	985.34
232.061	851.03
232.524	752.46
232.987	524.14
233.45	487.91
233.914	430.5
234.377	394.75
234.84	370.91
235.303	386.44
235.766	412.15
236.229	489.65
236.691	289.06
237.154	314.5
237.617	255.98
238.08	226.97
238.542	247.26
239.005	195.92
239.468	211
239.93	189.98
240.393	172.87
240.855	162.36
241.317	146.66
241.78	161.79
242.242	180.82
242.704	219.66
243.166	211.9
243.629	208.67
244.091	234.3
244.553	243.3
245.015	282.66
245.477	381.58
245.939	531.67
246.4	579.53
246.862	557.11
247.324	514.27
247.786	503.87
248.247	591.15
248.709	502.69
249.17	375.19
249.632	434.73
250.093	528.64
250.555	434.7
251.016	306.15
251.477	311.91
251.939	341.79
252.4	350.37
252.861	405.9
253.322	432.11
253.783	513.8
254.244	630.5
254.705	444.61
255.166	361.89
255.627	341.29
256.088	479.35
256.549	471.11
257.009	401.69
257.47	460.69
257.931	352.23
258.391	247.2
258.852	258.83
259.312	270.08
259.773	331.83
260.233	324.74
260.694	305.13
261.154	309.48
261.614	301.04
262.074	260.79
262.534	292.66
262.994	293.51
263.455	371.55
263.915	313.15
264.374	299.59
264.834	322.5
265.294	303.31
265.754	306.81
266.214	288.53
266.673	246.71
267.133	304.49
267.593	275.16
268.052	337.9
268.512	266.17
268.971	382.5
269.431	404.03
269.89	357.16
270.349	584.23
270.809	690.51
271.268	618.26
271.727	1213.94
272.186	846.84
272.645	634.13
273.104	419.12
273.563	618.71
274.022	379.57
274.481	378.11
274.94	292.2
275.399	205.27
275.857	213.29
276.316	268.2
276.775	239.35
277.233	202.74
277.692	229.23
278.15	279.58
278.609	332.97
279.067	337.22
279.525	326.27
279.984	394.78
280.442	485.22
280.9	541.87
281.358	380.32
281.816	353.79
282.274	357.08
282.732	307.9
283.19	302.66
283.648	253.67
284.106	264.07
284.564	238.82
285.021	252.84
285.479	174.8
285.937	121.36
286.394	112.07
286.852	115.93
287.309	122.25
287.767	160.62
288.224	167.39
288.682	174.31
289.139	200.34
289.596	200.56
290.053	183.08
290.511	223.6
290.968	291.6
291.425	378.5
291.882	374.63
292.339	345.38
292.796	322
293.252	299.5
293.709	273.31
294.166	241.84
294.623	242.2
295.079	240.52
295.536	248.43
295.992	222.09
296.449	226.24
296.905	248.18
297.362	259.23
297.818	259.41
298.274	276.08
298.731	249.22
299.187	253.85
299.643	277.63
300.099	346.88
300.555	399.93
301.011	362.86
301.467	391.97
301.923	404.25
302.379	398.81
302.835	398.47
303.291	386.53
303.746	446.49
304.202	550.39
304.658	524.02
305.113	364.21
305.569	361.85
306.024	363.7
306.479	281.33
306.935	253.5
307.39	227.46
307.845	210.17
308.301	222.5
308.756	216.03
309.211	214.02
309.666	235.48
310.121	314.48
310.576	284.85
311.031	259.2
311.486	297.44
311.94	265.99
312.395	375.67
312.85	618.57
313.305	2385.76
313.759	15751.5
314.214	1207.14
314.668	955.36
315.123	911.18
315.577	408.32
316.032	380.65
316.486	483.73
316.94	433.62
317.394	319.46
317.849	268.37
318.303	266.29
318.757	261.13
319.211	293.91
319.665	261.48
320.119	231.33
320.572	299.02
321.026	293.12
321.48	244.98
321.934	247.26
322.387	239.48
322.841	261.54
323.295	259.31
323.748	242.49
324.202	231.97
324.655	284.87
325.108	484.72
325.562	373.25
326.015	417.43
326.468	338.94
326.921	380.37
327.374	394.12
327.827	455.26
328.28	491.17
328.733	355.23
329.186	315.08
329.639	312.88
330.092	253.74
330.545	248.68
330.997	269.3
331.45	313.22
331.903	381.4
332.355	593.03
332.808	528.91
333.26	444.97
333.713	481.38
334.165	470.65
334.617	568.91
335.069	387.08
335.522	589.18
335.974	592.99
336.426	437.02
336.878	234.68
337.33	142.63
337.782	134.26
338.234	180.38
338.686	179.41
339.137	216.83
339.589	226.58
340.041	221
340.493	199.92
340.944	182.04
341.396	191.22
341.847	189.13
342.299	271.48
342.75	374.53
343.201	311.32
343.653	367.82
344.104	440.41
344.555	344.74
345.006	450.71
345.457	443.44
345.908	374.25
346.359	373.91
346.81	325.16
347.261	287.66
347.712	252.36
348.163	265.86
348.613	324.5
349.064	299.55
349.515	273.3
349.965	302.69
350.416	313.6
350.866	329.86
351.317	357.44
351.767	559.12
352.217	698.96
352.668	619.89
353.118	554.19
353.568	422.69
354.018	370.48
354.468	370.12
354.918	265.54
355.368	226.79
355.818	332.73
356.268	762.68
356.718	3213.65
357.168	904.87
357.617	451.06
358.067	513.81
358.517	471.23
358.966	620.18
359.416	760.33
359.865	851.99
360.315	1009.58
360.764	500.35
361.213	341.92
361.663	299.69
362.112	313.78
362.561	501.9
363.01	399.35
363.459	362.66
363.908	352.35
364.357	323.18
364.806	462.9
365.255	304.65
365.703	320.58
366.152	307.63
366.601	265.52
367.05	260.02
367.498	236.93
367.947	218.62
368.395	229.93
368.844	205.55
369.292	213.15
369.74	183.21
370.189	252.03
370.637	245.16
371.085	211.22
371.533	243.93
371.981	209.16
372.429	225.79
372.877	240.32
373.325	211.37
373.773	217.94
374.221	187.94
374.669	228.27
375.116	217.57
375.564	222.78
376.012	222.52
376.459	215.72
376.907	233.98
377.354	256.56
377.801	272.91
378.249	325.68
378.696	381.66
379.143	492.54
379.591	510.69
380.038	850.23
380.485	595.83
380.932	708.97
381.379	674.29
381.826	579.23
382.273	409.33
382.72	317.76
383.166	297.33
383.613	209.08
384.06	179.13
384.506	188.85
384.953	144.99
385.4	154.82
385.846	135.04
386.292	126.18
386.739	108.96
387.185	99.69
387.631	114.67
388.078	123.99
388.524	132.1
388.97	132.67
389.416	117.96
389.862	132.16
390.308	123.55
390.754	131.19
391.2	127.73
391.645	122.19
392.091	151.36
392.537	151.83
392.983	142.04
393.428	176.34
393.874	180.37
394.319	205.27
394.765	223.19
395.21	237.6
395.655	229.71
396.101	230.67
396.546	228.8
396.991	216.9
397.436	210.88
397.881	207.38
398.326	179.27
398.771	188.83
399.216	167.8
399.661	147.11
400.106	158.07
400.551	172.25
400.995	160.83
401.44	167.68
401.885	167.16
402.329	172.09
402.774	177.1
403.218	189.27
403.663	182.39
404.107	191.1
404.551	198.8
404.995	185.42
405.44	176.27
405.884	183.74
406.328	174.65
406.772	176.53
407.216	163.16
407.66	156.08
408.104	144.82
408.547	139.89
408.991	137.47
409.435	133.19
409.879	136.14
410.322	139.95
410.766	138.76
411.209	140.94
411.653	137.08
412.096	142.22
412.54	146.53
412.983	149.97
413.426	156.28
413.869	158.65
414.312	162.96
414.756	159.42
415.199	155.99
415.642	154.07
416.085	155.11
416.527	156.56
416.97	158.14
417.413	154.02
417.856	149.3
418.298	147.69
418.741	144.94
419.184	142.71
419.626	143.64
420.069	141.52
420.511	143.07
420.953	143.07
421.396	143.54
421.838	139.39
422.28	141.56
422.722	148.48
423.164	150.61
423.606	151.98
424.048	152.57
424.49	149.87
424.932	149.24
425.374	147.71
425.816	147.58
426.258	146.41
426.699	148.72
427.141	145.32
427.582	141.76
428.024	137.95
428.465	135.19
428.907	134.63
429.348	134.3
429.789	139.96
430.231	142.02
430.672	144.68
431.113	146.07
431.554	148.47
431.995	148.31
432.436	151.93
432.877	155.08
433.318	159.55
433.759	159.19
434.2	161.27
434.64	160.8
435.081	161.89
435.522	156.38
435.962	153.1
436.403	152.29
436.843	155.5
437.284	151.84
437.724	147.26
438.164	146.04
438.604	145.01
439.045	142.94
439.485	141.98
439.925	141.57
440.365	140.39
440.805	140.22
441.245	140.53
441.685	137.58
442.125	137.14
442.564	139.75
443.004	137.33
443.444	137.64
443.883	138.63
444.323	134.64
444.762	131.97
445.202	133.66
445.641	137.39
446.081	135.09
446.52	138
446.959	139.19
447.398	137.63
447.837	138.79
448.276	137.61
448.716	139.24
449.154	139.99
449.593	138.75
450.032	138.28
450.471	134.07
450.91	134.47
451.349	133.95
451.787	131.81
452.226	134.06
452.664	131.81
453.103	130.71
453.541	129.59
453.98	132.51
454.418	132.92
454.856	132.1
455.295	133.24
455.733	134.36
456.171	134.31
456.609	135.36
457.047	134.55
457.485	138.15
457.923	139.78
458.361	136.41
458.798	134.84
459.236	134.99
459.674	135.26
460.111	135.49
460.549	133.94
460.987	131.91
461.424	130.43
461.862	129.65
462.299	127.1
462.736	127.62
463.173	129.92
463.611	130.98
464.048	130.97
464.485	133.96
464.922	133.7
465.359	132.52
465.796	138.67
466.233	140.56
466.67	142.64
467.106	144.35
467.543	142.71
467.98	141.42
468.416	138.52
468.853	138.84
469.29	134.43
469.726	134.48
470.162	133
470.599	128.64
471.035	127.21
471.471	124.33
471.907	123.11
472.344	123.28
472.78	125.09
473.216	125.68
473.652	124.35
474.088	124.17
474.523	123.9
474.959	125.21
475.395	123.54
475.831	122.75
476.266	122.6
476.702	122.62
477.138	121.41
477.573	120.03
478.008	120.26
478.444	122.38
478.879	124.41
479.314	124.89
479.75	124.94
480.185	125.47
480.62	125.65
481.055	125.8
481.49	126.58
481.925	127.5
482.36	129.42
482.795	130.09
483.229	129.41
483.664	128.75
484.099	126.53
484.534	126.51
484.968	125.97
485.403	125.02
485.837	122.28
486.271	120.18
486.706	119.83
487.14	117.35
487.574	115.91
488.009	114.98
488.443	114.46
488.877	115.87
489.311	115.5
489.745	116.49
490.179	117.18
490.613	121.1
491.046	121.48
491.48	121
491.914	121.14
492.348	121.71
492.781	122.53
493.215	122.83
493.648	122.91
494.082	123.7
494.515	123.44
494.948	125.14
495.382	124.39
495.815	124.7
496.248	125.64
496.681	126.06
497.114	126.51
497.547	127.25
497.98	128.63
498.413	129.2
498.846	129.55
499.279	129.46
499.711	128.58
500.144	127.38
500.577	128.39
501.009	128.02
501.442	129.26
501.874	129.58
502.306	128.99
502.739	130.76
503.171	131.91
503.603	132.04
504.036	133.1
504.468	132.99
504.9	133.75
505.332	133.52
505.764	133.79
506.196	134.21
506.627	135.2
507.059	136.13
507.491	134.26
507.923	133.23
508.354	134.45
508.786	134.25
509.217	135.55
509.649	136.68
510.08	137.66
510.512	138.77
510.943	138.82
511.374	138.79
511.805	139.13
512.237	139.6
512.668	140.77
513.099	140.63
513.53	141.37
513.961	140.81
514.391	141.75
514.822	143.95
515.253	145.33
515.684	145.68
516.114	146.9
516.545	148.28
516.975	149.9
517.406	150.43
517.836	150.39
518.267	151.44
518.697	154.57
519.127	154.61
519.558	154.22
519.988	154.58
520.418	155.94
520.848	156.41
521.278	156.9
521.708	172.47
522.138	173.65
522.567	175.25
522.997	176.1
523.427	175.47
523.857	176.05
524.286	175.77
524.716	176.45
525.145	177.45
525.575	178.8
526.004	178.66
526.433	163.6
526.863	162.75
527.292	163.27
527.721	164.27
528.15	165.45
528.579	166.43
529.008	167.56
529.437	168.41
529.866	168.27
530.295	168
530.724	169.07
531.152	170.2
531.581	171.21
532.01	171.89
532.438	171.46
532.867	171.35
533.295	172.2
533.723	172.1
534.152	172.14
534.58	172.57
535.008	171.44
535.436	172.15
535.865	171.98
536.293	171.86
536.721	171.98
537.149	172.75
537.576	172.17
538.004	172.11
538.432	172.04
538.86	171.97
539.287	171.58
539.715	172.71
540.143	171.62
540.57	172.05
540.998	172.92
541.425	172.1
541.852	171.48
542.28	172.19
542.707	171.43
543.134	171.4
543.561	171.33
543.988	171.09
544.415	170.67
544.842	169.91
545.269	169.21
545.696	169.26
546.123	170.15
546.549	169.4
546.976	168.09
547.403	168.68
547.829	168.72
548.256	168.83
548.682	169.26
549.108	169.78
549.535	170.94
549.961	171.26
550.387	170.44
550.813	171.19
551.24	172.12
551.666	172.77
552.092	171.71
552.518	171.3
552.943	171.21
553.369	171.67
553.795	172.07
554.221	171.6
554.646	171.29
555.072	172.54
555.498	171.08
555.923	171.37
556.349	172.31
556.774	171.92
557.199	171.44
557.625	170.79
558.05	170.76
558.475	170.64
558.9	170.5
559.325	169.62
559.75	168.87
560.175	168.39
560.6	167.81
561.025	166.98
561.449	167.43
561.874	167.59
562.299	168.93
562.723	168.44
563.148	167.31
563.572	167.12
563.997	167.63
564.421	167.1
564.846	166.29
565.27	166
565.694	165.47
566.118	165.89
566.542	166.84
566.966	165.24
567.39	164.09
567.814	163.15
568.238	162.63
568.662	162.1
569.086	162.41
569.509	163.2
569.933	163.19
570.357	163.33
570.78	162.39
571.204	161.63
571.627	160.55
572.05	160.92
572.474	162.38
572.897	162.4
573.32	163.23
573.743	162.27
574.166	161.83
574.589	161.29
575.012	160.41
575.435	160.01
575.858	159.53
576.281	159.23
576.704	158.5
577.126	156.72
577.549	155.95
577.972	155.01
578.394	154.95
578.817	155.84
579.239	155.01
579.661	155.21
580.084	155.55
580.506	154.8
580.928	154.66
581.35	154.6
581.772	155.03
582.194	154.13
582.616	152.84
583.038	151.31
583.46	148.87
583.882	148.35
584.303	146.91
584.725	145.47
585.147	147.97
585.568	148.56
585.99	148.12
586.411	147.76
586.833	147.98
587.254	147.6
587.675	147.66
588.096	148.64
588.518	147.49
588.939	146.47
589.36	145.47
589.781	140.98
590.202	141.05
590.623	140.49
591.043	140.15
591.464	139.34
591.885	139.04
592.305	138.75
592.726	136.98
593.147	137.12
593.567	136.87
593.987	136.7
594.408	135.61
594.828	132.49
595.248	132.12
595.669	130.97
596.089	130.13
596.509	129.55
596.929	128.38
597.349	128.75
597.769	127.32
598.189	126.47
598.608	125.61
599.028	126.19
599.448	126.24
599.867	124.99
600.287	124.27
600.706	124.12
601.126	124.04
601.545	124.38
601.965	124.02
602.384	123.47
602.803	123.4
603.222	123.43
603.641	122.54
604.061	122.52
604.48	122.26
604.898	122.49
605.317	122.39
605.736	122
606.155	121.8
606.574	120.85
606.992	121.2
607.411	120.76
607.829	119.69
608.248	119.64
608.666	119.12
609.085	118.84
609.503	118.17
609.921	117.89
610.339	117.67
610.758	116.64
611.176	116.22
611.594	115.96
612.012	115.25
612.43	115.94
612.847	116.17
613.265	117.07
613.683	117.24
614.101	117.17
614.518	116.89
614.936	115.87
615.353	115.55
615.771	116.01
616.188	115.35
616.606	115.97
617.023	115.47
617.44	114.43
617.857	112.73
618.274	112.25
618.691	112.36
619.108	111.17
619.525	110.17
619.942	110.05
620.359	109.2
620.776	109.45
621.192	109.69
621.609	109.57
622.026	109.88
622.442	110.22
622.859	109.59
623.275	108.68
623.691	109.19
624.108	110.41
624.524	111.46
624.94	111.06
625.356	110.81
625.772	110.49
626.188	110.48
626.604	109.57
627.02	108.81
627.436	108.93
627.852	109.92
628.268	110.65
628.683	109.08
629.099	107.81
629.514	106.91
629.93	107.03
630.345	107.24
630.761	106.35
631.176	106.89
631.591	108.31
632.007	108.32
632.422	106.74
632.837	104.76
633.252	105.94
633.667	105.66
634.082	105.63
634.497	105.41
634.911	105.18
635.326	106.25
635.741	106.27
636.155	104.87
636.57	105.77
636.984	106.48
637.399	108.37
637.813	107.79
638.228	107.5
638.642	107.44
639.056	106.38
639.47	105.7
639.884	105.28
640.298	104.24
640.712	104.68
641.126	103.83
641.54	102.92
641.954	101.21
642.368	100.67
642.781	103.05
643.195	102.29
643.609	103.79
644.022	103.19
644.436	102.42
644.849	101.7
645.262	99.84
645.676	99.39
646.089	99.12
646.502	99.11
646.915	99.39
647.328	97.12
647.741	98.3
648.154	96.6
648.567	97.92
648.98	97.46
649.393	97.46
649.805	97.76
650.218	96.78
650.631	96.34
651.043	95.85
651.456	95.16
651.868	93.95
652.28	93.64
652.693	93.79
653.105	93.22
653.517	92.85
653.929	92.67
654.341	92.67
654.753	92.19
655.165	92.06
655.577	92.74
655.989	92.21
656.401	92.1
656.813	91.57
657.224	91.19
657.636	89.56
658.047	90
658.459	89.53
658.87	89.96
659.282	89.84
659.693	89.59
660.104	89.12
660.515	88.56
660.926	88.89
661.338	88.17
661.749	88.12
662.159	87.47
662.57	85.94
662.981	85.29
663.392	84.03
663.803	83.89
664.213	83.56
664.624	82.98
665.035	83.45
665.445	81.74
665.855	81.68
666.266	81.64
666.676	82.13
667.086	81.59
667.497	81.99
667.907	82.32
668.317	82.29
668.727	84.33
669.137	83.4
669.547	83.72
669.956	83.15
670.366	83.23
670.776	82.82
671.186	82.55
671.595	83.28
672.005	82.78
672.414	82.74
672.824	82.5
673.233	79.83
673.642	80.04
674.052	79.69
674.461	81.26
674.87	81.31
675.279	81.52
675.688	80.39
676.097	81.29
676.506	80.79
676.915	80.27
677.323	79.84
677.732	79.16
678.141	78.8
678.549	77.62
678.958	75.6
679.366	74.26
679.775	72.2
680.183	73.67
680.592	73.14
681	74.22
681.408	74.33
681.816	74.15
682.224	74
682.632	74.94
683.04	76.85
683.448	78.24
683.856	80.13
684.264	82.19
684.671	81.48
685.079	81.09
685.487	81.36
685.894	82.76
686.302	83.31
686.709	84.55
687.116	84.91
687.524	85.36
687.931	87.49
688.338	87.53
688.745	87.26
689.152	88.5
689.559	89.81
689.966	91.71
690.373	92
690.78	93.11
691.187	94.05
691.593	95.12
692	94.11
692.407	94.58
692.813	97.92
693.22	100.24
693.626	100.28
694.032	101.36
694.439	102.16
694.845	102.67
695.251	104
695.657	105.51
696.063	106.67
696.469	108.32
696.875	109.82
697.281	107.33
697.687	106.71
698.093	106.68
698.498	107.01
698.904	106.13
699.31	107.47
699.715	109.6
700.12	111.5
700.526	112.51
700.931	113.18
701.337	114.29
701.742	116.92
702.147	119.1
702.552	120.91
702.957	123.21
703.362	125.23
703.767	127.24
704.172	126.53
704.577	124.57
704.981	124.43
705.386	126.26
705.791	125.39
706.195	125.52
706.6	126.36
707.004	128.1
707.408	125.86
707.813	126.78
708.217	125.55
708.621	126.04
709.025	128.85
709.43	130.68
709.834	131.85
710.237	133.9
710.641	133.64
711.045	133.54
711.449	133.11
711.853	136.7
712.256	136.81
712.66	137.42
713.064	139.14
713.467	140.01
713.87	140.66
714.274	140.06
714.677	140.69
715.08	142.78
715.484	143.87
715.887	148.8
716.29	146.89
716.693	148.92
717.096	151.63
717.499	151.75
717.901	149.43
718.304	149.29
718.707	150.12
719.109	147.68
719.512	147.04
719.915	148.06
720.317	146.17
720.719	147.9
721.122	147.24
721.524	146.01
721.926	149.54
722.328	153.36
722.731	152.1
723.133	151.94
723.535	155.66
723.937	156.67
724.338	155.95
724.74	156.18
725.142	196.36
725.544	199.81
725.945	209.51
726.347	205
726.748	204.68
727.15	206.09
727.551	206.71
727.952	205.73
728.354	202.97
728.755	203.96
729.156	201.95
729.557	162.88
729.958	157.82
730.359	149.72
730.76	150.28
731.161	149.67
731.562	149.25
731.962	149.85
732.363	150.28
732.763	151.25
733.164	150.49
733.564	150.52
733.965	149.47
734.365	149.97
734.766	151.25
735.166	151.59
735.566	150.91
735.966	151.06
736.366	150.6
736.766	148.57
737.166	148.36
737.566	148
737.966	147.11
738.365	148.39
738.765	149.62
739.165	147.38
739.564	146.13
739.964	145.74
740.363	144.12
740.763	143.53
741.162	145.28
741.561	145.04
741.96	143.82
742.36	145.11
742.759	145.47
743.158	144.81
743.557	144.85
743.955	145.99
744.354	146
744.753	146.98
745.152	147.62
745.55	146.72
745.949	146.77
746.348	147.49
746.746	146.87
747.144	148.17
747.543	147.18
747.941	147.75
748.339	144.52
748.737	144.92
749.136	146.22
749.534	145.34
749.932	146.63
750.33	147.2
750.727	147.54
751.125	148.45
751.523	145.92
751.921	149.12
752.318	149.24
752.716	153.39
753.113	152.59
753.511	151.62
753.908	152.17
754.305	153.95
754.703	154.95
755.1	159.06
755.497	159.86
755.894	162.97
756.291	163.62
756.688	168.17
757.085	170.56
757.482	176.34
757.878	183.07
758.275	186.39
758.672	183.97
759.068	186.16
759.465	184.27
759.861	189.29
760.258	193.86
760.654	191.92
761.05	183.81
761.447	174.69
761.843	167.79
762.239	161.72
762.635	160.56
763.031	161.95
763.427	158.98
763.822	159.76
764.218	156.15
764.614	152.27
765.01	148.44
765.405	148.15
765.801	149.27
766.196	148.58
766.592	148.51
766.987	147.77
767.382	147.67
767.778	148.49
768.173	147.03
768.568	148.2
768.963	146.96
769.358	149.58
769.753	150.66
770.148	150.26
770.542	150.72
770.937	149.62
771.332	151.53
771.726	151.04
772.121	152.2
772.515	153.73
772.91	152.77
773.304	155.24
773.699	153.8
774.093	153.2
774.487	155.99
774.881	156.92
775.275	158.64
775.669	156.2
776.063	157.21
776.457	156.29
776.851	155.12
777.245	155.41
777.638	155.28
778.032	157.06
778.425	157.96
778.819	160.77
779.212	162.69
779.606	162.79
779.999	162.61
780.392	164.62
780.786	165.35
781.179	164.52
781.572	165.26
781.965	164.39
782.358	163.18
782.751	162.86
783.143	158.39
783.536	157.32
783.929	155.01
784.322	157.16
784.714	154.25
785.107	154.33
785.499	154.54
785.891	154.36
786.284	152.52
786.676	154.6
787.068	155.25
787.46	155.72
787.852	154.12
788.245	155.28
788.636	155.71
789.028	157.49
789.42	158.46
789.812	160.3
790.204	160.58
790.595	165.61
790.987	161.36
791.378	160.46
791.77	161.75
792.161	162.99
792.553	164.2
792.944	161.4
793.335	158.68
793.726	158.64
794.117	159.34
794.508	160.04
794.899	156.58
795.29	157.16
795.681	158.02
796.072	154.83
796.463	168.08
796.853	171.84
797.244	175.2
797.634	176.76
798.025	175.46
798.415	173.17
798.806	176.6
799.196	178.48
799.586	182.09
799.976	182.75
800.366	185.47
800.756	172.26
801.146	167.16
801.536	166.33
801.926	164.6
802.316	164.23
802.706	165.13
803.095	160.3
803.485	160.71
803.874	157.72
804.264	160.31
804.653	160.94
805.043	165
805.432	167.35
805.821	168.8
806.21	170.5
806.599	172.51
806.988	174.39
807.377	173.6
807.766	171.88
808.155	175.19
808.544	167.04
808.933	164.4
809.321	162.86
809.71	160.98
810.098	159.81
810.487	162.64
810.875	164.67
811.264	162.27
811.652	175.05
812.04	177.01
812.428	178.56
812.816	184.4
813.204	189.15
813.592	186.82
813.98	190.55
814.368	190.21
814.756	192.41
815.144	191.39
815.531	193.41
815.919	176.57
816.306	177.07
816.694	168.81
817.081	170.49
817.469	174.6
817.856	175.18
818.243	176.92
818.63	174.4
819.017	173.87
819.404	175.78
819.791	176.21
820.178	176.49
820.565	181.72
820.952	198.79
821.339	194.89
821.725	196.23
822.112	190.61
822.498	187.78
822.885	187.68
823.271	181
823.657	180.2
824.044	180.69
824.43	184.8
824.816	188.78
825.202	178.89
825.588	184.02
825.974	180.65
826.36	180.74
826.746	181.57
827.132	181.43
827.517	183.82
827.903	176.66
828.289	181.29
828.674	173.19
829.06	164.62
829.445	165.77
829.83	166.18
830.216	168.97
830.601	176.95
830.986	177.73
831.371	178.83
831.756	185.06
832.141	188.14
832.526	186.67
832.911	190.67
833.295	186.87
833.68	192.65
834.065	188.22
834.449	176.82
834.834	175.78
835.218	174.25
835.603	180.23
835.987	175.8
836.371	179.64
836.755	178.63
837.139	180.78
837.524	180.2
837.908	175.3
838.291	181.14
838.675	181.67
839.059	179.93
839.443	175.46
839.827	167.81
840.21	164.25
840.594	163.24
840.977	162.76
841.361	161.85
841.744	165.95
842.127	165.31
842.511	157.67
842.894	160.24
843.277	164.83
843.66	166.89
844.043	169.07
844.426	170.2
844.809	158.93
845.191	160.2
845.574	156.88
845.957	156.19
846.339	158.31
846.722	156.75
847.104	157.24
847.487	148.27
847.869	149.1
848.252	150.57
848.634	151.36
849.016	156.01
849.398	151.76
849.78	155.73
850.162	155.35
850.544	152.61
850.926	153.36
851.307	150.65
851.689	154.72
852.071	152.09
852.452	156.46
852.834	154.08
853.215	157.87
853.597	159.37
853.978	166.39
854.359	167.76
854.741	165.13
855.122	162.56
855.503	160.75
855.884	157.97
856.265	161.29
856.646	157.29
857.026	157.16
857.407	156.09
857.788	156.79
858.169	150.26
858.549	150.95
858.93	152.8
859.31	159.86
859.69	166.72
860.071	169.96
860.451	168.33
860.831	161.81
861.211	165.35
861.591	165.47
861.971	160.51
862.351	162.54
862.731	159.29
863.111	159.09
863.491	160.04
863.87	158.55
864.25	154.81
864.629	158.54
865.009	158.14
865.388	163.8
865.768	172
866.147	175.23
866.526	171.03
866.905	172.49
867.284	177.17
867.663	159.21
868.042	152.19
868.421	151.81
868.8	142.64
869.179	149.87
869.558	140.65
869.936	134.47
870.315	136.82
870.693	139.82
871.072	144
871.45	137.56
871.828	148.82
872.207	157.44
872.585	159.69
872.963	164.71
873.341	163.38
873.719	169.92
874.097	166.03
874.475	167.33
874.853	163.68
875.23	158.14
875.608	166.57
875.986	175.9
876.363	171.27
876.741	179.48
877.118	187.59
877.495	197.95
877.873	191.56
878.25	198.03
878.627	191.13
879.004	193.99
879.381	193.28
879.758	192.92
880.135	181.57
880.512	189.72
880.889	176.88
881.265	165.14
881.642	153.55
882.019	156.42
882.395	161.37
882.772	169.06
883.148	167.24
883.524	171.66
883.901	169.68
884.277	162.72
884.653	158.47
885.029	163.48
885.405	188
885.781	186.97
886.157	181.09
886.532	176.53
886.908	171.11
887.284	181.34
887.659	183.85
888.035	185.68
888.411	189.7
888.786	193.96
889.161	194.64
889.537	178.88
889.912	177.95
890.287	175.78
890.662	174.93
891.037	162.24
891.412	148.01
891.787	139.3
892.162	133.44
892.536	139.46
892.911	133.55
893.286	128.27
893.66	126.08
894.035	133.88
894.409	136.63
894.784	138.19
895.158	143.18
895.532	156.66
895.906	165.45
896.281	167.16
896.655	162.6
897.029	175.84
897.402	181.72
897.776	189.59
898.15	186.38
898.524	185.63
898.898	175.96
899.271	207.63
899.645	188.25
900.018	173.88
900.392	181.11
900.765	183.11
901.138	177.74
901.511	178.53
901.884	181.48
902.258	177.76
902.631	190.23
903.003	218.08
903.376	192.94
903.749	204.96
904.122	220.99
904.495	233.77
904.867	227.18
905.24	197.92
905.612	185
905.985	174.48
906.357	171.84
906.729	160.83
907.102	145.6
907.474	136.04
907.846	143.9
908.218	145.06
908.59	136.66
908.962	136.55
909.334	152.27
909.705	160.11
910.077	155.99
910.449	159.77
910.82	167.45
911.192	179.74
911.563	196.55
911.935	194.74
912.306	184.32
912.677	181.45
913.048	184
913.419	183.95
913.79	185.05
914.161	195.08
914.532	192.27
914.903	175.86
915.274	169
915.645	160.72
916.015	140.72
916.386	138.28
916.756	154.46
917.127	153.95
917.497	150.61
917.868	163.93
918.238	158.4
918.608	158.06
918.978	163.96
919.348	161.14
919.718	168.88
920.088	174.97
920.458	190.28
920.828	183.67
921.198	177.05
921.567	170.97
921.937	138.25
922.306	132.25
922.676	143.77
923.045	138.18
923.415	144.55
923.784	134.68
924.153	146.83
924.522	149.59
924.891	143.24
925.26	154.07
925.629	152.5
925.998	167.87
926.367	173.58
926.736	176.84
927.104	187.47
927.473	192.87
927.842	219.32
928.21	193.74
928.578	180.8
928.947	183.37
929.315	192.56
929.683	234.81
930.051	222.61
930.42	241.49
930.788	196.65
931.156	199.75
931.523	214.65
931.891	207.46
932.259	217.56
932.627	256.26
932.994	333.22
933.362	300.97
933.729	270.96
934.097	277.42
934.464	245.96
934.831	262.98
935.199	255.96
935.566	239.39
935.933	216.12
936.3	256.4
936.667	210.5
937.034	266.8
937.401	239.93
937.767	201.94
938.134	180.15
938.501	217.8
938.867	258
939.234	406.83
939.6	309.89
939.967	430.01
940.333	313.02
940.699	249.84
941.065	144.5
941.431	188.27
941.798	234.23
942.163	344.93
942.529	235.14
942.895	206.6
943.261	156.63
943.627	215.97
943.992	181.95
944.358	153.87
944.723	190.27
945.089	173.72
945.454	168.99
945.82	150.38
946.185	131.88
946.55	181.03
946.915	171.48
947.28	187.81
947.645	164.21
948.01	160.92
948.375	190.01
948.74	206.73
949.104	241.48
949.469	268.44
949.834	497.08
950.198	566.74
950.562	318.97
950.927	271.73
951.291	328.36
951.655	287.28
952.02	238.92
952.384	184.87
952.748	179.22
953.112	203.03
953.476	197.94
953.839	180.82
954.203	181.97
954.567	219.05
954.931	295.38
955.294	269.92
955.658	257.55
956.021	459.21
956.385	686.31
956.748	930.55
957.111	1192.42
957.474	1265.11
957.837	1323.89
958.2	822.14
958.563	337.94
958.926	267.41
959.289	363.56
959.652	449.78
960.015	345.71
960.377	503.62
960.74	559.3
961.102	864.19
961.465	1104.2
961.827	918.24
962.189	1705.42
962.552	1218.92
962.914	968.91
963.276	605.37
963.638	471.75
964	477.74
964.362	357.32
964.724	320.81
965.085	249.88
965.447	211.6
965.809	168.49
966.17	152.02
966.532	142.35
966.893	128.22
967.255	114.08
967.616	123.03
967.977	91.74
968.338	86.23
968.699	110.18
969.061	106.18
969.421	106.74
969.782	122
970.143	131.73
970.504	163.98
970.865	195.74
971.225	225.58
971.586	233.43
971.946	322.78
972.307	285.2
972.667	314.43
973.027	325
973.388	359.56
973.748	253.23
974.108	275.29
974.468	279.64
974.828	269.01
975.188	182.62
975.548	168.76
975.907	142.31
976.267	155
976.627	147.38
976.986	153.81
977.346	124.31
977.705	113.04
978.064	104.23
978.424	106.27
978.783	84.06
979.142	102.52
979.501	105.43
979.86	121.98
980.219	100.21
980.578	117.12
980.937	118.17
981.296	140.91
981.654	161.38
982.013	206.77
982.371	283.2
982.73	301.57
983.088	329.77
983.447	329.94
983.805	429.6
984.163	1151.64
984.521	1255.31
984.879	1911.93
985.237	-2814.28
985.595	2773.92
985.953	683.94
986.311	347.75
986.669	200.2
987.026	165.55
987.384	174.42
987.741	210.09
988.099	161.45
988.456	137.91
988.814	143.73
989.171	158.04
989.528	133.83
989.885	129.95
990.242	127.31
990.599	125.08
990.956	107.63
991.313	100.83
991.67	87.63
992.027	134.42
992.383	125.23
992.74	108.56
993.096	106.83
993.453	106.99
993.809	111.09
994.165	133.88
994.522	185.01
994.878	214.81
995.234	270.38
995.59	261.76
995.946	169.29
996.302	199.56
996.658	230
997.013	251.23
997.369	358.07
997.725	494.18
998.08	321.96
998.436	302.61
998.791	411.42
999.147	393.22
999.502	376
999.857	314.84
1000.212	434.66
1000.567	590.27
1000.922	397.63
1001.277	192.76
1001.632	184.5
1001.987	220.67
1002.342	185.69
1002.696	154.75
1003.051	119.77
1003.406	180.24
1003.76	169.55
1004.114	179.85
1004.469	168.11
1004.823	135.65
1005.177	155.43
1005.531	117.93
1005.885	129.49
1006.239	157.55
1006.593	204.02
1006.947	296.52
1007.301	206.42
1007.655	236.02
1008.008	188.08
1008.362	205.31
1008.715	289.63
1009.069	280.79
1009.422	489.61
1009.776	845.13
1010.129	508.03
1010.482	403.92
1010.835	308.57
1011.188	637.56
1011.541	530.7
1011.894	-2934.48
1012.247	9350.57
1012.6	568.6
1012.952	355.95
1013.305	138.03
1013.657	127.69
1014.01	135
1014.362	104.13
1014.715	152.4
1015.067	144.76
1015.419	142.43
1015.771	135.39
1016.123	147.03
1016.475	165.42
1016.827	165.83
1017.179	186.39
1017.531	177.66
1017.883	170.34
1018.234	221.6
1018.586	226.86
1018.938	280.53
1019.289	371.9
1019.64	394.56
1019.992	306.07
1020.343	267.89
1020.694	258.5
1021.045	235.87
1021.396	264.12
1021.747	309.28
1022.098	274.74
1022.449	229.78
1022.8	205.03
1023.151	175.65
1023.501	175.27
1023.852	195.45
1024.202	235.38
1024.553	232.18
1024.903	246.65
1025.253	233.94
1025.604	237.44
1025.954	303.01
1026.304	330.01
1026.654	364.91
1027.004	511.38
1027.354	713.33
1027.703	735.29
1028.053	765.04
1028.403	1133.02
1028.753	1220.52
1029.102	1233.65
1029.452	2347.12
1029.801	12.86
1030.15	26.19
1030.499	-27.58
897.758	1543.97
901.051	1493.02
904.343	1520.65
907.636	1523.82
910.928	1568.48
914.22	1510.21
917.511	1516.33
920.803	1551.27
924.094	1543.09
927.384	1547.69
930.675	1521.55
933.965	1499.57
937.255	1522.68
940.544	1502.15
943.834	1497.96
947.123	1456.6
950.411	1521.45
953.7	1510.03
956.988	1498.7
960.276	1448.04
963.563	1476.31
966.851	1483.59
970.138	1509.2
973.424	1510.58
976.711	1473.85
979.997	1507.4
983.283	1535.16
986.568	1489.88
989.853	1478.3
993.138	1493.77
996.423	1559.63
999.708	1533.01
1002.992	1551.27
1006.275	1490.41
1009.559	1491.35
1012.842	1557.97
1016.125	1527.87
1019.408	1512.04
1022.69	1547.03
1025.972	1568.62
1029.254	1550.65
1032.536	1526.63
1035.817	1529.98
1039.098	1509.67
1042.379	1539.97
1045.659	1557.55
1048.939	1520.92
1052.219	1520.88
1055.498	1514.42
1058.778	1505.9
1062.057	1490.63
1065.335	1509.87
1068.614	1513.26
1071.892	1507.33
1075.17	1545.12
1078.447	1547.62
1081.724	1542.84
1085.001	1557.53
1088.278	1541.45
1091.554	1543.99
1094.83	1544.72
1098.106	1566.72
1101.382	1583.89
1104.657	1581.89
1107.932	1582.47
1111.206	1565.86
1114.481	1532.16
1117.755	1536.34
1121.029	1530.7
1124.302	1570.71
1127.575	1550.42
1130.848	1548.75
1134.121	1528.47
1137.393	1500.77
1140.665	1543.14
1143.937	1527.09
1147.208	1490.8
1150.48	1532.18
1153.75	1521.94
1157.021	1525.31
1160.291	1509.99
1163.561	1542.16
1166.831	1517.11
1170.101	1532.32
1173.37	1507.44
1176.639	1478.95
1179.907	1509.32
1183.176	1524.04
1186.444	1527.26
1189.711	1541.75
1192.979	1558.87
1196.246	1529.28
1199.513	1541.42
1202.78	1543.97
1206.046	1552.19
1209.312	1569.16
1212.578	1575.98
1215.843	1554.18
1219.108	1535.83
1222.373	1548.73
1225.638	1531.97
1228.902	1523.33
1232.166	1497.1
1235.43	1486.7
1238.693	1509.85
1241.956	1505.08
1245.219	1540.57
1248.482	1531.18
1251.744	1531.73
1255.006	1608.37
1258.268	1573.69
1261.529	1549.25
1264.79	1546.66
1268.051	1612.59
1271.312	1619.36
1274.572	1593.7
1277.832	1585.96
1281.092	1570.12
1284.351	1566.61
1287.61	1556.82
1290.869	1515.78
1294.128	1515.69
1297.386	1538.91
1300.644	1536.89
1303.902	1542.56
1307.159	1455.46
1310.416	1489.76
1313.673	1505.69
1316.93	1508.76
1320.186	1525.77
1323.442	1544.95
1326.697	1547.73
1329.953	1532.59
1333.208	1559.65
1336.463	1543.67
1339.717	1521.24
1342.972	1595.45
1346.226	1575.37
1349.479	1549.81
1352.733	1533.45
1355.986	1541.59
1359.238	1530.34
1362.491	1531.67
1365.743	1529.28
1368.995	1525.78
1372.247	1537.11
1375.498	1547.27
1378.749	1575.13
1382	1547.79
1385.251	1565.65
1388.501	1539.06
1391.751	1537.72
1395	1522.05
1398.25	1538.33
1401.499	1559.85
1404.748	1528.62
1407.996	1516.18
1411.244	1513.61
1414.492	1503.36
1417.74	1493.7
1420.987	1501.6
1424.234	1541.58
1427.481	1515
1430.728	1549.31
1433.974	1538.29
1437.22	1534.4
1440.465	1528.42
1443.711	1532.16
1446.956	1543.56
1450.201	1526.62
1453.445	1556.5
1456.689	1545.4
1459.933	1552.68
1463.177	1579.17
1466.42	1563.56
1469.663	1550.11
1472.906	1559.32
1476.148	1593.3
1479.391	1562.83
1482.633	1549.57
1485.874	1564.98
1489.115	1568.86
1492.356	1557.52
1495.597	1540.94
1498.838	1535.83
1502.078	1527.89
1505.318	1512.82
1508.557	1531.49
1511.797	1530.1
1515.036	1564.01
1518.274	1538.71
1521.513	1500.12
1524.751	1505.27
1527.989	1519.63
1531.227	1531.74
1534.464	1535.76
1537.701	1528.46
1540.938	1533.05
1544.174	1498.85
1547.41	1487.99
1550.646	1513.78
1553.882	1542.19
1557.117	1584.91
1560.352	1588.59
1563.587	1559.84
1566.821	1539.91
1570.055	1553.44
1573.289	1536.16
1576.523	1570.32
1579.756	1579.23
1582.989	1592.65
1586.222	1563.53
1589.454	1588.87
1592.686	1577.84
1595.918	1593.62
1599.15	1592.61
1602.381	1622.98
1605.612	1610.29
1608.843	1670.88
1612.073	1620.22
1615.303	1613.36
1618.533	1610.56
1621.762	1609.88
1624.992	1588.12
1628.221	1586.22
1631.449	1582.32
1634.678	1597.24
1637.906	1572.29
1641.134	1587.21
1644.361	1564.36
1647.588	1558.22
1650.815	1576.24
1654.042	1551.84
1657.269	1569.48
1660.495	1558.78
1663.72	1548.79
1666.946	1526.68
1670.171	1516.56
1673.396	1496.5
1676.621	1486.93
1679.845	1484.01
1683.069	1486.54
1686.293	1502.76
1689.517	1499.34
1692.74	1471.07
1695.963	1483.07
1699.185	1508.05
1702.408	1491.94
1705.63	1510.23
1708.852	1523.58
1712.073	1502
1715.294	1514.16
1718.515	1548.53
1721.736	1520.22
1724.956	1507.73
1728.176	1523.94
1731.396	1537.96
1734.616	1532.14
1737.835	1560.16
1741.054	1536.17
1744.272	1535.96
1747.491	1563.38
1750.709	1575.39
1753.927	1544.19
1757.144	1563.22
1760.361	1601.12
1763.578	1580.72
1766.795	1548.33
1770.011	1539.33
1773.227	1553.23
1776.443	1584.36
1779.658	1608.54
1782.874	1572.95
1786.089	1568.85
1789.303	1569.17
1792.518	1568.11
1795.732	1562.09
1798.945	1572.39
1802.159	1601.58
1805.372	1566.46
1808.585	1561.35
1811.797	1562
1815.01	1580.23
1818.222	1599.84
1821.434	1571.36
1824.645	1597.03
1827.856	1604.5
1831.067	1622.18
1834.278	1583.46
1837.488	1571.19
1840.698	1651.83
1843.908	1621.57
1847.117	1602.46
1850.326	1553.02
1853.535	1591.16
1856.744	1618.74
1859.952	1569.09
1863.16	1569.27
1866.368	1587.11
1869.575	1666.44
1872.782	1588.86
1875.989	1546.36
1879.196	1578.24
1882.402	1574.9
1885.608	1596.17
1888.814	1560.99
1892.019	1503.01
1895.224	1543.82
1898.429	1521.99
1901.634	1506.82
1904.838	1493.44
1908.042	1535.81
1911.246	1548.88
1914.449	1525.86
1917.652	1510.14
1920.855	1498.45
1924.058	1513.28
1927.26	1548.27
1930.462	1559.47
1933.664	1587.49
1936.865	1552.35
1940.066	1561.03
1943.267	1523.33
1946.467	1528.95
1949.668	1538.17
1952.868	1588.84
1956.067	1587.25
1959.267	1543.87
1962.466	1560.5
1965.665	1546.07
1968.863	1543.56
1972.061	1541.49
1975.259	1536.79
1978.457	1588.34
1981.654	1560.33
1984.852	1562.12
1988.048	1534.16
1991.245	1521.1
1994.441	1584.34
1997.637	1547.52
2000.833	1539.38
2004.028	1560.16
2007.223	1609.29
2010.418	1597.6
2013.613	1562.64
2016.807	1561.91
2020.001	1558.71
2023.194	1570.06
2026.388	1559.61
2029.581	1522.88
2032.774	1569.62
2035.966	1575.22
2039.158	1540.82
2042.35	1550.32
2045.542	1499.88
2048.733	1552.24
2051.924	1542.54
2055.115	1550.81
2058.306	1531.19
2061.496	1566.53
2064.686	1598.57
2067.875	1531.93
2071.065	1531.53
2074.254	1543.94
2077.442	1513.49
2080.631	1570.58
2083.819	1533.05
2087.007	1527.44
2090.195	1518.7
2093.382	1521.83
2096.569	1516.77
2099.756	1488.73
2102.942	1529.22
2106.128	1536.26
2109.314	1530.17
2112.5	1521.89
2115.685	1499.16
2118.87	1503.33
2122.055	1547.91
2125.239	1533.32
2128.424	1529.08
2131.608	1563.79
2134.791	1553.03
2137.974	1574.74
2141.157	1568.19
2144.34	1551.26
2147.523	1539.64
2150.705	1561.66
2153.887	1536.58
2157.068	1520.27
2160.25	1504.37
2163.431	1522.25
2166.611	1501.51
2169.792	1518.82
2172.972	1455.78
2176.152	1493.05
2179.331	1507.68
2182.511	1511.11
2185.69	1524.65
2188.868	1525.96
2192.047	1549.23
2195.225	1568.68
2198.403	1526.27
2201.58	1518.86
2204.758	1505.45
2207.935	1557.24
2211.111	1501.75
2214.288	1492.96
2217.464	1515.48
2220.64	1486.27
2223.815	1521.06
2226.991	1472.78
2230.166	1480.49
2233.34	1514.89
2236.515	1522.54
2239.689	1570.15
2242.863	1535.93
2246.036	1571.13
2249.209	1560.22
2252.382	1574.85
2255.555	1578.92
2258.727	1548.59
2261.9	1569.55
2265.071	1566.8
2268.243	1563.24
2271.414	1530.55
2274.585	1518.85
2277.756	1562.32
2280.926	1532.62
2284.096	1552.74
2287.266	1506.13
2290.436	1542.12
2293.605	1552.89
2296.774	1577.39
2299.942	1580.98
2303.111	1593.14
2306.279	1629.36
2309.447	1621.23
2312.614	1601.74
2315.781	1617.8
2318.948	1601.41
2322.115	1627.29
2325.281	1552.24
2328.447	1557.45
2331.613	1537.02
2334.779	1532.33
2337.944	1527.21
2341.109	1527.67
2344.274	1522.12
2347.438	1498.8
2350.602	1513.01
2353.766	1520.76
2356.929	1514.9
2360.092	1542.14
2363.255	1520.4
2366.418	1504.15
2369.58	1531.28
2372.742	1507.33
2375.904	1491.11
2379.066	1483.87
2382.227	1502.09
2385.388	1474.33
2388.548	1443.39
2391.709	1467.23
2394.869	1463.53
2398.029	1496.59
2401.188	1486.48
2404.347	1475.4
2407.506	1474.13
2410.665	1513.68
2413.823	1496.84
2416.981	1485.1
2420.139	1496.06
2423.296	1523.44
2426.453	1503.7
2429.61	1519.86
2432.767	1504.38
2435.923	1532.65
2439.079	1491.5
2442.235	1515.95
2445.391	1475.25
2448.546	1508.62
2451.701	1531.31
2454.855	1532.63
2458.009	1546.07
2461.163	1537.45
2464.317	1516.6
2467.471	1533.6
2470.624	1556.69
2473.777	1552.79
2476.929	1562.69
2480.082	1578.85
2483.234	1564.09
2486.385	1523.07
2489.537	1517.32
2492.688	1513.19
2495.839	1530.67
2498.989	1538.7
2502.14	1530.9
2505.29	1522.42
2508.439	1538.44
2511.589	1501.5
2514.738	1501
2517.887	1511.71
2521.035	1564.68
2524.183	1533.94
2527.331	1529.12
2530.479	1522.78
2533.627	1526.89
