Data from N_1_DIV_PA_2N_Splice17_11-11-06-257.txt Node
Date: Sat Mar 14 11:11:06 EDT 2020
User: sa697716
Spectrometer: FLMS03696
Trigger mode: 0
Integration Time (sec): 3.180400E-1
Scans to average: 20
Electric dark correction enabled: true
Nonlinearity correction enabled: true
Boxcar width: 5
XAxis mode: Wavelengths
Number of Pixels in Spectrum: 2048
>>>>>Begin Spectral Data<<<<<
187.83	-73535.4
188.298	616.91
188.766	364.62
189.233	346.11
189.701	398.99
190.169	531.55
190.636	208.8
191.104	158
191.571	7.56
192.039	-47.66
192.506	-105.47
192.974	302.11
193.441	-832.67
193.908	-373.66
194.375	-60.25
194.842	-67.42
195.31	-74.17
195.777	41.86
196.244	121.36
196.711	97.27
197.177	91.8
197.644	76.65
198.111	139.62
198.578	236.43
199.045	167.36
199.511	238.4
199.978	196.38
200.445	174.76
200.911	202.59
201.378	199.56
201.844	225.34
202.31	407.16
202.777	457.76
203.243	275.17
203.709	261.97
204.176	335.02
204.642	302.51
205.108	329.44
205.574	275.72
206.04	238.69
206.506	209.07
206.972	181.04
207.438	171.98
207.903	198
208.369	194.71
208.835	199.45
209.301	188.84
209.766	181.1
210.232	176.17
210.697	214.69
211.163	250.61
211.628	375.87
212.094	317.3
212.559	393.82
213.024	249.85
213.49	301.14
213.955	281.97
214.42	271.9
214.885	247.93
215.35	244.18
215.815	277.62
216.28	315.02
216.745	246.11
217.21	269.97
217.675	226.87
218.14	247.01
218.604	237.39
219.069	260.83
219.534	277.13
219.998	286.23
220.463	306.89
220.927	285.1
221.392	236.69
221.856	225.19
222.32	218.79
222.785	250.83
223.249	271.08
223.713	288.24
224.177	265.12
224.642	268.1
225.106	259.94
225.57	216.41
226.034	196.34
226.497	283.37
226.961	280.57
227.425	376.69
227.889	378.12
228.353	372.52
228.816	685.94
229.28	697.85
229.744	594.15
230.207	407.67
230.671	420.75
231.134	554.68
231.597	625.09
232.061	610.29
232.524	523.4
232.987	388.8
233.45	350.53
233.914	302.81
234.377	231.13
234.84	206.07
235.303	232.96
235.766	286.32
236.229	288.98
236.691	163.52
237.154	171.08
237.617	138.4
238.08	138.97
238.542	150.36
239.005	127.01
239.468	166.1
239.93	156.62
240.393	157.15
240.855	123.26
241.317	123.33
241.78	145.13
242.242	147.76
242.704	186.16
243.166	150.92
243.629	153.43
244.091	167.38
244.553	165.04
245.015	205.83
245.477	245.27
245.939	369.99
246.4	416.31
246.862	416.65
247.324	374.64
247.786	364.46
248.247	457.91
248.709	412.02
249.17	308.88
249.632	353.08
250.093	408.73
250.555	330.53
251.016	228.45
251.477	209.94
251.939	215.32
252.4	234.6
252.861	251.04
253.322	272.63
253.783	300.94
254.244	376.59
254.705	259.37
255.166	188.18
255.627	179.3
256.088	231.87
256.549	227.46
257.009	179.58
257.47	175.52
257.931	140.27
258.391	105.7
258.852	113.36
259.312	105.65
259.773	125.79
260.233	156.97
260.694	144.86
261.154	164.71
261.614	181.9
262.074	165.85
262.534	190.06
262.994	189.83
263.455	229.15
263.915	202.46
264.374	201.08
264.834	216.43
265.294	207.79
265.754	236.82
266.214	217.62
266.673	193.18
267.133	228.56
267.593	223.45
268.052	286.17
268.512	229.92
268.971	291.2
269.431	318.47
269.89	284.88
270.349	438.28
270.809	491.45
271.268	465.44
271.727	948.77
272.186	629.56
272.645	478.91
273.104	315.12
273.563	464.03
274.022	332.49
274.481	292.88
274.94	226.87
275.399	158.13
275.857	148.82
276.316	155.3
276.775	138.22
277.233	128.64
277.692	129.02
278.15	171.31
278.609	197.45
279.067	172.63
279.525	184.46
279.984	221.4
280.442	244.26
280.9	317.27
281.358	217.11
281.816	216.65
282.274	223.05
282.732	191.37
283.19	182.21
283.648	161.56
284.106	167.1
284.564	145.19
285.021	161.88
285.479	136.14
285.937	95.1
286.394	103.62
286.852	96.01
287.309	95.58
287.767	135.54
288.224	136.39
288.682	138.26
289.139	165.1
289.596	160.12
290.053	138.17
290.511	153.39
290.968	188.15
291.425	204.43
291.882	224.44
292.339	224.64
292.796	175.75
293.252	162.69
293.709	153.37
294.166	156.98
294.623	171.28
295.079	170.83
295.536	197.81
295.992	191.58
296.449	186.62
296.905	193.78
297.362	186.87
297.818	206
298.274	217.63
298.731	210.99
299.187	183.8
299.643	188.56
300.099	228.49
300.555	239.88
301.011	199.31
301.467	256.17
301.923	253.37
302.379	269.12
302.835	272.13
303.291	285.94
303.746	323.19
304.202	411.81
304.658	401.35
305.113	271.17
305.569	269.81
306.024	268.56
306.479	216.46
306.935	198.99
307.39	189.36
307.845	178.76
308.301	163.79
308.756	161.3
309.211	170.78
309.666	174.35
310.121	253.73
310.576	236.65
311.031	246.36
311.486	258.54
311.94	229
312.395	294.25
312.85	357.25
313.305	1171.51
313.759	7793.03
314.214	583.73
314.668	540.23
315.123	414.78
315.577	171.23
316.032	161.7
316.486	141.43
316.94	120.45
317.394	101.09
317.849	116.46
318.303	119.27
318.757	113.59
319.211	124.59
319.665	118.93
320.119	118.58
320.572	179.42
321.026	178.4
321.48	171.7
321.934	175
322.387	166.36
322.841	187.16
323.295	185.43
323.748	193.2
324.202	193.07
324.655	215.48
325.108	329.37
325.562	249.03
326.015	284.2
326.468	210.11
326.921	255.43
327.374	268.03
327.827	277.42
328.28	325.8
328.733	239.91
329.186	213.52
329.639	207.25
330.092	174.48
330.545	164.16
330.997	167.96
331.45	204.22
331.903	251.31
332.355	393.08
332.808	345.03
333.26	306.61
333.713	338.74
334.165	331.58
334.617	427.56
335.069	275.24
335.522	399.44
335.974	408.09
336.426	378.24
336.878	199.73
337.33	115.5
337.782	124.04
338.234	128.58
338.686	110.16
339.137	142.52
339.589	151.42
340.041	175.52
340.493	154.7
340.944	160.97
341.396	153.08
341.847	177.84
342.299	207.76
342.75	292.81
343.201	257.08
343.653	293.57
344.104	350.05
344.555	276.58
345.006	366.66
345.457	341.1
345.908	273.2
346.359	275.62
346.81	231.29
347.261	234.04
347.712	207.06
348.163	194.3
348.613	226.59
349.064	186.84
349.515	148.39
349.965	154.2
350.416	170.28
350.866	196.58
351.317	190.71
351.767	249.5
352.217	274.57
352.668	223.47
353.118	258.07
353.568	175.32
354.018	183.45
354.468	225.48
354.918	178.93
355.368	152.88
355.818	191.27
356.268	422.56
356.718	2123.33
357.168	716.49
357.617	348.73
358.067	313.96
358.517	361.69
358.966	460.5
359.416	580.66
359.865	609.99
360.315	708.02
360.764	340.59
361.213	217.4
361.663	176.42
362.112	165.47
362.561	281.5
363.01	218.42
363.459	169.57
363.908	164.12
364.357	134.74
364.806	185.91
365.255	132.35
365.703	143.19
366.152	138.58
366.601	126.83
367.05	145.84
367.498	143.68
367.947	149.21
368.395	140.9
368.844	140.17
369.292	137.65
369.74	103.01
370.189	137.44
370.637	136.45
371.085	142.18
371.533	177.29
371.981	125.76
372.429	142.21
372.877	161.8
373.325	148.62
373.773	143.93
374.221	135.56
374.669	172.78
375.116	155.6
375.564	176.22
376.012	191.03
376.459	170.66
376.907	196.64
377.354	207.92
377.801	190.56
378.249	243.22
378.696	297.55
379.143	376.59
379.591	435.83
380.038	723.67
380.485	517.81
380.932	542.66
381.379	578.95
381.826	491.69
382.273	366.46
382.72	302.86
383.166	297.49
383.613	191.39
384.06	166.4
384.506	169.36
384.953	129.42
385.4	121.13
385.846	97.22
386.292	78.36
386.739	61.49
387.185	41.31
387.631	46.55
388.078	53.38
388.524	52.17
388.97	57.18
389.416	62.61
389.862	64.7
390.308	67.31
390.754	77.9
391.2	74.07
391.645	70.08
392.091	91.18
392.537	89.17
392.983	77.45
393.428	93.65
393.874	82.43
394.319	85.44
394.765	92.9
395.21	88.68
395.655	79.38
396.101	72.72
396.546	69.57
396.991	57.77
397.436	59.33
397.881	54.67
398.326	45.49
398.771	53.08
399.216	43.17
399.661	38.71
400.106	39.62
400.551	47.27
400.995	46.1
401.44	48.18
401.885	46.86
402.329	49.26
402.774	51.47
403.218	57.5
403.663	53.46
404.107	55.23
404.551	52.26
404.995	50.22
405.44	44.09
405.884	42.51
406.328	39.04
406.772	35.95
407.216	30.99
407.66	26.24
408.104	16.87
408.547	17.42
408.991	17
409.435	17.32
409.879	17.85
410.322	19.65
410.766	20.11
411.209	23.09
411.653	24.08
412.096	25.63
412.54	25.33
412.983	26.51
413.426	27.88
413.869	26.87
414.312	27.85
414.756	26.54
415.199	24.08
415.642	25.49
416.085	23.94
416.527	22.32
416.97	20.15
417.413	21.7
417.856	22.09
418.298	20.14
418.741	18.49
419.184	17.16
419.626	12.18
420.069	12.57
420.511	11.36
420.953	13.77
421.396	15.53
421.838	14.89
422.28	13.57
422.722	14.74
423.164	14.79
423.606	15.94
424.048	16.64
424.49	22.26
424.932	20.37
425.374	19.56
425.816	18.06
426.258	16.25
426.699	17.06
427.141	20.53
427.582	18.75
428.024	18.35
428.465	16.45
428.907	17.14
429.348	16.38
429.789	18.98
430.231	20.23
430.672	18.71
431.113	19.62
431.554	21.28
431.995	18.65
432.436	19.09
432.877	17.83
433.318	20.9
433.759	18.92
434.2	16.27
434.64	15.79
435.081	17.54
435.522	18.86
435.962	17.81
436.403	18.51
436.843	16.94
437.284	14.13
437.724	12.14
438.164	8.15
438.604	8.18
439.045	10.59
439.485	11.79
439.925	11.12
440.365	9.5
440.805	9.64
441.245	9.52
441.685	10.82
442.125	12.41
442.564	14.66
443.004	15.51
443.444	14.92
443.883	15.54
444.323	13.6
444.762	10.92
445.202	11.16
445.641	13.14
446.081	9.27
446.52	10.34
446.959	11.38
447.398	12.12
447.837	13.76
448.276	13.33
448.716	13.82
449.154	11.91
449.593	12.35
450.032	12.39
450.471	10.41
450.91	10.92
451.349	10.71
451.787	10.36
452.226	9.64
452.664	8.83
453.103	9.32
453.541	7.23
453.98	11.11
454.418	11.59
454.856	13.21
455.295	13.48
455.733	14.28
456.171	13.84
456.609	14.35
457.047	14.94
457.485	15.57
457.923	15.63
458.361	15.49
458.798	13.43
459.236	13.46
459.674	11.74
460.111	11.47
460.549	12.17
460.987	11.07
461.424	10.33
461.862	9.74
462.299	10.76
462.736	12.09
463.173	12.26
463.611	14.59
464.048	15.56
464.485	16.64
464.922	16.68
465.359	16.28
465.796	22.21
466.233	22.58
466.67	24.29
467.106	24.58
467.543	23.45
467.98	23.09
468.416	21.31
468.853	19.79
469.29	19.26
469.726	18.97
470.162	18.4
470.599	13.64
471.035	12.91
471.471	11.83
471.907	10.01
472.344	9.61
472.78	9.82
473.216	9.09
473.652	9.91
474.088	10.79
474.523	10.99
474.959	10.94
475.395	11.77
475.831	12.88
476.266	12.58
476.702	12.3
477.138	12.8
477.573	13.3
478.008	13.38
478.444	14.09
478.879	14
479.314	14.34
479.75	14.28
480.185	13.45
480.62	12.44
481.055	12.26
481.49	13.12
481.925	13.32
482.36	14.12
482.795	14.16
483.229	12.9
483.664	12.31
484.099	11.77
484.534	12.5
484.968	13.12
485.403	12.85
485.837	12.29
486.271	11.43
486.706	10.74
487.14	9.89
487.574	10.68
488.009	10.77
488.443	10.54
488.877	11.22
489.311	10.01
489.745	10.13
490.179	10.51
490.613	11.99
491.046	12.02
491.48	12.35
491.914	12.32
492.348	11.41
492.781	11.87
493.215	12.01
493.648	11.47
494.082	11.77
494.515	11.69
494.948	12.23
495.382	11.04
495.815	11.46
496.248	11.59
496.681	11.25
497.114	11.28
497.547	11.33
497.98	12.15
498.413	13.2
498.846	13.94
499.279	13.31
499.711	13.11
500.144	13.7
500.577	14.4
501.009	13.94
501.442	14.82
501.874	15.25
502.306	15.05
502.739	15.99
503.171	15.91
503.603	16.07
504.036	16.6
504.468	16.92
504.9	16.62
505.332	15.99
505.764	16.48
506.196	16.15
506.627	16.54
507.059	16.54
507.491	15.32
507.923	15.56
508.354	15.66
508.786	15.45
509.217	15.1
509.649	15.34
510.08	15.44
510.512	15.92
510.943	16.51
511.374	16.67
511.805	16.61
512.237	16.29
512.668	15.97
513.099	15.69
513.53	16.11
513.961	16.75
514.391	16.7
514.822	17.99
515.253	18.51
515.684	18.23
516.114	17.95
516.545	18.76
516.975	19.3
517.406	19.11
517.836	18.91
518.267	19.09
518.697	20.08
519.127	20.48
519.558	20.18
519.988	19.59
520.418	19.34
520.848	19.33
521.278	19.19
521.708	32.89
522.138	33.65
522.567	33.59
522.997	33.96
523.427	33.17
523.857	33.2
524.286	32.88
524.716	33.59
525.145	34.65
525.575	35.87
526.004	35.75
526.433	22.52
526.863	22.23
527.292	23.86
527.721	24.16
528.15	24.45
528.579	24.97
529.008	25.1
529.437	24.7
529.866	24.27
530.295	23.89
530.724	25.16
531.152	25.37
531.581	26.01
532.01	25.61
532.438	25.2
532.867	25.15
533.295	25.59
533.723	25.89
534.152	26.1
534.58	26.02
535.008	25.88
535.436	25.85
535.865	25.88
536.293	24.96
536.721	24.56
537.149	25.06
537.576	25.34
538.004	25.41
538.432	25.17
538.86	25.9
539.287	26.13
539.715	25.96
540.143	25.19
540.57	25.71
540.998	26.22
541.425	27.65
541.852	27.33
542.28	27.66
542.707	27.27
543.134	27.52
543.561	27.42
543.988	27.71
544.415	28.16
544.842	28.28
545.269	28.05
545.696	28.36
546.123	28.2
546.549	28.04
546.976	27.61
547.403	27.84
547.829	27.38
548.256	26.7
548.682	26.96
549.108	27.35
549.535	26.93
549.961	26.82
550.387	26.75
550.813	26.6
551.24	27.07
551.666	27.3
552.092	26.56
552.518	27.22
552.943	28.11
553.369	27.75
553.795	27.57
554.221	28.52
554.646	28.45
555.072	28.78
555.498	27.67
555.923	26.67
556.349	26.36
556.774	27.02
557.199	26.3
557.625	25.23
558.05	25.2
558.475	25.1
558.9	25
559.325	25.52
559.75	25.64
560.175	25.96
560.6	26.61
561.025	26.69
561.449	26.47
561.874	26.14
562.299	26.69
562.723	26.4
563.148	26.34
563.572	25.63
563.997	25.13
564.421	24.29
564.846	23.89
565.27	23.88
565.694	23.24
566.118	23.31
566.542	24.26
566.966	24.4
567.39	24.08
567.814	23.87
568.238	24.16
568.662	23.52
569.086	23.76
569.509	23.63
569.933	24.62
570.357	24.75
570.78	24.49
571.204	24.87
571.627	24.18
572.05	24.17
572.474	25.08
572.897	24.88
573.32	25.6
573.743	25.01
574.166	25.47
574.589	24.16
575.012	24.12
575.435	23.56
575.858	22.88
576.281	23.23
576.704	23.1
577.126	21.52
577.549	21.03
577.972	20.41
578.394	20.97
578.817	22.35
579.239	22.15
579.661	22.38
580.084	23.37
580.506	22.98
580.928	22.67
581.35	22.8
581.772	22.96
582.194	22.82
582.616	22.52
583.038	21.31
583.46	19.52
583.882	19.86
584.303	18.55
584.725	17.57
585.147	20.89
585.568	20.45
585.99	20.56
586.411	20.95
586.833	21.52
587.254	21.68
587.675	22.01
588.096	21.91
588.518	21.56
588.939	21.97
589.36	22.28
589.781	18.15
590.202	20.28
590.623	20.54
591.043	19.6
591.464	19.52
591.885	19.59
592.305	19.24
592.726	19.31
593.147	19.29
593.567	19.87
593.987	19.2
594.408	19.11
594.828	16.98
595.248	17.41
595.669	18.26
596.089	18.11
596.509	17.46
596.929	17.58
597.349	17.47
597.769	16.98
598.189	16.48
598.608	16.3
599.028	16.86
599.448	16.63
599.867	15.77
600.287	15.1
600.706	15.44
601.126	15.43
601.545	16.04
601.965	15.75
602.384	16.47
602.803	16.68
603.222	17.1
603.641	16.32
604.061	16.89
604.48	16.94
604.898	16.86
605.317	15.94
605.736	16.63
606.155	16.5
606.574	16.22
606.992	15.68
607.411	15.65
607.829	15.05
608.248	14.83
608.666	14.19
609.085	13.77
609.503	13.42
609.921	14.06
610.339	14.17
610.758	13.6
611.176	13.68
611.594	14.17
612.012	14.17
612.43	14.6
612.847	14.92
613.265	15.56
613.683	15.86
614.101	16.34
614.518	15.81
614.936	14.99
615.353	15.57
615.771	15.98
616.188	15.56
616.606	15.47
617.023	15.97
617.44	16.37
617.857	15.56
618.274	15.28
618.691	15.2
619.108	15.22
619.525	15.34
619.942	15.35
620.359	15.01
620.776	15.29
621.192	15.47
621.609	15.42
622.026	15.43
622.442	15.83
622.859	16.07
623.275	16.08
623.691	16.4
624.108	16.65
624.524	16.24
624.94	16.19
625.356	15.45
625.772	15.14
626.188	13.99
626.604	13.36
627.02	12.96
627.436	12.96
627.852	13.4
628.268	13.57
628.683	12.34
629.099	12.16
629.514	12
629.93	11.79
630.345	11.63
630.761	12.25
631.176	12.61
631.591	14.36
632.007	14.24
632.422	13.3
632.837	12.44
633.252	14.41
633.667	14.86
634.082	15.3
634.497	16.01
634.911	16.87
635.326	16.65
635.741	16.57
636.155	15.3
636.57	15.72
636.984	16.38
637.399	17.43
637.813	16.24
638.228	15.69
638.642	15.19
639.056	14.44
639.47	14.12
639.884	14.33
640.298	14.27
640.712	14.17
641.126	14.2
641.54	13.95
641.954	11.78
642.368	11.61
642.781	13.66
643.195	14.11
643.609	14.64
644.022	14.18
644.436	13.51
644.849	13.2
645.262	12.48
645.676	11.15
646.089	10.63
646.502	11.96
646.915	11.85
647.328	10.58
647.741	10.65
648.154	10
648.567	11.37
648.98	13.09
649.393	13.11
649.805	13.56
650.218	13.66
650.631	13.62
651.043	13.89
651.456	13.67
651.868	13.16
652.28	12.06
652.693	11.87
653.105	10.39
653.517	8.4
653.929	7.91
654.341	8.11
654.753	9.55
655.165	9.22
655.577	8.99
655.989	9.45
656.401	8.75
656.813	9.85
657.224	10.51
657.636	9.83
658.047	10.24
658.459	10.91
658.87	10.15
659.282	10.16
659.693	10.15
660.104	10.01
660.515	9.15
660.926	9.15
661.338	8.91
661.749	7.9
662.159	8.25
662.57	8.24
662.981	8.26
663.392	8.19
663.803	7.77
664.213	8.43
664.624	8.72
665.035	9.63
665.445	9.93
665.855	10.67
666.266	11.96
666.676	11.5
667.086	11.21
667.497	11.61
667.907	12.79
668.317	12.24
668.727	14.01
669.137	12.9
669.547	12.63
669.956	12.07
670.366	10.94
670.776	11.02
671.186	11.94
671.595	12.46
672.005	11.9
672.414	11.47
672.824	11.79
673.233	9.52
673.642	10.62
674.052	10.93
674.461	11.98
674.87	12.74
675.279	13.81
675.688	12.48
676.097	13.02
676.506	12.65
676.915	11.85
677.323	12.23
677.732	12.38
678.141	12.06
678.549	12.06
678.958	11.01
679.366	10.12
679.775	7.95
680.183	10.03
680.592	9.82
681	10
681.408	9.93
681.816	9.04
682.224	8.52
682.632	9.8
683.04	9.63
683.448	10.04
683.856	10.58
684.264	12.29
684.671	11.1
685.079	10.16
685.487	9.74
685.894	10.93
686.302	10.49
686.709	12.12
687.116	11.57
687.524	12.72
687.931	13.24
688.338	14.21
688.745	11.7
689.152	11.36
689.559	13.38
689.966	15.12
690.373	15.92
690.78	18.31
691.187	18.69
691.593	19.1
692	19.06
692.407	19.96
692.813	21.36
693.22	24.09
693.626	24.4
694.032	24.89
694.439	24.95
694.845	24.57
695.251	22.92
695.657	23.43
696.063	22.56
696.469	22.35
696.875	21.95
697.281	20.88
697.687	19.6
698.093	20.08
698.498	19.4
698.904	19.03
699.31	19.4
699.715	21.2
700.12	21.34
700.526	22.51
700.931	23.09
701.337	24.54
701.742	25.58
702.147	26.06
702.552	27.1
702.957	26.67
703.362	27.9
703.767	27.82
704.172	27.8
704.577	26.52
704.981	25.34
705.386	25.28
705.791	24.68
706.195	24.28
706.6	24.82
707.004	23.58
707.408	24
707.813	25.01
708.217	26.5
708.621	26.15
709.025	26.54
709.43	28.97
709.834	29.95
710.237	30.14
710.641	30.38
711.045	32.08
711.449	33.82
711.853	36.62
712.256	34.77
712.66	33.85
713.064	34.62
713.467	36.55
713.87	36.2
714.274	36.69
714.677	37.22
715.08	38.64
715.484	38.21
715.887	40.32
716.29	37.82
716.693	40.25
717.096	41.47
717.499	42.22
717.901	40.82
718.304	40.66
718.707	40.42
719.109	41.18
719.512	40.26
719.915	41.76
720.317	40.39
720.719	41.82
721.122	41.39
721.524	42.04
721.926	45.02
722.328	46.18
722.731	45.45
723.133	45.22
723.535	45.84
723.937	46.77
724.338	47.63
724.74	48.13
725.142	79.27
725.544	81.77
725.945	89.85
726.347	86.47
726.748	86.08
727.15	88.03
727.551	89.89
727.952	87.82
728.354	85.76
728.755	84.93
729.156	84.39
729.557	53.58
729.958	50.76
730.359	43.22
730.76	43.93
731.161	44.95
731.562	44.31
731.962	43.48
732.363	44.97
732.763	45.54
733.164	43.48
733.564	43.96
733.965	43.71
734.365	44.7
734.766	44.81
735.166	44.46
735.566	45.31
735.966	46.36
736.366	46.38
736.766	45.92
737.166	45.64
737.566	46.99
737.966	45.77
738.365	47.32
738.765	47.51
739.165	46.72
739.564	46.77
739.964	45.04
740.363	43.93
740.763	42.68
741.162	43.86
741.561	44.18
741.96	44.13
742.36	44.5
742.759	44.05
743.158	43.06
743.557	43.06
743.955	43.05
744.354	43.12
744.753	42.72
745.152	44.19
745.55	43.27
745.949	42.81
746.348	41.8
746.746	41.14
747.144	41.64
747.543	41.23
747.941	40.66
748.339	40.47
748.737	40.99
749.136	41.82
749.534	40.48
749.932	40.72
750.33	41.29
750.727	41.75
751.125	43.31
751.523	42.34
751.921	44.66
752.318	45.87
752.716	47.59
753.113	47.68
753.511	47.59
753.908	48.67
754.305	52.24
754.703	52.15
755.1	53.46
755.497	53.61
755.894	54.86
756.291	54.31
756.688	55.37
757.085	54.57
757.482	57.42
757.878	61.21
758.275	63.79
758.672	58.73
759.068	60.77
759.465	62.54
759.861	62.91
760.258	62.78
760.654	62.38
761.05	61.98
761.447	59.8
761.843	55.95
762.239	54.59
762.635	50.68
763.031	49.25
763.427	47.67
763.822	47.14
764.218	46.12
764.614	45.59
765.01	44.55
765.405	45.61
765.801	47.93
766.196	47.36
766.592	45.4
766.987	46.48
767.382	48.27
767.778	48.85
768.173	47.92
768.568	48.57
768.963	49.3
769.358	50.94
769.753	50.92
770.148	50.35
770.542	50.22
770.937	49.74
771.332	49.37
771.726	48.12
772.121	50.39
772.515	51.75
772.91	52.08
773.304	51.78
773.699	50.37
774.093	48.65
774.487	49.22
774.881	49.67
775.275	50.27
775.669	50.28
776.063	51.78
776.457	51.23
776.851	49.05
777.245	49.74
777.638	50.35
778.032	51.61
778.425	53.08
778.819	55.31
779.212	57.14
779.606	57.73
779.999	57.84
780.392	58.31
780.786	56.63
781.179	58.53
781.572	58.46
781.965	60.28
782.358	59.53
782.751	59.8
783.143	57.17
783.536	55.73
783.929	55.62
784.322	55.54
784.714	54.31
785.107	55.63
785.499	55.71
785.891	56.8
786.284	54.19
786.676	53.97
787.068	54.08
787.46	54.92
787.852	54.99
788.245	53.51
788.636	53.19
789.028	53.11
789.42	53.46
789.812	53.87
790.204	53.33
790.595	55.69
790.987	56.33
791.378	56.15
791.77	55.54
792.161	55.2
792.553	57.5
792.944	57.62
793.335	56.21
793.726	56.15
794.117	57.8
794.508	56.5
794.899	53.71
795.29	51.97
795.681	50.16
796.072	50.15
796.463	61.05
796.853	62.59
797.244	63.89
797.634	66.47
798.025	66.24
798.415	63.85
798.806	63.32
799.196	65.07
799.586	67.68
799.976	69.61
800.366	70.01
800.756	57.95
801.146	55.7
801.536	55.22
801.926	54.3
802.316	53.88
802.706	53.38
803.095	55.48
803.485	55.91
803.874	54.56
804.264	56.04
804.653	56.59
805.043	60.93
805.432	60.87
805.821	62.11
806.21	62.65
806.599	61.78
806.988	63.27
807.377	60.76
807.766	58.91
808.155	61
808.544	58.16
808.933	54.5
809.321	53.77
809.71	52.4
810.098	51.14
810.487	48.37
810.875	50.11
811.264	48.91
811.652	59.33
812.04	62.6
812.428	63.33
812.816	64.44
813.204	71.39
813.592	67.71
813.98	69.08
814.368	73.1
814.756	79.34
815.144	77.68
815.531	80.21
815.919	70.35
816.306	71.45
816.694	70.03
817.081	71.63
817.469	69.39
817.856	70.9
818.243	69.02
818.63	63.68
819.017	63.5
819.404	63.6
819.791	63.08
820.178	59.69
820.565	61.33
820.952	66.65
821.339	64.26
821.725	64.74
822.112	64.57
822.498	67.85
822.885	68.44
823.271	63.67
823.657	63.52
824.044	66.35
824.43	71.6
824.816	74.22
825.202	72.17
825.588	75.82
825.974	80.12
826.36	80.08
826.746	79.75
827.132	81.48
827.517	85.29
827.903	84.86
828.289	85.87
828.674	81.21
829.06	74.5
829.445	70.25
829.83	67.55
830.216	63.55
830.601	64.65
830.986	69.04
831.371	70.12
831.756	72.88
832.141	77.08
832.526	77.71
832.911	79.36
833.295	82.33
833.68	84.06
834.065	83.86
834.449	81.2
834.834	81.73
835.218	81.08
835.603	82.28
835.987	76.75
836.371	72.5
836.755	71.69
837.139	70.42
837.524	65.67
837.908	65.06
838.291	67.82
838.675	67.59
839.059	65.95
839.443	62.15
839.827	60.17
840.21	60.23
840.594	62.75
840.977	61.48
841.361	60.38
841.744	62.99
842.127	62.5
842.511	61.77
842.894	60.86
843.277	59.04
843.66	54.57
844.043	54.71
844.426	58.37
844.809	54.53
845.191	53.29
845.574	57.16
845.957	57.08
846.339	58.18
846.722	57.34
847.104	58.47
847.487	57.04
847.869	62.37
848.252	64.78
848.634	63.59
849.016	63.18
849.398	64.71
849.78	63.84
850.162	64.05
850.544	65.36
850.926	61.93
851.307	59.22
851.689	61.94
852.071	59.67
852.452	55.81
852.834	55.99
853.215	56.97
853.597	55.3
853.978	58.62
854.359	61.46
854.741	60.93
855.122	61.57
855.503	61.52
855.884	63.89
856.265	67.22
856.646	66.78
857.026	68.61
857.407	72.48
857.788	72.44
858.169	67.15
858.549	68.58
858.93	69.22
859.31	72.38
859.69	78.54
860.071	78.18
860.451	75.88
860.831	76.2
861.211	72.94
861.591	69.62
861.971	70.13
862.351	70.62
862.731	60.94
863.111	61.1
863.491	63.89
863.87	57.58
864.25	56.68
864.629	59.58
865.009	58.94
865.388	64.27
865.768	65.78
866.147	66.62
866.526	69.87
866.905	73.78
867.284	67.55
867.663	57.27
868.042	56.94
868.421	56.71
868.8	51.82
869.179	51.9
869.558	47.45
869.936	48.91
870.315	44.51
870.693	39.97
871.072	40.21
871.45	43.08
871.828	49.15
872.207	54.38
872.585	57.52
872.963	56.55
873.341	60.02
873.719	64.67
874.097	70.17
874.475	72.91
874.853	76.11
875.23	75.78
875.608	79.79
875.986	84.79
876.363	84.73
876.741	87.4
877.118	94.9
877.495	97.08
877.873	93.87
878.25	91.52
878.627	91.49
879.004	90.44
879.381	90.39
879.758	89.34
880.135	82.35
880.512	83.51
880.889	72.41
881.265	66.59
881.642	62.83
882.019	66.96
882.395	68.72
882.772	73.53
883.148	73.39
883.524	71.42
883.901	67.98
884.277	62.76
884.653	57.86
885.029	65.64
885.405	76.77
885.781	74.77
886.157	67.73
886.532	64.62
886.908	60.58
887.284	64.64
887.659	67.86
888.035	72.44
888.411	75.54
888.786	78.06
889.161	77.92
889.537	63.58
889.912	64.67
890.287	67.29
890.662	64.56
891.037	58.78
891.412	52.21
891.787	48.85
892.162	54
892.536	60.67
892.911	65.45
893.286	61.33
893.66	65.21
894.035	67.92
894.409	65.48
894.784	69.78
895.158	74.84
895.532	84.45
895.906	86.71
896.281	82.29
896.655	83.93
897.029	77.98
897.402	84.09
897.776	76.26
898.15	81.04
898.524	95.62
898.898	92.03
899.271	104.34
899.645	95.38
900.018	92.97
900.392	91.77
900.765	77.5
901.138	80.99
901.511	77.83
901.884	91.79
902.258	84.44
902.631	84.94
903.003	90.32
903.376	77.51
903.749	77.96
904.122	77.34
904.495	77.84
904.867	89.16
905.24	79.72
905.612	75.9
905.985	61.68
906.357	60.07
906.729	56.98
907.102	56.45
907.474	59.91
907.846	62.17
908.218	62.22
908.59	69.22
908.962	70.39
909.334	79.52
909.705	88.08
910.077	91.78
910.449	90.64
910.82	98.42
911.192	108.89
911.563	115.37
911.935	114.74
912.306	114.44
912.677	109.09
913.048	110.81
913.419	113.37
913.79	100.05
914.161	109.04
914.532	123.54
914.903	113.82
915.274	100.61
915.645	100.04
916.015	90.42
916.386	85.87
916.756	88.56
917.127	74.55
917.497	77.2
917.868	85.78
918.238	78.47
918.608	74.14
918.978	66.92
919.348	75.12
919.718	66.01
920.088	66.28
920.458	82.74
920.828	83.74
921.198	91.4
921.567	92.04
921.937	76.74
922.306	76.42
922.676	69.48
923.045	71.48
923.415	73.99
923.784	74.92
924.153	85.58
924.522	82.4
924.891	81.63
925.26	83.66
925.629	78.11
925.998	87.14
926.367	99.6
926.736	116.04
927.104	131
927.473	119.63
927.842	132.69
928.21	124.74
928.578	117.44
928.947	114.03
929.315	120.77
929.683	141.96
930.051	135.09
930.42	130.84
930.788	118.68
931.156	105.97
931.523	139.53
931.891	138.94
932.259	130.54
932.627	172.33
932.994	223.19
933.362	209.76
933.729	192.11
934.097	182.6
934.464	170.69
934.831	170.42
935.199	170.19
935.566	151.01
935.933	165.6
936.3	198.4
936.667	158.85
937.034	200.81
937.401	189.49
937.767	172.73
938.134	169.77
938.501	197.3
938.867	222.06
939.234	361.72
939.6	312.81
939.967	324.71
940.333	242.25
940.699	190.43
941.065	127.15
941.431	165.91
941.798	186.3
942.163	263.07
942.529	184.16
942.895	165.23
943.261	125.86
943.627	133.02
943.992	126.82
944.358	124.88
944.723	146.75
945.089	136.54
945.454	105.14
945.82	92.05
946.185	66.76
946.55	93.2
946.915	100.8
947.28	101.41
947.645	110.87
948.01	115.52
948.375	134.81
948.74	146.18
949.104	135.72
949.469	166.96
949.834	243.47
950.198	328
950.562	238.51
950.927	173.17
951.291	206.24
951.655	185.44
952.02	128.86
952.384	102.52
952.748	106.88
953.112	135.68
953.476	137.98
953.839	128
954.203	129.65
954.567	133.92
954.931	173.36
955.294	157.11
955.658	146.73
956.021	264.67
956.385	374.2
956.748	543.29
957.111	638.73
957.474	630.47
957.837	736.64
958.2	470.75
958.563	207.83
958.926	186.33
959.289	264.95
959.652	347.48
960.015	263.22
960.377	313.83
960.74	273.25
961.102	409.11
961.465	561.09
961.827	572.49
962.189	1036.04
962.552	770.13
962.914	645.32
963.276	392.6
963.638	300.07
964	272.82
964.362	231.33
964.724	227.77
965.085	198.31
965.447	175.63
965.809	129.67
966.17	116.16
966.532	103.33
966.893	90.55
967.255	87.32
967.616	97.57
967.977	81.16
968.338	72.49
968.699	79.7
969.061	59.29
969.421	48.6
969.782	65.18
970.143	72.15
970.504	89.61
970.865	109.14
971.225	145.35
971.586	147.33
971.946	187.19
972.307	173.42
972.667	187.81
973.027	214.77
973.388	268.08
973.748	192.36
974.108	226.66
974.468	276.02
974.828	267.59
975.188	169.01
975.548	150.15
975.907	132.99
976.267	146.36
976.627	146.75
976.986	143.82
977.346	123.04
977.705	109.08
978.064	90.81
978.424	84.48
978.783	59.18
979.142	75.57
979.501	65.19
979.86	82.86
980.219	63.93
980.578	48.19
980.937	34.41
981.296	35.21
981.654	47.28
982.013	43.67
982.371	44.75
982.73	34.03
983.088	16.74
983.447	98.53
983.805	168.93
984.163	419.4
984.521	518.29
984.879	667.38
985.237	-1408.56
985.595	1629.34
985.953	443.86
986.311	201.89
986.669	112.37
987.026	98.76
987.384	60.41
987.741	17.92
988.099	90.27
988.456	98.42
988.814	133.44
989.171	120.06
989.528	86.01
989.885	87.49
990.242	99.09
990.599	104.46
990.956	77.27
991.313	69.67
991.67	61.5
992.027	86.3
992.383	82.47
992.74	72.73
993.096	80.48
993.453	89.36
993.809	85.72
994.165	95.29
994.522	129.66
994.878	145.26
995.234	179.8
995.59	180.32
995.946	105.11
996.302	100.27
996.658	97.76
997.013	63.1
997.369	75.1
997.725	108.69
998.08	76
998.436	-37.16
998.791	8.55
999.147	0.15
999.502	15.91
999.857	33.85
1000.212	11.65
1000.567	102.41
1000.922	159.51
1001.277	146.33
1001.632	128.12
1001.987	176.11
1002.342	171.39
1002.696	115.93
1003.051	103.99
1003.406	137.33
1003.76	117.88
1004.114	131.17
1004.469	106.85
1004.823	86.49
1005.177	79.85
1005.531	56.57
1005.885	68.44
1006.239	91.01
1006.593	141.39
1006.947	201.51
1007.301	135.11
1007.655	161.63
1008.008	127.92
1008.362	140.57
1008.715	185.88
1009.069	186.71
1009.422	341.07
1009.776	510.13
1010.129	299.32
1010.482	207.58
1010.835	125.32
1011.188	224.35
1011.541	186.66
1011.894	-668.6
1012.247	3099.78
1012.6	290.04
1012.952	171.92
1013.305	60.28
1013.657	93.19
1014.01	75.81
1014.362	56.02
1014.715	104.14
1015.067	117.62
1015.419	125.8
1015.771	140.85
1016.123	141.57
1016.475	148.57
1016.827	149.91
1017.179	182.26
1017.531	172.96
1017.883	181.77
1018.234	218.28
1018.586	250.53
1018.938	262.99
1019.289	330.2
1019.64	290.72
1019.992	247.77
1020.343	183.54
1020.694	206.52
1021.045	174.64
1021.396	191.78
1021.747	237.89
1022.098	198.69
1022.449	157.28
1022.8	144.93
1023.151	130.8
1023.501	147.49
1023.852	144.51
1024.202	180.67
1024.553	163.82
1024.903	173.89
1025.253	171.35
1025.604	164.88
1025.954	205.61
1026.304	235.76
1026.654	266.4
1027.004	331.25
1027.354	430.42
1027.703	494.86
1028.053	543.7
1028.403	820.78
1028.753	961.07
1029.102	707.05
1029.452	-14.72
1029.801	-50.89
1030.15	-69.14
1030.499	-84.49
897.758	1162.06
901.051	1125.49
904.343	1147.15
907.636	1145.86
910.928	1176.29
914.22	1138.07
917.511	1142.13
920.803	1165.32
924.094	1160.16
927.384	1161.41
930.675	1145.28
933.965	1130.35
937.255	1145.05
940.544	1128.77
943.834	1132.92
947.123	1103.6
950.411	1146.24
953.7	1141.31
956.988	1133.73
960.276	1094.37
963.563	1116.79
966.851	1122.1
970.138	1138.06
973.424	1141.79
976.711	1115.32
979.997	1137.63
983.283	1155.03
986.568	1124.13
989.853	1116.5
993.138	1125.49
996.423	1176.77
999.708	1154.03
1002.992	1164.43
1006.275	1125.45
1009.559	1124.21
1012.842	1172.53
1016.125	1148.86
1019.408	1137.79
1022.69	1164.46
1025.972	1176.63
1029.254	1167.38
1032.536	1148.35
1035.817	1151.51
1039.098	1138
1042.379	1161.2
1045.659	1173.15
1048.939	1147.39
1052.219	1147.87
1055.498	1147.64
1058.778	1139.36
1062.057	1131.57
1065.335	1146.88
1068.614	1146.73
1071.892	1141.45
1075.17	1170.68
1078.447	1169.17
1081.724	1165.82
1085.001	1176.3
1088.278	1162.7
1091.554	1163.79
1094.83	1164.69
1098.106	1176.44
1101.382	1190.37
1104.657	1188.12
1107.932	1189.96
1111.206	1176.32
1114.481	1154.24
1117.755	1156.88
1121.029	1152.57
1124.302	1182.21
1127.575	1166.54
1130.848	1166.86
1134.121	1152.76
1137.393	1128.88
1140.665	1162.6
1143.937	1147.16
1147.208	1127.67
1150.48	1152.59
1153.75	1147.15
1157.021	1148.75
1160.291	1136.22
1163.561	1159.31
1166.831	1142.6
1170.101	1152.69
1173.37	1136.72
1176.639	1115.75
1179.907	1142.47
1183.176	1145.75
1186.444	1147.51
1189.711	1158.55
1192.979	1170.61
1196.246	1150.92
1199.513	1160.38
1202.78	1160.85
1206.046	1165.15
1209.312	1181.37
1212.578	1183.89
1215.843	1164.09
1219.108	1154.12
1222.373	1163.94
1225.638	1150.33
1228.902	1141.69
1232.166	1128.66
1235.43	1120.4
1238.693	1134.92
1241.956	1133.47
1245.219	1151.52
1248.482	1148.63
1251.744	1151.33
1255.006	1206.69
1258.268	1183.92
1261.529	1168.74
1264.79	1169.32
1268.051	1211.03
1271.312	1220.9
1274.572	1199.44
1277.832	1196.54
1281.092	1188.41
1284.351	1184.75
1287.61	1177.34
1290.869	1146.05
1294.128	1146.19
1297.386	1164.43
1300.644	1162.63
1303.902	1167.46
1307.159	1101.05
1310.416	1127
1313.673	1136.89
1316.93	1138.11
1320.186	1148.86
1323.442	1163.11
1326.697	1161.08
1329.953	1151.31
1333.208	1166.72
1336.463	1155.67
1339.717	1139.94
1342.972	1194.7
1346.226	1182.49
1349.479	1164.95
1352.733	1152.71
1355.986	1164.14
1359.238	1155.38
1362.491	1157.18
1365.743	1155.09
1368.995	1155.6
1372.247	1165.67
1375.498	1170.7
1378.749	1186.42
1382	1170.23
1385.251	1179.83
1388.501	1162.57
1391.751	1157.1
1395	1145.87
1398.25	1159.69
1401.499	1172.44
1404.748	1148.61
1407.996	1142.3
1411.244	1142.6
1414.492	1134.23
1417.74	1124.88
1420.987	1133.85
1424.234	1156.86
1427.481	1143.15
1430.728	1166.27
1433.974	1160.61
1437.22	1160.46
1440.465	1154.04
1443.711	1152.27
1446.956	1158.03
1450.201	1149.42
1453.445	1173.15
1456.689	1163.5
1459.933	1172.45
1463.177	1187.74
1466.42	1179.37
1469.663	1165.03
1472.906	1171.07
1476.148	1197.15
1479.391	1179.15
1482.633	1172.72
1485.874	1181.53
1489.115	1182.24
1492.356	1175.97
1495.597	1163.58
1498.838	1161.52
1502.078	1155.49
1505.318	1148.31
1508.557	1157.55
1511.797	1155.54
1515.036	1176.53
1518.274	1155.86
1521.513	1134.01
1524.751	1138.09
1527.989	1145.36
1531.227	1155.1
1534.464	1152.76
1537.701	1148.65
1540.938	1152.21
1544.174	1131.32
1547.41	1123.98
1550.646	1143.08
1553.882	1162.39
1557.117	1191.01
1560.352	1193.05
1563.587	1172.88
1566.821	1158.75
1570.055	1172.02
1573.289	1157.66
1576.523	1180.32
1579.756	1187.21
1582.989	1198.21
1586.222	1177.16
1589.454	1197.1
1592.686	1187.91
1595.918	1197.59
1599.15	1199.88
1602.381	1221.26
1605.612	1212.54
1608.843	1253.16
1612.073	1219.18
1615.303	1213.54
1618.533	1208.68
1621.762	1209.7
1624.992	1196.52
1628.221	1192.1
1631.449	1189.17
1634.678	1202.82
1637.906	1185.08
1641.134	1193.87
1644.361	1181.03
1647.588	1173.6
1650.815	1187.14
1654.042	1172.02
1657.269	1182.81
1660.495	1173.35
1663.72	1170.63
1666.946	1153.19
1670.171	1143.2
1673.396	1130
1676.621	1122.45
1679.845	1121.87
1683.069	1124.63
1686.293	1135.65
1689.517	1129.12
1692.74	1109.55
1695.963	1118.02
1699.185	1132.45
1702.408	1123.81
1705.63	1135.16
1708.852	1142.17
1712.073	1129.04
1715.294	1137.32
1718.515	1163.8
1721.736	1142.89
1724.956	1140.18
1728.176	1152.08
1731.396	1158.21
1734.616	1154.71
1737.835	1176.85
1741.054	1160.69
1744.272	1161.12
1747.491	1179.38
1750.709	1187.74
1753.927	1164.93
1757.144	1179.42
1760.361	1202.43
1763.578	1186.8
1766.795	1165.47
1770.011	1164.02
1773.227	1171.14
1776.443	1191.67
1779.658	1207.33
1782.874	1185.71
1786.089	1180.64
1789.303	1180.12
1792.518	1183.2
1795.732	1177.67
1798.945	1183.97
1802.159	1207.16
1805.372	1175.62
1808.585	1171.35
1811.797	1171.59
1815.01	1187.67
1818.222	1198.59
1821.434	1185.06
1824.645	1201.22
1827.856	1199.78
1831.067	1209.79
1834.278	1191.37
1837.488	1181
1840.698	1238.13
1843.908	1218.99
1847.117	1205.05
1850.326	1168.5
1853.535	1200.54
1856.744	1213.74
1859.952	1180.24
1863.16	1181.11
1866.368	1198.59
1869.575	1243.34
1872.782	1193.61
1875.989	1165.13
1879.196	1188.86
1882.402	1185.39
1885.608	1199.41
1888.814	1168.79
1892.019	1128.91
1895.224	1157.1
1898.429	1145.31
1901.634	1132.79
1904.838	1125.92
1908.042	1150.12
1911.246	1160.62
1914.449	1142.56
1917.652	1135.91
1920.855	1126.59
1924.058	1139.07
1927.26	1164.92
1930.462	1172.21
1933.664	1190.18
1936.865	1164.9
1940.066	1169.9
1943.267	1146.5
1946.467	1150.63
1949.668	1154.22
1952.868	1190.45
1956.067	1192.65
1959.267	1162.75
1962.466	1173.81
1965.665	1163.97
1968.863	1163.7
1972.061	1163.78
1975.259	1161.99
1978.457	1198.35
1981.654	1179.58
1984.852	1180.79
1988.048	1161.15
1991.245	1150.73
1994.441	1191.66
1997.637	1167.35
2000.833	1159.84
2004.028	1174.09
2007.223	1205.37
2010.418	1194.55
2013.613	1171.51
2016.807	1167.93
2020.001	1167.48
2023.194	1176.09
2026.388	1167.68
2029.581	1144.36
2032.774	1174.26
2035.966	1180.45
2039.158	1152.79
2042.35	1164.26
2045.542	1129.86
2048.733	1170.29
2051.924	1159.97
2055.115	1166.52
2058.306	1152.8
2061.496	1174.73
2064.686	1198.69
2067.875	1151.21
2071.065	1152.01
2074.254	1163.27
2077.442	1141.13
2080.631	1180.94
2083.819	1150.48
2087.007	1146.98
2090.195	1142.01
2093.382	1143.38
2096.569	1143.4
2099.756	1120.68
2102.942	1151.92
2106.128	1154.76
2109.314	1150.16
2112.5	1144.28
2115.685	1130.15
2118.87	1132.35
2122.055	1169.79
2125.239	1156.35
2128.424	1153.98
2131.608	1178.89
2134.791	1172.98
2137.974	1188.7
2141.157	1184.25
2144.34	1171.17
2147.523	1162.66
2150.705	1179.24
2153.887	1161.78
2157.068	1148.2
2160.25	1137.63
2163.431	1148.77
2166.611	1132.82
2169.792	1145.48
2172.972	1096.25
2176.152	1129.18
2179.331	1137.85
2182.511	1137.23
2185.69	1143.78
2188.868	1143.52
2192.047	1161.8
2195.225	1177.54
2198.403	1148.32
2201.58	1142.59
2204.758	1133.64
2207.935	1171.44
2211.111	1127.69
2214.288	1122.37
2217.464	1139.07
2220.64	1122.64
2223.815	1147.09
2226.991	1109.64
2230.166	1114.08
2233.34	1134.45
2236.515	1139.72
2239.689	1178.34
2242.863	1154.03
2246.036	1177.23
2249.209	1172.36
2252.382	1183.68
2255.555	1183.8
2258.727	1163
2261.9	1183.24
2265.071	1179.35
2268.243	1180.11
2271.414	1159.59
2274.585	1142.76
2277.756	1174.33
2280.926	1153.02
2284.096	1168.45
2287.266	1134.77
2290.436	1160.38
2293.605	1165.26
2296.774	1179.44
2299.942	1183.9
2303.111	1194.18
2306.279	1216.94
2309.447	1212.26
2312.614	1199.79
2315.781	1209.58
2318.948	1197.33
2322.115	1217.24
2325.281	1165.52
2328.447	1172.91
2331.613	1156.1
2334.779	1153.46
2337.944	1151.2
2341.109	1150.41
2344.274	1146.56
2347.438	1126.76
2350.602	1140.46
2353.766	1145.26
2356.929	1141.34
2360.092	1162.5
2363.255	1141.87
2366.418	1132.71
2369.58	1147.96
2372.742	1133.08
2375.904	1122.79
2379.066	1120
2382.227	1133.92
2385.388	1112.9
2388.548	1091.75
2391.709	1106.11
2394.869	1103.09
2398.029	1133.04
2401.188	1123
2404.347	1115.77
2407.506	1110.17
2410.665	1139.43
2413.823	1127.92
2416.981	1121.23
2420.139	1130.17
2423.296	1149.16
2426.453	1137.65
2429.61	1148.24
2432.767	1133.39
2435.923	1152.4
2439.079	1130.2
2442.235	1147.92
2445.391	1116.53
2448.546	1137.52
2451.701	1152.66
2454.855	1150.71
2458.009	1164.43
2461.163	1157.62
2464.317	1142.3
2467.471	1153.17
2470.624	1171.26
2473.777	1164.45
2476.929	1171.25
2480.082	1181.95
2483.234	1173.61
2486.385	1146.95
2489.537	1143.57
2492.688	1134.16
2495.839	1149.59
2498.989	1152.6
2502.14	1147.03
2505.29	1140.05
2508.439	1151.57
2511.589	1124.61
2514.738	1127.35
2517.887	1134.31
2521.035	1170.16
2524.183	1150.07
2527.331	1147.1
2530.479	1138.29
2533.627	1143.09
