Data from N_1_DEC_VA_2N_Splice17_11-18-25-535.txt Node
Date: Sat Mar 14 11:18:25 EDT 2020
User: sa697716
Spectrometer: FLMS03696
Trigger mode: 0
Integration Time (sec): 3.180400E-1
Scans to average: 20
Electric dark correction enabled: true
Nonlinearity correction enabled: true
Boxcar width: 5
XAxis mode: Wavelengths
Number of Pixels in Spectrum: 2048
>>>>>Begin Spectral Data<<<<<
187.83	-136035.04
188.298	996.11
188.766	570.14
189.233	539.03
189.701	650.02
190.169	964.84
190.636	378.66
191.104	330.85
191.571	83.7
192.039	-6.67
192.506	-3.51
192.974	298.24
193.441	-290.92
193.908	17.8
194.375	30.78
194.842	-0.27
195.31	1.89
195.777	104.3
196.244	157.42
196.711	117.85
197.177	116.86
197.644	130.53
198.111	239.25
198.578	283.09
199.045	203.44
199.511	340.62
199.978	374.39
200.445	360.23
200.911	356.76
201.378	378.03
201.844	389.23
202.31	643.41
202.777	627.24
203.243	348.09
203.709	352.71
204.176	468.71
204.642	379.96
205.108	360.48
205.574	274.18
206.04	237.26
206.506	229.07
206.972	205.7
207.438	197.55
207.903	234.43
208.369	215.36
208.835	217.22
209.301	195.4
209.766	184.58
210.232	178.67
210.697	221.7
211.163	244.89
211.628	334.53
212.094	298.39
212.559	440.87
213.024	284.75
213.49	349.63
213.955	310.19
214.42	303.05
214.885	304.29
215.35	316.97
215.815	361.47
216.28	387.32
216.745	320.87
217.21	345.13
217.675	274.32
218.14	281.94
218.604	267.38
219.069	290.23
219.534	309.8
219.998	307.85
220.463	328.22
220.927	297.27
221.392	254.98
221.856	240.17
222.32	229.88
222.785	274.09
223.249	317.47
223.713	341.39
224.177	315.54
224.642	311.42
225.106	347.13
225.57	298.55
226.034	281.11
226.497	422.57
226.961	397.13
227.425	493.91
227.889	508.51
228.353	438.07
228.816	849.49
229.28	826.81
229.744	646.81
230.207	404.58
230.671	404.98
231.134	468.35
231.597	552.81
232.061	453.37
232.524	361.51
232.987	255.82
233.45	305.54
233.914	252.42
234.377	215.61
234.84	222.93
235.303	254.63
235.766	309.77
236.229	332.77
236.691	215.56
237.154	233.33
237.617	181.25
238.08	171.8
238.542	167.14
239.005	148.64
239.468	167.06
239.93	145.19
240.393	142.78
240.855	126.41
241.317	115.97
241.78	110.66
242.242	127
242.704	168.24
243.166	154.86
243.629	161.62
244.091	168.89
244.553	173.54
245.015	217.54
245.477	266.89
245.939	331.69
246.4	395.27
246.862	394.34
247.324	377.94
247.786	363.61
248.247	433.43
248.709	377.95
249.17	315.76
249.632	352.29
250.093	443.58
250.555	381.32
251.016	288.52
251.477	277.42
251.939	316.44
252.4	304.02
252.861	364.92
253.322	387.62
253.783	434.23
254.244	505.95
254.705	363.98
255.166	279.7
255.627	269.09
256.088	358.23
256.549	353.47
257.009	267.18
257.47	332.83
257.931	228.78
258.391	155.02
258.852	174.22
259.312	211.6
259.773	247.06
260.233	258.16
260.694	232.98
261.154	261.26
261.614	255.18
262.074	231.27
262.534	246.78
262.994	254.14
263.455	296.8
263.915	255.37
264.374	209.6
264.834	229.66
265.294	217.24
265.754	231.24
266.214	201.08
266.673	171.06
267.133	191.86
267.593	176.83
268.052	211.52
268.512	185.42
268.971	253.12
269.431	300.97
269.89	283.18
270.349	450.67
270.809	539.95
271.268	494.12
271.727	947.94
272.186	651.01
272.645	506.51
273.104	334.74
273.563	492.94
274.022	336.86
274.481	309.8
274.94	230
275.399	153.11
275.857	141.9
276.316	172.11
276.775	193.69
277.233	184.26
277.692	194.2
278.15	238.65
278.609	278.07
279.067	258.97
279.525	267.29
279.984	328.97
280.442	404.7
280.9	452.85
281.358	311.02
281.816	269.26
282.274	277.36
282.732	228.57
283.19	214.11
283.648	175.88
284.106	205.38
284.564	188.71
285.021	198.41
285.479	147.72
285.937	100.69
286.394	100.92
286.852	97.86
287.309	105.32
287.767	146.8
288.224	151.41
288.682	152.43
289.139	168.38
289.596	171.14
290.053	168.05
290.511	201.16
290.968	268.97
291.425	348.34
291.882	341.22
292.339	309.82
292.796	282.61
293.252	271.05
293.709	244.51
294.166	214.98
294.623	212.73
295.079	192.83
295.536	210.99
295.992	194.72
296.449	188.83
296.905	199.67
297.362	207.5
297.818	204.95
298.274	205.14
298.731	196.97
299.187	192.94
299.643	203.89
300.099	255.48
300.555	253.13
301.011	221.2
301.467	263.41
301.923	263.24
302.379	263.69
302.835	258.83
303.291	269.3
303.746	305.87
304.202	368.95
304.658	355.58
305.113	245.51
305.569	282.95
306.024	282.23
306.479	200.75
306.935	200.32
307.39	188.26
307.845	183.65
308.301	201.11
308.756	174.33
309.211	172.53
309.666	188.75
310.121	236.46
310.576	204.63
311.031	199.01
311.486	214.97
311.94	176.26
312.395	181.69
312.85	296.7
313.305	432.31
313.759	8515.17
314.214	693.43
314.668	598.59
315.123	665.47
315.577	267.85
316.032	271.98
316.486	375.79
316.94	305
317.394	229.63
317.849	182.94
318.303	166.42
318.757	151.84
319.211	162.7
319.665	139.32
320.119	123.17
320.572	157.05
321.026	145.24
321.48	108.78
321.934	109.79
322.387	122.78
322.841	141.83
323.295	196.32
323.748	178.31
324.202	182.35
324.655	226.51
325.108	383.61
325.562	272.19
326.015	308.76
326.468	246.42
326.921	297.42
327.374	290.01
327.827	310.74
328.28	325.51
328.733	241.88
329.186	204.23
329.639	202.21
330.092	158.73
330.545	171.62
330.997	185.81
331.45	222.19
331.903	280.69
332.355	430.31
332.808	410.68
333.26	336.69
333.713	385.05
334.165	404.94
334.617	504.81
335.069	342.82
335.522	519.73
335.974	562.72
336.426	447.55
336.878	235.03
337.33	149.43
337.782	135.97
338.234	185.96
338.686	186.32
339.137	196.36
339.589	203.83
340.041	199.35
340.493	182
340.944	175.68
341.396	181.68
341.847	163.56
342.299	221.94
342.75	296.62
343.201	207.69
343.653	213.09
344.104	238.29
344.555	196.62
345.006	256.08
345.457	227.64
345.908	165.09
346.359	198.52
346.81	172.09
347.261	162.25
347.712	131.33
348.163	128.43
348.613	196.88
349.064	218.36
349.515	177.18
349.965	188.17
350.416	206.42
350.866	204.91
351.317	196.35
351.767	296.57
352.217	339.8
352.668	296.08
353.118	329.82
353.568	227.66
354.018	159.03
354.468	178.44
354.918	145.56
355.368	143.9
355.818	222.86
356.268	530.26
356.718	2431.96
357.168	626.78
357.617	378.26
358.067	396.05
358.517	347.41
358.966	492.91
359.416	655.1
359.865	699.2
360.315	711.86
360.764	359.56
361.213	229.89
361.663	195.66
362.112	222.75
362.561	281.92
363.01	212.52
363.459	189.17
363.908	159.73
364.357	125.82
364.806	176.95
365.255	161
365.703	177.25
366.152	168.72
366.601	165.45
367.05	180.3
367.498	196.89
367.947	194.96
368.395	183.87
368.844	175.16
369.292	190.57
369.74	157.56
370.189	201.59
370.637	232.05
371.085	205.65
371.533	227.11
371.981	154.37
372.429	159.71
372.877	178.36
373.325	202.86
373.773	195.59
374.221	178.78
374.669	169.2
375.116	165.15
375.564	166.21
376.012	166.72
376.459	140.9
376.907	166.67
377.354	175.59
377.801	179.15
378.249	181.94
378.696	217.82
379.143	246.98
379.591	308.44
380.038	449.65
380.485	328.26
380.932	408.55
381.379	503.96
381.826	459.53
382.273	316.43
382.72	253.39
383.166	251.89
383.613	185.41
384.06	170.26
384.506	181.7
384.953	139.67
385.4	127.95
385.846	113.1
386.292	89.5
386.739	74.65
387.185	76.26
387.631	79.11
388.078	93.4
388.524	100.15
388.97	92.22
389.416	95.73
389.862	105.94
390.308	107.75
390.754	113.23
391.2	117.67
391.645	108.69
392.091	128.14
392.537	134.54
392.983	119.5
393.428	135.88
393.874	133.34
394.319	134.38
394.765	148.67
395.21	136.41
395.655	124.1
396.101	118.93
396.546	111.42
396.991	89.29
397.436	80.71
397.881	71.39
398.326	57.57
398.771	65.07
399.216	52.39
399.661	36.13
400.106	45.37
400.551	48.91
400.995	44.05
401.44	46.07
401.885	50.33
402.329	47.86
402.774	48.81
403.218	53.34
403.663	50.53
404.107	52.61
404.551	59.17
404.995	50.2
405.44	43.02
405.884	45.08
406.328	40.24
406.772	33.49
407.216	32.32
407.66	29.25
408.104	21.93
408.547	20.93
408.991	19.56
409.435	14.54
409.879	18.36
410.322	22.04
410.766	22.73
411.209	23.5
411.653	24.57
412.096	25.52
412.54	26.13
412.983	26.72
413.426	30.65
413.869	29.96
414.312	32.82
414.756	28.67
415.199	26.63
415.642	25.33
416.085	26.12
416.527	24.62
416.97	24.16
417.413	23.84
417.856	21.56
418.298	19.89
418.741	17.03
419.184	13.87
419.626	10.23
420.069	10.04
420.511	11.03
420.953	12.75
421.396	14.47
421.838	14.32
422.28	15.21
422.722	17.98
423.164	14.29
423.606	16.28
424.048	18.22
424.49	23
424.932	21.99
425.374	21.19
425.816	18.63
426.258	16.94
426.699	17.07
427.141	18.86
427.582	14.58
428.024	14.56
428.465	10.88
428.907	10.14
429.348	7.01
429.789	8.87
430.231	10.96
430.672	10.4
431.113	10.99
431.554	10.12
431.995	6.62
432.436	9.54
432.877	11.34
433.318	15.7
433.759	14.85
434.2	15.36
434.64	14.57
435.081	13.02
435.522	13.41
435.962	13.61
436.403	13.76
436.843	12.59
437.284	11.46
437.724	8.11
438.164	4.1
438.604	4.23
439.045	7.24
439.485	9.65
439.925	8.98
440.365	8.47
440.805	7.98
441.245	9.09
441.685	10.99
442.125	11.19
442.564	12.08
443.004	13.86
443.444	13.29
443.883	13.22
444.323	10.64
444.762	6.65
445.202	6.81
445.641	8.08
446.081	6.55
446.52	5.43
446.959	4.81
447.398	5.5
447.837	4.79
448.276	4.08
448.716	3.93
449.154	1.98
449.593	5.14
450.032	6.11
450.471	3.99
450.91	3.7
451.349	4.49
451.787	3.8
452.226	3.57
452.664	4.62
453.103	4.78
453.541	2.71
453.98	5.84
454.418	5.56
454.856	6.14
455.295	6.78
455.733	6.81
456.171	6.72
456.609	7.86
457.047	8.96
457.485	9.11
457.923	9.67
458.361	9.11
458.798	8.29
459.236	8.38
459.674	6.82
460.111	7.66
460.549	7.86
460.987	6.77
461.424	5.88
461.862	4.88
462.299	5.87
462.736	7.27
463.173	8.62
463.611	9.84
464.048	10.99
464.485	12.44
464.922	11.34
465.359	10.66
465.796	17.2
466.233	18.59
466.67	20.64
467.106	21.94
467.543	21.16
467.98	20.33
468.416	18.61
468.853	16.77
469.29	15.82
469.726	16.1
470.162	16.13
470.599	10.91
471.035	10
471.471	8.64
471.907	5.31
472.344	4.09
472.78	4.4
473.216	3.7
473.652	4
474.088	3.41
474.523	3.52
474.959	3.06
475.395	2.61
475.831	2.65
476.266	1.56
476.702	2
477.138	3.1
477.573	2.8
478.008	2.47
478.444	4.29
478.879	5.22
479.314	5.14
479.75	5.23
480.185	5.39
480.62	4.83
481.055	5.27
481.49	5.31
481.925	5.23
482.36	6.73
482.795	6.62
483.229	4.81
483.664	4.44
484.099	4.33
484.534	5.35
484.968	6.24
485.403	6.61
485.837	6
486.271	5.98
486.706	5.83
487.14	4.53
487.574	5.19
488.009	5.31
488.443	5.12
488.877	6.28
489.311	5.35
489.745	4.85
490.179	4.99
490.613	6.82
491.046	6.22
491.48	5.41
491.914	5.49
492.348	5.65
492.781	5.39
493.215	5.51
493.648	4.03
494.082	3.68
494.515	3.85
494.948	4.05
495.382	2.71
495.815	3.46
496.248	4.07
496.681	4.02
497.114	3.05
497.547	3.45
497.98	3.99
498.413	5.15
498.846	5.55
499.279	4.97
499.711	4.76
500.144	4.8
500.577	5.05
501.009	4.77
501.442	5.5
501.874	6.82
502.306	6.84
502.739	8.24
503.171	7.65
503.603	7.92
504.036	8.08
504.468	8.06
504.9	7.43
505.332	7.35
505.764	8.04
506.196	7.64
506.627	7.46
507.059	7.2
507.491	5.06
507.923	5.22
508.354	5.27
508.786	5.02
509.217	5.18
509.649	5.58
510.08	5.43
510.512	5.24
510.943	5.7
511.374	5.65
511.805	5.77
512.237	5.87
512.668	5.13
513.099	4.25
513.53	4.84
513.961	5.24
514.391	5.46
514.822	6.37
515.253	6.42
515.684	5.95
516.114	5.67
516.545	6.03
516.975	6.07
517.406	6.25
517.836	6.24
518.267	5.87
518.697	5.62
519.127	5.4
519.558	4.8
519.988	4.34
520.418	4.02
520.848	3.12
521.278	2.59
521.708	18.77
522.138	19.3
522.567	19.05
522.997	18.94
523.427	18.67
523.857	18.98
524.286	18.68
524.716	19.19
525.145	19.37
525.575	20.22
526.004	19.73
526.433	4.02
526.863	2.82
527.292	3.69
527.721	4.49
528.15	4.18
528.579	4.73
529.008	4.86
529.437	3.59
529.866	3.33
530.295	3.24
530.724	4.35
531.152	4.05
531.581	5.71
532.01	5.86
532.438	4.47
532.867	3.88
533.295	3.48
533.723	3.49
534.152	4.16
534.58	4.51
535.008	4.55
535.436	4.61
535.865	4.13
536.293	2.58
536.721	2.07
537.149	2.78
537.576	4.12
538.004	3.95
538.432	3.34
538.86	3.88
539.287	3.72
539.715	3.33
540.143	2.87
540.57	3.78
540.998	4.81
541.425	6.55
541.852	6.72
542.28	6.31
542.707	6.42
543.134	6.66
543.561	6.64
543.988	6.76
544.415	6.61
544.842	6.49
545.269	5.94
545.696	5.98
546.123	5.21
546.549	4.91
546.976	5.25
547.403	5.12
547.829	4.85
548.256	4.19
548.682	4.1
549.108	4.87
549.535	4.45
549.961	4.29
550.387	4.29
550.813	4.71
551.24	4.42
551.666	3.77
552.092	3.77
552.518	4.27
552.943	4.97
553.369	4.33
553.795	4.72
554.221	5.51
554.646	5.62
555.072	6.06
555.498	5
555.923	4.95
556.349	4.74
556.774	4.79
557.199	4.21
557.625	4.11
558.05	4.77
558.475	3.96
558.9	4
559.325	4.52
559.75	4.37
560.175	4.21
560.6	4.43
561.025	4.46
561.449	4.51
561.874	4.24
562.299	3.97
562.723	3.31
563.148	3.34
563.572	2.43
563.997	2.36
564.421	1
564.846	0.94
565.27	1.22
565.694	1.34
566.118	0.98
566.542	1.93
566.966	2.47
567.39	3.3
567.814	3.9
568.238	4.55
568.662	3.66
569.086	4.1
569.509	4.16
569.933	4.9
570.357	4.92
570.78	4.96
571.204	5.64
571.627	5.24
572.05	4.91
572.474	5.23
572.897	5.79
573.32	6.89
573.743	7.42
574.166	8.01
574.589	7.35
575.012	7.2
575.435	7.17
575.858	6.98
576.281	7.25
576.704	7.39
577.126	6.58
577.549	5.59
577.972	4.95
578.394	4.82
578.817	6.58
579.239	6.53
579.661	6.67
580.084	7.34
580.506	6.74
580.928	6.42
581.35	6.07
581.772	6.09
582.194	6.35
582.616	6.21
583.038	5.45
583.46	2.94
583.882	2.82
584.303	2.41
584.725	1.51
585.147	5.06
585.568	5.3
585.99	5.91
586.411	6.56
586.833	6.73
587.254	6.76
587.675	6.74
588.096	6.95
588.518	6.7
588.939	7.26
589.36	8.02
589.781	3.92
590.202	5.47
590.623	5.34
591.043	4.34
591.464	4.38
591.885	4.99
592.305	5.19
592.726	4.8
593.147	4.81
593.567	5.48
593.987	5.72
594.408	5.46
594.828	3.85
595.248	4.16
595.669	4.65
596.089	4.46
596.509	4.08
596.929	3.78
597.349	4.19
597.769	4.42
598.189	3.71
598.608	3.62
599.028	4.39
599.448	4.18
599.867	4
600.287	3.51
600.706	3.9
601.126	4.16
601.545	5.05
601.965	5.27
602.384	5.36
602.803	5.08
603.222	4.8
603.641	4.19
604.061	4.49
604.48	4.36
604.898	4.43
605.317	3.44
605.736	3.36
606.155	3.57
606.574	3.39
606.992	2.99
607.411	3.33
607.829	2.57
608.248	2.48
608.666	1.73
609.085	1.4
609.503	1.49
609.921	2.61
610.339	2.12
610.758	1.68
611.176	1.61
611.594	2.16
612.012	2.11
612.43	3.22
612.847	3.59
613.265	4.81
613.683	5.06
614.101	5.82
614.518	5.13
614.936	5.14
615.353	5.64
615.771	5.85
616.188	6.19
616.606	6.32
617.023	6.14
617.44	5.91
617.857	4.89
618.274	4.39
618.691	4.25
619.108	4.52
619.525	4.4
619.942	4.14
620.359	4.08
620.776	3.94
621.192	4.17
621.609	5.1
622.026	5.37
622.442	5.66
622.859	5.61
623.275	5.06
623.691	5.47
624.108	6.64
624.524	6.49
624.94	6.48
625.356	6.45
625.772	5.98
626.188	4.86
626.604	4.65
627.02	5.09
627.436	6.02
627.852	6.93
628.268	6.56
628.683	6.11
629.099	5.95
629.514	5.94
629.93	5.99
630.345	6.26
630.761	6.15
631.176	6.4
631.591	7.17
632.007	6.91
632.422	5.66
632.837	5.15
633.252	5.62
633.667	6.13
634.082	6.09
634.497	5.81
634.911	6.81
635.326	6.75
635.741	7.05
636.155	6.64
636.57	7.22
636.984	8.06
637.399	9.16
637.813	8.34
638.228	7.87
638.642	8.02
639.056	8.23
639.47	7.8
639.884	7.71
640.298	7.75
640.712	7.66
641.126	7.45
641.54	7.05
641.954	5.18
642.368	6.02
642.781	8.42
643.195	7.9
643.609	7.49
644.022	7.14
644.436	6.88
644.849	6.31
645.262	5.71
645.676	4.71
646.089	5.37
646.502	7.37
646.915	5.88
647.328	4.48
647.741	4.73
648.154	5.69
648.567	7.24
648.98	8.88
649.393	8.75
649.805	8.74
650.218	9.35
650.631	9.17
651.043	8.47
651.456	8.9
651.868	8.51
652.28	8.34
652.693	7.16
653.105	6.66
653.517	6.12
653.929	6.67
654.341	7.6
654.753	7.87
655.165	7.44
655.577	8.36
655.989	8.8
656.401	8.05
656.813	9.28
657.224	10.11
657.636	8.61
658.047	9.26
658.459	8.61
658.87	7.31
659.282	7.88
659.693	8.55
660.104	8.23
660.515	7.99
660.926	7.74
661.338	7.75
661.749	7.24
662.159	8.07
662.57	6.73
662.981	7.33
663.392	7.9
663.803	7.26
664.213	6.82
664.624	6.36
665.035	5.97
665.445	6.56
665.855	6.46
666.266	7.27
666.676	7.18
667.086	6.56
667.497	6.67
667.907	7
668.317	6.83
668.727	8.74
669.137	8.43
669.547	8.97
669.956	8.06
670.366	7.99
670.776	8.13
671.186	8.26
671.595	9.57
672.005	8.38
672.414	8.74
672.824	9.04
673.233	6.78
673.642	7
674.052	7.25
674.461	8.71
674.87	8.27
675.279	8.05
675.688	6.6
676.097	6.58
676.506	7.41
676.915	6.28
677.323	5.91
677.732	5.94
678.141	5.75
678.549	5.59
678.958	4.01
679.366	3.53
679.775	2.76
680.183	4.55
680.592	3.98
681	4.98
681.408	5.4
681.816	5.87
682.224	6.33
682.632	8.23
683.04	8.18
683.448	9.49
683.856	11.01
684.264	12.56
684.671	11.74
685.079	11.11
685.487	10.71
685.894	10.22
686.302	9.49
686.709	10.51
687.116	9.9
687.524	10.88
687.931	11.01
688.338	10.55
688.745	8.57
689.152	8.3
689.559	9.93
689.966	10.08
690.373	11.81
690.78	13.14
691.187	11.9
691.593	12.17
692	11.95
692.407	12.38
692.813	14.28
693.22	15.01
693.626	13.91
694.032	13.77
694.439	13.78
694.845	12.08
695.251	10.61
695.657	12.07
696.063	10.05
696.469	8.84
696.875	8.48
697.281	6.52
697.687	6.16
698.093	8.2
698.498	7.9
698.904	6.91
699.31	7.71
699.715	10.73
700.12	9.27
700.526	10.61
700.931	11.02
701.337	11.32
701.742	12.79
702.147	12.57
702.552	12.88
702.957	11.93
703.362	13.07
703.767	13.02
704.172	10.95
704.577	10.83
704.981	9.88
705.386	10.66
705.791	10.26
706.195	8.71
706.6	9.22
707.004	6.87
707.408	7.08
707.813	6.45
708.217	6.75
708.621	6.42
709.025	5.88
709.43	8.2
709.834	7.79
710.237	7.46
710.641	7.56
711.045	8.39
711.449	9.75
711.853	12.66
712.256	12.72
712.66	12.4
713.064	12.73
713.467	14.36
713.87	12.16
714.274	13.17
714.677	14.67
715.08	14.68
715.484	14.42
715.887	17.23
716.29	14.5
716.693	14.89
717.096	16.43
717.499	16.79
717.901	15.21
718.304	15.8
718.707	15.59
719.109	14.13
719.512	14.22
719.915	16.26
720.317	14.81
720.719	14.83
721.122	15.11
721.524	14.4
721.926	18.35
722.328	18.9
722.731	18.93
723.133	17.56
723.535	17.12
723.937	17.51
724.338	17.15
724.74	16.41
725.142	52.74
725.544	54.83
725.945	63.24
726.347	59.69
726.748	60.66
727.15	62.44
727.551	67.03
727.952	67.09
728.354	65.99
728.755	65.23
729.156	65.97
729.557	31.06
729.958	28.33
730.359	19.34
730.76	19.61
731.161	18.41
731.562	16.15
731.962	12.82
732.363	12.96
732.763	13.01
733.164	11.14
733.564	10.72
733.965	11.07
734.365	11.88
734.766	13.43
735.166	12.78
735.566	13.66
735.966	14.64
736.366	14.83
736.766	14.49
737.166	13.85
737.566	15.12
737.966	14.58
738.365	14.11
738.765	14.21
739.165	13.71
739.564	13.35
739.964	11.99
740.363	11.37
740.763	10.62
741.162	12.27
741.561	13.04
741.96	13.33
742.36	12.97
742.759	13.85
743.158	12.48
743.557	11.54
743.955	11.12
744.354	10.71
744.753	9.14
745.152	9.65
745.55	8.32
745.949	8.52
746.348	7.82
746.746	6.84
747.144	8.27
747.543	9.01
747.941	9.07
748.339	9.4
748.737	11.47
749.136	13.03
749.534	12.17
749.932	12.89
750.33	11.97
750.727	10.74
751.125	12.65
751.523	10.88
751.921	13.14
752.318	13.71
752.716	15.04
753.113	13.93
753.511	14.03
753.908	14.82
754.305	17.27
754.703	18.13
755.1	20.33
755.497	19.93
755.894	19.77
756.291	17.45
756.688	18.04
757.085	16.72
757.482	19.36
757.878	22.59
758.275	24.01
758.672	20.65
759.068	22.1
759.465	20.28
759.861	20.49
760.258	21.66
760.654	23.56
761.05	27.38
761.447	26.21
761.843	21.38
762.239	19.04
762.635	17.62
763.031	15.54
763.427	13.43
763.822	14.81
764.218	13.56
764.614	12.97
765.01	9.58
765.405	7.16
765.801	8.23
766.196	7.2
766.592	6.29
766.987	6.71
767.382	7.45
767.778	8.35
768.173	8.19
768.568	9.07
768.963	9.8
769.358	11.41
769.753	12.4
770.148	12.41
770.542	12.88
770.937	12.8
771.332	12.47
771.726	11.83
772.121	14.14
772.515	13.56
772.91	12.89
773.304	12.93
773.699	12.78
774.093	11.53
774.487	12.61
774.881	13.5
775.275	13.28
775.669	12.79
776.063	13.27
776.457	12.01
776.851	12.9
777.245	14.24
777.638	14.12
778.032	14.11
778.425	14.93
778.819	15.96
779.212	17.64
779.606	19.74
779.999	20.18
780.392	21.57
780.786	20.14
781.179	20.31
781.572	20.83
781.965	21.19
782.358	22.61
782.751	22.06
783.143	20.13
783.536	18.99
783.929	16.66
784.322	17.14
784.714	15.28
785.107	15.27
785.499	15.71
785.891	16.47
786.284	16.5
786.676	15.8
787.068	17.55
787.46	18.85
787.852	18.63
788.245	18.61
788.636	16.99
789.028	19.61
789.42	21.74
789.812	21.93
790.204	21.63
790.595	22.89
790.987	23.06
791.378	23.55
791.77	21.49
792.161	22.42
792.553	24.32
792.944	24.24
793.335	22.07
793.726	21.81
794.117	23.72
794.508	21.95
794.899	21.31
795.29	19.57
795.681	18.71
796.072	20.37
796.463	33.23
796.853	36.05
797.244	37
797.634	37.47
798.025	37.46
798.415	33.91
798.806	35.35
799.196	36.57
799.586	39.15
799.976	39.58
800.366	38.65
800.756	22.43
801.146	17.99
801.536	18.67
801.926	18
802.316	20.17
802.706	21.91
803.095	21.13
803.485	19.22
803.874	17.63
804.264	15.57
804.653	16.83
805.043	20.2
805.432	23.14
805.821	26.17
806.21	28.04
806.599	26.87
806.988	25.31
807.377	24.76
807.766	24.26
808.155	26.13
808.544	28.2
808.933	28.8
809.321	30.32
809.71	27.05
810.098	25.62
810.487	22.81
810.875	19.85
811.264	22.74
811.652	31.25
812.04	33.72
812.428	34.8
812.816	31.77
813.204	34.49
813.592	30.73
813.98	33.95
814.368	39.43
814.756	43.28
815.144	45.28
815.531	46.49
815.919	37.79
816.306	39.84
816.694	37.23
817.081	42.97
817.469	40.76
817.856	37.8
818.243	32.18
818.63	25.6
819.017	25.44
819.404	26.48
819.791	23.03
820.178	21.67
820.565	24.95
820.952	32.97
821.339	29.77
821.725	32.68
822.112	39.65
822.498	43
822.885	39.96
823.271	36.94
823.657	34.56
824.044	36.95
824.43	36.94
824.816	37.26
825.202	33.42
825.588	33.27
825.974	32.52
826.36	27.92
826.746	29.46
827.132	30.28
827.517	35.99
827.903	37.13
828.289	40.1
828.674	40.65
829.06	37.51
829.445	37.88
829.83	36.31
830.216	35.72
830.601	40.46
830.986	44.86
831.371	46.27
831.756	47.94
832.141	50.23
832.526	48.81
832.911	49.46
833.295	46.78
833.68	44.36
834.065	48.89
834.449	48.67
834.834	47.21
835.218	46.43
835.603	49.64
835.987	44.17
836.371	41.28
836.755	41.03
837.139	36.12
837.524	33.91
837.908	31.41
838.291	30.41
838.675	28.64
839.059	28.73
839.443	24.11
839.827	18.99
840.21	15.99
840.594	18.84
840.977	18.73
841.361	23.04
841.744	22.97
842.127	25.17
842.511	22.42
842.894	20.18
843.277	18.81
843.66	18.81
844.043	20.87
844.426	28.48
844.809	24.38
845.191	24.6
845.574	25.74
845.957	27.35
846.339	30.07
846.722	29.72
847.104	30
847.487	26.97
847.869	27.5
848.252	30.48
848.634	31.56
849.016	32.3
849.398	29.81
849.78	29
850.162	31.3
850.544	30.1
850.926	29.15
851.307	28.55
851.689	30.57
852.071	27.08
852.452	26.34
852.834	23.36
853.215	24.5
853.597	24.2
853.978	29.51
854.359	31.61
854.741	33.54
855.122	36.47
855.503	34.59
855.884	33.47
856.265	39.24
856.646	33.42
857.026	33.79
857.407	38.05
857.788	38.86
858.169	33.75
858.549	37.85
858.93	35.06
859.31	35.13
859.69	40.28
860.071	45.18
860.451	45.26
860.831	49.7
861.211	48.6
861.591	42.66
861.971	42.53
862.351	41.86
862.731	33.38
863.111	37.06
863.491	42.15
863.87	42.4
864.25	40.03
864.629	40.9
865.009	40.8
865.388	45.02
865.768	51.2
866.147	54.37
866.526	56.5
866.905	63.55
867.284	58.05
867.663	51.61
868.042	48.71
868.421	45.5
868.8	40.72
869.179	42.02
869.558	40.4
869.936	40.43
870.315	35.94
870.693	39.67
871.072	34.12
871.45	34.51
871.828	37.93
872.207	38.2
872.585	43.39
872.963	42.87
873.341	48.08
873.719	53.72
874.097	52.79
874.475	55.65
874.853	50.11
875.23	54.05
875.608	59.7
875.986	60.76
876.363	60.8
876.741	64.52
877.118	72.44
877.495	68.98
877.873	64.63
878.25	59.35
878.627	62.13
879.004	59.04
879.381	58.07
879.758	53.15
880.135	47.4
880.512	46.68
880.889	37.23
881.265	32.94
881.642	29.5
882.019	29.74
882.395	38
882.772	37.94
883.148	43.14
883.524	41.63
883.901	46.05
884.277	43.79
884.653	45.07
885.029	53.41
885.405	59.12
885.781	62.08
886.157	59.46
886.532	56.98
886.908	54.36
887.284	52.67
887.659	53.65
888.035	55.64
888.411	60.48
888.786	60.72
889.161	55.66
889.537	46.82
889.912	46.66
890.287	41.02
890.662	36.66
891.037	30.32
891.412	28.85
891.787	22.95
892.162	26.01
892.536	28.33
892.911	30.01
893.286	27.35
893.66	33.86
894.035	34.48
894.409	35.61
894.784	39.35
895.158	41.73
895.532	45.93
895.906	53.12
896.281	50.15
896.655	49.11
897.029	48.73
897.402	58.01
897.776	55.06
898.15	52.01
898.524	55.73
898.898	52.18
899.271	70.13
899.645	72.36
900.018	66.6
900.392	68.09
900.765	66.4
901.138	68.92
901.511	58.49
901.884	63.82
902.258	66.54
902.631	73.54
903.003	79.21
903.376	63.89
903.749	52.27
904.122	54.46
904.495	55.97
904.867	53.87
905.24	50.7
905.612	49.98
905.985	40.54
906.357	34.66
906.729	39.1
907.102	45.5
907.474	53.08
907.846	67.98
908.218	68.62
908.59	69.16
908.962	67.89
909.334	70.83
909.705	88.5
910.077	90.41
910.449	95.93
910.82	94.74
911.192	105.54
911.563	115.18
911.935	105.37
912.306	95.21
912.677	88.78
913.048	99.27
913.419	97.97
913.79	78.61
914.161	77.81
914.532	85.81
914.903	75.75
915.274	61.02
915.645	56.44
916.015	48.65
916.386	59.58
916.756	64.09
917.127	54.63
917.497	61.76
917.868	71.04
918.238	72.23
918.608	65.79
918.978	67.84
919.348	63.69
919.718	49.09
920.088	69.11
920.458	75.94
920.828	70.29
921.198	76.42
921.567	78.8
921.937	68.89
922.306	65.86
922.676	69.39
923.045	74.53
923.415	82.38
923.784	85.99
924.153	92.78
924.522	94.64
924.891	85.25
925.26	85.63
925.629	72.49
925.998	70.78
926.367	81.17
926.736	95.29
927.104	95.15
927.473	95.62
927.842	97.82
928.21	79.43
928.578	64.13
928.947	89.02
929.315	91.41
929.683	132.65
930.051	143.71
930.42	152.33
930.788	131.56
931.156	138.77
931.523	158.68
931.891	163.14
932.259	161.17
932.627	195.02
932.994	246.92
933.362	251.73
933.729	227.94
934.097	217.61
934.464	199.27
934.831	205.06
935.199	196.93
935.566	185.45
935.933	160.78
936.3	200.04
936.667	159.37
937.034	199.19
937.401	164.2
937.767	134.69
938.134	127.7
938.501	144.61
938.867	168.25
939.234	247.3
939.6	173.18
939.967	228.47
940.333	165.98
940.699	135.47
941.065	70.61
941.431	108.87
941.798	158.34
942.163	248.98
942.529	177.29
942.895	154.27
943.261	115.79
943.627	159.65
943.992	164.83
944.358	172.6
944.723	204.98
945.089	186.9
945.454	176.33
945.82	169.26
946.185	140.26
946.55	147.9
946.915	144.98
947.28	175.33
947.645	156.32
948.01	144.24
948.375	157.42
948.74	160.44
949.104	187.76
949.469	187.19
949.834	249.3
950.198	306.21
950.562	238.42
950.927	187.81
951.291	202.82
951.655	172.29
952.02	117.48
952.384	95.02
952.748	99.41
953.112	123.12
953.476	130.9
953.839	122.65
954.203	128.46
954.567	145.06
954.931	183.61
955.294	173.24
955.658	175.34
956.021	321.4
956.385	441.7
956.748	637.32
957.111	781.29
957.474	748.66
957.837	873.64
958.2	615.15
958.563	218.92
958.926	212.37
959.289	278.3
959.652	318.45
960.015	208.75
960.377	279.16
960.74	262.82
961.102	417.64
961.465	633.1
961.827	670.31
962.189	1226.16
962.552	918.13
962.914	701.69
963.276	484.3
963.638	430.3
964	411.08
964.362	321.68
964.724	317.37
965.085	234.52
965.447	190.74
965.809	140.33
966.17	114.5
966.532	108.27
966.893	103.92
967.255	78.92
967.616	72.15
967.977	84.17
968.338	68.79
968.699	74.83
969.061	62.27
969.421	74.36
969.782	80.88
970.143	86.57
970.504	109.81
970.865	132.85
971.225	172.33
971.586	173.14
971.946	206.69
972.307	173.35
972.667	174.19
973.027	202.4
973.388	201.58
973.748	148.06
974.108	188.16
974.468	185.44
974.828	177.23
975.188	109.96
975.548	95.74
975.907	111.09
976.267	122.67
976.627	129.51
976.986	137.56
977.346	131.97
977.705	124.42
978.064	95.79
978.424	88.46
978.783	66.32
979.142	68.24
979.501	70.68
979.86	54.9
980.219	55.84
980.578	49.22
980.937	33.03
981.296	41.07
981.654	46.67
982.013	60.21
982.371	115.96
982.73	137.52
983.088	141.65
983.447	152.81
983.805	307.74
984.163	638.53
984.521	668.22
984.879	1014.68
985.237	-1353.41
985.595	1446.51
985.953	367.11
986.311	164.12
986.669	98.15
987.026	96.74
987.384	107.01
987.741	70.22
988.099	121.31
988.456	107.5
988.814	101.42
989.171	101.81
989.528	83.24
989.885	62.87
990.242	83.76
990.599	70.72
990.956	65.11
991.313	49.67
991.67	46.15
992.027	75.28
992.383	69.34
992.74	81.03
993.096	90.56
993.453	88.76
993.809	92.89
994.165	93.49
994.522	140.98
994.878	156.35
995.234	210.56
995.59	211.15
995.946	135.73
996.302	160.27
996.658	146.45
997.013	154.89
997.369	234.08
997.725	327.89
998.08	221.73
998.436	145.23
998.791	204.44
999.147	171.25
999.502	158.1
999.857	136.77
1000.212	188.66
1000.567	360.15
1000.922	233.55
1001.277	155.63
1001.632	140.34
1001.987	178.66
1002.342	150.83
1002.696	131.26
1003.051	120.16
1003.406	179.16
1003.76	145.69
1004.114	159.61
1004.469	146.53
1004.823	116.43
1005.177	107.69
1005.531	89.65
1005.885	102.56
1006.239	125.1
1006.593	145.74
1006.947	198.31
1007.301	130.04
1007.655	178.23
1008.008	141.03
1008.362	134.39
1008.715	182.43
1009.069	166.29
1009.422	280.95
1009.776	449.81
1010.129	308.78
1010.482	245.6
1010.835	144.93
1011.188	247.05
1011.541	168.58
1011.894	-454
1012.247	2000.79
1012.6	102.95
1012.952	111.6
1013.305	23.67
1013.657	35.35
1014.01	42.07
1014.362	38.15
1014.715	85
1015.067	102.16
1015.419	103.49
1015.771	111.71
1016.123	114.61
1016.475	128.92
1016.827	136.07
1017.179	148.87
1017.531	147.11
1017.883	135.26
1018.234	171.33
1018.586	201.18
1018.938	224.46
1019.289	308.25
1019.64	295.73
1019.992	239.1
1020.343	204.69
1020.694	212.93
1021.045	206.05
1021.396	204.91
1021.747	259.56
1022.098	250.09
1022.449	173.69
1022.8	143.74
1023.151	114.89
1023.501	145.13
1023.852	162.72
1024.202	184.72
1024.553	163.29
1024.903	182.93
1025.253	197.86
1025.604	206.86
1025.954	264.83
1026.304	312.13
1026.654	364.49
1027.004	499.53
1027.354	663.12
1027.703	710.12
1028.053	864.44
1028.403	1252.99
1028.753	1458.64
1029.102	1500.28
1029.452	3404.78
1029.801	101.19
1030.15	69.32
1030.499	37.4
897.758	1306.31
901.051	1267.24
904.343	1290.02
907.636	1290.42
910.928	1324.58
914.22	1281.48
917.511	1285.87
920.803	1311.14
924.094	1302.88
927.384	1309.32
930.675	1287.57
933.965	1271.13
937.255	1289.88
940.544	1272.22
943.834	1272.39
947.123	1239.83
950.411	1289.75
953.7	1281.7
956.988	1273.92
960.276	1233.74
963.563	1256.12
966.851	1262.41
970.138	1280.97
973.424	1281.93
976.711	1251.95
979.997	1280.28
983.283	1302.52
986.568	1264.04
989.853	1255.9
993.138	1267.78
996.423	1323.45
999.708	1300.04
1002.992	1313.21
1006.275	1266.16
1009.559	1268.22
1012.842	1323.67
1016.125	1294.98
1019.408	1283.34
1022.69	1311.63
1025.972	1326.39
1029.254	1315.19
1032.536	1293.5
1035.817	1295.76
1039.098	1281.1
1042.379	1307.02
1045.659	1318.07
1048.939	1287.91
1052.219	1292.58
1055.498	1286.63
1058.778	1279.65
1062.057	1268.37
1065.335	1283.17
1068.614	1285.06
1071.892	1280.66
1075.17	1310.54
1078.447	1309.83
1081.724	1305.94
1085.001	1318.24
1088.278	1302.56
1091.554	1304.08
1094.83	1307.18
1098.106	1321.5
1101.382	1337.99
1104.657	1335.59
1107.932	1336.55
1111.206	1324.38
1114.481	1298.21
1117.755	1301.02
1121.029	1296.11
1124.302	1329.06
1127.575	1312.87
1130.848	1311.15
1134.121	1298.7
1137.393	1273.1
1140.665	1308.15
1143.937	1293.26
1147.208	1266.04
1150.48	1298.12
1153.75	1289.93
1157.021	1293.48
1160.291	1278.12
1163.561	1306.93
1166.831	1286.14
1170.101	1297.06
1173.37	1277.52
1176.639	1255.86
1179.907	1284.78
1183.176	1291.35
1186.444	1295.29
1189.711	1308.06
1192.979	1320.53
1196.246	1297.82
1199.513	1305.27
1202.78	1306.8
1206.046	1313.03
1209.312	1329.48
1212.578	1332.68
1215.843	1309.84
1219.108	1300.95
1222.373	1309.84
1225.638	1295.5
1228.902	1288.01
1232.166	1269.47
1235.43	1261.08
1238.693	1278.33
1241.956	1275.97
1245.219	1301.12
1248.482	1295.45
1251.744	1298.63
1255.006	1358.84
1258.268	1330.78
1261.529	1312.11
1264.79	1311.18
1268.051	1363.83
1271.312	1371.22
1274.572	1350.86
1277.832	1342.49
1281.092	1331.26
1284.351	1328.39
1287.61	1321.41
1290.869	1286.2
1294.128	1287.87
1297.386	1307.88
1300.644	1305.85
1303.902	1308.03
1307.159	1235.94
1310.416	1264.01
1313.673	1277.49
1316.93	1278.86
1320.186	1291.42
1323.442	1306.34
1326.697	1307.53
1329.953	1293.32
1333.208	1312.75
1336.463	1298.72
1339.717	1281.84
1342.972	1342.95
1346.226	1329.43
1349.479	1309.32
1352.733	1295.3
1355.986	1306.11
1359.238	1295.6
1362.491	1296.3
1365.743	1297.01
1368.995	1295.87
1372.247	1307.24
1375.498	1314.46
1378.749	1334.48
1382	1313.44
1385.251	1326.44
1388.501	1305.61
1391.751	1300.93
1395	1290.34
1398.25	1304.81
1401.499	1320.19
1404.748	1294.86
1407.996	1284.71
1411.244	1283.64
1414.492	1274.67
1417.74	1264.07
1420.987	1273.87
1424.234	1302.72
1427.481	1284.64
1430.728	1311.09
1433.974	1303.11
1437.22	1300.84
1440.465	1296.92
1443.711	1299.45
1446.956	1306.96
1450.201	1292.83
1453.445	1318.6
1456.689	1307.06
1459.933	1315.76
1463.177	1339.25
1466.42	1324.82
1469.663	1312.78
1472.906	1320.52
1476.148	1345.67
1479.391	1324.05
1482.633	1315.02
1485.874	1329.03
1489.115	1332.38
1492.356	1322.92
1495.597	1310.7
1498.838	1300.25
1502.078	1296.49
1505.318	1285.45
1508.557	1298.54
1511.797	1296.35
1515.036	1322.59
1518.274	1300.12
1521.513	1272.03
1524.751	1275.03
1527.989	1287.92
1531.227	1297.15
1534.464	1301.74
1537.701	1295.67
1540.938	1298.91
1544.174	1271.43
1547.41	1265.14
1550.646	1284.72
1553.882	1308.4
1557.117	1339.49
1560.352	1344.77
1563.587	1320.09
1566.821	1304.23
1570.055	1317.7
1573.289	1301.61
1576.523	1328.89
1579.756	1338.39
1582.989	1348.25
1586.222	1323.94
1589.454	1345.08
1592.686	1337.77
1595.918	1348.79
1599.15	1348.96
1602.381	1373.67
1605.612	1362.16
1608.843	1411.26
1612.073	1371.14
1615.303	1363.7
1618.533	1359.6
1621.762	1359.76
1624.992	1345.13
1628.221	1341.55
1631.449	1336.42
1634.678	1349.25
1637.906	1329.34
1641.134	1342.71
1644.361	1325.34
1647.588	1319.55
1650.815	1335.26
1654.042	1316.71
1657.269	1332.44
1660.495	1321.34
1663.72	1316.06
1666.946	1297.43
1670.171	1288.58
1673.396	1273.58
1676.621	1263.93
1679.845	1261.53
1683.069	1265.22
1686.293	1278.66
1689.517	1273.29
1692.74	1250.1
1695.963	1259.25
1699.185	1277.38
1702.408	1266.84
1705.63	1280.67
1708.852	1289.12
1712.073	1273.13
1715.294	1284.3
1718.515	1309.16
1721.736	1285.88
1724.956	1279.56
1728.176	1292.25
1731.396	1301.13
1734.616	1298.29
1737.835	1321.5
1741.054	1303.95
1744.272	1304.65
1747.491	1325.54
1750.709	1334.59
1753.927	1310.07
1757.144	1325.03
1760.361	1355.43
1763.578	1335.68
1766.795	1310.87
1770.011	1304.98
1773.227	1315.81
1776.443	1340.67
1779.658	1356.32
1782.874	1331.28
1786.089	1326.39
1789.303	1326
1792.518	1325.66
1795.732	1319.06
1798.945	1329.45
1802.159	1356.18
1805.372	1323.75
1808.585	1319.68
1811.797	1317.48
1815.01	1335.95
1818.222	1348.94
1821.434	1328.92
1824.645	1351.14
1827.856	1355.92
1831.067	1368.64
1834.278	1340.51
1837.488	1327.04
1840.698	1393.14
1843.908	1368.33
1847.117	1352.96
1850.326	1313.15
1853.535	1345.39
1856.744	1366.68
1859.952	1325.44
1863.16	1324.98
1866.368	1341.95
1869.575	1400.41
1872.782	1342.4
1875.989	1307.61
1879.196	1335.41
1882.402	1331.05
1885.608	1347.92
1888.814	1316.45
1892.019	1269.78
1895.224	1301.98
1898.429	1287.52
1901.634	1274.66
1904.838	1264.08
1908.042	1293.38
1911.246	1308.28
1914.449	1286.31
1917.652	1277.31
1920.855	1267.67
1924.058	1281.08
1927.26	1309.51
1930.462	1318.31
1933.664	1340.83
1936.865	1311.8
1940.066	1320.45
1943.267	1292.91
1946.467	1295
1949.668	1301.86
1952.868	1344.45
1956.067	1343.3
1959.267	1308.1
1962.466	1321.35
1965.665	1310.78
1968.863	1308.06
1972.061	1309.16
1975.259	1305.08
1978.457	1345.61
1981.654	1324.42
1984.852	1325.51
1988.048	1301.6
1991.245	1291.12
1994.441	1341.02
1997.637	1310.86
2000.833	1303.25
2004.028	1320.14
2007.223	1355.62
2010.418	1344.8
2013.613	1320.27
2016.807	1317.24
2020.001	1315.04
2023.194	1325.48
2026.388	1315.79
2029.581	1287.4
2032.774	1322.97
2035.966	1330.15
2039.158	1300.16
2042.35	1312.19
2045.542	1273.88
2048.733	1316.02
2051.924	1305.46
2055.115	1314.5
2058.306	1298.79
2061.496	1325.55
2064.686	1352.37
2067.875	1299.24
2071.065	1298.28
2074.254	1308.28
2077.442	1282.32
2080.631	1328.09
2083.819	1295.86
2087.007	1291.71
2090.195	1285.78
2093.382	1287.39
2096.569	1285
2099.756	1261.83
2102.942	1296.07
2106.128	1300.88
2109.314	1296.67
2112.5	1290.05
2115.685	1270.78
2118.87	1274.04
2122.055	1315.36
2125.239	1298.59
2128.424	1294.91
2131.608	1323.82
2134.791	1315.17
2137.974	1332.75
2141.157	1327.31
2144.34	1312.94
2147.523	1303.05
2150.705	1321.99
2153.887	1300.97
2157.068	1284.5
2160.25	1271.74
2163.431	1286.28
2166.611	1268.35
2169.792	1280.69
2172.972	1229.53
2176.152	1261.83
2179.331	1273.62
2182.511	1274.83
2185.69	1283
2188.868	1286.92
2192.047	1306.34
2195.225	1324.34
2198.403	1290.26
2201.58	1282.61
2204.758	1274.67
2207.935	1316.1
2211.111	1268.58
2214.288	1261.08
2217.464	1279.88
2220.64	1260.77
2223.815	1285.18
2226.991	1244.98
2230.166	1250.39
2233.34	1275.53
2236.515	1284.76
2239.689	1323.62
2242.863	1296.11
2246.036	1323.81
2249.209	1316.73
2252.382	1328.62
2255.555	1330.52
2258.727	1308.41
2261.9	1325.38
2265.071	1322.37
2268.243	1324.84
2271.414	1296.5
2274.585	1283.97
2277.756	1316.96
2280.926	1298.72
2284.096	1315.81
2287.266	1277.36
2290.436	1305.66
2293.605	1311.69
2296.774	1335.21
2299.942	1339.73
2303.111	1348.14
2306.279	1378.25
2309.447	1371.7
2312.614	1358.65
2315.781	1363.94
2318.948	1353.04
2322.115	1375.3
2325.281	1313.71
2328.447	1321.08
2331.613	1302.07
2334.779	1299.07
2337.944	1294.6
2341.109	1294.77
2344.274	1288.13
2347.438	1268.25
2350.602	1281.78
2353.766	1287.4
2356.929	1283.7
2360.092	1305.14
2363.255	1283.33
2366.418	1270.67
2369.58	1291.13
2372.742	1274.29
2375.904	1262.38
2379.066	1259.5
2382.227	1272.53
2385.388	1250.05
2388.548	1223.7
2391.709	1239.83
2394.869	1240.17
2398.029	1270.22
2401.188	1259.03
2404.347	1251.06
2407.506	1246.04
2410.665	1278.82
2413.823	1266.78
2416.981	1259.14
2420.139	1270.03
2423.296	1290.85
2426.453	1278.42
2429.61	1289.8
2432.767	1275.06
2435.923	1298.96
2439.079	1268
2442.235	1287.15
2445.391	1253.45
2448.546	1276.13
2451.701	1293
2454.855	1291.63
2458.009	1304.2
2461.163	1299.39
2464.317	1281.04
2467.471	1294.43
2470.624	1313.77
2473.777	1306.17
2476.929	1316.28
2480.082	1327.03
2483.234	1317.88
2486.385	1285.93
2489.537	1281.69
2492.688	1276.63
2495.839	1287.51
2498.989	1293.57
2502.14	1287.41
2505.29	1280.99
2508.439	1294.02
2511.589	1262.17
2514.738	1265.38
2517.887	1274.17
2521.035	1319.13
2524.183	1291.64
2527.331	1287.51
2530.479	1281.25
2533.627	1285.54
