Data from N_1_DIV_OH_2N_Splice17_11-29-57-089.txt Node
Date: Sat Mar 14 11:29:57 EDT 2020
User: sa697716
Spectrometer: FLMS03696
Trigger mode: 0
Integration Time (sec): 3.180400E-1
Scans to average: 20
Electric dark correction enabled: true
Nonlinearity correction enabled: true
Boxcar width: 5
XAxis mode: Wavelengths
Number of Pixels in Spectrum: 2048
>>>>>Begin Spectral Data<<<<<
187.83	-132922.38
188.298	1028.28
188.766	635.55
189.233	526.67
189.701	756.5
190.169	1090.62
190.636	443.83
191.104	345.09
191.571	81.17
192.039	16.97
192.506	56.96
192.974	404.9
193.441	-536.26
193.908	-192.66
194.375	-46.52
194.842	26.23
195.31	60.76
195.777	121.83
196.244	198.13
196.711	162.6
197.177	179.89
197.644	209.7
198.111	310.1
198.578	392.25
199.045	328.4
199.511	462.96
199.978	471.36
200.445	426.98
200.911	471.25
201.378	450.94
201.844	428.19
202.31	677.72
202.777	731.45
203.243	425.27
203.709	417.51
204.176	498.59
204.642	429.24
205.108	416.21
205.574	345.03
206.04	269
206.506	268.34
206.972	250.53
207.438	237.79
207.903	257.06
208.369	247.59
208.835	248.42
209.301	256.42
209.766	238.64
210.232	238.08
210.697	264.59
211.163	322.5
211.628	447.86
212.094	364.87
212.559	510.31
213.024	329.89
213.49	392.43
213.955	343.63
214.42	304.19
214.885	305.72
215.35	302.75
215.815	352.46
216.28	402.02
216.745	333.59
217.21	382.53
217.675	300.73
218.14	316.19
218.604	303.14
219.069	328.16
219.534	360.94
219.998	358.96
220.463	385.78
220.927	358.51
221.392	295.55
221.856	281.64
222.32	274.27
222.785	335.27
223.249	379.51
223.713	414.71
224.177	395.35
224.642	397.26
225.106	470.54
225.57	449.77
226.034	389.1
226.497	568.25
226.961	512.7
227.425	585.3
227.889	605.07
228.353	558.13
228.816	1063.19
229.28	1060.32
229.744	878.87
230.207	578.87
230.671	580.4
231.134	775.55
231.597	896.19
232.061	831.08
232.524	725.88
232.987	500.95
233.45	494.16
233.914	421.79
234.377	360.5
234.84	336.37
235.303	338.56
235.766	366.65
236.229	386.84
236.691	208.76
237.154	204.92
237.617	179.97
238.08	171.28
238.542	176.12
239.005	137.79
239.468	160.99
239.93	152.75
240.393	156.75
240.855	137.66
241.317	125.73
241.78	144.94
242.242	162.43
242.704	198.85
243.166	177.26
243.629	195.33
244.091	216.6
244.553	225.37
245.015	244.11
245.477	290.04
245.939	394.42
246.4	467.26
246.862	464.23
247.324	449.2
247.786	449.15
248.247	583.18
248.709	422.86
249.17	334.28
249.632	364.35
250.093	451.59
250.555	380.33
251.016	277.42
251.477	261.12
251.939	282.97
252.4	284.86
252.861	322.16
253.322	311.21
253.783	377.77
254.244	466.17
254.705	334.11
255.166	255.78
255.627	251.96
256.088	316.49
256.549	331.46
257.009	265.39
257.47	329.21
257.931	273.42
258.391	207.34
258.852	201.88
259.312	212.99
259.773	262.26
260.233	293.43
260.694	280.64
261.154	306.79
261.614	287.29
262.074	263.08
262.534	279.03
262.994	266.98
263.455	327.21
263.915	308.9
264.374	290.48
264.834	318.51
265.294	309.49
265.754	324.85
266.214	303.83
266.673	263.65
267.133	307.94
267.593	289
268.052	362.02
268.512	312.65
268.971	404.51
269.431	443.62
269.89	396.21
270.349	574.69
270.809	643.19
271.268	595.63
271.727	1212.67
272.186	845.74
272.645	632.87
273.104	410.68
273.563	608.97
274.022	398.49
274.481	364.78
274.94	293.4
275.399	210.96
275.857	211.93
276.316	259.68
276.775	245.83
277.233	236.83
277.692	228.18
278.15	280.01
278.609	299.42
279.067	284.25
279.525	254.57
279.984	297.88
280.442	370.4
280.9	412.99
281.358	285.24
281.816	266.36
282.274	253.44
282.732	222.94
283.19	218.15
283.648	180.92
284.106	182.89
284.564	194.74
285.021	202.13
285.479	157.47
285.937	130.33
286.394	127.65
286.852	123.06
287.309	124.78
287.767	160.29
288.224	174.84
288.682	194.15
289.139	237
289.596	231.42
290.053	221.18
290.511	269.59
290.968	358.16
291.425	446.93
291.882	444.63
292.339	407.22
292.796	365.31
293.252	311.74
293.709	283.24
294.166	259.07
294.623	258.81
295.079	241.83
295.536	243.45
295.992	211.8
296.449	204.19
296.905	206.36
297.362	227.45
297.818	250.67
298.274	277.64
298.731	256.87
299.187	234.43
299.643	252.2
300.099	298.54
300.555	336.68
301.011	305.88
301.467	368.75
301.923	383.13
302.379	360.37
302.835	342.78
303.291	330.9
303.746	375.22
304.202	483.68
304.658	489.12
305.113	353.84
305.569	357.06
306.024	327.72
306.479	264.16
306.935	250.83
307.39	242.59
307.845	230.45
308.301	236.53
308.756	220.96
309.211	222.9
309.666	214.41
310.121	283.31
310.576	251.45
311.031	261.8
311.486	233.16
311.94	190.25
312.395	247.64
312.85	361.56
313.305	1396.3
313.759	10774.91
314.214	816.48
314.668	704.35
315.123	614.32
315.577	275.7
316.032	276.45
316.486	402.77
316.94	355.22
317.394	267.63
317.849	241.3
318.303	232.54
318.757	220.23
319.211	222.87
319.665	196.79
320.119	207.58
320.572	267.54
321.026	249.48
321.48	201.37
321.934	190.06
322.387	189.32
322.841	203.47
323.295	218.78
323.748	196.57
324.202	218.71
324.655	289.59
325.108	437.33
325.562	346.25
326.015	374.12
326.468	312.43
326.921	382.64
327.374	388.82
327.827	419.1
328.28	432
328.733	336.59
329.186	292.83
329.639	276.78
330.092	219.3
330.545	209.98
330.997	233.6
331.45	267.9
331.903	314.04
332.355	454.32
332.808	416.03
333.26	375.85
333.713	410.68
334.165	406.43
334.617	503.61
335.069	346.43
335.522	532.81
335.974	570.47
336.426	457.45
336.878	289.62
337.33	188.52
337.782	179.32
338.234	215.88
338.686	215
339.137	270.99
339.589	250.6
340.041	258.7
340.493	230.56
340.944	226.58
341.396	245.41
341.847	249.54
342.299	321.85
342.75	433.83
343.201	330.52
343.653	378.71
344.104	430.13
344.555	352.94
345.006	453.09
345.457	447.27
345.908	335
346.359	342.5
346.81	275.15
347.261	245.62
347.712	236.92
348.163	267.45
348.613	315.2
349.064	319.15
349.515	273.06
349.965	289.9
350.416	298.67
350.866	325.08
351.317	318.73
351.767	496.74
352.217	702.58
352.668	578.86
353.118	518.47
353.568	408.96
354.018	352.21
354.468	411.46
354.918	335.87
355.368	300.67
355.818	438.51
356.268	1286.82
356.718	5474.03
357.168	1347.63
357.617	634.87
358.067	670.61
358.517	681.73
358.966	796.04
359.416	955.49
359.865	960.72
360.315	1068.81
360.764	567.88
361.213	329.01
361.663	284.3
362.112	328.62
362.561	503.31
363.01	399.55
363.459	332.05
363.908	322.78
364.357	293.04
364.806	421.19
365.255	279.1
365.703	257.09
366.152	251.62
366.601	227.56
367.05	223.61
367.498	236.23
367.947	252.12
368.395	254.69
368.844	243.97
369.292	246.02
369.74	211
370.189	306.33
370.637	319.47
371.085	270.13
371.533	316.31
371.981	245.63
372.429	270.9
372.877	279.77
373.325	242.55
373.773	224.36
374.221	204.03
374.669	217.41
375.116	212.86
375.564	226.75
376.012	247.34
376.459	202.87
376.907	245.78
377.354	240.89
377.801	235.67
378.249	276.94
378.696	330.11
379.143	433.17
379.591	494.33
380.038	751.8
380.485	545.38
380.932	608.45
381.379	711
381.826	612.32
382.273	422.54
382.72	330.05
383.166	327.97
383.613	245.07
384.06	217.25
384.506	234.74
384.953	188.7
385.4	195.59
385.846	169.26
386.292	125.72
386.739	100.25
387.185	88.02
387.631	86.77
388.078	98.24
388.524	93.41
388.97	83.1
389.416	72.22
389.862	77.1
390.308	66.8
390.754	67.11
391.2	82.8
391.645	76.8
392.091	106.94
392.537	122.37
392.983	105.9
393.428	131.51
393.874	130.05
394.319	159.62
394.765	167.47
395.21	170.57
395.655	167.19
396.101	153.58
396.546	153.41
396.991	133.47
397.436	122.84
397.881	122.52
398.326	98.86
398.771	109.53
399.216	85.59
399.661	70.62
400.106	74.88
400.551	79.7
400.995	77.12
401.44	73.47
401.885	70.58
402.329	67.86
402.774	64.69
403.218	75.66
403.663	69.9
404.107	72.52
404.551	80.07
404.995	69.9
405.44	61.34
405.884	56.83
406.328	48.21
406.772	48.05
407.216	45.31
407.66	43.33
408.104	33.27
408.547	30.14
408.991	30.27
409.435	24.97
409.879	29.28
410.322	30.47
410.766	34.69
411.209	36.5
411.653	36.13
412.096	39.34
412.54	38.91
412.983	38.87
413.426	41.16
413.869	36.87
414.312	39
414.756	35.36
415.199	32.68
415.642	31.85
416.085	34.95
416.527	31.73
416.97	28.11
417.413	28.25
417.856	25.97
418.298	24
418.741	23.32
419.184	20.34
419.626	15.83
420.069	17.48
420.511	16.79
420.953	18.09
421.396	18.92
421.838	19
422.28	18.38
422.722	21.44
423.164	20.47
423.606	23.97
424.048	23.27
424.49	27.6
424.932	25.79
425.374	25.26
425.816	22.8
426.258	24.25
426.699	26.98
427.141	30.24
427.582	28.76
428.024	29.57
428.465	24.35
428.907	24.38
429.348	23.2
429.789	26.26
430.231	27.89
430.672	29.53
431.113	27.37
431.554	26.05
431.995	22.88
432.436	24.61
432.877	24.33
433.318	28.4
433.759	27.99
434.2	29.41
434.64	28.54
435.081	28.7
435.522	26.9
435.962	28.37
436.403	29.88
436.843	28.37
437.284	27.04
437.724	25.34
438.164	22.83
438.604	21.88
439.045	21.52
439.485	22.57
439.925	23.36
440.365	23.85
440.805	22.76
441.245	22.47
441.685	23.74
442.125	23.49
442.564	23.8
443.004	24.72
443.444	26.28
443.883	26.25
444.323	24.11
444.762	18.35
445.202	16.29
445.641	18.65
446.081	16.73
446.52	17.17
446.959	17.18
447.398	18.89
447.837	17.73
448.276	15.19
448.716	16.19
449.154	14.55
449.593	16.88
450.032	18.72
450.471	16.38
450.91	16.69
451.349	16.95
451.787	16.13
452.226	14.52
452.664	15.06
453.103	16.08
453.541	14.54
453.98	17.46
454.418	17.65
454.856	17.39
455.295	17.86
455.733	17
456.171	16
456.609	16.56
457.047	17.78
457.485	19.38
457.923	20.39
458.361	20.41
458.798	19.51
459.236	19.44
459.674	18.39
460.111	19.74
460.549	20.61
460.987	19.98
461.424	20.06
461.862	19.83
462.299	19.15
462.736	19.64
463.173	19.6
463.611	22.3
464.048	22.57
464.485	24.17
464.922	23.18
465.359	22.32
465.796	28.88
466.233	29.69
466.67	30.95
467.106	32.09
467.543	30.98
467.98	29.83
468.416	27.29
468.853	26.53
469.29	25.29
469.726	24.91
470.162	25.16
470.599	19.82
471.035	18.39
471.471	17.07
471.907	14.63
472.344	14.29
472.78	14.92
473.216	13.97
473.652	14.24
474.088	13.47
474.523	13.67
474.959	12.86
475.395	12.71
475.831	13.21
476.266	13.1
476.702	13.09
477.138	13.12
477.573	12.78
478.008	13.57
478.444	15.82
478.879	17.29
479.314	17.11
479.75	17.67
480.185	17.95
480.62	17.06
481.055	16.85
481.49	17.92
481.925	18.57
482.36	20.94
482.795	20.26
483.229	17.54
483.664	16.91
484.099	16.99
484.534	17.52
484.968	18.07
485.403	18.05
485.837	16.56
486.271	15.45
486.706	14.71
487.14	12.73
487.574	12.93
488.009	13.34
488.443	13.02
488.877	13.47
489.311	12.71
489.745	12.12
490.179	12.74
490.613	15.4
491.046	15.55
491.48	15.21
491.914	15.35
492.348	15.48
492.781	15.76
493.215	16.16
493.648	15.19
494.082	14.75
494.515	14.92
494.948	15.47
495.382	13.87
495.815	14.38
496.248	14.83
496.681	14.81
497.114	13.81
497.547	14.04
497.98	14.83
498.413	15.97
498.846	16.82
499.279	15.96
499.711	15.02
500.144	14.72
500.577	15.3
501.009	15.1
501.442	15.6
501.874	16.65
502.306	15.95
502.739	17.61
503.171	17.64
503.603	17.12
504.036	17.22
504.468	17.78
504.9	17.61
505.332	16.7
505.764	17.35
506.196	17.34
506.627	17.63
507.059	17.62
507.491	14.64
507.923	14.53
508.354	15.34
508.786	15.75
509.217	15.49
509.649	16.24
510.08	16.15
510.512	16.41
510.943	16.39
511.374	16.45
511.805	16.17
512.237	16.52
512.668	15.93
513.099	14.65
513.53	14.63
513.961	15.04
514.391	14.55
514.822	16.18
515.253	16.55
515.684	16.43
516.114	15.73
516.545	16.73
516.975	16.78
517.406	16.31
517.836	16.43
518.267	16.77
518.697	17.51
519.127	17.91
519.558	16.73
519.988	15.96
520.418	15.34
520.848	15.12
521.278	14.52
521.708	32.98
522.138	34.19
522.567	34.02
522.997	33.84
523.427	32.58
523.857	32.75
524.286	32.71
524.716	32.78
525.145	33.76
525.575	34.6
526.004	34.14
526.433	15.67
526.863	14.77
527.292	15.8
527.721	16.19
528.15	16.28
528.579	16.59
529.008	16.61
529.437	16.18
529.866	15.56
530.295	15.3
530.724	16.3
531.152	17.19
531.581	17.83
532.01	18.08
532.438	17.58
532.867	17.42
533.295	17.61
533.723	17.52
534.152	17.42
534.58	17.67
535.008	17.31
535.436	18.2
535.865	17.47
536.293	16.61
536.721	16.1
537.149	16.43
537.576	17.46
538.004	17.14
538.432	16.87
538.86	17.86
539.287	17.54
539.715	17.85
540.143	17
540.57	17.69
540.998	18.14
541.425	19.71
541.852	19.45
542.28	18.79
542.707	18.62
543.134	18.91
543.561	18.98
543.988	19.47
544.415	19.34
544.842	18.9
545.269	18.69
545.696	18.86
546.123	18.27
546.549	18.53
546.976	18.57
547.403	18.92
547.829	18.37
548.256	17.63
548.682	17.47
549.108	18.4
549.535	18.55
549.961	18.52
550.387	18.17
550.813	18.71
551.24	18.93
551.666	18.52
552.092	18.17
552.518	18.31
552.943	19.18
553.369	19.01
553.795	18.66
554.221	18.93
554.646	18.67
555.072	20.02
555.498	18.58
555.923	17.96
556.349	18.87
556.774	18.89
557.199	18.82
557.625	17.89
558.05	18.18
558.475	17.62
558.9	17.71
559.325	18.85
559.75	18.91
560.175	19.07
560.6	18.81
561.025	17.89
561.449	17.92
561.874	18.11
562.299	18.74
562.723	18.86
563.148	18.82
563.572	18.31
563.997	17.25
564.421	15.78
564.846	15.21
565.27	15.61
565.694	15.57
566.118	15.55
566.542	16.2
566.966	15.94
567.39	15.88
567.814	16.52
568.238	17.1
568.662	16.84
569.086	17.33
569.509	17.48
569.933	18.81
570.357	18.81
570.78	19.01
571.204	19.58
571.627	19.87
572.05	19.51
572.474	20.45
572.897	20.49
573.32	21.84
573.743	21.14
574.166	22.03
574.589	20.95
575.012	21.17
575.435	20.71
575.858	20.78
576.281	20.57
576.704	20.53
577.126	18.88
577.549	18.51
577.972	17.34
578.394	17.88
578.817	18.93
579.239	18.6
579.661	18.64
580.084	19.24
580.506	18.67
580.928	18.03
581.35	17.83
581.772	18.22
582.194	18.42
582.616	18.24
583.038	17.97
583.46	16.3
583.882	17.11
584.303	16.22
584.725	15.98
585.147	19.59
585.568	20.71
585.99	21.15
586.411	21.6
586.833	21.87
587.254	21.55
587.675	20.93
588.096	20.69
588.518	19.6
588.939	19.87
589.36	20.03
589.781	14.97
590.202	16.34
590.623	16.63
591.043	15.3
591.464	15.17
591.885	15.87
592.305	16.08
592.726	15.87
593.147	16.26
593.567	16.82
593.987	16.41
594.408	16.55
594.828	14.48
595.248	14.58
595.669	15.93
596.089	15.42
596.509	14.53
596.929	14.42
597.349	14.81
597.769	14.53
598.189	14.32
598.608	14.02
599.028	13.95
599.448	13.85
599.867	12.88
600.287	11.76
600.706	12.25
601.126	12.84
601.545	13.88
601.965	13.66
602.384	13.65
602.803	13.66
603.222	14.09
603.641	13.91
604.061	14.21
604.48	14.42
604.898	14.92
605.317	14.74
605.736	14.42
606.155	14.29
606.574	14.33
606.992	14.44
607.411	14.93
607.829	13.95
608.248	13.78
608.666	13.32
609.085	13.38
609.503	12.84
609.921	13.08
610.339	13.5
610.758	12.56
611.176	12.73
611.594	13.05
612.012	12.39
612.43	13.7
612.847	13.73
613.265	14.34
613.683	14.54
614.101	15.3
614.518	14.51
614.936	13.86
615.353	14.47
615.771	15.12
616.188	14.87
616.606	15.09
617.023	14.47
617.44	14.73
617.857	13.67
618.274	12.86
618.691	12.85
619.108	12.97
619.525	12.69
619.942	12.71
620.359	11.83
620.776	11.56
621.192	12.25
621.609	12.89
622.026	13.64
622.442	14.51
622.859	14.21
623.275	13.6
623.691	13.48
624.108	14.65
624.524	14.34
624.94	14.9
625.356	14.52
625.772	13.31
626.188	12.34
626.604	11.62
627.02	11.4
627.436	12.87
627.852	14.41
628.268	14.98
628.683	14.33
629.099	14.33
629.514	13.08
629.93	13.31
630.345	13.88
630.761	14.06
631.176	14.13
631.591	15.85
632.007	16.24
632.422	14.53
632.837	13.97
633.252	15.02
633.667	15.11
634.082	15.56
634.497	16.38
634.911	17.82
635.326	17.93
635.741	18.44
636.155	17.09
636.57	16.94
636.984	17.41
637.399	19.04
637.813	18.58
638.228	18.44
638.642	18.54
639.056	18.41
639.47	17.25
639.884	17.38
640.298	17.15
640.712	17.05
641.126	16.93
641.54	16.35
641.954	13.44
642.368	12.81
642.781	14.63
643.195	14.9
643.609	14.33
644.022	14.35
644.436	13.49
644.849	12.6
645.262	12.16
645.676	11.19
646.089	11.74
646.502	13.59
646.915	13.59
647.328	12.83
647.741	13.23
648.154	14.19
648.567	14.81
648.98	15.96
649.393	17.09
649.805	17.45
650.218	17.25
650.631	16.99
651.043	17.28
651.456	17.68
651.868	16.98
652.28	15.96
652.693	15.21
653.105	14.92
653.517	15.06
653.929	14.31
654.341	14.57
654.753	15.4
655.165	16.03
655.577	14.97
655.989	14.49
656.401	14.2
656.813	15.41
657.224	14.81
657.636	13.47
658.047	13.91
658.459	13.97
658.87	12.42
659.282	12.29
659.693	12.41
660.104	13.32
660.515	13.06
660.926	12.97
661.338	12.6
661.749	12.95
662.159	14.61
662.57	13.21
662.981	13.75
663.392	14.55
663.803	14.36
664.213	14.07
664.624	13.45
665.035	13.21
665.445	12.95
665.855	13.35
666.266	14.27
666.676	14.05
667.086	13.53
667.497	13.22
667.907	13.76
668.317	14.48
668.727	17.23
669.137	16.62
669.547	17.07
669.956	16.11
670.366	15.51
670.776	15.09
671.186	14.19
671.595	15.01
672.005	14.65
672.414	14.33
672.824	14.16
673.233	11.26
673.642	12.03
674.052	12.17
674.461	13.21
674.87	13.8
675.279	14.52
675.688	13.11
676.097	14.23
676.506	14.38
676.915	14.23
677.323	14.3
677.732	14.43
678.141	14.59
678.549	14.32
678.958	13.7
679.366	12.43
679.775	11.49
680.183	14.93
680.592	14.61
681	14.85
681.408	14.87
681.816	14.39
682.224	14.11
682.632	14.68
683.04	14.91
683.448	15.18
683.856	16.59
684.264	17.62
684.671	15.81
685.079	14.97
685.487	15.95
685.894	15.78
686.302	14.54
686.709	14.76
687.116	14.54
687.524	15.75
687.931	17.61
688.338	18.17
688.745	16.28
689.152	15.83
689.559	15.54
689.966	16.23
690.373	17.41
690.78	19.29
691.187	19.3
691.593	20.14
692	19.23
692.407	18.97
692.813	19.76
693.22	20.68
693.626	20.02
694.032	21.72
694.439	21.62
694.845	20.96
695.251	19.38
695.657	19.69
696.063	17.89
696.469	18.52
696.875	18.65
697.281	17.23
697.687	15.95
698.093	16.84
698.498	16.47
698.904	15.17
699.31	15.26
699.715	18.87
700.12	19.7
700.526	20.45
700.931	19.2
701.337	19.42
701.742	20.03
702.147	21
702.552	21.25
702.957	20.34
703.362	20.3
703.767	20
704.172	17.78
704.577	16.27
704.981	15.13
705.386	16.44
705.791	16.12
706.195	15.05
706.6	15.12
707.004	13.81
707.408	13.42
707.813	14.59
708.217	14.97
708.621	14.67
709.025	14.47
709.43	16.61
709.834	16.53
710.237	16.55
710.641	17.61
711.045	18.78
711.449	19.74
711.853	23.59
712.256	22.62
712.66	22.74
713.064	23.4
713.467	25.52
713.87	25.3
714.274	25.54
714.677	26.38
715.08	26.92
715.484	26.9
715.887	29.59
716.29	26.58
716.693	27.85
717.096	29.92
717.499	30.32
717.901	28.4
718.304	27.98
718.707	26.89
719.109	26.17
719.512	24.1
719.915	26.36
720.317	24.74
720.719	23.99
721.122	24.06
721.524	22.89
721.926	25.92
722.328	27
722.731	25.75
723.133	25.69
723.535	25.68
723.937	26.44
724.338	25.34
724.74	26.2
725.142	67.91
725.544	69.81
725.945	80.02
726.347	76.87
726.748	77.45
727.15	79.43
727.551	82.79
727.952	81.6
728.354	80.92
728.755	80.48
729.156	78.96
729.557	38.73
729.958	36.49
730.359	25.98
730.76	25.27
731.161	24.12
731.562	23.06
731.962	19.73
732.363	21.24
732.763	21.43
733.164	19.09
733.564	19.81
733.965	20.54
734.365	19.44
734.766	20.15
735.166	19.73
735.566	21.77
735.966	22.37
736.366	23.28
736.766	21.83
737.166	21.17
737.566	21.97
737.966	20.78
738.365	21.13
738.765	21.78
739.165	21.54
739.564	21.61
739.964	19.44
740.363	17.24
740.763	15.8
741.162	17.59
741.561	18.04
741.96	18.86
742.36	19.37
742.759	19.02
743.158	17.98
743.557	17.15
743.955	17.05
744.354	16.66
744.753	16.81
745.152	18.37
745.55	17.36
745.949	17.38
746.348	17.05
746.746	15.84
747.144	17.36
747.543	17.52
747.941	17.8
748.339	18.03
748.737	19.25
749.136	20.95
749.534	19.17
749.932	20.58
750.33	20.47
750.727	19.71
751.125	20.97
751.523	19.9
751.921	23.6
752.318	24.15
752.716	25.77
753.113	25.38
753.511	25.03
753.908	26.75
754.305	29.34
754.703	30.43
755.1	32.42
755.497	33.15
755.894	32.43
756.291	29.08
756.688	30.21
757.085	30.82
757.482	34.46
757.878	38.33
758.275	40.77
758.672	36.19
759.068	36.29
759.465	34.47
759.861	34.66
760.258	37.86
760.654	42.6
761.05	44.01
761.447	39.57
761.843	35.15
762.239	32.67
762.635	29.13
763.031	27
763.427	26.7
763.822	29.28
764.218	28.47
764.614	27.23
765.01	24.8
765.405	23.62
765.801	25.5
766.196	24.73
766.592	22.86
766.987	24.8
767.382	25.63
767.778	24.93
768.173	23.55
768.568	24.19
768.963	24.69
769.358	25.99
769.753	27.2
770.148	26.9
770.542	26.9
770.937	27.45
771.332	27.23
771.726	26.84
772.121	29.35
772.515	30.33
772.91	29.5
773.304	30.33
773.699	29.87
774.093	29.01
774.487	29.57
774.881	28.98
775.275	29.33
775.669	28.22
776.063	29.32
776.457	28.08
776.851	26.59
777.245	27.56
777.638	27.64
778.032	27.31
778.425	28.05
778.819	30.67
779.212	32.91
779.606	34.91
779.999	34.2
780.392	34.76
780.786	34.27
781.179	34.88
781.572	35.9
781.965	36.38
782.358	37.99
782.751	37.41
783.143	34.39
783.536	33.05
783.929	31.13
784.322	32.14
784.714	31.06
785.107	33.08
785.499	34.67
785.891	35.16
786.284	34.13
786.676	32.33
787.068	34.64
787.46	35.68
787.852	34.99
788.245	34.92
788.636	33.21
789.028	35.04
789.42	34.87
789.812	35.51
790.204	34.35
790.595	37.49
790.987	38.83
791.378	36.99
791.77	35.47
792.161	34.91
792.553	35.01
792.944	37.05
793.335	35.56
793.726	36.54
794.117	37.65
794.508	35.52
794.899	32.1
795.29	30.72
795.681	31.99
796.072	31.17
796.463	48.01
796.853	52.87
797.244	54.18
797.634	54.75
798.025	54.07
798.415	50.58
798.806	53.46
799.196	56.04
799.586	59.16
799.976	58.73
800.366	59.43
800.756	42.68
801.146	38.49
801.536	38.06
801.926	36.99
802.316	36.26
802.706	38.25
803.095	38.11
803.485	36.63
803.874	34.5
804.264	34.25
804.653	36.94
805.043	40.24
805.432	42.97
805.821	45.03
806.21	47.23
806.599	46.27
806.988	46.34
807.377	43.12
807.766	42.94
808.155	44.34
808.544	42.12
808.933	41.95
809.321	42.35
809.71	40.09
810.098	37.5
810.487	34.92
810.875	37.41
811.264	38.56
811.652	50.85
812.04	52.44
812.428	52.86
812.816	54.73
813.204	57.12
813.592	55.36
813.98	56.32
814.368	63.21
814.756	66.57
815.144	65.88
815.531	67.8
815.919	56.84
816.306	56.94
816.694	56.64
817.081	58.44
817.469	55.74
817.856	54.02
818.243	50.3
818.63	44.17
819.017	44.3
819.404	45.95
819.791	44.66
820.178	43.69
820.565	44.37
820.952	53.64
821.339	54.05
821.725	57.8
822.112	59.14
822.498	64.06
822.885	61.33
823.271	61.93
823.657	56.87
824.044	55.74
824.43	55.04
824.816	63.76
825.202	56.53
825.588	55.86
825.974	57.98
826.36	58.67
826.746	58.07
827.132	59.8
827.517	61.41
827.903	62.28
828.289	68.46
828.674	68.35
829.06	62.17
829.445	60.21
829.83	59.54
830.216	56.29
830.601	56.53
830.986	63.02
831.371	65.46
831.756	64.79
832.141	71.56
832.526	67.68
832.911	68.74
833.295	65.15
833.68	65.46
834.065	68.98
834.449	66.52
834.834	67.93
835.218	63.41
835.603	66.67
835.987	64.52
836.371	62.15
836.755	62.07
837.139	59.88
837.524	58.32
837.908	58.56
838.291	60.12
838.675	57.27
839.059	58.27
839.443	52.47
839.827	46.69
840.21	46.2
840.594	47.22
840.977	49.85
841.361	50.41
841.744	49.65
842.127	49.56
842.511	45.88
842.894	45.11
843.277	44.66
843.66	45.74
844.043	45.95
844.426	48.78
844.809	43.45
845.191	40.48
845.574	40.8
845.957	42.96
846.339	44.81
846.722	46.03
847.104	47.38
847.487	42.17
847.869	44.26
848.252	48.59
848.634	48.97
849.016	48.71
849.398	46.88
849.78	48.53
850.162	48.58
850.544	46.1
850.926	41.75
851.307	41.1
851.689	47.91
852.071	45.85
852.452	46.32
852.834	45.79
853.215	49.64
853.597	53.9
853.978	57.27
854.359	59.93
854.741	63.22
855.122	62.33
855.503	62.42
855.884	58.36
856.265	60.01
856.646	52.65
857.026	53.11
857.407	53.51
857.788	48.99
858.169	43.6
858.549	48.56
858.93	47.39
859.31	52.65
859.69	54.45
860.071	56.21
860.451	56.86
860.831	56.96
861.211	53.21
861.591	48.85
861.971	45.66
862.351	48.08
862.731	40.57
863.111	39.91
863.491	40.81
863.87	44.89
864.25	42.56
864.629	47.8
865.009	52.05
865.388	58.83
865.768	62.79
866.147	71.22
866.526	70.23
866.905	73.91
867.284	71.39
867.663	66.83
868.042	57.16
868.421	54.53
868.8	47.85
869.179	49.87
869.558	43.08
869.936	46.04
870.315	45.47
870.693	48.19
871.072	44.58
871.45	44.14
871.828	45.12
872.207	51.35
872.585	54.47
872.963	51.16
873.341	54.85
873.719	63.26
874.097	60.03
874.475	57.11
874.853	54.45
875.23	57.3
875.608	58.53
875.986	60.74
876.363	62.8
876.741	75.48
877.118	86.71
877.495	87.56
877.873	83.12
878.25	88.82
878.627	88.99
879.004	88.55
879.381	89.37
879.758	96.28
880.135	92.21
880.512	89.44
880.889	68.45
881.265	64.59
881.642	56.01
882.019	54.96
882.395	60.71
882.772	69.14
883.148	69.95
883.524	67.11
883.901	61.15
884.277	56.67
884.653	57.8
885.029	72.7
885.405	87.49
885.781	93.39
886.157	90.48
886.532	79.71
886.908	71.07
887.284	75.64
887.659	82.51
888.035	87.59
888.411	87.25
888.786	95.56
889.161	88.38
889.537	71.98
889.912	71.66
890.287	74.4
890.662	78.04
891.037	70.27
891.412	65.96
891.787	56.78
892.162	57.04
892.536	60.16
892.911	54.07
893.286	50.31
893.66	50.65
894.035	52.87
894.409	47.13
894.784	49.11
895.158	57.51
895.532	59.48
895.906	66.92
896.281	65.2
896.655	69.76
897.029	75.72
897.402	81.75
897.776	83.16
898.15	78.82
898.524	85.65
898.898	88
899.271	95.16
899.645	87.09
900.018	80.02
900.392	83.46
900.765	77.79
901.138	78.39
901.511	70.5
901.884	77.31
902.258	79.46
902.631	87.01
903.003	96.09
903.376	86.21
903.749	92.55
904.122	93.69
904.495	93.14
904.867	92.55
905.24	80.78
905.612	77.69
905.985	70.55
906.357	64.66
906.729	62.94
907.102	52.71
907.474	62.11
907.846	66.87
908.218	67.88
908.59	77.72
908.962	79.17
909.334	87.3
909.705	99.62
910.077	100.11
910.449	100.57
910.82	102.87
911.192	114.73
911.563	111.94
911.935	108.84
912.306	95.83
912.677	80.76
913.048	86.54
913.419	87.27
913.79	87.58
914.161	103.23
914.532	119.45
914.903	111.04
915.274	103.87
915.645	99.72
916.015	85.81
916.386	98.59
916.756	113.94
917.127	109.52
917.497	107.65
917.868	116.13
918.238	109.78
918.608	107.26
918.978	107.05
919.348	106.76
919.718	111.81
920.088	131.12
920.458	139.49
920.828	132.16
921.198	128.39
921.567	127.03
921.937	110.39
922.306	93.85
922.676	89.73
923.045	92.11
923.415	97.34
923.784	88.38
924.153	89.73
924.522	93.08
924.891	94.53
925.26	102.45
925.629	93.48
925.998	100.74
926.367	108.13
926.736	128.28
927.104	137.31
927.473	132.72
927.842	151.87
928.21	134.89
928.578	112.66
928.947	112.83
929.315	112.67
929.683	152.17
930.051	132.59
930.42	153.55
930.788	107.49
931.156	95.07
931.523	140.98
931.891	152.82
932.259	154.97
932.627	197.65
932.994	232.28
933.362	233.06
933.729	201.17
934.097	202.42
934.464	177.82
934.831	189.21
935.199	185.81
935.566	144.08
935.933	99.38
936.3	135.15
936.667	118.97
937.034	184.95
937.401	155.55
937.767	135.66
938.134	122.02
938.501	139.78
938.867	174.88
939.234	280.03
939.6	209.87
939.967	309.5
940.333	228.69
940.699	185.12
941.065	98.32
941.431	149.16
941.798	221.48
942.163	343.96
942.529	234.1
942.895	204.83
943.261	153.46
943.627	229.86
943.992	216.6
944.358	195.76
944.723	220.7
945.089	202.2
945.454	172.13
945.82	139.98
946.185	110.06
946.55	145.54
946.915	126.81
947.28	151.76
947.645	129.8
948.01	141.26
948.375	164.2
948.74	158.66
949.104	177.31
949.469	194.28
949.834	334.62
950.198	450.59
950.562	263.94
950.927	235.56
951.291	249.16
951.655	212.82
952.02	135.15
952.384	105.97
952.748	138.92
953.112	167.59
953.476	173.87
953.839	161.85
954.203	164.21
954.567	188.65
954.931	259.01
955.294	252.82
955.658	247.1
956.021	440.67
956.385	643.78
956.748	800.68
957.111	1032.9
957.474	1087.45
957.837	1107.62
958.2	584.89
958.563	236.44
958.926	183.45
959.289	198.78
959.652	233.91
960.015	193.92
960.377	273.41
960.74	301.16
961.102	335.41
961.465	574.71
961.827	673.4
962.189	1272.55
962.552	968.49
962.914	766.78
963.276	500.03
963.638	420.18
964	366.88
964.362	268.43
964.724	253.93
965.085	225.51
965.447	182.05
965.809	129.26
966.17	118.04
966.532	90.92
966.893	85.82
967.255	80.42
967.616	70.66
967.977	75.37
968.338	80.35
968.699	83.8
969.061	68.74
969.421	65.43
969.782	57.69
970.143	70.74
970.504	117.79
970.865	135.46
971.225	166.52
971.586	175.77
971.946	225.67
972.307	203.45
972.667	220.21
973.027	247.72
973.388	268.05
973.748	210.19
974.108	232.48
974.468	217.31
974.828	225.48
975.188	146.98
975.548	138.35
975.907	132.42
976.267	134.22
976.627	139.19
976.986	137.98
977.346	123.95
977.705	128.5
978.064	107.95
978.424	108.03
978.783	88.03
979.142	91.12
979.501	85.81
979.86	89.34
980.219	77.05
980.578	69.5
980.937	47.13
981.296	59.98
981.654	47.72
982.013	46.86
982.371	79.54
982.73	74.76
983.088	97.35
983.447	84.09
983.805	93.93
984.163	222.21
984.521	222.09
984.879	520.18
985.237	-855.61
985.595	1269.47
985.953	301.17
986.311	76.95
986.669	94.6
987.026	86.05
987.384	98.28
987.741	91.16
988.099	145.16
988.456	151.34
988.814	166.68
989.171	151.68
989.528	111.6
989.885	104.88
990.242	125.06
990.599	106.63
990.956	90.46
991.313	83.7
991.67	71.12
992.027	105.49
992.383	96.1
992.74	86.43
993.096	95.05
993.453	101.62
993.809	117.18
994.165	133.09
994.522	184
994.878	193.9
995.234	227.25
995.59	228.44
995.946	143.32
996.302	153.54
996.658	184
997.013	175.67
997.369	256.04
997.725	337.91
998.08	230.9
998.436	168.89
998.791	250.23
999.147	307.04
999.502	361.38
999.857	268.96
1000.212	406.77
1000.567	559.93
1000.922	444.91
1001.277	251.05
1001.632	192.11
1001.987	248.86
1002.342	190.41
1002.696	191.67
1003.051	175.21
1003.406	205.73
1003.76	190.28
1004.114	210.04
1004.469	175.69
1004.823	136.34
1005.177	146.74
1005.531	124.69
1005.885	123.88
1006.239	153.25
1006.593	187.34
1006.947	235.12
1007.301	177.22
1007.655	204.97
1008.008	166.09
1008.362	194.81
1008.715	261.17
1009.069	234.85
1009.422	392.95
1009.776	682.63
1010.129	440.8
1010.482	329.4
1010.835	206.24
1011.188	364.04
1011.541	327.73
1011.894	-1298.25
1012.247	2894.31
1012.6	183.35
1012.952	112.47
1013.305	8.55
1013.657	31.38
1014.01	12.18
1014.362	16.34
1014.715	80.3
1015.067	96.77
1015.419	93.4
1015.771	105.23
1016.123	112.26
1016.475	121.97
1016.827	132.35
1017.179	167.64
1017.531	150.03
1017.883	154.22
1018.234	197.65
1018.586	232.69
1018.938	269.66
1019.289	427.15
1019.64	428.09
1019.992	373.97
1020.343	327.96
1020.694	313.09
1021.045	261.5
1021.396	308.71
1021.747	355.55
1022.098	355.21
1022.449	239.44
1022.8	216.72
1023.151	157.99
1023.501	166.51
1023.852	179.15
1024.202	200.37
1024.553	182.23
1024.903	200.98
1025.253	198.59
1025.604	202.01
1025.954	255.54
1026.304	310.94
1026.654	356.09
1027.004	449.25
1027.354	666.61
1027.703	677.06
1028.053	812.49
1028.403	1268.74
1028.753	1554.84
1029.102	1695.35
1029.452	5751.72
1029.801	174.79
1030.15	96.68
1030.499	38.19
897.758	1552.82
901.051	1495.02
904.343	1525.13
907.636	1527.32
910.928	1571.53
914.22	1516.17
917.511	1521.71
920.803	1554.61
924.094	1545.46
927.384	1552.52
930.675	1525.52
933.965	1501.95
937.255	1529.25
940.544	1506.85
943.834	1503.17
947.123	1462.18
950.411	1523.91
953.7	1513.38
956.988	1501.44
960.276	1451.29
963.563	1480.03
966.851	1488.33
970.138	1515.11
973.424	1515.09
976.711	1480.24
979.997	1514.47
983.283	1541.87
986.568	1497.42
989.853	1484.61
993.138	1501.39
996.423	1567.74
999.708	1540
1002.992	1558.12
1006.275	1495.1
1009.559	1497.43
1012.842	1562.41
1016.125	1533.01
1019.408	1517.17
1022.69	1552.1
1025.972	1574.71
1029.254	1558
1032.536	1534.65
1035.817	1538.44
1039.098	1516.93
1042.379	1549.21
1045.659	1566.38
1048.939	1530.48
1052.219	1528.64
1055.498	1522.29
1058.778	1514.54
1062.057	1498.99
1065.335	1517.38
1068.614	1520.98
1071.892	1514.5
1075.17	1550.67
1078.447	1553.43
1081.724	1549.86
1085.001	1563.08
1088.278	1547.51
1091.554	1549.87
1094.83	1548.38
1098.106	1571.11
1101.382	1588.57
1104.657	1586.05
1107.932	1586.79
1111.206	1572.53
1114.481	1539.21
1117.755	1539.89
1121.029	1536.55
1124.302	1577.63
1127.575	1555.94
1130.848	1556.32
1134.121	1537.47
1137.393	1508.85
1140.665	1549.32
1143.937	1534.25
1147.208	1498.51
1150.48	1538.12
1153.75	1529.38
1157.021	1531.13
1160.291	1515.45
1163.561	1551.21
1166.831	1524.76
1170.101	1538.93
1173.37	1511.97
1176.639	1485.71
1179.907	1517.41
1183.176	1529.45
1186.444	1532.92
1189.711	1548.22
1192.979	1565.55
1196.246	1536.14
1199.513	1546.56
1202.78	1550.17
1206.046	1557.69
1209.312	1577.51
1212.578	1585.02
1215.843	1559.13
1219.108	1543.12
1222.373	1555.08
1225.638	1539.51
1228.902	1529.84
1232.166	1504.4
1235.43	1495.26
1238.693	1516.69
1241.956	1511.85
1245.219	1546.98
1248.482	1535.76
1251.744	1537.9
1255.006	1614.09
1258.268	1579.66
1261.529	1554.57
1264.79	1553.49
1268.051	1615.65
1271.312	1622.7
1274.572	1597.6
1277.832	1589.91
1281.092	1573.24
1284.351	1569.66
1287.61	1559.77
1290.869	1519.83
1294.128	1519.81
1297.386	1545.33
1300.644	1541.47
1303.902	1549.34
1307.159	1460.34
1310.416	1494.99
1313.673	1511.01
1316.93	1516.06
1320.186	1532.39
1323.442	1551.99
1326.697	1554.68
1329.953	1537.07
1333.208	1561.64
1336.463	1546.77
1339.717	1525.32
1342.972	1599.83
1346.226	1578
1349.479	1552.26
1352.733	1535.66
1355.986	1545.12
1359.238	1533.99
1362.491	1536.69
1365.743	1536.68
1368.995	1533.44
1372.247	1544.1
1375.498	1554.8
1378.749	1581.08
1382	1556.33
1385.251	1574.79
1388.501	1546.23
1391.751	1544.97
1395	1527.95
1398.25	1544.67
1401.499	1564.53
1404.748	1533.56
1407.996	1521.23
1411.244	1517.83
1414.492	1509.41
1417.74	1497.97
1420.987	1504.82
1424.234	1545.17
1427.481	1519.18
1430.728	1554.52
1433.974	1541.52
1437.22	1539.32
1440.465	1533.08
1443.711	1536.66
1446.956	1548.7
1450.201	1530.94
1453.445	1560.62
1456.689	1550.98
1459.933	1559.19
1463.177	1585.72
1466.42	1569.41
1469.663	1555.13
1472.906	1566.35
1476.148	1598.74
1479.391	1568.05
1482.633	1554.41
1485.874	1570.1
1489.115	1575.98
1492.356	1563.75
1495.597	1546.16
1498.838	1539.9
1502.078	1531.06
1505.318	1516.42
1508.557	1535.27
1511.797	1533.32
1515.036	1570.07
1518.274	1543.48
1521.513	1503.87
1524.751	1510.22
1527.989	1525.12
1531.227	1538.29
1534.464	1543.62
1537.701	1536.31
1540.938	1540.98
1544.174	1505.86
1547.41	1495.6
1550.646	1520.2
1553.882	1549.21
1557.117	1594.11
1560.352	1594.88
1563.587	1565.93
1566.821	1545.71
1570.055	1558.39
1573.289	1540.54
1576.523	1576.41
1579.756	1582.74
1582.989	1598.03
1586.222	1569.15
1589.454	1591.37
1592.686	1580.12
1595.918	1597.77
1599.15	1595.61
1602.381	1625.97
1605.612	1614.79
1608.843	1675.35
1612.073	1623.6
1615.303	1618.86
1618.533	1616.69
1621.762	1615.87
1624.992	1595.94
1628.221	1595.14
1631.449	1588.84
1634.678	1605.17
1637.906	1578.06
1641.134	1593.59
1644.361	1572.18
1647.588	1565.84
1650.815	1582.77
1654.042	1556.17
1657.269	1572.28
1660.495	1561.81
1663.72	1551.24
1666.946	1530.34
1670.171	1518.78
1673.396	1501.77
1676.621	1489.95
1679.845	1487.46
1683.069	1488.89
1686.293	1505.55
1689.517	1501.22
1692.74	1474.07
1695.963	1488.66
1699.185	1513.64
1702.408	1496.37
1705.63	1514.12
1708.852	1527.88
1712.073	1506.05
1715.294	1517.87
1718.515	1552.05
1721.736	1523.85
1724.956	1514.49
1728.176	1530.38
1731.396	1541.15
1734.616	1537.37
1737.835	1567.54
1741.054	1544.69
1744.272	1541.32
1747.491	1571.77
1750.709	1584.17
1753.927	1553.78
1757.144	1571.84
1760.361	1608.91
1763.578	1590.72
1766.795	1558.81
1770.011	1548.57
1773.227	1562.39
1776.443	1593.45
1779.658	1620.07
1782.874	1581.83
1786.089	1576.24
1789.303	1576.52
1792.518	1576.93
1795.732	1570.08
1798.945	1577.54
1802.159	1608.42
1805.372	1573.08
1808.585	1568.54
1811.797	1568.25
1815.01	1584.27
1818.222	1604.22
1821.434	1576.08
1824.645	1603.58
1827.856	1609.02
1831.067	1626.3
1834.278	1588.97
1837.488	1577.36
1840.698	1656.32
1843.908	1624.57
1847.117	1606.61
1850.326	1560.92
1853.535	1597.05
1856.744	1626.72
1859.952	1574.59
1863.16	1577.74
1866.368	1594.09
1869.575	1672.27
1872.782	1594.37
1875.989	1553.75
1879.196	1585.87
1882.402	1580.74
1885.608	1601.44
1888.814	1567.75
1892.019	1508.68
1895.224	1549.88
1898.429	1525.39
1901.634	1513.42
1904.838	1500.44
1908.042	1540.84
1911.246	1553.42
1914.449	1530.02
1917.652	1517.72
1920.855	1504.11
1924.058	1518.83
1927.26	1552.85
1930.462	1564.54
1933.664	1593.88
1936.865	1558.81
1940.066	1566.52
1943.267	1529.39
1946.467	1536.98
1949.668	1546.1
1952.868	1594.33
1956.067	1594.75
1959.267	1551.63
1962.466	1568.83
1965.665	1554.94
1968.863	1552.39
1972.061	1548.62
1975.259	1542.88
1978.457	1595.96
1981.654	1564.73
1984.852	1566.64
1988.048	1539.37
1991.245	1526.91
1994.441	1588.49
1997.637	1552.08
2000.833	1543.69
2004.028	1565.87
2007.223	1613.98
2010.418	1605.25
2013.613	1568.41
2016.807	1568.53
2020.001	1564.68
2023.194	1576.07
2026.388	1563.84
2029.581	1527.46
2032.774	1574.95
2035.966	1579.44
2039.158	1544.15
2042.35	1554.6
2045.542	1503.63
2048.733	1558.32
2051.924	1546.64
2055.115	1556.23
2058.306	1536.58
2061.496	1572.04
2064.686	1604.82
2067.875	1538.43
2071.065	1538.34
2074.254	1549.99
2077.442	1518.81
2080.631	1576.9
2083.819	1537.34
2087.007	1532.81
2090.195	1523.7
2093.382	1527.91
2096.569	1523.23
2099.756	1496.21
2102.942	1535.26
2106.128	1543.87
2109.314	1537.28
2112.5	1530.57
2115.685	1505.3
2118.87	1510.06
2122.055	1555.66
2125.239	1541.69
2128.424	1534.76
2131.608	1568.73
2134.791	1557.75
2137.974	1581.61
2141.157	1573.38
2144.34	1557.32
2147.523	1545.65
2150.705	1569.18
2153.887	1542.53
2157.068	1526.36
2160.25	1508.57
2163.431	1525.37
2166.611	1507.04
2169.792	1523.42
2172.972	1459.85
2176.152	1497.54
2179.331	1512.07
2182.511	1514.55
2185.69	1527.41
2188.868	1529.64
2192.047	1553.8
2195.225	1574.01
2198.403	1533.63
2201.58	1525.62
2204.758	1511.38
2207.935	1563.87
2211.111	1508.47
2214.288	1499.88
2217.464	1523.2
2220.64	1493.96
2223.815	1529.43
2226.991	1478.3
2230.166	1486.76
2233.34	1520.96
2236.515	1527.45
2239.689	1575.71
2242.863	1539.92
2246.036	1574.76
2249.209	1563.61
2252.382	1577.35
2255.555	1582.86
2258.727	1552.28
2261.9	1574.54
2265.071	1569.9
2268.243	1568.73
2271.414	1534.76
2274.585	1523.59
2277.756	1565.89
2280.926	1538.23
2284.096	1557.65
2287.266	1512.65
2290.436	1546.69
2293.605	1556.22
2296.774	1582.81
2299.942	1587.08
2303.111	1598.08
2306.279	1635.47
2309.447	1626.79
2312.614	1608.71
2315.781	1622.16
2318.948	1607.01
2322.115	1632.11
2325.281	1556.71
2328.447	1563.83
2331.613	1541.18
2334.779	1537.52
2337.944	1532.73
2341.109	1534.66
2344.274	1527.9
2347.438	1504.67
2350.602	1520.37
2353.766	1525.57
2356.929	1518.97
2360.092	1547.91
2363.255	1525.52
2366.418	1510.31
2369.58	1537.96
2372.742	1513.14
2375.904	1495.88
2379.066	1490.21
2382.227	1508.95
2385.388	1481.26
2388.548	1451.26
2391.709	1475.17
2394.869	1473.17
2398.029	1504.78
2401.188	1494.41
2404.347	1481.95
2407.506	1480.32
2410.665	1522.22
2413.823	1504.1
2416.981	1491.44
2420.139	1502.7
2423.296	1529.56
2426.453	1512.09
2429.61	1525.81
2432.767	1511.92
2435.923	1539.28
2439.079	1498.71
2442.235	1523.43
2445.391	1479.66
2448.546	1514.79
2451.701	1537.62
2454.855	1537.27
2458.009	1552.51
2461.163	1542.95
2464.317	1522.27
2467.471	1539.7
2470.624	1562.48
2473.777	1557.02
2476.929	1569.23
2480.082	1585.05
2483.234	1570.63
2486.385	1528.73
2489.537	1523.41
2492.688	1520.71
2495.839	1536.71
2498.989	1546.51
2502.14	1536.76
2505.29	1530
2508.439	1547.1
2511.589	1508.25
2514.738	1509.28
2517.887	1520.07
2521.035	1574.95
2524.183	1542.19
2527.331	1536.54
2530.479	1530.82
2533.627	1533.4
