Data from N_1_DEC_CT_2N_Splice17_11-34-27-182.txt Node
Date: Sat Mar 14 11:34:27 EDT 2020
User: sa697716
Spectrometer: FLMS03696
Trigger mode: 0
Integration Time (sec): 3.180400E-1
Scans to average: 20
Electric dark correction enabled: true
Nonlinearity correction enabled: true
Boxcar width: 5
XAxis mode: Wavelengths
Number of Pixels in Spectrum: 2048
>>>>>Begin Spectral Data<<<<<
187.83	-167418.12
188.298	1350.08
188.766	780.68
189.233	672.17
189.701	967.12
190.169	1263.95
190.636	427.29
191.104	293.56
191.571	-11.53
192.039	-61.56
192.506	-58.54
192.974	287.11
193.441	-255.14
193.908	149.9
194.375	79.31
194.842	58.61
195.31	109.33
195.777	119.99
196.244	205.46
196.711	82.13
197.177	96.46
197.644	66.63
198.111	79.52
198.578	81.26
199.045	53.8
199.511	38.51
199.978	46.81
200.445	58.14
200.911	46.49
201.378	-7.35
201.844	71.06
202.31	36.53
202.777	25.57
203.243	26.48
203.709	10.08
204.176	14.93
204.642	12.68
205.108	3.13
205.574	-4.4
206.04	-25.92
206.506	-24.54
206.972	-54.69
207.438	-61.03
207.903	-71.97
208.369	-51.42
208.835	-33.39
209.301	-42.39
209.766	-58.28
210.232	-59.72
210.697	-109.62
211.163	-142.89
211.628	-252.64
212.094	-162.33
212.559	-70.97
213.024	-43.39
213.49	-32.08
213.955	-51.54
214.42	-86.83
214.885	-62.54
215.35	-45.78
215.815	42.57
216.28	35.59
216.745	45.65
217.21	60.6
217.675	2.74
218.14	19.21
218.604	2.99
219.069	14.44
219.534	57.72
219.998	40.3
220.463	50.38
220.927	-8.87
221.392	-1.74
221.856	-3.91
222.32	-51.81
222.785	-39.66
223.249	-63.29
223.713	-83.6
224.177	-79.76
224.642	-180.33
225.106	-216.5
225.57	-268.67
226.034	-164.55
226.497	-229.92
226.961	-145.96
227.425	-85.19
227.889	-94.74
228.353	-82.05
228.816	-227.5
229.28	-170.84
229.744	-87.3
230.207	14.1
230.671	64.74
231.134	0.16
231.597	33.64
232.061	-63.64
232.524	-167.73
232.987	-114.65
233.45	-95.13
233.914	-72.94
234.377	-127.04
234.84	-129.18
235.303	-225.2
235.766	-269.92
236.229	-256.2
236.691	-170.4
237.154	-201.34
237.617	-120.74
238.08	-153.47
238.542	-200.95
239.005	-124.46
239.468	-104.19
239.93	-83.91
240.393	-58.15
240.855	-52.15
241.317	-76.93
241.78	-115.51
242.242	-104.47
242.704	-91.82
243.166	-54.46
243.629	-14.47
244.091	-24.08
244.553	-23.44
245.015	-10.26
245.477	-20.12
245.939	-57.44
246.4	-11.03
246.862	-9.21
247.324	-6.94
247.786	-24.86
248.247	-75.74
248.709	-239.11
249.17	-150.13
249.632	-83.11
250.093	-60.24
250.555	-40.6
251.016	23.01
251.477	17.74
251.939	30.18
252.4	10.29
252.861	-35.3
253.322	-13.56
253.783	-5.01
254.244	-56.44
254.705	-96.48
255.166	-133.3
255.627	-149.71
256.088	-218.45
256.549	-224.17
257.009	-185.32
257.47	-228.24
257.931	-177.01
258.391	-105.87
258.852	-122.23
259.312	-110.1
259.773	-137.09
260.233	-64.78
260.694	-15.89
261.154	-23.04
261.614	28.82
262.074	15.61
262.534	40
262.994	47.5
263.455	36.9
263.915	68.17
264.374	60.14
264.834	83.06
265.294	57.62
265.754	56.09
266.214	37.18
266.673	27.06
267.133	21.91
267.593	-0.82
268.052	-6.87
268.512	-17.8
268.971	21.07
269.431	18.01
269.89	-19
270.349	-4.6
270.809	7.95
271.268	7.74
271.727	-218.63
272.186	-116.59
272.645	-63.38
273.104	-94.26
273.563	-138.06
274.022	-214.26
274.481	-120.89
274.94	-74.39
275.399	-75.59
275.857	-133.99
276.316	-204.76
276.775	-160.02
277.233	-162.54
277.692	-143.75
278.15	-140.67
278.609	-110.88
279.067	-84.94
279.525	-83.36
279.984	-148.23
280.442	-158.92
280.9	-49.96
281.358	-19.25
281.816	-6.89
282.274	-5
282.732	-51.85
283.19	-53.34
283.648	-62.32
284.106	-87.34
284.564	-110.63
285.021	-77.54
285.479	-71.09
285.937	-96.65
286.394	-70.4
286.852	-89.35
287.309	-101.17
287.767	-46.54
288.224	-34.2
288.682	-50.33
289.139	-29.5
289.596	-18.55
290.053	-44
290.511	-64.25
290.968	-65.45
291.425	-134.32
291.882	-73.06
292.339	-32.01
292.796	-82.77
293.252	-84.25
293.709	-34.56
294.166	-35
294.623	-58.76
295.079	-49.07
295.536	-18.03
295.992	-8.01
296.449	6
296.905	15.24
297.362	26.62
297.818	23.54
298.274	32.6
298.731	19.09
299.187	2.5
299.643	7.15
300.099	18.01
300.555	-4.38
301.011	12.3
301.467	76.69
301.923	57.08
302.379	64.55
302.835	53.41
303.291	49.39
303.746	36.96
304.202	44.67
304.658	32.73
305.113	21.01
305.569	32.44
306.024	1.5
306.479	-85.43
306.935	-54.67
307.39	-93.27
307.845	-79.21
308.301	-57.33
308.756	-49.63
309.211	-32.36
309.666	-20.11
310.121	9.84
310.576	-17.64
311.031	-61.25
311.486	-91.11
311.94	-118.52
312.395	-196.85
312.85	-406.88
313.305	-3085.79
313.759	-12059.31
314.214	-911.49
314.668	-831.09
315.123	-700.76
315.577	-187.23
316.032	-111.28
316.486	-135.54
316.94	-59.5
317.394	-12.85
317.849	20.07
318.303	37.45
318.757	34.53
319.211	36.61
319.665	41.55
320.119	42.75
320.572	27.32
321.026	48.79
321.48	42.18
321.934	15.45
322.387	12.11
322.841	8.89
323.295	42.82
323.748	-12.26
324.202	-3.84
324.655	13.57
325.108	70.44
325.562	71.46
326.015	60.9
326.468	42.42
326.921	61.12
327.374	93.5
327.827	91.65
328.28	68.55
328.733	105.99
329.186	97.52
329.639	90.64
330.092	53.81
330.545	52.19
330.997	59.92
331.45	94.12
331.903	122.22
332.355	120.8
332.808	94.53
333.26	78.58
333.713	46.06
334.165	29.2
334.617	-22.95
335.069	-66.17
335.522	-203.23
335.974	-311.71
336.426	-395.45
336.878	-323.66
337.33	-124.19
337.782	-118.24
338.234	-139.39
338.686	-183.81
339.137	-223.78
339.589	-179.99
340.041	-119.3
340.493	-103.1
340.944	-79.56
341.396	-50.7
341.847	-4.09
342.299	10.81
342.75	47.76
343.201	13.5
343.653	16.53
344.104	-2.96
344.555	-19.59
345.006	-93.35
345.457	39.31
345.908	21.9
346.359	39.07
346.81	35.97
347.261	9.64
347.712	-10.44
348.163	-28.12
348.613	23.37
349.064	39.03
349.515	46.02
349.965	64.77
350.416	35.46
350.866	13.72
351.317	-20.3
351.767	-98.45
352.217	-107.59
352.668	-88.88
353.118	-49.03
353.568	-174.5
354.018	-104.67
354.468	-61.26
354.918	-11.81
355.368	-25.13
355.818	-3.99
356.268	-188.6
356.718	-127.29
357.168	29.27
357.617	1.41
358.067	-35.63
358.517	-11.34
358.966	-30.45
359.416	23.82
359.865	-31.94
360.315	-86.01
360.764	-55.01
361.213	2.19
361.663	-72.47
362.112	-143.72
362.561	-224.74
363.01	-165.53
363.459	-122.66
363.908	-146.2
364.357	-123.85
364.806	-277.25
365.255	-172.07
365.703	-151.2
366.152	-121.07
366.601	-63.08
367.05	-7.58
367.498	-2.52
367.947	-10.21
368.395	-30.78
368.844	-25.04
369.292	-86.38
369.74	-36.61
370.189	-107.04
370.637	-150.16
371.085	-155.6
371.533	-180.3
371.981	-221.75
372.429	-160.99
372.877	-135.63
373.325	-85.2
373.773	-103.71
374.221	-97.67
374.669	-127.33
375.116	-66.45
375.564	-42.91
376.012	-65.39
376.459	-47.42
376.907	-47.75
377.354	-133.29
377.801	-131.86
378.249	-140.39
378.696	-202.53
379.143	-210.39
379.591	-223.54
380.038	-425.49
380.485	-280.78
380.932	-264.89
381.379	-218.61
381.826	-76.34
382.273	-27.63
382.72	-14.96
383.166	-0.95
383.613	22.89
384.06	19.97
384.506	12.95
384.953	15.79
385.4	-0.99
385.846	-2.46
386.292	-19.8
386.739	-39.39
387.185	-42.74
387.631	-56.53
388.078	-51.25
388.524	-70.42
388.97	-59.36
389.416	-35.15
389.862	-36.33
390.308	-32.53
390.754	-30.06
391.2	-32.29
391.645	-41.83
392.091	-6.21
392.537	3.82
392.983	-11.58
393.428	29.52
393.874	28.76
394.319	38.46
394.765	60.36
395.21	68.31
395.655	70.87
396.101	62.47
396.546	60.71
396.991	31.62
397.436	29.35
397.881	27.53
398.326	2.64
398.771	10.39
399.216	-0.29
399.661	-8.4
400.106	-8.37
400.551	-7.3
400.995	1.14
401.44	-0.8
401.885	1.66
402.329	-0.39
402.774	2.11
403.218	14.91
403.663	10.53
404.107	14.94
404.551	20.11
404.995	15.19
405.44	13
405.884	12.5
406.328	9.54
406.772	11.8
407.216	14.18
407.66	13.67
408.104	5.93
408.547	3.41
408.991	4.22
409.435	2.57
409.879	8.21
410.322	9.31
410.766	6.73
411.209	12.55
411.653	10.85
412.096	13.19
412.54	12.75
412.983	12.46
413.426	19.5
413.869	14.98
414.312	17.07
414.756	11.91
415.199	10.16
415.642	13.66
416.085	11.21
416.527	10.45
416.97	7.25
417.413	7.26
417.856	6.39
418.298	3.18
418.741	2.6
419.184	-1.26
419.626	-3.68
420.069	-2.27
420.511	-3.59
420.953	1
421.396	0.47
421.838	0.67
422.28	1.36
422.722	4.67
423.164	1.99
423.606	3.6
424.048	2.82
424.49	6.36
424.932	3.76
425.374	2.81
425.816	-0.76
426.258	-1.01
426.699	-1.17
427.141	2.44
427.582	-1.2
428.024	-2.07
428.465	-5.19
428.907	-4.06
429.348	-5.37
429.789	-2.69
430.231	0.01
430.672	-0.03
431.113	3.56
431.554	3.21
431.995	-1.76
432.436	1.8
432.877	3.13
433.318	7.86
433.759	5.82
434.2	5.59
434.64	2.07
435.081	1.16
435.522	2.91
435.962	0.64
436.403	2.33
436.843	0.38
437.284	-1.63
437.724	-3.14
438.164	-7.02
438.604	-5.65
439.045	-2.98
439.485	3.61
439.925	2.79
440.365	1.85
440.805	2.81
441.245	4
441.685	6.79
442.125	5.1
442.564	5.98
443.004	7.02
443.444	6.44
443.883	6.49
444.323	0.78
444.762	-4.08
445.202	-5.84
445.641	-4.23
446.081	-6.39
446.52	-7.24
446.959	-5.4
447.398	-4.37
447.837	-4.47
448.276	-4.88
448.716	-4.56
449.154	-5.57
449.593	-0.82
450.032	1.05
450.471	-2.3
450.91	-3.57
451.349	-1.57
451.787	-2.25
452.226	-1.87
452.664	-2.71
453.103	-2.42
453.541	-4.4
453.98	-0.8
454.418	-1.63
454.856	-1.06
455.295	-0.59
455.733	0.98
456.171	-0.3
456.609	1.88
457.047	1.1
457.485	3.19
457.923	5.13
458.361	5.88
458.798	5.2
459.236	5.01
459.674	4.38
460.111	4.83
460.549	4.65
460.987	3.5
461.424	2.54
461.862	3.23
462.299	2.88
462.736	3.6
463.173	3.12
463.611	5.8
464.048	7.18
464.485	7.17
464.922	6.02
465.359	5.38
465.796	12.99
466.233	13.25
466.67	15.76
467.106	16.82
467.543	13.55
467.98	13.3
468.416	11.31
468.853	10.5
469.29	9.59
469.726	10.18
470.162	9.9
470.599	4.04
471.035	2.4
471.471	-0.17
471.907	-2.15
472.344	-1.38
472.78	-1.54
473.216	-3.9
473.652	-4.02
474.088	-4.37
474.523	-3.39
474.959	-2.96
475.395	-2.4
475.831	-0.93
476.266	-0.25
476.702	-0.47
477.138	0.21
477.573	0.03
478.008	1.06
478.444	1.64
478.879	3.1
479.314	3.21
479.75	3.57
480.185	3.27
480.62	2.39
481.055	1.92
481.49	2.55
481.925	2.66
482.36	4.76
482.795	4.17
483.229	3.35
483.664	3.61
484.099	2.87
484.534	2.65
484.968	3.06
485.403	3.3
485.837	2.85
486.271	3.13
486.706	2.32
487.14	0.94
487.574	1.92
488.009	1.82
488.443	0.76
488.877	1.75
489.311	1.35
489.745	1.34
490.179	1.71
490.613	3.29
491.046	2.83
491.48	3.12
491.914	3.45
492.348	3.34
492.781	4.06
493.215	4.24
493.648	3.06
494.082	3.29
494.515	3.59
494.948	3.77
495.382	2.84
495.815	3.2
496.248	4.07
496.681	3.65
497.114	2.56
497.547	3.02
497.98	4.22
498.413	6.02
498.846	6.21
499.279	5.32
499.711	4.57
500.144	4.2
500.577	4.97
501.009	4.03
501.442	5.39
501.874	6.51
502.306	6.12
502.739	7.56
503.171	6.8
503.603	7.36
504.036	7.64
504.468	8.43
504.9	8.63
505.332	7.63
505.764	8.29
506.196	7.75
506.627	8.39
507.059	8.82
507.491	6.64
507.923	6.69
508.354	6.62
508.786	6.23
509.217	5.82
509.649	6.36
510.08	6.65
510.512	7.39
510.943	7.33
511.374	7.06
511.805	6.43
512.237	6.58
512.668	6.39
513.099	5.34
513.53	5.66
513.961	5.83
514.391	5.47
514.822	7.24
515.253	7.09
515.684	7.11
516.114	7.01
516.545	7.69
516.975	7.65
517.406	7.4
517.836	7.86
518.267	8.51
518.697	9.63
519.127	9.82
519.558	8.32
519.988	7.77
520.418	7.35
520.848	7.06
521.278	6.94
521.708	35.97
522.138	37.35
522.567	37.24
522.997	37.23
523.427	36.69
523.857	36.72
524.286	36.92
524.716	37.38
525.145	38.26
525.575	38.98
526.004	38.65
526.433	10.7
526.863	9.34
527.292	10.88
527.721	11.52
528.15	11.32
528.579	11.84
529.008	12.03
529.437	11.27
529.866	11
530.295	10.7
530.724	11.56
531.152	11.55
531.581	12.75
532.01	11.84
532.438	11.36
532.867	11.15
533.295	11.66
533.723	11.56
534.152	12.14
534.58	12.39
535.008	12.88
535.436	13.72
535.865	13.1
536.293	12.53
536.721	12.35
537.149	12.29
537.576	13.26
538.004	12.88
538.432	12.38
538.86	13.17
539.287	13.07
539.715	12.84
540.143	11.5
540.57	11.98
540.998	11.57
541.425	13.42
541.852	13.32
542.28	13.12
542.707	13.33
543.134	13.85
543.561	12.83
543.988	12.66
544.415	12.26
544.842	12.32
545.269	12.72
545.696	13.29
546.123	12.27
546.549	12.32
546.976	12
547.403	12.03
547.829	11.98
548.256	12.14
548.682	12.24
549.108	12.96
549.535	12.59
549.961	11.82
550.387	11.79
550.813	13.24
551.24	13.91
551.666	14.27
552.092	13.29
552.518	13.46
552.943	14.07
553.369	14.08
553.795	13.69
554.221	14.21
554.646	14.38
555.072	15.24
555.498	13.1
555.923	12.32
556.349	11.67
556.774	12.08
557.199	11.8
557.625	11.21
558.05	11.36
558.475	11.26
558.9	11.6
559.325	11.99
559.75	11.69
560.175	12.15
560.6	12.3
561.025	11.98
561.449	12.28
561.874	11.56
562.299	12.49
562.723	12.44
563.148	12.14
563.572	11.44
563.997	11.08
564.421	9.98
564.846	9.58
565.27	9.66
565.694	10.03
566.118	9.86
566.542	10.65
566.966	9.85
567.39	9.46
567.814	10.14
568.238	10.42
568.662	9.78
569.086	10.35
569.509	10.09
569.933	11.03
570.357	10.23
570.78	10.2
571.204	11.11
571.627	10.91
572.05	11.37
572.474	12.07
572.897	12.06
573.32	13.59
573.743	13.06
574.166	13.86
574.589	12.54
575.012	13.65
575.435	12.73
575.858	11.8
576.281	12.53
576.704	11.58
577.126	10.46
577.549	10.25
577.972	8.69
578.394	9.03
578.817	10.37
579.239	10.2
579.661	10.06
580.084	12
580.506	12.66
580.928	11.64
581.35	11.97
581.772	11.8
582.194	11.97
582.616	12.05
583.038	11.06
583.46	9
583.882	8.96
584.303	8.18
584.725	7.07
585.147	10.62
585.568	11.06
585.99	11.98
586.411	12.61
586.833	12.53
587.254	13.14
587.675	13.47
588.096	14.45
588.518	14.77
588.939	15.14
589.36	15.8
589.781	10.52
590.202	12.94
590.623	12.13
591.043	11.14
591.464	11.24
591.885	11.56
592.305	11.43
592.726	10.63
593.147	9.92
593.567	9.85
593.987	8.73
594.408	8.96
594.828	6.28
595.248	6.61
595.669	7.7
596.089	6.73
596.509	6.26
596.929	6.41
597.349	6.94
597.769	7.29
598.189	7.47
598.608	7.72
599.028	7.5
599.448	7.26
599.867	7.13
600.287	6.22
600.706	6.82
601.126	7.28
601.545	7.78
601.965	7.19
602.384	7.81
602.803	7.48
603.222	7.59
603.641	7.56
604.061	7.99
604.48	8.1
604.898	8.07
605.317	8.25
605.736	7.6
606.155	7.71
606.574	7.6
606.992	7.17
607.411	7.26
607.829	6.71
608.248	6.57
608.666	6.29
609.085	5.94
609.503	5.97
609.921	6.22
610.339	6.39
610.758	5.39
611.176	5.35
611.594	5.75
612.012	6.09
612.43	7
612.847	7.13
613.265	7.82
613.683	7.59
614.101	7.46
614.518	6.27
614.936	6.16
615.353	6.92
615.771	7.57
616.188	7.26
616.606	6.9
617.023	6.32
617.44	6.53
617.857	5.57
618.274	5.5
618.691	6.27
619.108	7.29
619.525	7.07
619.942	7.44
620.359	7.31
620.776	7.33
621.192	7.75
621.609	8.49
622.026	8.88
622.442	9.27
622.859	8.86
623.275	8.53
623.691	7.72
624.108	7.95
624.524	7.22
624.94	7.44
625.356	7.02
625.772	6.09
626.188	5.1
626.604	4.36
627.02	4.19
627.436	4.65
627.852	5.49
628.268	6.29
628.683	6.28
629.099	6.06
629.514	5.08
629.93	5.28
630.345	5.7
630.761	5.28
631.176	5.94
631.591	7.98
632.007	8.49
632.422	7.29
632.837	6.27
633.252	6.68
633.667	7.05
634.082	7.77
634.497	7.91
634.911	9.22
635.326	10.28
635.741	10.28
636.155	8.81
636.57	9.95
636.984	9.79
637.399	11.31
637.813	10.53
638.228	10.36
638.642	9.63
639.056	9.53
639.47	8.27
639.884	7.43
640.298	6.93
640.712	7.57
641.126	6.3
641.54	6.07
641.954	3.59
642.368	3.83
642.781	6.16
643.195	6.24
643.609	6.8
644.022	6.89
644.436	6.55
644.849	5.79
645.262	4.38
645.676	3.41
646.089	3.85
646.502	5.79
646.915	5.82
647.328	4.88
647.741	5.1
648.154	4.7
648.567	6.54
648.98	7.19
649.393	7.91
649.805	8.75
650.218	9.24
650.631	9.27
651.043	9.57
651.456	9.74
651.868	8.62
652.28	7.49
652.693	6.22
653.105	4.69
653.517	4.65
653.929	5.37
654.341	5.16
654.753	5.93
655.165	5.44
655.577	4.68
655.989	4.55
656.401	3.45
656.813	5.15
657.224	5.94
657.636	4.86
658.047	5.21
658.459	4.33
658.87	2.54
659.282	2.01
659.693	3.1
660.104	3.46
660.515	2.69
660.926	2.63
661.338	2.13
661.749	1.28
662.159	2.1
662.57	1.17
662.981	0.92
663.392	1.22
663.803	1.44
664.213	0.2
664.624	-0.99
665.035	-0.78
665.445	-0.56
665.855	-0.32
666.266	1.9
666.676	1.44
667.086	1.31
667.497	2.48
667.907	3.5
668.317	2.97
668.727	6.11
669.137	6.46
669.547	6.28
669.956	5.76
670.366	5.28
670.776	4.28
671.186	4.54
671.595	4.61
672.005	2.84
672.414	3.02
672.824	3.37
673.233	-0.01
673.642	0.09
674.052	0.61
674.461	1.55
674.87	2.06
675.279	2.78
675.688	0.8
676.097	2.34
676.506	3.12
676.915	2.61
677.323	2.64
677.732	3.3
678.141	2.77
678.549	2.33
678.958	1.63
679.366	0.37
679.775	-1.13
680.183	2.3
680.592	0.86
681	0.57
681.408	0.5
681.816	0.41
682.224	-0.47
682.632	1.23
683.04	1.96
683.448	2.1
683.856	3.64
684.264	4.73
684.671	2.65
685.079	2.34
685.487	2.08
685.894	1.41
686.302	0.06
686.709	1.43
687.116	1.15
687.524	1.45
687.931	2.96
688.338	3.08
688.745	2.44
689.152	2.44
689.559	3.27
689.966	5.44
690.373	6.7
690.78	8.45
691.187	8.11
691.593	8.66
692	8.41
692.407	8.26
692.813	10.45
693.22	10.81
693.626	9.68
694.032	10.71
694.439	10.3
694.845	10.47
695.251	9.2
695.657	10.07
696.063	8.43
696.469	8.62
696.875	8.53
697.281	6.45
697.687	6.24
698.093	8.31
698.498	8
698.904	6.74
699.31	6.35
699.715	9.75
700.12	9.97
700.526	11.78
700.931	10.52
701.337	10.58
701.742	10.95
702.147	10.97
702.552	10.95
702.957	9.83
703.362	10.8
703.767	10.28
704.172	8.05
704.577	6.66
704.981	5.48
705.386	6.54
705.791	7.43
706.195	6.45
706.6	6.32
707.004	5.03
707.408	5.83
707.813	6.14
708.217	6.7
708.621	6.36
709.025	7.53
709.43	8.36
709.834	8.97
710.237	8.2
710.641	9.38
711.045	10.77
711.449	12.01
711.853	15.05
712.256	15.07
712.66	15.06
713.064	15.46
713.467	16.48
713.87	16.6
714.274	16.53
714.677	17.23
715.08	17.79
715.484	17.4
715.887	19.68
716.29	16.48
716.693	17.56
717.096	18.87
717.499	19.54
717.901	18.17
718.304	17.23
718.707	17.07
719.109	17.1
719.512	15.94
719.915	18.81
720.317	17.66
720.719	17.08
721.122	15.64
721.524	15.78
721.926	19.69
722.328	19.69
722.731	19.61
723.133	20.58
723.535	19.91
723.937	20.19
724.338	19.28
724.74	20.99
725.142	66.65
725.544	71.01
725.945	81.92
726.347	78.8
726.748	79.68
727.15	81.52
727.551	82.61
727.952	80.79
728.354	78.89
728.755	78.1
729.156	74.75
729.557	30.46
729.958	25.9
730.359	14.86
730.76	14.01
731.161	13.69
731.562	11.98
731.962	9.03
732.363	11.78
732.763	12.99
733.164	11.14
733.564	12.03
733.965	13.52
734.365	14.59
734.766	15.37
735.166	15.54
735.566	16.3
735.966	17.82
736.366	18.77
736.766	17.99
737.166	16.88
737.566	17.9
737.966	17.9
738.365	17.76
738.765	18.95
739.165	17.82
739.564	18.06
739.964	15.62
740.363	14.35
740.763	13.49
741.162	14.39
741.561	15.18
741.96	15.43
742.36	14.63
742.759	14.54
743.158	12.78
743.557	13.28
743.955	12.66
744.354	14.28
744.753	13.28
745.152	15.18
745.55	13.13
745.949	13.24
746.348	14.27
746.746	13.47
747.144	15.76
747.543	15.67
747.941	14.98
748.339	15.58
748.737	16.01
749.136	17.45
749.534	15.45
749.932	17.82
750.33	17.84
750.727	16.67
751.125	18.75
751.523	16.98
751.921	20.44
752.318	21.69
752.716	22.75
753.113	22.47
753.511	23.08
753.908	25.02
754.305	27.62
754.703	27.47
755.1	27.89
755.497	27.12
755.894	26.23
756.291	23.93
756.688	24.67
757.085	23.36
757.482	25.01
757.878	25.6
758.275	25.69
758.672	19.31
759.068	19.43
759.465	17.28
759.861	16.35
760.258	15.48
760.654	15.11
761.05	14.86
761.447	13.66
761.843	11.6
762.239	10.73
762.635	7.79
763.031	7.43
763.427	7.96
763.822	9.64
764.218	9
764.614	9.8
765.01	8.17
765.405	7.78
765.801	10.01
766.196	10.39
766.592	10.58
766.987	11.81
767.382	12.11
767.778	12.45
768.173	12.84
768.568	13.27
768.963	14.86
769.358	15.46
769.753	16.48
770.148	17.29
770.542	16.5
770.937	16.32
771.332	16.58
771.726	16.41
772.121	19.86
772.515	19.13
772.91	19.5
773.304	19.86
773.699	19.69
774.093	18.09
774.487	17.48
774.881	17.62
775.275	18.73
775.669	18.71
776.063	19.53
776.457	18.4
776.851	19.71
777.245	20.03
777.638	18.2
778.032	18.77
778.425	21.19
778.819	24.26
779.212	27.42
779.606	29.16
779.999	27.79
780.392	28.5
780.786	26.34
781.179	25.46
781.572	27.06
781.965	27.15
782.358	26.99
782.751	25.67
783.143	22.26
783.536	20.29
783.929	17.29
784.322	17.54
784.714	17.31
785.107	17.53
785.499	19.96
785.891	20.09
786.284	20.74
786.676	19.87
787.068	22.15
787.46	22.92
787.852	22.89
788.245	23.66
788.636	23.28
789.028	24.16
789.42	26.29
789.812	25.32
790.204	24.33
790.595	26.09
790.987	27.13
791.378	27.3
791.77	24.86
792.161	23.57
792.553	22.97
792.944	23.55
793.335	22.06
793.726	22
794.117	24.14
794.508	22.67
794.899	20.45
795.29	19.52
795.681	16.54
796.072	16.91
796.463	33.28
796.853	35.98
797.244	36.33
797.634	35.96
798.025	34.99
798.415	30.66
798.806	32.63
799.196	35.09
799.586	38.06
799.976	40.88
800.366	40.95
800.756	23.19
801.146	20.71
801.536	20.79
801.926	20.31
802.316	20.18
802.706	21.29
803.095	23.36
803.485	23.23
803.874	20.39
804.264	19.02
804.653	21.32
805.043	24.95
805.432	27.37
805.821	30.53
806.21	32.33
806.599	31.04
806.988	32.7
807.377	27.5
807.766	24.68
808.155	25.21
808.544	23.4
808.933	22.28
809.321	21.85
809.71	17.62
810.098	14.64
810.487	11.25
810.875	11.67
811.264	9.99
811.652	22.27
812.04	22.91
812.428	24.54
812.816	20.64
813.204	23.35
813.592	17.96
813.98	20.76
814.368	24.9
814.756	28.83
815.144	29.08
815.531	33.33
815.919	20.7
816.306	20.11
816.694	19.56
817.081	25.51
817.469	25.57
817.856	27.51
818.243	26
818.63	21.71
819.017	21.2
819.404	24.52
819.791	19.5
820.178	19.82
820.565	23.7
820.952	31.55
821.339	31.28
821.725	30.14
822.112	32.71
822.498	33.5
822.885	30.19
823.271	28.72
823.657	21.79
824.044	24.55
824.43	22.33
824.816	28.62
825.202	25.8
825.588	24.53
825.974	27.49
826.36	26.73
826.746	25.12
827.132	30.38
827.517	35.26
827.903	35.21
828.289	41.92
828.674	44.11
829.06	36.64
829.445	31.12
829.83	29.85
830.216	26.63
830.601	28.23
830.986	36.11
831.371	34.66
831.756	34.59
832.141	45.1
832.526	40.48
832.911	42.4
833.295	44.6
833.68	44.76
834.065	46.36
834.449	44.74
834.834	45.52
835.218	42.88
835.603	44.73
835.987	43.86
836.371	36.25
836.755	34.79
837.139	28.5
837.524	24.44
837.908	24.48
838.291	26.79
838.675	27.89
839.059	24.66
839.443	21.3
839.827	18.01
840.21	15.2
840.594	15.67
840.977	17.25
841.361	20.06
841.744	20.28
842.127	22.35
842.511	20.49
842.894	17.19
843.277	18.01
843.66	16.42
844.043	19.39
844.426	21.69
844.809	17.31
845.191	15.3
845.574	17.74
845.957	20.54
846.339	22.25
846.722	23.31
847.104	23.1
847.487	20.02
847.869	23.19
848.252	23.05
848.634	21.73
849.016	25.54
849.398	24.32
849.78	20.02
850.162	21.66
850.544	21.39
850.926	13.95
851.307	12.92
851.689	15.13
852.071	9.63
852.452	10.2
852.834	13.03
853.215	21.4
853.597	20.87
853.978	30.47
854.359	30.88
854.741	31.68
855.122	33.37
855.503	33.8
855.884	34.33
856.265	37.27
856.646	27.66
857.026	27.21
857.407	20.38
857.788	22.02
858.169	10.62
858.549	15.52
858.93	11.85
859.31	13.86
859.69	20.47
860.071	18.6
860.451	22.51
860.831	30.15
861.211	25.85
861.591	23.43
861.971	20.65
862.351	22.33
862.731	13.49
863.111	15.74
863.491	20.64
863.87	14.45
864.25	12.62
864.629	14.09
865.009	12.8
865.388	18.3
865.768	16.91
866.147	24.07
866.526	26.47
866.905	28.44
867.284	23.37
867.663	15.59
868.042	11.71
868.421	12.07
868.8	6.12
869.179	9.48
869.558	4.43
869.936	8.65
870.315	3.7
870.693	9.7
871.072	9.37
871.45	8.76
871.828	13.46
872.207	16.41
872.585	22.01
872.963	20.11
873.341	26.83
873.719	33.62
874.097	34.75
874.475	30.99
874.853	25.5
875.23	27.91
875.608	32.2
875.986	34.04
876.363	38.21
876.741	46.27
877.118	51.86
877.495	48.66
877.873	46.56
878.25	42.93
878.627	44.42
879.004	46.84
879.381	39.17
879.758	44.07
880.135	40
880.512	40.49
880.889	26.07
881.265	24.01
881.642	18.3
882.019	17.31
882.395	26.82
882.772	32.91
883.148	29.25
883.524	32.57
883.901	28.46
884.277	22.45
884.653	21.6
885.029	29.44
885.405	37.6
885.781	38.08
886.157	36.45
886.532	29.39
886.908	24.42
887.284	23.19
887.659	23.01
888.035	21.32
888.411	24.55
888.786	24.69
889.161	19.84
889.537	11.26
889.912	15.89
890.287	20.52
890.662	15.15
891.037	13.68
891.412	15.78
891.787	9.9
892.162	11.93
892.536	14.75
892.911	16.57
893.286	17.78
893.66	20.18
894.035	18.27
894.409	7.08
894.784	14.25
895.158	11.86
895.532	11.13
895.906	19.78
896.281	20.14
896.655	24.27
897.029	16.3
897.402	23.05
897.776	18.4
898.15	20.22
898.524	29.5
898.898	26.05
899.271	45.38
899.645	53.48
900.018	45.29
900.392	42.74
900.765	31.54
901.138	38.16
901.511	25.45
901.884	38.46
902.258	45.19
902.631	48.56
903.003	52.9
903.376	43.08
903.749	40.55
904.122	40.58
904.495	39.33
904.867	42.11
905.24	44.34
905.612	38.87
905.985	20.59
906.357	-2.43
906.729	0.09
907.102	11.92
907.474	11.3
907.846	17.4
908.218	20.26
908.59	33.85
908.962	33.15
909.334	33.84
909.705	38.95
910.077	34.59
910.449	35.52
910.82	39.64
911.192	30.27
911.563	38.76
911.935	21.45
912.306	10.05
912.677	6.9
913.048	18.83
913.419	6.43
913.79	0.87
914.161	4.65
914.532	34.16
914.903	23.57
915.274	29.2
915.645	28.76
916.015	26.13
916.386	35.16
916.756	25.49
917.127	15.49
917.497	23.66
917.868	27.04
918.238	26.37
918.608	10.38
918.978	10.85
919.348	1.56
919.718	3.64
920.088	17.81
920.458	17.36
920.828	-2.77
921.198	7.28
921.567	-4.07
921.937	6.34
922.306	-0.88
922.676	-4.93
923.045	7.17
923.415	24.68
923.784	20.58
924.153	26.72
924.522	36.1
924.891	43.57
925.26	43.26
925.629	43.2
925.998	42.87
926.367	48.84
926.736	78.26
927.104	77.06
927.473	61.44
927.842	57.59
928.21	25.27
928.578	-5.71
928.947	15.84
929.315	11.05
929.683	22.32
930.051	36.18
930.42	48.89
930.788	13.21
931.156	13.44
931.523	54.43
931.891	64.85
932.259	77.23
932.627	118.76
932.994	131.59
933.362	139.77
933.729	136.88
934.097	114.44
934.464	105.37
934.831	84.77
935.199	93.69
935.566	61.43
935.933	106.43
936.3	152.56
936.667	122.15
937.034	194.67
937.401	187.61
937.767	149.73
938.134	139.94
938.501	169.76
938.867	215.51
939.234	364.78
939.6	273.82
939.967	185.8
940.333	133.64
940.699	92.44
941.065	-8.11
941.431	-26.78
941.798	19.37
942.163	27.57
942.529	22.68
942.895	20.1
943.261	7.98
943.627	36.16
943.992	42.97
944.358	22.28
944.723	53.61
945.089	59.69
945.454	70.16
945.82	60.89
946.185	57.86
946.55	76.22
946.915	60.99
947.28	74.08
947.645	58.61
948.01	71.61
948.375	98.58
948.74	81.2
949.104	63.65
949.469	7.36
949.834	-27.4
950.198	14.81
950.562	39.86
950.927	32.79
951.291	60.11
951.655	51.86
952.02	8.13
952.384	-3.17
952.748	26.83
953.112	70.14
953.476	86.44
953.839	73.24
954.203	81.46
954.567	76.25
954.931	76.73
955.294	52.68
955.658	53.13
956.021	87.77
956.385	57.67
956.748	16.51
957.111	-269.93
957.474	-527.67
957.837	-555.92
958.2	-626.51
958.563	-188.42
958.926	-82.87
959.289	-105.92
959.652	-134.5
960.015	-87.88
960.377	-96.75
960.74	-173.12
961.102	-372.92
961.465	-126.78
961.827	364.89
962.189	739.86
962.552	648.28
962.914	513.56
963.276	350.35
963.638	325.78
964	316.66
964.362	253.92
964.724	268.8
965.085	214.09
965.447	175.92
965.809	105.06
966.17	82.19
966.532	52.79
966.893	45.15
967.255	30.12
967.616	14.54
967.977	15.98
968.338	-13.97
968.699	3.69
969.061	-7.6
969.421	-10.85
969.782	-23.27
970.143	11.95
970.504	54.18
970.865	76.94
971.225	93.19
971.586	88.66
971.946	122.47
972.307	113.23
972.667	99.16
973.027	105.18
973.388	118.6
973.748	115.12
974.108	143.87
974.468	101.35
974.828	108.31
975.188	71.31
975.548	61.31
975.907	61.63
976.267	68.64
976.627	85.3
976.986	76.13
977.346	53.21
977.705	47.49
978.064	28.82
978.424	29.95
978.783	6.15
979.142	16.02
979.501	28.98
979.86	24.25
980.219	22.79
980.578	-21.07
980.937	-35.26
981.296	-12.71
981.654	-9.59
982.013	-45.11
982.371	-52.26
982.73	-20.82
983.088	-48.51
983.447	-45.81
983.805	-14.32
984.163	-24.42
984.521	51.6
984.879	58.5
985.237	-80.16
985.595	139.1
985.953	15.65
986.311	-33.35
986.669	-20.31
987.026	-47.25
987.384	-98.42
987.741	-139.21
988.099	-34.1
988.456	-11.8
988.814	24.96
989.171	10.89
989.528	-38.69
989.885	-44.7
990.242	-12.62
990.599	-33.62
990.956	-9.84
991.313	-2.61
991.67	-3.88
992.027	21.07
992.383	23.2
992.74	25.56
993.096	39.22
993.453	51.79
993.809	46.98
994.165	41.18
994.522	94.26
994.878	89.3
995.234	119.56
995.59	113.46
995.946	39.84
996.302	41.95
996.658	28.86
997.013	4.46
997.369	35.69
997.725	99.79
998.08	91.18
998.436	-63.83
998.791	-23.97
999.147	-43.21
999.502	-3.5
999.857	-36.03
1000.212	-129.94
1000.567	-91.12
1000.922	-7.44
1001.277	19.03
1001.632	24.2
1001.987	-1.3
1002.342	63.11
1002.696	70.17
1003.051	70.76
1003.406	88.7
1003.76	95.73
1004.114	120.86
1004.469	96.02
1004.823	85.11
1005.177	68
1005.531	50.17
1005.885	63.04
1006.239	67.33
1006.593	75.79
1006.947	97.63
1007.301	58.94
1007.655	60.47
1008.008	49.83
1008.362	46.62
1008.715	52.95
1009.069	24.3
1009.422	100.35
1009.776	86.49
1010.129	-15.05
1010.482	-68.87
1010.835	-101.09
1011.188	-257.01
1011.541	-192.23
1011.894	1461.64
1012.247	-3661.82
1012.6	-298.97
1012.952	-133.53
1013.305	-110.97
1013.657	-63.43
1014.01	-47.65
1014.362	-40.74
1014.715	16.48
1015.067	38.38
1015.419	28.94
1015.771	30.04
1016.123	38.13
1016.475	48.89
1016.827	54.48
1017.179	69.7
1017.531	61.75
1017.883	41.71
1018.234	98.4
1018.586	104.73
1018.938	129.13
1019.289	197.81
1019.64	189.66
1019.992	134.47
1020.343	111.82
1020.694	122.64
1021.045	107.66
1021.396	119.99
1021.747	177.34
1022.098	124.46
1022.449	80.92
1022.8	85.71
1023.151	71.5
1023.501	83.25
1023.852	87.81
1024.202	106.55
1024.553	94.18
1024.903	107.15
1025.253	129.86
1025.604	132.21
1025.954	149.37
1026.304	167.45
1026.654	159.23
1027.004	198.04
1027.354	219.87
1027.703	331.45
1028.053	240.08
1028.403	570.87
1028.753	581.61
1029.102	57.26
1029.452	-3052.27
1029.801	-158.86
1030.15	-104.95
1030.499	-117.93
897.758	1647.18
901.051	1588.03
904.343	1619.59
907.636	1623.88
910.928	1671.58
914.22	1612.28
917.511	1615.96
920.803	1652.1
924.094	1643.15
927.384	1649.37
930.675	1621.19
933.965	1597.75
937.255	1626.03
940.544	1602.73
943.834	1595.27
947.123	1550.36
950.411	1617.01
953.7	1605.25
956.988	1596.66
960.276	1542.9
963.563	1571.92
966.851	1580.74
970.138	1608.68
973.424	1609.3
976.711	1569.69
979.997	1608.15
983.283	1638.27
986.568	1589.45
989.853	1575.64
993.138	1592.38
996.423	1659.73
999.708	1633.5
1002.992	1652.47
1006.275	1583.62
1009.559	1585.82
1012.842	1659.53
1016.125	1625.84
1019.408	1609.17
1022.69	1644.69
1025.972	1671.69
1029.254	1653.41
1032.536	1630.46
1035.817	1630.82
1039.098	1609.49
1042.379	1644.83
1045.659	1664.46
1048.939	1621.99
1052.219	1622.73
1055.498	1615.41
1058.778	1609.78
1062.057	1590.62
1065.335	1609.86
1068.614	1614.11
1071.892	1610.16
1075.17	1647.34
1078.447	1650.53
1081.724	1644.46
1085.001	1660.67
1088.278	1644.28
1091.554	1645.89
1094.83	1644.08
1098.106	1666.81
1101.382	1687.34
1104.657	1686.49
1107.932	1686.6
1111.206	1668.64
1114.481	1633.79
1117.755	1635.75
1121.029	1631.96
1124.302	1675.29
1127.575	1653.37
1130.848	1653.55
1134.121	1634.5
1137.393	1602.44
1140.665	1645.11
1143.937	1627.91
1147.208	1592.92
1150.48	1634.38
1153.75	1624.56
1157.021	1624.07
1160.291	1608.49
1163.561	1646.53
1166.831	1619.81
1170.101	1636.09
1173.37	1608.79
1176.639	1579.22
1179.907	1611.14
1183.176	1626.29
1186.444	1631.51
1189.711	1647.02
1192.979	1666.17
1196.246	1635.25
1199.513	1645.06
1202.78	1646.92
1206.046	1653.96
1209.312	1674.76
1212.578	1682.77
1215.843	1658.98
1219.108	1637.47
1222.373	1653.14
1225.638	1636.44
1228.902	1630.56
1232.166	1598.37
1235.43	1590.91
1238.693	1614.33
1241.956	1608.49
1245.219	1645.42
1248.482	1632.8
1251.744	1634.62
1255.006	1716.79
1258.268	1677.54
1261.529	1649.99
1264.79	1649.46
1268.051	1718.98
1271.312	1723.05
1274.572	1698.53
1277.832	1688.25
1281.092	1672.48
1284.351	1670.52
1287.61	1659.58
1290.869	1617.48
1294.128	1616.14
1297.386	1641.66
1300.644	1637.28
1303.902	1643.63
1307.159	1551.94
1310.416	1587.14
1313.673	1609
1316.93	1610.67
1320.186	1628.59
1323.442	1651.37
1326.697	1651.92
1329.953	1633.08
1333.208	1665.52
1336.463	1644.06
1339.717	1621.98
1342.972	1696.58
1346.226	1679.41
1349.479	1650.17
1352.733	1633.53
1355.986	1642.6
1359.238	1627.87
1362.491	1633.93
1365.743	1633.08
1368.995	1627.7
1372.247	1641.71
1375.498	1653.17
1378.749	1687.57
1382	1653.97
1385.251	1673.27
1388.501	1642.09
1391.751	1640.67
1395	1622.19
1398.25	1639.65
1401.499	1664.24
1404.748	1629.26
1407.996	1616.68
1411.244	1613.53
1414.492	1602.59
1417.74	1593.18
1420.987	1600.12
1424.234	1644.49
1427.481	1615.31
1430.728	1655.57
1433.974	1641.21
1437.22	1635.8
1440.465	1630.51
1443.711	1634.43
1446.956	1647.24
1450.201	1626.23
1453.445	1654.62
1456.689	1644.23
1459.933	1653.59
1463.177	1681.51
1466.42	1663
1469.663	1645.94
1472.906	1658.81
1476.148	1693.98
1479.391	1661.42
1482.633	1646.38
1485.874	1665.16
1489.115	1673.43
1492.356	1659.3
1495.597	1639.61
1498.838	1634.06
1502.078	1625.53
1505.318	1611.4
1508.557	1630.71
1511.797	1625.84
1515.036	1666.4
1518.274	1635.54
1521.513	1594.95
1524.751	1599.89
1527.989	1617.09
1531.227	1631.83
1534.464	1638.76
1537.701	1629.9
1540.938	1634.83
1544.174	1596.79
1547.41	1589.26
1550.646	1613.87
1553.882	1650.32
1557.117	1694.44
1560.352	1697.69
1563.587	1665.25
1566.821	1644.05
1570.055	1655.84
1573.289	1636.84
1576.523	1673.98
1579.756	1684.67
1582.989	1698.56
1586.222	1666.83
1589.454	1692.07
1592.686	1681.39
1595.918	1701
1599.15	1702.05
1602.381	1727.92
1605.612	1716.19
1608.843	1784.32
1612.073	1730.32
1615.303	1724.81
1618.533	1720.6
1621.762	1718.95
1624.992	1694.18
1628.221	1693.32
1631.449	1683.82
1634.678	1702.61
1637.906	1680.3
1641.134	1695.61
1644.361	1669.34
1647.588	1663.68
1650.815	1680.31
1654.042	1652.17
1657.269	1675.3
1660.495	1663.77
1663.72	1649.8
1666.946	1627.13
1670.171	1612.8
1673.396	1594.53
1676.621	1582.63
1679.845	1580.2
1683.069	1581.59
1686.293	1599.05
1689.517	1596.48
1692.74	1563.8
1695.963	1578.52
1699.185	1610.42
1702.408	1594.79
1705.63	1613.2
1708.852	1625.72
1712.073	1601.75
1715.294	1614.95
1718.515	1649.01
1721.736	1620.23
1724.956	1607.09
1728.176	1623.73
1731.396	1637.82
1734.616	1630.97
1737.835	1659.24
1741.054	1636.87
1744.272	1634.05
1747.491	1668.05
1750.709	1680.31
1753.927	1649.29
1757.144	1667.55
1760.361	1710.11
1763.578	1690.01
1766.795	1655.31
1770.011	1643.05
1773.227	1660.79
1776.443	1691.2
1779.658	1720.11
1782.874	1678.89
1786.089	1674.55
1789.303	1675.57
1792.518	1674.92
1795.732	1667.45
1798.945	1675.76
1802.159	1709.08
1805.372	1672.71
1808.585	1666.78
1811.797	1669.13
1815.01	1683.81
1818.222	1705.66
1821.434	1674.83
1824.645	1702.49
1827.856	1710.61
1831.067	1729.53
1834.278	1687.08
1837.488	1674.66
1840.698	1760.58
1843.908	1725.85
1847.117	1705.82
1850.326	1658.12
1853.535	1697.64
1856.744	1728.43
1859.952	1675.1
1863.16	1676.66
1866.368	1694.73
1869.575	1781.44
1872.782	1694.53
1875.989	1650.41
1879.196	1682.98
1882.402	1678.72
1885.608	1703.1
1888.814	1665.67
1892.019	1603.27
1895.224	1644.68
1898.429	1619.96
1901.634	1606.48
1904.838	1590.68
1908.042	1638.17
1911.246	1648.27
1914.449	1625.26
1917.652	1611.33
1920.855	1597.73
1924.058	1614.02
1927.26	1651.09
1930.462	1665.19
1933.664	1696.72
1936.865	1656.7
1940.066	1666.72
1943.267	1625.44
1946.467	1633.25
1949.668	1644.27
1952.868	1698.18
1956.067	1695.19
1959.267	1648.69
1962.466	1666.55
1965.665	1651.5
1968.863	1649.52
1972.061	1646.35
1975.259	1641.74
1978.457	1696.94
1981.654	1667.71
1984.852	1668.8
1988.048	1636.11
1991.245	1624.44
1994.441	1692.11
1997.637	1654.89
2000.833	1642.02
2004.028	1663.86
2007.223	1716.18
2010.418	1707.43
2013.613	1667.46
2016.807	1666.93
2020.001	1661.9
2023.194	1674.94
2026.388	1663.57
2029.581	1622.45
2032.774	1671.08
2035.966	1679.75
2039.158	1642.2
2042.35	1655.3
2045.542	1599.13
2048.733	1659.27
2051.924	1646.39
2055.115	1658.21
2058.306	1635.56
2061.496	1672.11
2064.686	1708.13
2067.875	1634.66
2071.065	1633.56
2074.254	1648.21
2077.442	1611.8
2080.631	1673.83
2083.819	1630.14
2087.007	1624.8
2090.195	1616.04
2093.382	1624.51
2096.569	1618.22
2099.756	1587.24
2102.942	1630.68
2106.128	1641.9
2109.314	1632.17
2112.5	1626.41
2115.685	1599.56
2118.87	1605.44
2122.055	1652.54
2125.239	1636.57
2128.424	1629.09
2131.608	1664.65
2134.791	1655.21
2137.974	1679.02
2141.157	1672.2
2144.34	1654.11
2147.523	1642.04
2150.705	1666.17
2153.887	1636.93
2157.068	1621.98
2160.25	1602.38
2163.431	1619.35
2166.611	1598.77
2169.792	1615.75
2172.972	1550.36
2176.152	1586.41
2179.331	1603.54
2182.511	1607.94
2185.69	1622.17
2188.868	1627.69
2192.047	1651.04
2195.225	1672.03
2198.403	1629.81
2201.58	1619.46
2204.758	1604.82
2207.935	1661.14
2211.111	1603.61
2214.288	1594.99
2217.464	1619.4
2220.64	1583.5
2223.815	1620.52
2226.991	1570.52
2230.166	1578.76
2233.34	1613.47
2236.515	1622.26
2239.689	1675.12
2242.863	1636.71
2246.036	1672.62
2249.209	1662.36
2252.382	1675.6
2255.555	1686.9
2258.727	1653.44
2261.9	1673.48
2265.071	1670.19
2268.243	1666.99
2271.414	1633.95
2274.585	1620.27
2277.756	1665.41
2280.926	1635.31
2284.096	1653.75
2287.266	1604.31
2290.436	1641.72
2293.605	1652.73
2296.774	1683.04
2299.942	1685.66
2303.111	1698.61
2306.279	1737.11
2309.447	1727.33
2312.614	1709.38
2315.781	1726.77
2318.948	1710.87
2322.115	1739.3
2325.281	1658.44
2328.447	1662.8
2331.613	1640.73
2334.779	1637.2
2337.944	1632.58
2341.109	1635.14
2344.274	1627.21
2347.438	1602.03
2350.602	1618.15
2353.766	1622.07
2356.929	1615.95
2360.092	1643.94
2363.255	1623.98
2366.418	1603.92
2369.58	1633.91
2372.742	1603.64
2375.904	1585.08
2379.066	1580.11
2382.227	1596.38
2385.388	1565.47
2388.548	1535.07
2391.709	1561.32
2394.869	1559.62
2398.029	1590.03
2401.188	1582.03
2404.347	1570.6
2407.506	1572.88
2410.665	1615.23
2413.823	1599.01
2416.981	1587.32
2420.139	1601.3
2423.296	1628.86
2426.453	1607.92
2429.61	1622.93
2432.767	1610.09
2435.923	1637.82
2439.079	1592.45
2442.235	1617.06
2445.391	1574.84
2448.546	1608.65
2451.701	1632.51
2454.855	1631.07
2458.009	1649.11
2461.163	1639.13
2464.317	1618.67
2467.471	1637.39
2470.624	1659.57
2473.777	1658.28
2476.929	1671.2
2480.082	1686.52
2483.234	1671.58
2486.385	1626.57
2489.537	1621.05
2492.688	1619.16
2495.839	1635.17
2498.989	1644.76
2502.14	1635.05
2505.29	1630.47
2508.439	1645.22
2511.589	1604.35
2514.738	1603.72
2517.887	1616.85
2521.035	1674.44
2524.183	1639.18
2527.331	1632.04
2530.479	1627.62
2533.627	1630.49
