Data from N_1_DIV_PA_2N_Splice17_11-10-54-389.txt Node
Date: Sat Mar 14 11:10:54 EDT 2020
User: sa697716
Spectrometer: FLMS03696
Trigger mode: 0
Integration Time (sec): 3.180400E-1
Scans to average: 20
Electric dark correction enabled: true
Nonlinearity correction enabled: true
Boxcar width: 5
XAxis mode: Wavelengths
Number of Pixels in Spectrum: 2048
>>>>>Begin Spectral Data<<<<<
187.83	-40696.23
188.298	404.18
188.766	300.42
189.233	219.77
189.701	254.48
190.169	393.06
190.636	90.18
191.104	109.33
191.571	22.79
192.039	-3.92
192.506	-34.53
192.974	144.41
193.441	-93.63
193.908	30.02
194.375	4.17
194.842	5.1
195.31	67.97
195.777	40.56
196.244	105.93
196.711	84.46
197.177	93.33
197.644	96.84
198.111	133.35
198.578	205.49
199.045	196.63
199.511	307.74
199.978	347.79
200.445	277.36
200.911	317.36
201.378	359.77
201.844	365.57
202.31	602.97
202.777	619.7
203.243	385.68
203.709	357.98
204.176	421.47
204.642	334.19
205.108	307.99
205.574	271.79
206.04	236.74
206.506	196.87
206.972	175.22
207.438	163.83
207.903	195.16
208.369	180.93
208.835	178.1
209.301	180.56
209.766	197.05
210.232	183.96
210.697	224.84
211.163	275.85
211.628	428.16
212.094	380.44
212.559	518.11
213.024	315.74
213.49	394.46
213.955	367.28
214.42	332.5
214.885	298.98
215.35	317.93
215.815	316.86
216.28	327.55
216.745	254.6
217.21	265.13
217.675	211.67
218.14	214.73
218.604	192.29
219.069	220.74
219.534	245.97
219.998	249.93
220.463	259.15
220.927	265.51
221.392	232.39
221.856	231.2
222.32	226.2
222.785	258.33
223.249	319.81
223.713	356.97
224.177	331.21
224.642	366.56
225.106	400.31
225.57	384.55
226.034	276.26
226.497	407.84
226.961	412.8
227.425	513.76
227.889	554.25
228.353	511.79
228.816	937.16
229.28	885.47
229.744	648.33
230.207	438.14
230.671	435.86
231.134	650.7
231.597	730.81
232.061	600.87
232.524	553.52
232.987	397.17
233.45	368.21
233.914	338.6
234.377	299.87
234.84	274.88
235.303	287.67
235.766	314.74
236.229	294.58
236.691	183.33
237.154	215.88
237.617	164.55
238.08	150.8
238.542	181.26
239.005	141.35
239.468	154.12
239.93	155.71
240.393	145.8
240.855	136.35
241.317	142.42
241.78	153.96
242.242	166.17
242.704	196.7
243.166	179.63
243.629	175.08
244.091	207.92
244.553	218.24
245.015	233.1
245.477	302.84
245.939	432.28
246.4	451.55
246.862	428.83
247.324	378.45
247.786	434.4
248.247	534.18
248.709	440.71
249.17	311.58
249.632	358.43
250.093	440.32
250.555	379.56
251.016	237.08
251.477	235.13
251.939	262.78
252.4	270.24
252.861	275.55
253.322	291.01
253.783	333.37
254.244	387.68
254.705	257.17
255.166	215.48
255.627	226.17
256.088	310.6
256.549	323.01
257.009	282.96
257.47	304.05
257.931	229.63
258.391	155.14
258.852	160.56
259.312	165.9
259.773	191.59
260.233	206.38
260.694	172.68
261.154	190.51
261.614	198.18
262.074	188.91
262.534	220.96
262.994	223.04
263.455	274.28
263.915	256.19
264.374	238.44
264.834	265.25
265.294	260.81
265.754	273.98
266.214	255.05
266.673	210.25
267.133	231.74
267.593	213.04
268.052	253.42
268.512	209.72
268.971	274.6
269.431	345.82
269.89	322.51
270.349	450.53
270.809	470.54
271.268	425.98
271.727	871.26
272.186	588.08
272.645	445.83
273.104	302.5
273.563	458.01
274.022	275.93
274.481	215.66
274.94	181.97
275.399	153.73
275.857	171.68
276.316	220.32
276.775	208.54
277.233	205.71
277.692	207.05
278.15	269.49
278.609	319.1
279.067	347.36
279.525	341.12
279.984	394.74
280.442	444.05
280.9	517.22
281.358	355.75
281.816	333.81
282.274	330.73
282.732	307.08
283.19	308.69
283.648	253.28
284.106	227.3
284.564	219.31
285.021	211.2
285.479	172.46
285.937	129.1
286.394	127.16
286.852	118.98
287.309	116.64
287.767	147.8
288.224	144.98
288.682	154.08
289.139	200.1
289.596	201.48
290.053	190.75
290.511	216.23
290.968	270.06
291.425	308.24
291.882	325.6
292.339	307.83
292.796	269.04
293.252	229.73
293.709	193.1
294.166	170.51
294.623	163.6
295.079	161.42
295.536	185.51
295.992	169.64
296.449	177.56
296.905	172.28
297.362	179.88
297.818	191.6
298.274	213.84
298.731	209.87
299.187	202.9
299.643	230.83
300.099	283.44
300.555	279.87
301.011	239.1
301.467	277.18
301.923	287.97
302.379	288.39
302.835	280.35
303.291	266.32
303.746	287.11
304.202	342.42
304.658	305.84
305.113	237.23
305.569	244.32
306.024	263.78
306.479	191.7
306.935	182.03
307.39	145.02
307.845	138.32
308.301	168.08
308.756	159.25
309.211	162.87
309.666	179.4
310.121	236.17
310.576	232.81
311.031	184.52
311.486	200.99
311.94	192.68
312.395	304.85
312.85	495.03
313.305	1499.95
313.759	12272.24
314.214	917.06
314.668	677.33
315.123	555.81
315.577	211.85
316.032	222.99
316.486	285.88
316.94	242.92
317.394	171.47
317.849	160.38
318.303	163.75
318.757	149.33
319.211	163.59
319.665	161.97
320.119	156.58
320.572	209.14
321.026	212.31
321.48	181.17
321.934	198.19
322.387	193.58
322.841	218.79
323.295	221.64
323.748	208.26
324.202	205.73
324.655	238.52
325.108	382.47
325.562	288.94
326.015	311.66
326.468	249.01
326.921	267.38
327.374	293.69
327.827	291.56
328.28	294.74
328.733	248.95
329.186	228.34
329.639	215.75
330.092	163.12
330.545	160.91
330.997	174.87
331.45	201.92
331.903	239.72
332.355	324.84
332.808	331.4
333.26	295.78
333.713	309.7
334.165	310.37
334.617	403.76
335.069	270.91
335.522	433.93
335.974	469.91
336.426	378.41
336.878	251.06
337.33	174.49
337.782	150.92
338.234	185.99
338.686	196.78
339.137	220.59
339.589	192.95
340.041	209.05
340.493	175.48
340.944	190.37
341.396	231.84
341.847	214.57
342.299	261.27
342.75	353.05
343.201	299.41
343.653	337.2
344.104	396.19
344.555	310.82
345.006	441.05
345.457	436.15
345.908	319.33
346.359	276.11
346.81	211.78
347.261	187.59
347.712	144.21
348.163	133.84
348.613	166.31
349.064	163.95
349.515	149.66
349.965	168.27
350.416	151.13
350.866	178.1
351.317	195.5
351.767	319.23
352.217	411.2
352.668	413.59
353.118	396.74
353.568	336.46
354.018	300.73
354.468	327.01
354.918	239.3
355.368	216.66
355.818	290.17
356.268	764.2
356.718	3854.08
357.168	1032.99
357.617	532.75
358.067	610.07
358.517	583.88
358.966	662.45
359.416	808.77
359.865	832.75
360.315	923.65
360.764	401.22
361.213	242.73
361.663	178.25
362.112	193.16
362.561	266.92
363.01	204.52
363.459	166.27
363.908	145.66
364.357	171.47
364.806	234.4
365.255	199.02
365.703	227.51
366.152	214.6
366.601	189.1
367.05	185.71
367.498	174.95
367.947	171.56
368.395	179.05
368.844	175.37
369.292	149.97
369.74	132.98
370.189	177.7
370.637	192.23
371.085	190.82
371.533	216.41
371.981	161.85
372.429	190.85
372.877	196.01
373.325	173.16
373.773	166.26
374.221	135.74
374.669	135.15
375.116	111.96
375.564	113.83
376.012	83.95
376.459	96.71
376.907	135.23
377.354	120.49
377.801	112.57
378.249	134.38
378.696	148.33
379.143	246.67
379.591	244.98
380.038	378.31
380.485	325.05
380.932	430.21
381.379	464.39
381.826	367.9
382.273	274.59
382.72	238.5
383.166	207.6
383.613	161.57
384.06	134.25
384.506	154.89
384.953	127.65
385.4	121.78
385.846	94.46
386.292	66.92
386.739	54.35
387.185	40.27
387.631	39.02
388.078	68.19
388.524	64.4
388.97	69.12
389.416	65.89
389.862	71.49
390.308	63.91
390.754	73.15
391.2	80.8
391.645	79.04
392.091	104.12
392.537	122.41
392.983	106.34
393.428	126.49
393.874	118.57
394.319	126.76
394.765	131.05
395.21	132.7
395.655	122.03
396.101	117.57
396.546	114.32
396.991	103.16
397.436	91.98
397.881	78.81
398.326	56.79
398.771	62.01
399.216	56.25
399.661	47.33
400.106	51.06
400.551	54.67
400.995	50.72
401.44	48.28
401.885	43.58
402.329	41.84
402.774	47.05
403.218	55.56
403.663	54.32
404.107	55.17
404.551	59.68
404.995	55.94
405.44	52.31
405.884	51.92
406.328	44.68
406.772	43.18
407.216	39
407.66	35.19
408.104	27.57
408.547	27.47
408.991	25.68
409.435	22.9
409.879	23.57
410.322	26.52
410.766	26.72
411.209	30.93
411.653	31.21
412.096	33.74
412.54	33.52
412.983	35.59
413.426	37.13
413.869	37.26
414.312	37.55
414.756	35.09
415.199	33.23
415.642	33.73
416.085	32.63
416.527	32.09
416.97	32.54
417.413	32.94
417.856	29.89
418.298	28.49
418.741	24.85
419.184	23.16
419.626	20.73
420.069	21.58
420.511	21.76
420.953	23.98
421.396	25.03
421.838	22.66
422.28	23.45
422.722	25.32
423.164	22.86
423.606	26.28
424.048	25.28
424.49	26.74
424.932	24.22
425.374	22.61
425.816	20.57
426.258	18.28
426.699	18.03
427.141	19.04
427.582	17.99
428.024	16.57
428.465	13.09
428.907	15.37
429.348	14.64
429.789	16.32
430.231	19.89
430.672	19.23
431.113	20.99
431.554	21.18
431.995	18.93
432.436	20.22
432.877	23.64
433.318	25.57
433.759	22.62
434.2	23.94
434.64	24.69
435.081	21.23
435.522	23.11
435.962	22
436.403	22.75
436.843	21.41
437.284	20.6
437.724	18.17
438.164	16.01
438.604	16.57
439.045	17.66
439.485	17.15
439.925	17.9
440.365	15.7
440.805	15.12
441.245	15.05
441.685	15.59
442.125	15.5
442.564	16.9
443.004	18.43
443.444	19.38
443.883	18.97
444.323	16.08
444.762	13.58
445.202	13.6
445.641	15.57
446.081	15.29
446.52	15.95
446.959	14.91
447.398	14.06
447.837	13.36
448.276	12.53
448.716	13.81
449.154	13.88
449.593	14.75
450.032	15.56
450.471	13.54
450.91	12
451.349	13.04
451.787	13.74
452.226	13.32
452.664	13.46
453.103	12.8
453.541	10.39
453.98	12.57
454.418	13.73
454.856	14.94
455.295	15.78
455.733	17.25
456.171	16.15
456.609	17.41
457.047	18.28
457.485	19.58
457.923	21.16
458.361	20.13
458.798	18.93
459.236	18.54
459.674	16.82
460.111	17.5
460.549	16.66
460.987	15.78
461.424	13.98
461.862	13.25
462.299	12.68
462.736	12.76
463.173	14.23
463.611	16.46
464.048	17.32
464.485	18.58
464.922	17.61
465.359	17.28
465.796	22.79
466.233	23.31
466.67	26.04
467.106	27.52
467.543	25.43
467.98	23.73
468.416	22.58
468.853	21.18
469.29	20.65
469.726	20.45
470.162	20.07
470.599	16.48
471.035	16.21
471.471	14.04
471.907	11.89
472.344	12.69
472.78	13.45
473.216	12.31
473.652	12.61
474.088	13.24
474.523	13.31
474.959	13.15
475.395	12.57
475.831	13.15
476.266	13.65
476.702	13.34
477.138	13.46
477.573	12.68
478.008	13.29
478.444	14.07
478.879	13.67
479.314	13.21
479.75	13.56
480.185	13.47
480.62	12.82
481.055	12.04
481.49	13.03
481.925	13.37
482.36	14.85
482.795	14.47
483.229	13.5
483.664	13.61
484.099	13.95
484.534	14.31
484.968	14.06
485.403	13.58
485.837	13.27
486.271	12.82
486.706	12.7
487.14	12.07
487.574	11.71
488.009	11.8
488.443	11.66
488.877	12.3
489.311	11.58
489.745	12.11
490.179	12.74
490.613	14.35
491.046	14.04
491.48	13.4
491.914	13.4
492.348	13.54
492.781	12.99
493.215	13.03
493.648	12.19
494.082	12.19
494.515	11.91
494.948	12.83
495.382	11.34
495.815	11.86
496.248	13.06
496.681	12.66
497.114	12.32
497.547	13.26
497.98	13.88
498.413	14.82
498.846	16.09
499.279	15.83
499.711	14.79
500.144	14.97
500.577	15.02
501.009	13.54
501.442	14.38
501.874	15.6
502.306	14.95
502.739	15.89
503.171	15.5
503.603	15.28
504.036	15.49
504.468	15.8
504.9	15.98
505.332	16.44
505.764	17.49
506.196	17.67
506.627	17.83
507.059	18.37
507.491	16.4
507.923	17.08
508.354	17.47
508.786	18.15
509.217	18.61
509.649	19.06
510.08	18.6
510.512	19.42
510.943	19.95
511.374	20.22
511.805	20.09
512.237	20.39
512.668	19.81
513.099	19.01
513.53	18.45
513.961	18.53
514.391	18.66
514.822	19.57
515.253	19.35
515.684	18.92
516.114	18.39
516.545	19.38
516.975	19.59
517.406	19.79
517.836	19.73
518.267	20.86
518.697	21.87
519.127	21.87
519.558	21.7
519.988	21.21
520.418	20.64
520.848	20.36
521.278	19.95
521.708	33.94
522.138	34.25
522.567	34.41
522.997	33.97
523.427	33.13
523.857	33.6
524.286	33.78
524.716	34.69
525.145	35.53
525.575	36.56
526.004	36.28
526.433	22.98
526.863	23.14
527.292	24.37
527.721	24.94
528.15	24.93
528.579	24.76
529.008	24.85
529.437	24.04
529.866	24.03
530.295	23.31
530.724	24.1
531.152	24.69
531.581	25.66
532.01	25.54
532.438	25.23
532.867	25.33
533.295	26.2
533.723	25.81
534.152	26.38
534.58	26.58
535.008	27.16
535.436	28.17
535.865	27.95
536.293	26.83
536.721	26.54
537.149	27.18
537.576	27.59
538.004	27.33
538.432	27.46
538.86	27.41
539.287	27.2
539.715	27
540.143	25.78
540.57	26.11
540.998	26.72
541.425	27.79
541.852	26.89
542.28	27.06
542.707	26.94
543.134	27.65
543.561	28.06
543.988	28.35
544.415	28.64
544.842	28.58
545.269	28.38
545.696	28.6
546.123	28.7
546.549	28.9
546.976	28.22
547.403	27.88
547.829	27.44
548.256	26.95
548.682	26.66
549.108	27.02
549.535	27.25
549.961	27.27
550.387	26.79
550.813	26.79
551.24	27.18
551.666	27.31
552.092	27.78
552.518	27.28
552.943	27.62
553.369	27.37
553.795	27.17
554.221	26.91
554.646	26.65
555.072	26.98
555.498	25.61
555.923	24.98
556.349	24.89
556.774	23.83
557.199	23.48
557.625	22.99
558.05	23.82
558.475	24.05
558.9	24.11
559.325	24.43
559.75	24.5
560.175	24.4
560.6	24.32
561.025	24.35
561.449	25.17
561.874	25.17
562.299	25.74
562.723	25.41
563.148	24.56
563.572	24.31
563.997	23.81
564.421	22.57
564.846	22.44
565.27	22.36
565.694	22.37
566.118	21.88
566.542	22.93
566.966	22.46
567.39	22.33
567.814	22.98
568.238	22.99
568.662	22.27
569.086	22.91
569.509	22.69
569.933	23.74
570.357	23.94
570.78	23.99
571.204	24.31
571.627	24.26
572.05	24.15
572.474	24.4
572.897	24.7
573.32	25.85
573.743	25.18
574.166	25.82
574.589	25.21
575.012	24.88
575.435	24.6
575.858	24.04
576.281	23.75
576.704	23.21
577.126	21.86
577.549	21
577.972	20.18
578.394	20.98
578.817	21.63
579.239	21.43
579.661	21.94
580.084	22.73
580.506	22.54
580.928	22.6
581.35	22.94
581.772	23
582.194	22.93
582.616	22.17
583.038	21.34
583.46	20.1
583.882	19.66
584.303	18.07
584.725	17.11
585.147	19.44
585.568	19.34
585.99	19.5
586.411	19.8
586.833	20.42
587.254	21.18
587.675	21.31
588.096	21.25
588.518	21.49
588.939	22.2
589.36	22.9
589.781	19.46
590.202	21.18
590.623	20.53
591.043	19.93
591.464	19.79
591.885	20.28
592.305	19.75
592.726	19.46
593.147	19.18
593.567	19.71
593.987	18.86
594.408	19.15
594.828	17.23
595.248	17.8
595.669	18.6
596.089	18.01
596.509	17.25
596.929	17.04
597.349	17.54
597.769	17.35
598.189	17.08
598.608	17.48
599.028	17.11
599.448	16.85
599.867	16.41
600.287	15.76
600.706	16.49
601.126	16.43
601.545	17.23
601.965	16.61
602.384	16.64
602.803	15.86
603.222	15.86
603.641	15.82
604.061	15.99
604.48	15.6
604.898	15.92
605.317	15.5
605.736	15.46
606.155	15.48
606.574	16.19
606.992	16.17
607.411	16.76
607.829	16.07
608.248	16.16
608.666	15.8
609.085	16.24
609.503	15.9
609.921	15.87
610.339	16.04
610.758	15.26
611.176	14.68
611.594	14.88
612.012	14.85
612.43	15.31
612.847	15.58
613.265	16.43
613.683	16.13
614.101	16.02
614.518	15.91
614.936	15.37
615.353	16.16
615.771	16.66
616.188	16.9
616.606	16.77
617.023	16.72
617.44	16.28
617.857	15.3
618.274	15.13
618.691	15.25
619.108	15.23
619.525	15.16
619.942	14.68
620.359	14.28
620.776	14.23
621.192	14.56
621.609	15.1
622.026	15.1
622.442	15.49
622.859	15.44
623.275	15.24
623.691	15.27
624.108	15.25
624.524	15.48
624.94	15.14
625.356	14.96
625.772	14.35
626.188	13.47
626.604	13.25
627.02	12.95
627.436	13.06
627.852	13.97
628.268	14.18
628.683	14.4
629.099	13.61
629.514	13.93
629.93	13
630.345	12.83
630.761	12.65
631.176	12.78
631.591	14.17
632.007	14.5
632.422	12.69
632.837	12.26
633.252	13.29
633.667	13.8
634.082	13.45
634.497	13.84
634.911	15.44
635.326	15.67
635.741	15.77
636.155	14.95
636.57	14.96
636.984	15.75
637.399	16.96
637.813	15.82
638.228	16.14
638.642	16.12
639.056	16.64
639.47	15.91
639.884	16.25
640.298	15.68
640.712	16.25
641.126	16.59
641.54	16.35
641.954	14.06
642.368	13.79
642.781	15.66
643.195	15.44
643.609	14.97
644.022	14.72
644.436	13.3
644.849	13.52
645.262	12.44
645.676	11.53
646.089	11.39
646.502	12.87
646.915	12.84
647.328	11.1
647.741	11.45
648.154	11.98
648.567	12.45
648.98	13.33
649.393	13.35
649.805	12.99
650.218	12.96
650.631	13.53
651.043	13.44
651.456	13.5
651.868	13.06
652.28	12.14
652.693	10.97
653.105	10.78
653.517	10.73
653.929	10.52
654.341	11.49
654.753	11.59
655.165	11.17
655.577	10.84
655.989	11.49
656.401	10.42
656.813	12.08
657.224	12.78
657.636	11.66
658.047	12.64
658.459	12.66
658.87	11.09
659.282	11.05
659.693	11.58
660.104	11.75
660.515	11.51
660.926	12.04
661.338	11.14
661.749	10.47
662.159	11.37
662.57	9.92
662.981	10.04
663.392	10.28
663.803	10.17
664.213	9.79
664.624	9.73
665.035	9.47
665.445	9.96
665.855	10.15
666.266	10.67
666.676	9.9
667.086	9.34
667.497	10.22
667.907	10.87
668.317	11.13
668.727	12.91
669.137	11.52
669.547	11.23
669.956	10.05
670.366	10.68
670.776	10.79
671.186	11.24
671.595	12.01
672.005	11.29
672.414	11.58
672.824	12.13
673.233	9.97
673.642	11.06
674.052	11.76
674.461	13.51
674.87	13.06
675.279	13.84
675.688	12.29
676.097	13.33
676.506	13.09
676.915	12.26
677.323	11.47
677.732	11.99
678.141	11.61
678.549	11.19
678.958	9.39
679.366	8.61
679.775	7.33
680.183	9.99
680.592	9.63
681	10.85
681.408	11.78
681.816	11.89
682.224	11.15
682.632	12.95
683.04	13.64
683.448	14.24
683.856	15.21
684.264	16.24
684.671	15.18
685.079	15.77
685.487	14.75
685.894	13.92
686.302	13.24
686.709	14.39
687.116	12.37
687.524	12.84
687.931	14.57
688.338	14.83
688.745	14.82
689.152	14.53
689.559	13.19
689.966	13.88
690.373	14.63
690.78	16.12
691.187	16.35
691.593	17.59
692	17.1
692.407	16.62
692.813	18.17
693.22	18.19
693.626	17.38
694.032	18.87
694.439	19.2
694.845	19.86
695.251	18.92
695.657	19.99
696.063	19.07
696.469	19.38
696.875	19.16
697.281	18.18
697.687	18.48
698.093	19.51
698.498	19.29
698.904	18.81
699.31	19.06
699.715	21.38
700.12	20.67
700.526	22.11
700.931	21.15
701.337	22.25
701.742	22.87
702.147	23.65
702.552	24.5
702.957	24.33
703.362	25.8
703.767	25.53
704.172	24.82
704.577	24.62
704.981	23.89
705.386	25.14
705.791	24.96
706.195	24.2
706.6	24.68
707.004	23.81
707.408	23.81
707.813	23.07
708.217	23.37
708.621	22.91
709.025	23.32
709.43	25.53
709.834	26.36
710.237	26.78
710.641	27.74
711.045	27.37
711.449	28.96
711.853	31.55
712.256	32.43
712.66	32.78
713.064	33.18
713.467	34.08
713.87	33.15
714.274	33.28
714.677	33.25
715.08	33.81
715.484	34.59
715.887	36.44
716.29	35.48
716.693	35.71
717.096	37.11
717.499	38.44
717.901	36.6
718.304	36.53
718.707	36.57
719.109	37.7
719.512	37.25
719.915	38.3
720.317	37.32
720.719	36.68
721.122	37.3
721.524	37.98
721.926	41.1
722.328	43.75
722.731	44.33
723.133	44.88
723.535	44.07
723.937	44.31
724.338	45.03
724.74	44.97
725.142	75.8
725.544	78.13
725.945	84.76
726.347	81.31
726.748	80.31
727.15	80.41
727.551	82.42
727.952	81.96
728.354	80.9
728.755	79.21
729.156	77.98
729.557	48.07
729.958	45.17
730.359	37.08
730.76	37.22
731.161	36.96
731.562	36.65
731.962	33.82
732.363	33.88
732.763	34.71
733.164	33.95
733.564	33.98
733.965	34.69
734.365	34.87
734.766	36.57
735.166	36.3
735.566	37.38
735.966	37.21
736.366	38.17
736.766	38.92
737.166	38.09
737.566	38.98
737.966	40.05
738.365	39.77
738.765	39.84
739.165	39.28
739.564	39.66
739.964	38.67
740.363	37.82
740.763	36.59
741.162	37.09
741.561	37.86
741.96	37.64
742.36	37.26
742.759	37.63
743.158	36.91
743.557	36.2
743.955	36.42
744.354	36.98
744.753	37.14
745.152	38.06
745.55	36.74
745.949	36.16
746.348	36.03
746.746	34.04
747.144	34.96
747.543	34.7
747.941	34.62
748.339	33.49
748.737	33.32
749.136	34.08
749.534	32.77
749.932	34.31
750.33	34.42
750.727	33.98
751.125	35.08
751.523	34.46
751.921	37.37
752.318	38.96
752.716	41.12
753.113	41.38
753.511	41.71
753.908	43.69
754.305	45.94
754.703	46.93
755.1	48.86
755.497	49.5
755.894	49.09
756.291	47.16
756.688	47.16
757.085	47.26
757.482	48.77
757.878	50.87
758.275	52.18
758.672	49.83
759.068	48.59
759.465	47.5
759.861	47.32
760.258	49.14
760.654	52.06
761.05	52.95
761.447	49.54
761.843	47.99
762.239	47.15
762.635	43.08
763.031	41.31
763.427	42.96
763.822	43.32
764.218	41.86
764.614	40.57
765.01	37.2
765.405	36.28
765.801	38.22
766.196	37.93
766.592	37.05
766.987	38.23
767.382	37.13
767.778	36.5
768.173	35.27
768.568	36.18
768.963	37.61
769.358	39.59
769.753	40.23
770.148	39.58
770.542	38.92
770.937	37.6
771.332	38.45
771.726	39.95
772.121	42.35
772.515	43.29
772.91	43.14
773.304	43.01
773.699	41.91
774.093	41.32
774.487	41.97
774.881	41.74
775.275	43.43
775.669	42.3
776.063	41.63
776.457	41.48
776.851	40.43
777.245	41.07
777.638	40.87
778.032	42.35
778.425	42.74
778.819	45.34
779.212	47.67
779.606	49.14
779.999	49.08
780.392	49.94
780.786	47.2
781.179	47.3
781.572	48.05
781.965	47.13
782.358	46.72
782.751	46.35
783.143	43.87
783.536	43.43
783.929	41.6
784.322	41.68
784.714	42.02
785.107	44.82
785.499	46.94
785.891	47.72
786.284	48.82
786.676	47.82
787.068	48.83
787.46	49.18
787.852	47.41
788.245	47.67
788.636	47.3
789.028	48.4
789.42	48.36
789.812	48.71
790.204	48.96
790.595	51.62
790.987	52.47
791.378	52
791.77	50.5
792.161	52.2
792.553	52.05
792.944	52.37
793.335	48.93
793.726	48.99
794.117	49.24
794.508	46.66
794.899	42.39
795.29	41.4
795.681	40.32
796.072	40.25
796.463	51.16
796.853	54.78
797.244	56.32
797.634	58.37
798.025	56.6
798.415	54.65
798.806	57.17
799.196	59.81
799.586	61.71
799.976	64.43
800.366	64.35
800.756	52.26
801.146	48.95
801.536	47.66
801.926	45.9
802.316	48.72
802.706	48.93
803.095	49.47
803.485	48.84
803.874	48.31
804.264	47.48
804.653	48.1
805.043	51.53
805.432	53.46
805.821	55.2
806.21	57.16
806.599	52.59
806.988	52.18
807.377	48.96
807.766	47.87
808.155	46.87
808.544	45.72
808.933	45.34
809.321	45.18
809.71	41.16
810.098	42.18
810.487	40.9
810.875	42.12
811.264	44.17
811.652	51.05
812.04	54.09
812.428	57.8
812.816	56.23
813.204	59.58
813.592	56.59
813.98	59.22
814.368	57.44
814.756	59.64
815.144	62.81
815.531	64.76
815.919	56.1
816.306	54.76
816.694	51.97
817.081	56.65
817.469	57.04
817.856	55.01
818.243	54.83
818.63	53.76
819.017	55.11
819.404	56.46
819.791	57.57
820.178	60.34
820.565	60.32
820.952	65.19
821.339	62.79
821.725	63.85
822.112	63.58
822.498	68.14
822.885	64.92
823.271	63.1
823.657	59.08
824.044	58.92
824.43	58.5
824.816	64.92
825.202	65.92
825.588	67.99
825.974	69.72
826.36	73.79
826.746	70.22
827.132	70.79
827.517	72.19
827.903	72.54
828.289	73.54
828.674	70.38
829.06	65.57
829.445	62.55
829.83	61.02
830.216	58.58
830.601	59.75
830.986	63.57
831.371	66.64
831.756	69.23
832.141	70.09
832.526	68.52
832.911	72.43
833.295	71.16
833.68	69.55
834.065	69.9
834.449	67.24
834.834	66.48
835.218	65.12
835.603	64.4
835.987	61.06
836.371	60.55
836.755	62.95
837.139	61.66
837.524	58.49
837.908	57.83
838.291	59.62
838.675	61.4
839.059	62.36
839.443	59.27
839.827	55.85
840.21	53.66
840.594	56.2
840.977	53.96
841.361	53.47
841.744	52.72
842.127	53.1
842.511	50.69
842.894	49.04
843.277	49.17
843.66	49
844.043	52.87
844.426	56.82
844.809	52.06
845.191	52.11
845.574	53.54
845.957	57.14
846.339	57.65
846.722	58.32
847.104	56.04
847.487	52.18
847.869	53.34
848.252	55.59
848.634	53.85
849.016	54.97
849.398	52.48
849.78	54.09
850.162	55.49
850.544	59.47
850.926	57.72
851.307	58.75
851.689	61.89
852.071	57.37
852.452	55.27
852.834	55.53
853.215	59
853.597	58.62
853.978	58.89
854.359	56.08
854.741	55.65
855.122	55.41
855.503	54.77
855.884	54.11
856.265	56.47
856.646	51.65
857.026	54.67
857.407	52.86
857.788	51.62
858.169	47.29
858.549	51.9
858.93	49.21
859.31	51.59
859.69	59.14
860.071	60.8
860.451	63.5
860.831	68.2
861.211	65.76
861.591	64.84
861.971	68.3
862.351	72.34
862.731	67.11
863.111	67.93
863.491	69.89
863.87	64.01
864.25	60.89
864.629	59.6
865.009	56.29
865.388	60.21
865.768	62.73
866.147	64.59
866.526	62.27
866.905	63.78
867.284	60.34
867.663	53.22
868.042	48.64
868.421	50.46
868.8	47.02
869.179	48.06
869.558	43.24
869.936	42.44
870.315	39.65
870.693	41.27
871.072	44.93
871.45	43.45
871.828	51.65
872.207	58.22
872.585	59.61
872.963	62.8
873.341	70.52
873.719	76.9
874.097	77.93
874.475	79.3
874.853	74.45
875.23	73.85
875.608	81.45
875.986	80.06
876.363	78.53
876.741	81.2
877.118	84.36
877.495	81.64
877.873	75.55
878.25	74.02
878.627	74.12
879.004	75.71
879.381	71.22
879.758	71.05
880.135	69.1
880.512	68.43
880.889	60.77
881.265	56.06
881.642	51.19
882.019	53.5
882.395	59.34
882.772	63.42
883.148	65.23
883.524	65.68
883.901	58.25
884.277	55.38
884.653	55.23
885.029	62.35
885.405	74.91
885.781	76.92
886.157	73.63
886.532	70.61
886.908	65.58
887.284	63.83
887.659	67.03
888.035	71.75
888.411	70.35
888.786	71.32
889.161	69.54
889.537	58.55
889.912	59.94
890.287	58.96
890.662	56.62
891.037	50.6
891.412	49.91
891.787	43.99
892.162	46.99
892.536	52.4
892.911	55.48
893.286	51.8
893.66	53.23
894.035	57.65
894.409	55.72
894.784	61.38
895.158	69.59
895.532	74.86
895.906	79.54
896.281	81.05
896.655	82
897.029	84.21
897.402	92.1
897.776	101.46
898.15	99.74
898.524	106.46
898.898	101.56
899.271	112.3
899.645	104.66
900.018	96.32
900.392	102.52
900.765	96.14
901.138	95.97
901.511	85.37
901.884	85.9
902.258	81.66
902.631	93.21
903.003	99.52
903.376	80.3
903.749	87.46
904.122	92.01
904.495	82.25
904.867	84.13
905.24	77.88
905.612	78.72
905.985	65.34
906.357	64.2
906.729	53.1
907.102	51.88
907.474	55.16
907.846	54.29
908.218	59.88
908.59	66.42
908.962	68.12
909.334	71.25
909.705	78.56
910.077	75.57
910.449	74.55
910.82	80.73
911.192	88.16
911.563	100.84
911.935	100.25
912.306	79.85
912.677	78.17
913.048	77.49
913.419	73.99
913.79	57.26
914.161	64.59
914.532	72.88
914.903	55.7
915.274	51.19
915.645	45.94
916.015	47.65
916.386	53.42
916.756	55.68
917.127	56.81
917.497	60.49
917.868	68.02
918.238	67.13
918.608	58.62
918.978	69.13
919.348	55.38
919.718	50.2
920.088	46.07
920.458	64.39
920.828	52.29
921.198	47.99
921.567	44.66
921.937	42.21
922.306	38.39
922.676	37.33
923.045	38.46
923.415	57.47
923.784	52.42
924.153	61.88
924.522	65.16
924.891	59.51
925.26	57.69
925.629	54.24
925.998	57.71
926.367	65.45
926.736	76.88
927.104	90.27
927.473	77.67
927.842	90.87
928.21	79.86
928.578	57.11
928.947	74.54
929.315	87.76
929.683	112.26
930.051	116.95
930.42	136.77
930.788	135.79
931.156	121.56
931.523	157.3
931.891	154.44
932.259	160.27
932.627	200.01
932.994	253.04
933.362	225.74
933.729	204.45
934.097	202.07
934.464	174.36
934.831	176.93
935.199	183.48
935.566	159.94
935.933	159.98
936.3	200.18
936.667	163.21
937.034	208.32
937.401	195.01
937.767	166.03
938.134	149.86
938.501	170.04
938.867	209.6
939.234	289.07
939.6	225.68
939.967	258.11
940.333	162.23
940.699	112.74
941.065	48.75
941.431	56.59
941.798	114.8
942.163	149.99
942.529	125.41
942.895	92.83
943.261	72.35
943.627	98.25
943.992	98.55
944.358	90.92
944.723	122.02
945.089	121.8
945.454	118.7
945.82	90.76
946.185	74.24
946.55	84.17
946.915	89.11
947.28	110.62
947.645	95.47
948.01	99.92
948.375	130.83
948.74	132.26
949.104	143.03
949.469	135.83
949.834	214.59
950.198	318.47
950.562	231.67
950.927	192.52
951.291	231.13
951.655	212.28
952.02	174.52
952.384	116.27
952.748	137.89
953.112	164.94
953.476	181.03
953.839	168.58
954.203	179.06
954.567	201.31
954.931	245.05
955.294	229.89
955.658	225.39
956.021	372.65
956.385	583.11
956.748	686.46
957.111	753.15
957.474	688.7
957.837	679.01
958.2	296.54
958.563	116.88
958.926	142.07
959.289	166.17
959.652	140.78
960.015	106.77
960.377	121.1
960.74	180.83
961.102	262.93
961.465	407.11
961.827	471.81
962.189	916.72
962.552	725.28
962.914	581.73
963.276	370.79
963.638	301.78
964	288.58
964.362	234.6
964.724	218.59
965.085	177.8
965.447	143.81
965.809	103.68
966.17	85.23
966.532	69.35
966.893	69.54
967.255	61.6
967.616	79.01
967.977	62.39
968.338	54.76
968.699	59.31
969.061	55.66
969.421	73.47
969.782	92.54
970.143	98.85
970.504	141.36
970.865	165.87
971.225	191.43
971.586	188.88
971.946	261.16
972.307	212.57
972.667	235.47
973.027	216.37
973.388	220.22
973.748	161.07
974.108	165.64
974.468	115.14
974.828	112.81
975.188	67.6
975.548	60.43
975.907	69.66
976.267	88.48
976.627	89.28
976.986	100.09
977.346	84.59
977.705	79.96
978.064	79.95
978.424	80.19
978.783	60.35
979.142	61.52
979.501	61.91
979.86	64.26
980.219	61.42
980.578	61.1
980.937	48.91
981.296	50.33
981.654	44.72
982.013	43.75
982.371	68.7
982.73	85.92
983.088	124.98
983.447	151.96
983.805	159.33
984.163	384.22
984.521	540.14
984.879	981.73
985.237	-1615.22
985.595	2071.21
985.953	472.79
986.311	216.55
986.669	144.95
987.026	117.82
987.384	123.81
987.741	110.83
988.099	88.18
988.456	85.99
988.814	96.8
989.171	101.93
989.528	71.48
989.885	69.79
990.242	77.12
990.599	93.56
990.956	78.85
991.313	72.72
991.67	73.12
992.027	115.7
992.383	106.24
992.74	101.36
993.096	100.65
993.453	105.93
993.809	109.45
994.165	133.48
994.522	147.2
994.878	162.72
995.234	188.59
995.59	189.31
995.946	111.71
996.302	103.75
996.658	112.74
997.013	117.24
997.369	170.9
997.725	238.08
998.08	163.9
998.436	87.74
998.791	121.49
999.147	136.63
999.502	128.48
999.857	128.74
1000.212	226.11
1000.567	196.8
1000.922	216.59
1001.277	85.64
1001.632	90.7
1001.987	93.48
1002.342	132.86
1002.696	126.72
1003.051	124.89
1003.406	154.35
1003.76	140.87
1004.114	150.41
1004.469	145.82
1004.823	99.12
1005.177	109.81
1005.531	85.55
1005.885	92.89
1006.239	106.04
1006.593	134.62
1006.947	161.25
1007.301	112.57
1007.655	113.74
1008.008	98.63
1008.362	111.49
1008.715	167.38
1009.069	164.2
1009.422	299.34
1009.776	535.07
1010.129	306.86
1010.482	229.77
1010.835	178.7
1011.188	337.98
1011.541	395.2
1011.894	-1493.03
1012.247	4680.32
1012.6	313.05
1012.952	272.11
1013.305	88.38
1013.657	101.73
1014.01	113.52
1014.362	87.86
1014.715	113.64
1015.067	131.28
1015.419	113.5
1015.771	123.73
1016.123	123.61
1016.475	127.19
1016.827	123.39
1017.179	147.54
1017.531	120.2
1017.883	109.05
1018.234	152.25
1018.586	178.08
1018.938	187.24
1019.289	288.99
1019.64	298.78
1019.992	226.23
1020.343	203.76
1020.694	203.12
1021.045	165.88
1021.396	208.37
1021.747	255.66
1022.098	240.05
1022.449	178.91
1022.8	172.09
1023.151	142.66
1023.501	156.02
1023.852	185.3
1024.202	218.5
1024.553	203.85
1024.903	218.03
1025.253	214.27
1025.604	201.7
1025.954	239.74
1026.304	269.21
1026.654	322.56
1027.004	389.23
1027.354	492.63
1027.703	469.97
1028.053	492.77
1028.403	897.37
1028.753	1052.47
1029.102	832.35
1029.452	1571.13
1029.801	34.72
1030.15	28.06
1030.499	-40.21
897.758	1157.86
901.051	1122.86
904.343	1144.58
907.636	1142.78
910.928	1172.75
914.22	1133.93
917.511	1139.69
920.803	1160.86
924.094	1156.41
927.384	1157.54
930.675	1141.37
933.965	1126.02
937.255	1142.02
940.544	1125.69
943.834	1128.78
947.123	1099.73
950.411	1144.41
953.7	1137.54
956.988	1129.29
960.276	1092.13
963.563	1113.49
966.851	1119.87
970.138	1136.32
973.424	1138.03
976.711	1112.1
979.997	1135.3
983.283	1152.74
986.568	1120.22
989.853	1113.13
993.138	1124.38
996.423	1173.3
999.708	1150.29
1002.992	1161.51
1006.275	1121.99
1009.559	1120.32
1012.842	1168.15
1016.125	1144.83
1019.408	1135.31
1022.69	1162.66
1025.972	1173.44
1029.254	1163.17
1032.536	1144.14
1035.817	1150.3
1039.098	1136.27
1042.379	1158.59
1045.659	1170.74
1048.939	1144.25
1052.219	1144.27
1055.498	1142.23
1058.778	1133.25
1062.057	1127
1065.335	1142.71
1068.614	1143.8
1071.892	1135.54
1075.17	1164.53
1078.447	1163.68
1081.724	1160.01
1085.001	1170.64
1088.278	1158.91
1091.554	1159.9
1094.83	1159.96
1098.106	1172.39
1101.382	1185.77
1104.657	1181.65
1107.932	1185.14
1111.206	1172.35
1114.481	1150.23
1117.755	1153.84
1121.029	1149.34
1124.302	1176.21
1127.575	1162
1130.848	1163.24
1134.121	1148.68
1137.393	1125.01
1140.665	1158.73
1143.937	1142.99
1147.208	1123.23
1150.48	1149.18
1153.75	1142.04
1157.021	1143.99
1160.291	1132.4
1163.561	1155.01
1166.831	1137.7
1170.101	1147.67
1173.37	1132.06
1176.639	1111.37
1179.907	1139.08
1183.176	1140.76
1186.444	1145.29
1189.711	1155.47
1192.979	1168.53
1196.246	1148.54
1199.513	1157.32
1202.78	1159.16
1206.046	1163.33
1209.312	1178.39
1212.578	1182.23
1215.843	1160.98
1219.108	1154.57
1222.373	1160.26
1225.638	1147.96
1228.902	1138.33
1232.166	1127.95
1235.43	1117.99
1238.693	1131.58
1241.956	1131.45
1245.219	1151.32
1248.482	1146.08
1251.744	1148.63
1255.006	1203.5
1258.268	1179.49
1261.529	1164.6
1264.79	1165.37
1268.051	1206.74
1271.312	1216.74
1274.572	1197.12
1277.832	1192.3
1281.092	1184.43
1284.351	1181.63
1287.61	1175.28
1290.869	1144.62
1294.128	1146.83
1297.386	1165.07
1300.644	1163.6
1303.902	1166.16
1307.159	1102.39
1310.416	1126.93
1313.673	1138.41
1316.93	1137.92
1320.186	1148.55
1323.442	1162.36
1326.697	1158.09
1329.953	1148.34
1333.208	1162.01
1336.463	1151.38
1339.717	1135.79
1342.972	1189.42
1346.226	1178.55
1349.479	1159.75
1352.733	1148.7
1355.986	1161.02
1359.238	1152.09
1362.491	1154.03
1365.743	1152.23
1368.995	1153.99
1372.247	1163.7
1375.498	1169.34
1378.749	1184.71
1382	1165.68
1385.251	1175.36
1388.501	1159.25
1391.751	1152.64
1395	1142.15
1398.25	1155.16
1401.499	1167.21
1404.748	1143.07
1407.996	1137.22
1411.244	1137.49
1414.492	1128.76
1417.74	1121.54
1420.987	1131.87
1424.234	1153.94
1427.481	1139.48
1430.728	1162.65
1433.974	1156.14
1437.22	1157.25
1440.465	1151.58
1443.711	1150.18
1446.956	1155.34
1450.201	1146.72
1453.445	1170.41
1456.689	1157.68
1459.933	1167.33
1463.177	1185.16
1466.42	1175.2
1469.663	1162.49
1472.906	1168.06
1476.148	1194.06
1479.391	1175.2
1482.633	1168.24
1485.874	1177.28
1489.115	1177.39
1492.356	1174.28
1495.597	1161.54
1498.838	1157.12
1502.078	1152.25
1505.318	1144.83
1508.557	1154.95
1511.797	1152.67
1515.036	1175.23
1518.274	1155.31
1521.513	1131.7
1524.751	1136.26
1527.989	1142.83
1531.227	1152.2
1534.464	1151.8
1537.701	1147.22
1540.938	1149.84
1544.174	1129.64
1547.41	1121.44
1550.646	1139.13
1553.882	1158.17
1557.117	1189.03
1560.352	1191.49
1563.587	1169.96
1566.821	1156.26
1570.055	1167.32
1573.289	1151.96
1576.523	1176.01
1579.756	1180.98
1582.989	1194.82
1586.222	1172.83
1589.454	1190.74
1592.686	1182.03
1595.918	1191.46
1599.15	1194.18
1602.381	1213.08
1605.612	1206.6
1608.843	1248.73
1612.073	1214.45
1615.303	1208.08
1618.533	1200.98
1621.762	1203.7
1624.992	1192.88
1628.221	1187.25
1631.449	1184.57
1634.678	1196.83
1637.906	1181.86
1641.134	1189.29
1644.361	1175.71
1647.588	1168.81
1650.815	1183.26
1654.042	1168.43
1657.269	1179.1
1660.495	1168.95
1663.72	1166.74
1666.946	1148.98
1670.171	1140.42
1673.396	1126.73
1676.621	1120.01
1679.845	1119.73
1683.069	1121.65
1686.293	1131.69
1689.517	1125.77
1692.74	1106.38
1695.963	1116.57
1699.185	1130.31
1702.408	1120.33
1705.63	1131.97
1708.852	1138.29
1712.073	1126.02
1715.294	1133.4
1718.515	1159.31
1721.736	1138.99
1724.956	1136.06
1728.176	1147.86
1731.396	1152.31
1734.616	1150.46
1737.835	1172.55
1741.054	1156.93
1744.272	1156.8
1747.491	1173.64
1750.709	1183.57
1753.927	1160.23
1757.144	1176.59
1760.361	1198.6
1763.578	1182.14
1766.795	1161.39
1770.011	1157.76
1773.227	1166.09
1776.443	1187.03
1779.658	1203.67
1782.874	1180.41
1786.089	1173.71
1789.303	1175.12
1792.518	1176.71
1795.732	1171.18
1798.945	1178.49
1802.159	1201.8
1805.372	1171.93
1808.585	1167.17
1811.797	1165.89
1815.01	1181.82
1818.222	1194.21
1821.434	1182.39
1824.645	1197.29
1827.856	1197.11
1831.067	1207.98
1834.278	1190.53
1837.488	1179.13
1840.698	1235.94
1843.908	1217.09
1847.117	1203.04
1850.326	1167.32
1853.535	1197.25
1856.744	1211.72
1859.952	1178.44
1863.16	1178.11
1866.368	1194.83
1869.575	1237.74
1872.782	1189.37
1875.989	1161.56
1879.196	1184.41
1882.402	1180.75
1885.608	1195.21
1888.814	1166.83
1892.019	1124.58
1895.224	1152.89
1898.429	1140.73
1901.634	1129.15
1904.838	1122.86
1908.042	1146.85
1911.246	1156.93
1914.449	1139.26
1917.652	1131.76
1920.855	1124.02
1924.058	1135.81
1927.26	1163.02
1930.462	1171.64
1933.664	1189.39
1936.865	1165.69
1940.066	1170.78
1943.267	1146.67
1946.467	1150.08
1949.668	1154.08
1952.868	1191.52
1956.067	1191.67
1959.267	1163.43
1962.466	1173.46
1965.665	1161.18
1968.863	1161.95
1972.061	1157.51
1975.259	1157.43
1978.457	1194.96
1981.654	1176.4
1984.852	1177.42
1988.048	1157.64
1991.245	1145.99
1994.441	1188.43
1997.637	1161.85
2000.833	1156.83
2004.028	1169.2
2007.223	1202.33
2010.418	1188.92
2013.613	1166.92
2016.807	1163.95
2020.001	1164.33
2023.194	1172.79
2026.388	1165.04
2029.581	1139.81
2032.774	1172.46
2035.966	1177.21
2039.158	1151.48
2042.35	1162.91
2045.542	1129.64
2048.733	1168.35
2051.924	1158.91
2055.115	1165.49
2058.306	1151.47
2061.496	1174.1
2064.686	1197.41
2067.875	1149.29
2071.065	1150.04
2074.254	1160.03
2077.442	1139.31
2080.631	1176.92
2083.819	1146.42
2087.007	1142.78
2090.195	1136.48
2093.382	1139
2096.569	1139.23
2099.756	1117.55
2102.942	1148.93
2106.128	1150.25
2109.314	1147.55
2112.5	1140.75
2115.685	1128.37
2118.87	1130.18
2122.055	1166.73
2125.239	1153.66
2128.424	1150.48
2131.608	1174.82
2134.791	1167.55
2137.974	1183.3
2141.157	1179.8
2144.34	1166.02
2147.523	1158.12
2150.705	1174.08
2153.887	1157.4
2157.068	1144.39
2160.25	1132.31
2163.431	1143.14
2166.611	1129.5
2169.792	1140.49
2172.972	1091.99
2176.152	1124.26
2179.331	1133.54
2182.511	1132.6
2185.69	1137.66
2188.868	1137.89
2192.047	1155.49
2195.225	1171.53
2198.403	1143.99
2201.58	1135.56
2204.758	1128.79
2207.935	1165.7
2211.111	1121.05
2214.288	1115.04
2217.464	1130.84
2220.64	1116.26
2223.815	1139.62
2226.991	1103.25
2230.166	1108.9
2233.34	1126.81
2236.515	1135.49
2239.689	1172.29
2242.863	1148.81
2246.036	1173.41
2249.209	1167.89
2252.382	1181.63
2255.555	1182.4
2258.727	1162.07
2261.9	1180.39
2265.071	1177.23
2268.243	1180.11
2271.414	1157.27
2274.585	1142.63
2277.756	1173.01
2280.926	1154.33
2284.096	1170.88
2287.266	1133.69
2290.436	1160.9
2293.605	1164.51
2296.774	1180.45
2299.942	1184.49
2303.111	1192.48
2306.279	1214.13
2309.447	1209.06
2312.614	1197.66
2315.781	1205.22
2318.948	1192.83
2322.115	1214.13
2325.281	1160.38
2328.447	1167.36
2331.613	1151.89
2334.779	1148.57
2337.944	1147.06
2341.109	1146.68
2344.274	1142.53
2347.438	1123.16
2350.602	1136.62
2353.766	1140.57
2356.929	1136.81
2360.092	1159.09
2363.255	1139.35
2366.418	1129.33
2369.58	1144.88
2372.742	1131
2375.904	1121.29
2379.066	1117.95
2382.227	1132.21
2385.388	1112.2
2388.548	1091.94
2391.709	1107.05
2394.869	1102.72
2398.029	1132.55
2401.188	1122.57
2404.347	1115.16
2407.506	1109.77
2410.665	1139.06
2413.823	1126.8
2416.981	1119.32
2420.139	1127.01
2423.296	1145.63
2426.453	1132.6
2429.61	1144.81
2432.767	1129.96
2435.923	1148.26
2439.079	1125.52
2442.235	1142.75
2445.391	1113.18
2448.546	1133.49
2451.701	1149.29
2454.855	1147.88
2458.009	1162.66
2461.163	1157
2464.317	1138.8
2467.471	1151.37
2470.624	1168.95
2473.777	1163.32
2476.929	1170.13
2480.082	1179.36
2483.234	1172.84
2486.385	1144.73
2489.537	1141.45
2492.688	1131.67
2495.839	1145.58
2498.989	1150.18
2502.14	1143.03
2505.29	1136.63
2508.439	1148.58
2511.589	1122.73
2514.738	1124.06
2517.887	1131.25
2521.035	1165.61
2524.183	1146.27
2527.331	1142
2530.479	1134.43
2533.627	1139.24
