Data from N_1_DEC_OH_4N_Splice17_11-20-28-488.txt Node
Date: Sat Mar 14 11:20:28 EDT 2020
User: sa697716
Spectrometer: FLMS03696
Trigger mode: 0
Integration Time (sec): 3.180400E-1
Scans to average: 20
Electric dark correction enabled: true
Nonlinearity correction enabled: true
Boxcar width: 5
XAxis mode: Wavelengths
Number of Pixels in Spectrum: 2048
>>>>>Begin Spectral Data<<<<<
187.83	-70079.61
188.298	718.77
188.766	465.95
189.233	431.36
189.701	589.65
190.169	750.27
190.636	323.01
191.104	319.79
191.571	118.97
192.039	58.57
192.506	44.69
192.974	300.09
193.441	46.39
193.908	216.53
194.375	102.08
194.842	133.86
195.31	171.33
195.777	167.55
196.244	252.66
196.711	215.53
197.177	221.37
197.644	231.84
198.111	321.27
198.578	363
199.045	280.52
199.511	450.81
199.978	496.17
200.445	436.55
200.911	451.63
201.378	465.54
201.844	444.05
202.31	716.45
202.777	743.03
203.243	453.63
203.709	438
204.176	520.26
204.642	430.77
205.108	404.14
205.574	339.09
206.04	294.03
206.506	273.87
206.972	242.67
207.438	228.39
207.903	258.5
208.369	236.53
208.835	245.8
209.301	256.24
209.766	246.09
210.232	243.29
210.697	288.85
211.163	369.57
211.628	510.02
212.094	440.65
212.559	591.15
213.024	367.47
213.49	443.83
213.955	393.5
214.42	353.63
214.885	330.26
215.35	316.53
215.815	319.12
216.28	322.81
216.745	262.53
217.21	294.33
217.675	232.07
218.14	255.03
218.604	261.29
219.069	285.88
219.534	314.92
219.998	321.22
220.463	351.68
220.927	345.75
221.392	287.48
221.856	279.73
222.32	276.55
222.785	322.13
223.249	365.75
223.713	381.25
224.177	358.49
224.642	360.49
225.106	428.15
225.57	445.32
226.034	368.91
226.497	567.79
226.961	526.14
227.425	580.6
227.889	598.07
228.353	533.13
228.816	928.39
229.28	904.23
229.744	778.76
230.207	500.79
230.671	445.11
231.134	602.57
231.597	688.72
232.061	595.99
232.524	568.93
232.987	380.71
233.45	383.61
233.914	340.42
234.377	289.15
234.84	276.35
235.303	312.1
235.766	371.61
236.229	384.31
236.691	222.98
237.154	244.37
237.617	212.4
238.08	217.4
238.542	225.86
239.005	186.03
239.468	209.16
239.93	189.96
240.393	171.7
240.855	154.03
241.317	153.08
241.78	173.67
242.242	193.7
242.704	221.96
243.166	210.86
243.629	224.62
244.091	250.08
244.553	265.45
245.015	294.5
245.477	369.62
245.939	497.51
246.4	507.29
246.862	482.84
247.324	451.75
247.786	484.75
248.247	590.29
248.709	446.38
249.17	353.47
249.632	394.65
250.093	470.88
250.555	382.05
251.016	272.63
251.477	266.22
251.939	285.54
252.4	287.1
252.861	302.7
253.322	285.43
253.783	345.58
254.244	416.45
254.705	283.36
255.166	208.62
255.627	223.69
256.088	290.21
256.549	338.03
257.009	305.8
257.47	350.94
257.931	295.1
258.391	240.09
258.852	246.32
259.312	262
259.773	293.32
260.233	293.48
260.694	252.46
261.154	267.42
261.614	245
262.074	218.29
262.534	236.83
262.994	220.23
263.455	254.53
263.915	243.03
264.374	213.51
264.834	238.77
265.294	240.69
265.754	263.44
266.214	256.15
266.673	220.51
267.133	251.94
267.593	242.23
268.052	296.67
268.512	264.78
268.971	333.12
269.431	384.56
269.89	359.19
270.349	555.98
270.809	592.09
271.268	540.37
271.727	1097.46
272.186	760.19
272.645	569.55
273.104	387.5
273.563	564.21
274.022	402.45
274.481	369.23
274.94	287.71
275.399	213.1
275.857	234.12
276.316	280.82
276.775	263.37
277.233	246.68
277.692	272.33
278.15	326.6
278.609	369.64
279.067	338.65
279.525	320.05
279.984	412.94
280.442	489.14
280.9	560.75
281.358	402.36
281.816	388.22
282.274	400.36
282.732	363.92
283.19	360.77
283.648	294.1
284.106	291.88
284.564	285.11
285.021	254.17
285.479	185.14
285.937	139.91
286.394	136.39
286.852	120.2
287.309	120.64
287.767	145.36
288.224	160.78
288.682	173
289.139	229.26
289.596	209.53
290.053	206.2
290.511	245.27
290.968	301.06
291.425	373.08
291.882	361.3
292.339	322.27
292.796	289.94
293.252	253.06
293.709	213.86
294.166	169.88
294.623	180.49
295.079	175.86
295.536	189.53
295.992	184.58
296.449	189.42
296.905	196.52
297.362	209.68
297.818	205.47
298.274	227.78
298.731	229.02
299.187	226.4
299.643	254.09
300.099	300.95
300.555	337.44
301.011	288.63
301.467	314.26
301.923	326.42
302.379	307.04
302.835	314.54
303.291	297.87
303.746	341.54
304.202	430.82
304.658	413.91
305.113	309.39
305.569	296.92
306.024	285.38
306.479	221.93
306.935	216.77
307.39	216.98
307.845	223.11
308.301	240.89
308.756	231.54
309.211	233.63
309.666	226.56
310.121	298.12
310.576	291.59
311.031	288.67
311.486	290.19
311.94	256.79
312.395	344.19
312.85	531.08
313.305	2084.05
313.759	13745.62
314.214	1030.06
314.668	881.83
315.123	839.3
315.577	348.81
316.032	320.33
316.486	426.6
316.94	393.67
317.394	301.49
317.849	248.82
318.303	224.62
318.757	214.96
319.211	220.43
319.665	200.11
320.119	181.19
320.572	240.51
321.026	238.54
321.48	195.93
321.934	188.73
322.387	170.01
322.841	196.63
323.295	212.18
323.748	185.59
324.202	211.96
324.655	261.28
325.108	395.64
325.562	305.72
326.015	355.52
326.468	278.99
326.921	318.1
327.374	318.04
327.827	341.33
328.28	365.75
328.733	284.13
329.186	258.89
329.639	248.22
330.092	205.87
330.545	201.88
330.997	209.45
331.45	264.71
331.903	330.22
332.355	523.16
332.808	481.78
333.26	421.16
333.713	472.81
334.165	454.11
334.617	585.06
335.069	411.6
335.522	632.16
335.974	649.45
336.426	496.01
336.878	243.82
337.33	158.62
337.782	149.29
338.234	197.94
338.686	178.81
339.137	209.91
339.589	183.88
340.041	178.16
340.493	153.97
340.944	165.66
341.396	173.6
341.847	196.01
342.299	262.46
342.75	356.99
343.201	277.14
343.653	343.15
344.104	399.54
344.555	335.15
345.006	442.97
345.457	434.19
345.908	319.69
346.359	328.15
346.81	239.1
347.261	207.21
347.712	181.37
348.163	182.47
348.613	231.82
349.064	234.04
349.515	208.85
349.965	253.47
350.416	265.65
350.866	304.83
351.317	327.09
351.767	570.38
352.217	713.26
352.668	602.1
353.118	582.52
353.568	441.78
354.018	351.36
354.468	371.01
354.918	273.46
355.368	243.39
355.818	322.13
356.268	775.77
356.718	3429.7
357.168	886.49
357.617	481.27
358.067	503.02
358.517	508.24
358.966	623.71
359.416	745.53
359.865	821.82
360.315	898.33
360.764	470.33
361.213	279.57
361.663	249.96
362.112	267.83
362.561	410.34
363.01	332.42
363.459	276.69
363.908	281.62
364.357	265.69
364.806	372.17
365.255	287.41
365.703	281.96
366.152	304.44
366.601	216.48
367.05	227.32
367.498	219.83
367.947	196.99
368.395	208.7
368.844	200.16
369.292	184.09
369.74	146.82
370.189	186.78
370.637	192.1
371.085	164.2
371.533	242.12
371.981	182.62
372.429	187.51
372.877	219.77
373.325	176.16
373.773	138.72
374.221	144.88
374.669	166.22
375.116	151.72
375.564	154.91
376.012	159.35
376.459	144.48
376.907	198.43
377.354	205.31
377.801	224.66
378.249	268.81
378.696	348.26
379.143	418.43
379.591	421.02
380.038	742.31
380.485	620.15
380.932	721.85
381.379	715.33
381.826	603.86
382.273	438.67
382.72	349.11
383.166	345.43
383.613	246.56
384.06	219
384.506	260.96
384.953	198.12
385.4	193.35
385.846	160.02
386.292	133.78
386.739	103.59
387.185	85.08
387.631	83.06
388.078	90.6
388.524	85.84
388.97	85.67
389.416	82.16
389.862	87.25
390.308	75.05
390.754	79.48
391.2	88.09
391.645	88.13
392.091	120.33
392.537	129.41
392.983	113.92
393.428	144.44
393.874	138.75
394.319	144.55
394.765	151.25
395.21	150.59
395.655	144.59
396.101	140.25
396.546	129.4
396.991	109.45
397.436	97.96
397.881	93.03
398.326	67.76
398.771	69.65
399.216	54.01
399.661	44.06
400.106	53.18
400.551	58.04
400.995	54.65
401.44	55.48
401.885	53.2
402.329	52.3
402.774	54.55
403.218	63.23
403.663	59.41
404.107	62.69
404.551	65.83
404.995	56.19
405.44	45.72
405.884	42.54
406.328	32.66
406.772	29.54
407.216	27.79
407.66	26.3
408.104	16.21
408.547	18.05
408.991	17.55
409.435	14.77
409.879	18.84
410.322	22.48
410.766	23.34
411.209	29.02
411.653	28.49
412.096	29.06
412.54	25.82
412.983	26.98
413.426	27.85
413.869	26.85
414.312	31.41
414.756	27.08
415.199	27.05
415.642	29.14
416.085	29.73
416.527	29.77
416.97	30.22
417.413	31.28
417.856	30.07
418.298	31.09
418.741	30.85
419.184	24.52
419.626	21.02
420.069	19.74
420.511	17.03
420.953	16.38
421.396	17.24
421.838	15.39
422.28	16.56
422.722	18.28
423.164	14.44
423.606	14.27
424.048	16.78
424.49	18.5
424.932	15.47
425.374	15.28
425.816	13.92
426.258	15.87
426.699	16.43
427.141	18.89
427.582	17.4
428.024	17.89
428.465	13.51
428.907	11.58
429.348	11.49
429.789	15.06
430.231	18.63
430.672	19.49
431.113	18.18
431.554	18.47
431.995	16.08
432.436	20.15
432.877	19.29
433.318	24.33
433.759	23.1
434.2	25.22
434.64	22.28
435.081	20.93
435.522	21.88
435.962	20.48
436.403	21.88
436.843	20.17
437.284	17.46
437.724	16.04
438.164	11.35
438.604	12.4
439.045	12.11
439.485	14.09
439.925	12.59
440.365	10.51
440.805	9.06
441.245	8.16
441.685	8.66
442.125	7.32
442.564	8.4
443.004	10.39
443.444	10.17
443.883	10.77
444.323	8.58
444.762	5.06
445.202	2.92
445.641	6.15
446.081	5.43
446.52	5.38
446.959	6.88
447.398	8.65
447.837	8.67
448.276	9.53
448.716	10.01
449.154	10.3
449.593	13.56
450.032	15.78
450.471	12.74
450.91	12.2
451.349	13.75
451.787	12.39
452.226	10.77
452.664	9.75
453.103	8.79
453.541	6.52
453.98	8.25
454.418	8.34
454.856	8.98
455.295	10.03
455.733	10.32
456.171	9.21
456.609	11.18
457.047	11.35
457.485	14.07
457.923	14.7
458.361	14.62
458.798	13.88
459.236	13.15
459.674	12.08
460.111	11.67
460.549	11.63
460.987	10.34
461.424	8.13
461.862	7.77
462.299	6.92
462.736	7.51
463.173	7.73
463.611	10.34
464.048	10.88
464.485	10.82
464.922	10.28
465.359	9.5
465.796	16.53
466.233	18.69
466.67	21.06
467.106	21.34
467.543	19.68
467.98	19
468.416	17.72
468.853	17.28
469.29	17.04
469.726	17.24
470.162	17.43
470.599	11.72
471.035	9.56
471.471	8.55
471.907	7.36
472.344	7.56
472.78	8.02
473.216	7.34
473.652	7.41
474.088	6.39
474.523	6.47
474.959	5.7
475.395	6.5
475.831	6.94
476.266	6.33
476.702	6.5
477.138	6.85
477.573	6.71
478.008	6.52
478.444	6.92
478.879	9.28
479.314	9.89
479.75	10.31
480.185	9.86
480.62	9.81
481.055	10.09
481.49	9.73
481.925	10.19
482.36	11.45
482.795	10.67
483.229	9.76
483.664	8.89
484.099	8.31
484.534	9.11
484.968	9.65
485.403	9.16
485.837	7.92
486.271	7.66
486.706	7.26
487.14	6.29
487.574	7.03
488.009	7.25
488.443	7.09
488.877	7.95
489.311	6.98
489.745	6.21
490.179	7.02
490.613	9.02
491.046	9.15
491.48	8.69
491.914	9.33
492.348	9.01
492.781	9.06
493.215	9.33
493.648	8.1
494.082	8.46
494.515	9.16
494.948	9.35
495.382	8.12
495.815	8.54
496.248	9.27
496.681	8.47
497.114	7.77
497.547	8.28
497.98	8.65
498.413	10.03
498.846	10.58
499.279	9.76
499.711	9.46
500.144	9.31
500.577	9.8
501.009	9.29
501.442	10.34
501.874	11.56
502.306	11.1
502.739	12.48
503.171	12.43
503.603	12.26
504.036	12.59
504.468	12.96
504.9	13.37
505.332	13.01
505.764	13.3
506.196	12.7
506.627	12.86
507.059	13.06
507.491	10.93
507.923	11.03
508.354	11.68
508.786	11.76
509.217	11.24
509.649	11.27
510.08	10.96
510.512	11.76
510.943	12.2
511.374	11.93
511.805	11.7
512.237	11.78
512.668	11.15
513.099	9.89
513.53	10.48
513.961	11.65
514.391	12.01
514.822	13.66
515.253	13.41
515.684	13.54
516.114	14.05
516.545	14.68
516.975	15.29
517.406	15.21
517.836	15.5
518.267	15.19
518.697	15.22
519.127	15.05
519.558	14.6
519.988	14.94
520.418	14.64
520.848	13.59
521.278	13.22
521.708	29.19
522.138	29.9
522.567	29.8
522.997	30.39
523.427	30.03
523.857	30.35
524.286	30.11
524.716	29.99
525.145	30.56
525.575	32.07
526.004	31.95
526.433	16.75
526.863	16.42
527.292	17.64
527.721	17.48
528.15	17.43
528.579	17.83
529.008	18.13
529.437	17.67
529.866	17.73
530.295	17.16
530.724	18.22
531.152	18.25
531.581	18.95
532.01	18.78
532.438	18.94
532.867	19.2
533.295	19.34
533.723	19.55
534.152	19.98
534.58	19.68
535.008	19.91
535.436	20.54
535.865	20
536.293	19.16
536.721	18.87
537.149	18.79
537.576	19.09
538.004	18.57
538.432	17.32
538.86	17.7
539.287	17.77
539.715	17.89
540.143	16.79
540.57	17.03
540.998	17.48
541.425	19.09
541.852	19.1
542.28	18.93
542.707	18.93
543.134	19.71
543.561	19.97
543.988	20.14
544.415	20.1
544.842	20
545.269	19.87
545.696	20.33
546.123	19.9
546.549	19.73
546.976	19.79
547.403	20.07
547.829	19.84
548.256	19.43
548.682	19.34
549.108	19.97
549.535	19.96
549.961	19.92
550.387	19.68
550.813	20.02
551.24	20.49
551.666	20.18
552.092	20.09
552.518	20.15
552.943	20.44
553.369	20.29
553.795	19.62
554.221	19.97
554.646	19.94
555.072	20.91
555.498	19.23
555.923	18.42
556.349	18.66
556.774	18.33
557.199	18.06
557.625	17.35
558.05	17.9
558.475	17.67
558.9	17.41
559.325	17.93
559.75	17.38
560.175	17.44
560.6	17.58
561.025	17.39
561.449	18.16
561.874	17.81
562.299	18.08
562.723	17.92
563.148	17.91
563.572	17.35
563.997	16.59
564.421	15.52
564.846	15.5
565.27	15.69
565.694	15.25
566.118	14.85
566.542	15.73
566.966	15.68
567.39	15.36
567.814	15.87
568.238	15.74
568.662	15.66
569.086	16.26
569.509	16.02
569.933	17.28
570.357	17.37
570.78	17.18
571.204	17.81
571.627	17.92
572.05	17.81
572.474	17.98
572.897	18.85
573.32	19.38
573.743	18.74
574.166	19.44
574.589	18.53
575.012	18.36
575.435	18.35
575.858	17.9
576.281	17.82
576.704	17.18
577.126	15.94
577.549	15.25
577.972	15.13
578.394	15.5
578.817	16.48
579.239	15.84
579.661	16.35
580.084	16.86
580.506	16.57
580.928	15.81
581.35	16.6
581.772	17.32
582.194	17.33
582.616	16.21
583.038	15.35
583.46	13.89
583.882	14.17
584.303	12.91
584.725	12.47
585.147	15.61
585.568	15.81
585.99	15.96
586.411	16.33
586.833	16.62
587.254	17.54
587.675	17.63
588.096	17.91
588.518	18.24
588.939	18.55
589.36	17.95
589.781	13.77
590.202	15.99
590.623	15.6
591.043	14.45
591.464	14.3
591.885	15.11
592.305	15.24
592.726	15.1
593.147	14.85
593.567	15.48
593.987	15.9
594.408	15.88
594.828	13.23
595.248	13.42
595.669	14.33
596.089	13.99
596.509	13.09
596.929	12.68
597.349	12.79
597.769	12.25
598.189	12.08
598.608	12.05
599.028	12.53
599.448	12.61
599.867	12.35
600.287	11.7
600.706	12.06
601.126	12.28
601.545	13.25
601.965	13.18
602.384	13.48
602.803	13.15
603.222	13.08
603.641	12.67
604.061	13.2
604.48	13.18
604.898	13.35
605.317	13.11
605.736	12.71
606.155	12.79
606.574	12.56
606.992	12.49
607.411	12.8
607.829	11.81
608.248	11.32
608.666	10.56
609.085	10.02
609.503	9.73
609.921	10.37
610.339	10.32
610.758	9.28
611.176	8.7
611.594	8.84
612.012	8.78
612.43	9.56
612.847	9.67
613.265	10.33
613.683	10.97
614.101	11.17
614.518	10.32
614.936	10.39
615.353	11.57
615.771	12.36
616.188	12.27
616.606	12.05
617.023	12.11
617.44	12.04
617.857	11.24
618.274	10.87
618.691	10.91
619.108	11.55
619.525	11.39
619.942	10.86
620.359	10.62
620.776	10.65
621.192	11.84
621.609	12.58
622.026	12.82
622.442	13.27
622.859	12.58
623.275	12.09
623.691	11.64
624.108	11.88
624.524	11.88
624.94	12.37
625.356	11.86
625.772	10.63
626.188	9.04
626.604	9.24
627.02	9.46
627.436	10.36
627.852	11.61
628.268	12.16
628.683	11.61
629.099	11.35
629.514	10.13
629.93	9.83
630.345	10
630.761	10.47
631.176	10.33
631.591	11.98
632.007	12.37
632.422	10.67
632.837	9.24
633.252	10.11
633.667	10.36
634.082	10.98
634.497	11.91
634.911	13.02
635.326	13.05
635.741	13.42
636.155	11.94
636.57	12.45
636.984	13.42
637.399	14.58
637.813	13.89
638.228	14.15
638.642	14.29
639.056	13.51
639.47	12.99
639.884	13.44
640.298	12.78
640.712	13.33
641.126	12.35
641.54	11.96
641.954	10.49
642.368	10.46
642.781	12.16
643.195	11.74
643.609	12.49
644.022	11.89
644.436	10.62
644.849	10.26
645.262	9.66
645.676	9.07
646.089	8.66
646.502	9.94
646.915	10.05
647.328	7.73
647.741	8.29
648.154	8.23
648.567	9.68
648.98	11.09
649.393	10.93
649.805	11.01
650.218	10.69
650.631	11.21
651.043	12.11
651.456	12.38
651.868	12.92
652.28	12.27
652.693	11.95
653.105	10.58
653.517	9.87
653.929	10.61
654.341	11.3
654.753	12.95
655.165	13.05
655.577	11.95
655.989	11.65
656.401	10.82
656.813	11.19
657.224	10.61
657.636	10.43
658.047	11.58
658.459	11.5
658.87	9.82
659.282	8.95
659.693	9.03
660.104	9.24
660.515	9.19
660.926	8.52
661.338	8.53
661.749	8.35
662.159	9.25
662.57	7.89
662.981	7.85
663.392	8.18
663.803	7.97
664.213	7.55
664.624	7.39
665.035	7.09
665.445	7.53
665.855	7.83
666.266	9.18
666.676	8.24
667.086	7.57
667.497	7.74
667.907	8.12
668.317	8.07
668.727	10.49
669.137	10.05
669.547	10.25
669.956	10.28
670.366	9.91
670.776	9.46
671.186	9.91
671.595	11
672.005	10.3
672.414	10.64
672.824	11.1
673.233	8.92
673.642	8.79
674.052	9.2
674.461	10.86
674.87	11.34
675.279	11.72
675.688	10.02
676.097	10.15
676.506	10.71
676.915	9.88
677.323	9.79
677.732	9.51
678.141	9.47
678.549	9.74
678.958	7.61
679.366	6.47
679.775	4.91
680.183	7.02
680.592	7.32
681	7.27
681.408	8.08
681.816	7.65
682.224	7.2
682.632	9.1
683.04	9.02
683.448	10.13
683.856	11.52
684.264	13.83
684.671	13.12
685.079	13.41
685.487	13.68
685.894	13.03
686.302	12.69
686.709	14.13
687.116	12.94
687.524	13.38
687.931	14.15
688.338	14.38
688.745	13.43
689.152	12.84
689.559	12.29
689.966	13.41
690.373	14.65
690.78	16.78
691.187	16.97
691.593	17.56
692	16.92
692.407	16.7
692.813	18.94
693.22	20.4
693.626	20.08
694.032	20.41
694.439	21.03
694.845	20.87
695.251	19.64
695.657	20.39
696.063	19.85
696.469	20.95
696.875	20.65
697.281	19.19
697.687	17.76
698.093	18.2
698.498	19.1
698.904	17.88
699.31	18.25
699.715	19.99
700.12	19.99
700.526	20.79
700.931	20.45
701.337	21.86
701.742	23.24
702.147	24.51
702.552	25.21
702.957	24.29
703.362	24.75
703.767	25.23
704.172	25.1
704.577	24.94
704.981	24.32
705.386	25.3
705.791	24.91
706.195	23.46
706.6	23.01
707.004	21.86
707.408	22.11
707.813	23.12
708.217	23.75
708.621	23.7
709.025	23.24
709.43	24.99
709.834	24.83
710.237	24.8
710.641	25.07
711.045	25.37
711.449	27.85
711.853	30.19
712.256	29.25
712.66	28.47
713.064	28.84
713.467	30.27
713.87	30.01
714.274	30.5
714.677	31.28
715.08	31.81
715.484	32.61
715.887	33.92
716.29	31.28
716.693	33.68
717.096	35.13
717.499	35.57
717.901	35.01
718.304	34.84
718.707	34.64
719.109	34.01
719.512	33.03
719.915	35.8
720.317	35.22
720.719	35.97
721.122	35.42
721.524	35.2
721.926	38.57
722.328	39.32
722.731	38.28
723.133	37.74
723.535	38.49
723.937	39.79
724.338	38.89
724.74	39.66
725.142	78.04
725.544	80.83
725.945	90
726.347	86.06
726.748	85.88
727.15	87.6
727.551	90.55
727.952	89.75
728.354	88.42
728.755	86.99
729.156	85.79
729.557	49.24
729.958	45.81
730.359	36.2
730.76	36.07
731.161	36.25
731.562	34.67
731.962	32.19
732.363	32.47
732.763	33.34
733.164	32.49
733.564	32.87
733.965	33.23
734.365	33.65
734.766	36
735.166	36.6
735.566	37.26
735.966	38.59
736.366	39.48
736.766	39.28
737.166	38.38
737.566	39.1
737.966	38.23
738.365	38.3
738.765	37.9
739.165	35.69
739.564	35.47
739.964	33.81
740.363	32.08
740.763	30.4
741.162	30.86
741.561	29.86
741.96	29.39
742.36	29.08
742.759	29.14
743.158	28.99
743.557	28.28
743.955	27.78
744.354	27.86
744.753	29.12
745.152	30.37
745.55	29.48
745.949	29.97
746.348	30.17
746.746	30.04
747.144	31.86
747.543	30.76
747.941	31.87
748.339	31.98
748.737	32.68
749.136	33.24
749.534	31.77
749.932	33.38
750.33	33.52
750.727	33.05
751.125	33.46
751.523	31.85
751.921	34.69
752.318	34.31
752.716	35.34
753.113	34.77
753.511	34.92
753.908	36.09
754.305	38.68
754.703	39.02
755.1	39.7
755.497	40.15
755.894	39.99
756.291	38.73
756.688	40.27
757.085	39.65
757.482	41.46
757.878	43.21
758.275	45.51
758.672	40.15
759.068	42.39
759.465	44.48
759.861	45.58
760.258	48.62
760.654	52.1
761.05	52.73
761.447	50.6
761.843	52.76
762.239	48.87
762.635	45.64
763.031	45.36
763.427	42.28
763.822	40.11
764.218	38.29
764.614	36.01
765.01	32.54
765.405	30.65
765.801	31.91
766.196	28.41
766.592	27.66
766.987	28.35
767.382	27.84
767.778	27.98
768.173	28.04
768.568	28.17
768.963	28.6
769.358	29.18
769.753	31.34
770.148	31.19
770.542	31.11
770.937	31.25
771.332	31.92
771.726	32.2
772.121	35.4
772.515	35.9
772.91	35.66
773.304	36.44
773.699	36.06
774.093	34.31
774.487	34.16
774.881	35.14
775.275	35.6
775.669	33.57
776.063	34.23
776.457	33.69
776.851	32.99
777.245	33.77
777.638	32.51
778.032	32.49
778.425	34.46
778.819	38.22
779.212	40.02
779.606	41.05
779.999	41.69
780.392	42.43
780.786	40.76
781.179	43.09
781.572	43.06
781.965	44.18
782.358	45.84
782.751	44.11
783.143	40.32
783.536	40.49
783.929	38.54
784.322	38.55
784.714	37.7
785.107	37.84
785.499	36.76
785.891	38.78
786.284	39.21
786.676	37.81
787.068	40.15
787.46	42.11
787.852	39.43
788.245	40.04
788.636	39.51
789.028	41.3
789.42	43.19
789.812	42.9
790.204	42.74
790.595	44.04
790.987	45.14
791.378	44.54
791.77	43.25
792.161	44.74
792.553	45.03
792.944	47.41
793.335	45.17
793.726	44.42
794.117	46.95
794.508	44.48
794.899	43.41
795.29	42.19
795.681	41.09
796.072	41.08
796.463	53.92
796.853	57.12
797.244	56.73
797.634	58.62
798.025	57.91
798.415	55.61
798.806	56.64
799.196	57.39
799.586	59.15
799.976	60.31
800.366	62.03
800.756	45.71
801.146	44
801.536	44.62
801.926	43.42
802.316	44.73
802.706	44.6
803.095	46.02
803.485	44.91
803.874	45.54
804.264	44.7
804.653	43.27
805.043	47.18
805.432	46.81
805.821	48.2
806.21	48.71
806.599	47.06
806.988	48.3
807.377	44.9
807.766	44.87
808.155	45.22
808.544	44.98
808.933	45.64
809.321	47.42
809.71	47.05
810.098	46.77
810.487	45.93
810.875	47.85
811.264	47.6
811.652	58.12
812.04	60.11
812.428	60.5
812.816	61.37
813.204	63.11
813.592	60.79
813.98	58.13
814.368	57.34
814.756	60.74
815.144	59.49
815.531	62.8
815.919	54.32
816.306	53.04
816.694	50.68
817.081	54.23
817.469	55
817.856	51.35
818.243	53.97
818.63	50.86
819.017	51.84
819.404	54.06
819.791	50.44
820.178	47.94
820.565	52.07
820.952	62.04
821.339	60.63
821.725	63.05
822.112	65.72
822.498	68.06
822.885	69.46
823.271	64.95
823.657	63.03
824.044	64.13
824.43	63.97
824.816	67.19
825.202	62.53
825.588	62.8
825.974	61.99
826.36	62.41
826.746	58.73
827.132	60.02
827.517	61.61
827.903	59.63
828.289	66.26
828.674	65.79
829.06	61.75
829.445	59.2
829.83	57.41
830.216	59.43
830.601	60.75
830.986	69.78
831.371	70.04
831.756	71.7
832.141	77.02
832.526	72.79
832.911	73.54
833.295	70.37
833.68	70.92
834.065	73.36
834.449	70.44
834.834	70.95
835.218	64.28
835.603	65.37
835.987	61.28
836.371	57.97
836.755	57.87
837.139	57
837.524	56.11
837.908	54.77
838.291	55.82
838.675	51.68
839.059	50.19
839.443	52.31
839.827	50.29
840.21	52.7
840.594	55.96
840.977	57.51
841.361	59.27
841.744	57.92
842.127	56.86
842.511	55.35
842.894	56.49
843.277	57.6
843.66	55.47
844.043	55.45
844.426	58.58
844.809	52.88
845.191	55.07
845.574	55.94
845.957	56.91
846.339	59.12
846.722	56.7
847.104	55.5
847.487	51.82
847.869	52.01
848.252	56.43
848.634	54.84
849.016	54.22
849.398	48.12
849.78	46.36
850.162	49.16
850.544	49.03
850.926	48.07
851.307	47.66
851.689	51.39
852.071	50.5
852.452	46.62
852.834	44.73
853.215	47.6
853.597	50.08
853.978	55.58
854.359	53.44
854.741	55.4
855.122	54.63
855.503	54.02
855.884	51.81
856.265	53.05
856.646	50.23
857.026	53.3
857.407	56.44
857.788	52.16
858.169	45.49
858.549	51.13
858.93	47.85
859.31	51.85
859.69	57.94
860.071	59.49
860.451	59.04
860.831	59.43
861.211	55.63
861.591	48.93
861.971	52.21
862.351	54.75
862.731	46.77
863.111	49.96
863.491	52.32
863.87	50.33
864.25	48.03
864.629	51.61
865.009	50.66
865.388	56.91
865.768	59.32
866.147	58.33
866.526	58.12
866.905	62.44
867.284	57.23
867.663	49.72
868.042	41.53
868.421	42.83
868.8	38.08
869.179	44.52
869.558	41.04
869.936	44.16
870.315	43.22
870.693	48.18
871.072	48.54
871.45	48.63
871.828	53.68
872.207	61.77
872.585	60.88
872.963	60.18
873.341	61.71
873.719	67.74
874.097	71.04
874.475	70.39
874.853	68.41
875.23	69.37
875.608	75.86
875.986	78.45
876.363	76.46
876.741	87.79
877.118	99.06
877.495	100.69
877.873	96.83
878.25	92.04
878.627	91.24
879.004	90.77
879.381	86.55
879.758	85.81
880.135	80.42
880.512	85.11
880.889	74.08
881.265	66.13
881.642	60.81
882.019	57.79
882.395	66.39
882.772	71.1
883.148	70.07
883.524	72.71
883.901	72.44
884.277	75.01
884.653	74.34
885.029	80.83
885.405	93.58
885.781	92.69
886.157	92.3
886.532	88.9
886.908	87.04
887.284	91.23
887.659	93.41
888.035	94.08
888.411	86.41
888.786	83.33
889.161	83.67
889.537	70.67
889.912	72.71
890.287	72.1
890.662	68.59
891.037	65.52
891.412	57.53
891.787	48.48
892.162	45.93
892.536	49.89
892.911	53.93
893.286	51.05
893.66	51.49
894.035	55.66
894.409	57.64
894.784	61.34
895.158	65.53
895.532	76.82
895.906	84.06
896.281	86.34
896.655	92.15
897.029	96.58
897.402	102.01
897.776	118.34
898.15	114.8
898.524	116.89
898.898	115.66
899.271	124.25
899.645	116.33
900.018	116.3
900.392	125.13
900.765	117.97
901.138	113.06
901.511	103.55
901.884	102.68
902.258	98.34
902.631	110.21
903.003	116.64
903.376	107.42
903.749	116.19
904.122	120.42
904.495	116.04
904.867	120.14
905.24	110.03
905.612	105.02
905.985	91.76
906.357	97.38
906.729	82.48
907.102	79.85
907.474	78.81
907.846	79.61
908.218	79.35
908.59	88.53
908.962	84.59
909.334	92.86
909.705	103.45
910.077	103.94
910.449	103.31
910.82	111.6
911.192	115.46
911.563	124.07
911.935	116.21
912.306	112.75
912.677	108.46
913.048	125.65
913.419	121.16
913.79	114.07
914.161	116.52
914.532	124.59
914.903	102.14
915.274	99.52
915.645	99.65
916.015	91.79
916.386	92.7
916.756	99.85
917.127	86.39
917.497	92.98
917.868	104.66
918.238	103.13
918.608	95.78
918.978	101.62
919.348	103.87
919.718	104.48
920.088	102.69
920.458	113.76
920.828	100.95
921.198	99.63
921.567	90.87
921.937	77.24
922.306	70.85
922.676	73.26
923.045	84.49
923.415	87.87
923.784	79.93
924.153	91.09
924.522	85.57
924.891	87.65
925.26	92.73
925.629	92.71
925.998	96.65
926.367	103.23
926.736	114.98
927.104	117.76
927.473	126.48
927.842	146.42
928.21	124.47
928.578	114.79
928.947	116.52
929.315	107.16
929.683	130.38
930.051	144.56
930.42	162.8
930.788	144.93
931.156	146.16
931.523	161.16
931.891	150.45
932.259	167.33
932.627	211.21
932.994	267.03
933.362	274.35
933.729	242.81
934.097	246.12
934.464	224.3
934.831	224.35
935.199	199.28
935.566	175.85
935.933	165.03
936.3	190.61
936.667	162.47
937.034	223.09
937.401	213.19
937.767	198.22
938.134	162.72
938.501	197.23
938.867	256.57
939.234	406.3
939.6	328.5
939.967	422.06
940.333	302.59
940.699	240.99
941.065	135.78
941.431	169.52
941.798	196.77
942.163	313.65
942.529	210.52
942.895	162.53
943.261	138.57
943.627	209.46
943.992	202.41
944.358	197.23
944.723	229.56
945.089	224.22
945.454	217.68
945.82	222.99
946.185	195.39
946.55	235.89
946.915	221.45
947.28	238.62
947.645	196.14
948.01	189.17
948.375	192.4
948.74	196.34
949.104	212.24
949.469	232.15
949.834	321.24
950.198	390.45
950.562	257.06
950.927	217.44
951.291	278.12
951.655	243.78
952.02	165.32
952.384	151.17
952.748	154.16
953.112	186.28
953.476	175.79
953.839	165.45
954.203	154.85
954.567	185.45
954.931	243.5
955.294	206.58
955.658	201.3
956.021	365.96
956.385	559.2
956.748	789.06
957.111	904.06
957.474	973.55
957.837	999.23
958.2	731.26
958.563	233.36
958.926	230.24
959.289	374.42
959.652	403.85
960.015	332.9
960.377	435.9
960.74	437.84
961.102	699.14
961.465	886.15
961.827	789.3
962.189	1465.23
962.552	1087.62
962.914	756.11
963.276	455.66
963.638	396.44
964	366.08
964.362	287.1
964.724	282.49
965.085	231.21
965.447	195.63
965.809	164.1
966.17	158.99
966.532	158.86
966.893	146.54
967.255	133.59
967.616	141.95
967.977	128.3
968.338	119.94
968.699	127.12
969.061	113.97
969.421	101.65
969.782	105.24
970.143	113.79
970.504	131.84
970.865	177.38
971.225	195.62
971.586	197.73
971.946	253.9
972.307	228.01
972.667	246.34
973.027	266.52
973.388	305.42
973.748	223.91
974.108	254.38
974.468	291.97
974.828	249.79
975.188	191.03
975.548	177.99
975.907	167.73
976.267	180.87
976.627	169.79
976.986	165
977.346	157.18
977.705	146.86
978.064	124.69
978.424	115.08
978.783	97.77
979.142	102.09
979.501	102.1
979.86	109.15
980.219	102.99
980.578	107.34
980.937	107.34
981.296	124.95
981.654	140.92
982.013	176.19
982.371	263.28
982.73	259.88
983.088	271.75
983.447	303.23
983.805	452.67
984.163	1033.8
984.521	1230.02
984.879	1818.08
985.237	-2707.64
985.595	2814.91
985.953	720.67
986.311	390.8
986.669	236.57
987.026	212.14
987.384	242.34
987.741	186.09
988.099	168.17
988.456	152.04
988.814	155.52
989.171	145.93
989.528	111.16
989.885	115.54
990.242	111.84
990.599	115.3
990.956	118.5
991.313	96.54
991.67	99.49
992.027	137.38
992.383	128.62
992.74	129.77
993.096	136.22
993.453	145.46
993.809	145.2
994.165	174.55
994.522	202.11
994.878	204.38
995.234	263.83
995.59	241.86
995.946	166.13
996.302	176.87
996.658	172.08
997.013	179.78
997.369	221.8
997.725	308.99
998.08	206.6
998.436	193.19
998.791	287.85
999.147	266.02
999.502	319.79
999.857	229.73
1000.212	351.96
1000.567	602.1
1000.922	390.69
1001.277	278.59
1001.632	225.33
1001.987	278.8
1002.342	214.4
1002.696	210.36
1003.051	189.6
1003.406	216.59
1003.76	219.59
1004.114	233.87
1004.469	194.66
1004.823	166.53
1005.177	158.97
1005.531	125.76
1005.885	129.4
1006.239	164.01
1006.593	207.58
1006.947	267.6
1007.301	205.2
1007.655	215.78
1008.008	165.39
1008.362	178.61
1008.715	237.4
1009.069	223.09
1009.422	440.97
1009.776	797.2
1010.129	450.91
1010.482	319.06
1010.835	207.99
1011.188	485.08
1011.541	450.55
1011.894	-2283
1012.247	7709.94
1012.6	635.1
1012.952	476.82
1013.305	168.17
1013.657	144.48
1014.01	145.18
1014.362	124.45
1014.715	176.42
1015.067	165.67
1015.419	163.62
1015.771	170.35
1016.123	170.78
1016.475	171.48
1016.827	183.2
1017.179	205.04
1017.531	188.52
1017.883	189.09
1018.234	232.21
1018.586	261.02
1018.938	293.63
1019.289	464.21
1019.64	487.2
1019.992	405.69
1020.343	357.54
1020.694	310.65
1021.045	263.44
1021.396	312.46
1021.747	371.78
1022.098	380.97
1022.449	288.02
1022.8	254.25
1023.151	171.48
1023.501	168.1
1023.852	186.51
1024.202	204.89
1024.553	207.49
1024.903	247.68
1025.253	242.72
1025.604	226.93
1025.954	271.05
1026.304	290.57
1026.654	340.75
1027.004	431.48
1027.354	623.91
1027.703	657.02
1028.053	829.77
1028.403	1206.88
1028.753	1298.65
1029.102	1465.08
1029.452	6495.12
1029.801	292.46
1030.15	236.46
1030.499	162.03
897.758	1346.37
901.051	1303.25
904.343	1328.55
907.636	1328.36
910.928	1365.8
914.22	1320.78
917.511	1327.68
920.803	1352.92
924.094	1345.88
927.384	1350.89
930.675	1328.65
933.965	1310.82
937.255	1329.37
940.544	1310.05
943.834	1312.77
947.123	1277.24
950.411	1328
953.7	1318.57
956.988	1311.5
960.276	1269.85
963.563	1293.77
966.851	1300.2
970.138	1321.55
973.424	1324.07
976.711	1294.07
979.997	1319.74
983.283	1343.62
986.568	1306.13
989.853	1295.86
993.138	1308.78
996.423	1363.35
999.708	1339.7
1002.992	1355.24
1006.275	1303.76
1009.559	1307.66
1012.842	1363.76
1016.125	1337.66
1019.408	1323.77
1022.69	1353.29
1025.972	1370.08
1029.254	1357.7
1032.536	1337.14
1035.817	1341.54
1039.098	1323.97
1042.379	1350.98
1045.659	1362.88
1048.939	1331.3
1052.219	1333.09
1055.498	1328.72
1058.778	1322.16
1062.057	1310.43
1065.335	1326.61
1068.614	1326.86
1071.892	1321.67
1075.17	1353.46
1078.447	1356
1081.724	1351.55
1085.001	1365.13
1088.278	1348.78
1091.554	1350.74
1094.83	1350.52
1098.106	1367.49
1101.382	1382.32
1104.657	1383.08
1107.932	1382.64
1111.206	1368.32
1114.481	1340.65
1117.755	1342
1121.029	1337.31
1124.302	1371.2
1127.575	1354.47
1130.848	1353.23
1134.121	1337.9
1137.393	1312.49
1140.665	1347.73
1143.937	1331.82
1147.208	1307.02
1150.48	1337.1
1153.75	1330.19
1157.021	1333.39
1160.291	1319.61
1163.561	1348.22
1166.831	1328.2
1170.101	1341.03
1173.37	1320.17
1176.639	1296.91
1179.907	1327.17
1183.176	1332.83
1186.444	1338
1189.711	1351.8
1192.979	1365.4
1196.246	1339.92
1199.513	1348.88
1202.78	1352.08
1206.046	1356.24
1209.312	1374.39
1212.578	1378.35
1215.843	1353.52
1219.108	1344.38
1222.373	1354.22
1225.638	1338.05
1228.902	1330.2
1232.166	1312.79
1235.43	1303.58
1238.693	1319.24
1241.956	1317.92
1245.219	1344.06
1248.482	1337.5
1251.744	1340.73
1255.006	1403.69
1258.268	1375.98
1261.529	1357.2
1264.79	1354.89
1268.051	1407.8
1271.312	1415.58
1274.572	1396.12
1277.832	1387.79
1281.092	1373.84
1284.351	1371.12
1287.61	1363.67
1290.869	1329.61
1294.128	1328.9
1297.386	1348.6
1300.644	1348.03
1303.902	1350.67
1307.159	1276.11
1310.416	1304.07
1313.673	1317.9
1316.93	1322.06
1320.186	1335.25
1323.442	1352.54
1326.697	1350.24
1329.953	1335.26
1333.208	1356.77
1336.463	1343.77
1339.717	1326.88
1342.972	1389.84
1346.226	1375.03
1349.479	1354.87
1352.733	1338.67
1355.986	1348.89
1359.238	1336.61
1362.491	1338.64
1365.743	1340.51
1368.995	1338.01
1372.247	1347.84
1375.498	1354.97
1378.749	1375.78
1382	1353.95
1385.251	1368.53
1388.501	1347.38
1391.751	1343.52
1395	1331
1398.25	1346.36
1401.499	1361.48
1404.748	1335.4
1407.996	1325.25
1411.244	1324.4
1414.492	1315.23
1417.74	1305.61
1420.987	1313.28
1424.234	1345.12
1427.481	1325.19
1430.728	1354.37
1433.974	1343.7
1437.22	1343.46
1440.465	1338.81
1443.711	1339.75
1446.956	1349.23
1450.201	1334.52
1453.445	1361.16
1456.689	1349.46
1459.933	1358.42
1463.177	1380.4
1466.42	1367.33
1469.663	1356.43
1472.906	1362.6
1476.148	1391.94
1479.391	1367.18
1482.633	1357.49
1485.874	1370.87
1489.115	1373.19
1492.356	1366.08
1495.597	1349.97
1498.838	1344.97
1502.078	1338.82
1505.318	1326.41
1508.557	1340.79
1511.797	1337.32
1515.036	1366.42
1518.274	1342.19
1521.513	1313.07
1524.751	1317.27
1527.989	1328.71
1531.227	1339.47
1534.464	1342.26
1537.701	1335.64
1540.938	1339.45
1544.174	1313.83
1547.41	1304.48
1550.646	1327.01
1553.882	1352.49
1557.117	1384.86
1560.352	1389.69
1563.587	1364.88
1566.821	1348.65
1570.055	1361.26
1573.289	1344.8
1576.523	1374.21
1579.756	1380.21
1582.989	1392.55
1586.222	1366.52
1589.454	1388.04
1592.686	1379.15
1595.918	1390.26
1599.15	1388.95
1602.381	1415.9
1605.612	1405.35
1608.843	1456.78
1612.073	1413.2
1615.303	1408.22
1618.533	1405.22
1621.762	1403.09
1624.992	1386.94
1628.221	1385.71
1631.449	1380.52
1634.678	1396.49
1637.906	1374.28
1641.134	1383.86
1644.361	1366.52
1647.588	1362.25
1650.815	1375.55
1654.042	1356.55
1657.269	1373.2
1660.495	1362.14
1663.72	1357.38
1666.946	1338.04
1670.171	1326.86
1673.396	1311.8
1676.621	1305.71
1679.845	1302.23
1683.069	1303.49
1686.293	1318.78
1689.517	1312.56
1692.74	1289.34
1695.963	1299.11
1699.185	1317.25
1702.408	1304.82
1705.63	1319.22
1708.852	1327.16
1712.073	1310.69
1715.294	1323.14
1718.515	1351.97
1721.736	1325.65
1724.956	1319.81
1728.176	1332.34
1731.396	1342.64
1734.616	1339.56
1737.835	1365.31
1741.054	1346.73
1744.272	1347.2
1747.491	1369.35
1750.709	1378.73
1753.927	1352.47
1757.144	1368.11
1760.361	1398.18
1763.578	1380.69
1766.795	1353.94
1770.011	1346.81
1773.227	1357.48
1776.443	1383.95
1779.658	1403.29
1782.874	1374.52
1786.089	1368.8
1789.303	1369
1792.518	1371.65
1795.732	1365.16
1798.945	1372.83
1802.159	1400.89
1805.372	1367.3
1808.585	1363.15
1811.797	1360.65
1815.01	1379.96
1818.222	1394.55
1821.434	1374.95
1824.645	1396.77
1827.856	1399.57
1831.067	1414.11
1834.278	1386.64
1837.488	1373.58
1840.698	1442.68
1843.908	1417.11
1847.117	1400.6
1850.326	1356.87
1853.535	1390.71
1856.744	1410.8
1859.952	1369.92
1863.16	1369.28
1866.368	1387.33
1869.575	1448.93
1872.782	1385.56
1875.989	1351.05
1879.196	1380.65
1882.402	1376.87
1885.608	1395.3
1888.814	1363.2
1892.019	1313.33
1895.224	1346.27
1898.429	1331.9
1901.634	1317.11
1904.838	1305.87
1908.042	1340.01
1911.246	1351.96
1914.449	1329.18
1917.652	1320.19
1920.855	1309.09
1924.058	1320.79
1927.26	1352.42
1930.462	1362.24
1933.664	1383.18
1936.865	1353.83
1940.066	1361.26
1943.267	1331.49
1946.467	1335.48
1949.668	1341.59
1952.868	1382.95
1956.067	1382.49
1959.267	1351.54
1962.466	1364.53
1965.665	1352.57
1968.863	1352.6
1972.061	1351.16
1975.259	1347.65
1978.457	1389.16
1981.654	1368.11
1984.852	1369.49
1988.048	1347.28
1991.245	1336.78
1994.441	1384.08
1997.637	1356.85
2000.833	1346.89
2004.028	1364.63
2007.223	1404.99
2010.418	1394.2
2013.613	1368.27
2016.807	1364.06
2020.001	1361.83
2023.194	1370.39
2026.388	1360.73
2029.581	1331.78
2032.774	1366.73
2035.966	1374.38
2039.158	1343.22
2042.35	1353.2
2045.542	1311.79
2048.733	1358.1
2051.924	1350.21
2055.115	1358.63
2058.306	1342.91
2061.496	1370.73
2064.686	1398.34
2067.875	1342.78
2071.065	1342.71
2074.254	1351.95
2077.442	1326.03
2080.631	1373.4
2083.819	1337.02
2087.007	1330.16
2090.195	1323.28
2093.382	1326.95
2096.569	1324.03
2099.756	1302.73
2102.942	1336.59
2106.128	1341.72
2109.314	1338.48
2112.5	1331.71
2115.685	1313.85
2118.87	1317.4
2122.055	1359.49
2125.239	1343.74
2128.424	1338.66
2131.608	1367.88
2134.791	1354.39
2137.974	1376.2
2141.157	1369.69
2144.34	1353.77
2147.523	1345.14
2150.705	1363.34
2153.887	1341.82
2157.068	1325.48
2160.25	1315.03
2163.431	1328.55
2166.611	1311.2
2169.792	1327.57
2172.972	1268.42
2176.152	1306.29
2179.331	1317.86
2182.511	1317.45
2185.69	1326.43
2188.868	1328.2
2192.047	1350.23
2195.225	1366.05
2198.403	1335.06
2201.58	1326.76
2204.758	1317.72
2207.935	1363.73
2211.111	1311.56
2214.288	1305.67
2217.464	1325.01
2220.64	1303.72
2223.815	1331.16
2226.991	1290.2
2230.166	1296.72
2233.34	1320.88
2236.515	1328.99
2239.689	1368.7
2242.863	1339.6
2246.036	1369.36
2249.209	1360.09
2252.382	1374.36
2255.555	1376.15
2258.727	1352.58
2261.9	1368.38
2265.071	1365.01
2268.243	1364.92
2271.414	1336.04
2274.585	1323.61
2277.756	1358.63
2280.926	1336.61
2284.096	1353.3
2287.266	1312.97
2290.436	1342.71
2293.605	1350.32
2296.774	1371.95
2299.942	1377.36
2303.111	1387.3
2306.279	1417.31
2309.447	1410.74
2312.614	1397.48
2315.781	1406.3
2318.948	1397.37
2322.115	1419.27
2325.281	1357.03
2328.447	1362.66
2331.613	1344.77
2334.779	1340.31
2337.944	1336.05
2341.109	1338.58
2344.274	1330.97
2347.438	1311.38
2350.602	1325.89
2353.766	1328.81
2356.929	1324.68
2360.092	1350.04
2363.255	1327.82
2366.418	1314.96
2369.58	1336.82
2372.742	1318.57
2375.904	1304.79
2379.066	1300.74
2382.227	1314.72
2385.388	1290.33
2388.548	1264.52
2391.709	1282.1
2394.869	1278.09
2398.029	1310.21
2401.188	1299.96
2404.347	1290.32
2407.506	1286.78
2410.665	1321.47
2413.823	1309.92
2416.981	1300.46
2420.139	1311.52
2423.296	1334.18
2426.453	1319.71
2429.61	1332.39
2432.767	1317.88
2435.923	1339.92
2439.079	1308.36
2442.235	1329.44
2445.391	1294.39
2448.546	1317.78
2451.701	1338.04
2454.855	1335.6
2458.009	1350.08
2461.163	1344.09
2464.317	1325.63
2467.471	1339.69
2470.624	1360.62
2473.777	1353.74
2476.929	1362.88
2480.082	1373.74
2483.234	1366.39
2486.385	1330.59
2489.537	1326.84
2492.688	1321.59
2495.839	1334.87
2498.989	1340.53
2502.14	1332.54
2505.29	1325.03
2508.439	1340.59
2511.589	1308.58
2514.738	1310.45
2517.887	1318.23
2521.035	1362.57
2524.183	1336.1
2527.331	1330.33
2530.479	1323.97
2533.627	1328.34
