Data from N_1_DIV_PA_2N_Splice17_11-11-12-192.txt Node
Date: Sat Mar 14 11:11:12 EDT 2020
User: sa697716
Spectrometer: FLMS03696
Trigger mode: 0
Integration Time (sec): 3.180400E-1
Scans to average: 20
Electric dark correction enabled: true
Nonlinearity correction enabled: true
Boxcar width: 5
XAxis mode: Wavelengths
Number of Pixels in Spectrum: 2048
>>>>>Begin Spectral Data<<<<<
187.83	-40146.67
188.298	440.51
188.766	293.64
189.233	284.59
189.701	436.4
190.169	490.91
190.636	211.76
191.104	239.99
191.571	45.54
192.039	3.38
192.506	-25.82
192.974	201.63
193.441	-221.44
193.908	20
194.375	67.51
194.842	111.05
195.31	119.28
195.777	112.56
196.244	206.22
196.711	134.87
197.177	136.47
197.644	135.43
198.111	197.07
198.578	268.94
199.045	206.21
199.511	294.42
199.978	307.92
200.445	266.7
200.911	293.69
201.378	284.04
201.844	297.31
202.31	449.79
202.777	498.03
203.243	309.28
203.709	305.78
204.176	376
204.642	317.95
205.108	309.52
205.574	284.14
206.04	242.88
206.506	235.5
206.972	201.16
207.438	206.76
207.903	226.76
208.369	217.23
208.835	217.04
209.301	212.05
209.766	222.81
210.232	200.65
210.697	200.7
211.163	247.64
211.628	349.87
212.094	344.84
212.559	415.53
213.024	287.11
213.49	331.43
213.955	308.82
214.42	304.21
214.885	267.75
215.35	278.37
215.815	306.44
216.28	318.2
216.745	258.37
217.21	274.32
217.675	220.84
218.14	216.81
218.604	217.68
219.069	245.36
219.534	259.98
219.998	265.14
220.463	299.98
220.927	303.45
221.392	280.26
221.856	244.21
222.32	235.29
222.785	298.4
223.249	338.58
223.713	333.35
224.177	295.62
224.642	293.75
225.106	321.91
225.57	297.64
226.034	242.79
226.497	322.07
226.961	367.27
227.425	476.62
227.889	465.73
228.353	498.88
228.816	1031.65
229.28	915.34
229.744	793.9
230.207	567.5
230.671	543.71
231.134	743.65
231.597	881.09
232.061	809.19
232.524	687.28
232.987	510.73
233.45	453.27
233.914	368.43
234.377	353.44
234.84	310.18
235.303	292.9
235.766	350.89
236.229	356.81
236.691	209.12
237.154	238.02
237.617	200.14
238.08	177.91
238.542	172.58
239.005	147.44
239.468	166.88
239.93	163.41
240.393	159.97
240.855	141.42
241.317	141.87
241.78	140.56
242.242	122.79
242.704	148.54
243.166	143.4
243.629	155.25
244.091	176.67
244.553	178.26
245.015	212.32
245.477	253.73
245.939	347.5
246.4	392.64
246.862	408.79
247.324	409.42
247.786	418.61
248.247	475.94
248.709	436.44
249.17	324.98
249.632	374.15
250.093	437.88
250.555	373.27
251.016	267.2
251.477	252.27
251.939	280.88
252.4	275.32
252.861	299.42
253.322	324.62
253.783	333.19
254.244	397.28
254.705	269.76
255.166	176.04
255.627	169.89
256.088	186.54
256.549	184.91
257.009	145.76
257.47	210.65
257.931	167.44
258.391	140.03
258.852	163.26
259.312	162.19
259.773	188.19
260.233	227
260.694	225.76
261.154	247.57
261.614	255.37
262.074	230.82
262.534	231.69
262.994	238.42
263.455	271.95
263.915	243.53
264.374	226.34
264.834	263.41
265.294	261.72
265.754	269.11
266.214	259.8
266.673	206.05
267.133	248.55
267.593	240.01
268.052	250.77
268.512	211
268.971	275.04
269.431	337.3
269.89	254.47
270.349	392.75
270.809	437.11
271.268	402.11
271.727	847.57
272.186	536.02
272.645	416.96
273.104	302.96
273.563	452.76
274.022	307.22
274.481	282.2
274.94	246.97
275.399	169.63
275.857	163.66
276.316	185.71
276.775	162.67
277.233	171.62
277.692	153.84
278.15	215.68
278.609	247.73
279.067	234.13
279.525	208.11
279.984	242.28
280.442	308.83
280.9	376.47
281.358	262.34
281.816	258.25
282.274	259.17
282.732	250.19
283.19	217.96
283.648	172.41
284.106	176.19
284.564	176.27
285.021	163.66
285.479	127.97
285.937	90.27
286.394	97.43
286.852	88.9
287.309	82.72
287.767	108.78
288.224	119.56
288.682	124.19
289.139	156.2
289.596	158.51
290.053	163.89
290.511	174.23
290.968	247.79
291.425	306.78
291.882	286.63
292.339	268.01
292.796	228.83
293.252	204.17
293.709	190.53
294.166	159.67
294.623	154.77
295.079	145.52
295.536	162.25
295.992	143.38
296.449	144.3
296.905	163.77
297.362	174.37
297.818	187.58
298.274	200.09
298.731	198.13
299.187	198.49
299.643	211.1
300.099	247.54
300.555	266.44
301.011	222.69
301.467	255.72
301.923	262.29
302.379	251.06
302.835	246.32
303.291	237.46
303.746	276.44
304.202	354.15
304.658	350.31
305.113	268.86
305.569	269.9
306.024	274.83
306.479	210.1
306.935	206.37
307.39	198.26
307.845	202.33
308.301	227.35
308.756	198.69
309.211	205.91
309.666	204.02
310.121	277.4
310.576	270.68
311.031	251.18
311.486	269.5
311.94	227.53
312.395	317.28
312.85	521.34
313.305	1816.88
313.759	11545.89
314.214	775.34
314.668	674.79
315.123	597.75
315.577	258.53
316.032	256.91
316.486	314.36
316.94	296.31
317.394	222.06
317.849	189.82
318.303	174.51
318.757	181.25
319.211	190.98
319.665	180.82
320.119	165.53
320.572	223.05
321.026	219.39
321.48	183.59
321.934	164.64
322.387	155.99
322.841	169.66
323.295	197.82
323.748	190.03
324.202	217.07
324.655	250.38
325.108	372.83
325.562	277.75
326.015	304.81
326.468	262.98
326.921	323.55
327.374	328.14
327.827	342.6
328.28	361.39
328.733	251.04
329.186	214.74
329.639	207.32
330.092	178.82
330.545	169.23
330.997	182.4
331.45	215.24
331.903	248.5
332.355	349.61
332.808	333.42
333.26	276.37
333.713	324.95
334.165	307.33
334.617	389.08
335.069	252.36
335.522	395.07
335.974	409.73
336.426	319.68
336.878	166.84
337.33	137.99
337.782	140.6
338.234	182.41
338.686	183.65
339.137	241.59
339.589	244.29
340.041	244.39
340.493	204.37
340.944	221.38
341.396	214.59
341.847	242.6
342.299	290.75
342.75	358.08
343.201	306.14
343.653	348.48
344.104	377.43
344.555	281.09
345.006	331.18
345.457	340.35
345.908	257.93
346.359	266.09
346.81	198.92
347.261	173.51
347.712	164.04
348.163	171.74
348.613	234.12
349.064	209.04
349.515	205.69
349.965	241.03
350.416	259.34
350.866	269.04
351.317	286.6
351.767	418.92
352.217	497.57
352.668	422.11
353.118	401.46
353.568	241.33
354.018	254.08
354.468	268.13
354.918	196.23
355.368	160.23
355.818	220.57
356.268	579.43
356.718	2980.56
357.168	977.58
357.617	482.73
358.067	458.89
358.517	474.05
358.966	599.69
359.416	659.53
359.865	679.7
360.315	781.64
360.764	403.14
361.213	233.39
361.663	172.4
362.112	159.94
362.561	226.31
363.01	165.84
363.459	129.12
363.908	102.48
364.357	107.47
364.806	164.91
365.255	149.04
365.703	166.47
366.152	180.84
366.601	161.35
367.05	151.57
367.498	151.6
367.947	170.04
368.395	187.09
368.844	180.21
369.292	174.74
369.74	143.67
370.189	186.04
370.637	185.9
371.085	131.01
371.533	138.18
371.981	110.05
372.429	144.04
372.877	143.37
373.325	119.69
373.773	88.79
374.221	84.63
374.669	89.34
375.116	82.55
375.564	85.91
376.012	118.69
376.459	142.79
376.907	174.85
377.354	153.67
377.801	163.19
378.249	221.41
378.696	278.97
379.143	322.56
379.591	365.32
380.038	533.13
380.485	359.09
380.932	387.77
381.379	358.82
381.826	337.69
382.273	246.87
382.72	218.02
383.166	195.64
383.613	155.21
384.06	152.02
384.506	156.93
384.953	125.94
385.4	137.77
385.846	122.36
386.292	111.78
386.739	81.9
387.185	71.04
387.631	61.35
388.078	67.73
388.524	68.68
388.97	65.75
389.416	56.58
389.862	73.17
390.308	63.14
390.754	60.62
391.2	56.19
391.645	60.67
392.091	91.39
392.537	96.93
392.983	95.11
393.428	110.82
393.874	111.76
394.319	129.34
394.765	134.72
395.21	137.74
395.655	130.24
396.101	130.85
396.546	121.36
396.991	98.7
397.436	93.58
397.881	81.99
398.326	69.14
398.771	72
399.216	57.61
399.661	45.14
400.106	46.39
400.551	51.17
400.995	47.26
401.44	45.93
401.885	50.73
402.329	50.24
402.774	53.38
403.218	59.39
403.663	55.48
404.107	56.48
404.551	62.03
404.995	59.55
405.44	56.69
405.884	50.41
406.328	44.47
406.772	35.06
407.216	34.29
407.66	30.29
408.104	21.65
408.547	20.81
408.991	19.92
409.435	16.01
409.879	17.78
410.322	15.54
410.766	18.73
411.209	23.2
411.653	25.86
412.096	25.84
412.54	24.8
412.983	25.08
413.426	25.54
413.869	24.7
414.312	26.7
414.756	23.11
415.199	23.54
415.642	26.24
416.085	25.13
416.527	24.71
416.97	23.12
417.413	24.86
417.856	23.86
418.298	24.41
418.741	21.56
419.184	17.67
419.626	14.64
420.069	13.91
420.511	11.61
420.953	14.62
421.396	16.54
421.838	15.74
422.28	14.7
422.722	15.7
423.164	13.63
423.606	16.92
424.048	16.1
424.49	19.89
424.932	19.47
425.374	16.91
425.816	13.12
426.258	10.73
426.699	10.99
427.141	12.45
427.582	12.19
428.024	14.01
428.465	12.05
428.907	13.07
429.348	12.59
429.789	15.04
430.231	20.48
430.672	21.37
431.113	20.52
431.554	21.87
431.995	20.24
432.436	21.35
432.877	19.79
433.318	22.22
433.759	21.48
434.2	21
434.64	19.04
435.081	18.04
435.522	18.47
435.962	19.07
436.403	20.12
436.843	17.43
437.284	16.17
437.724	15.46
438.164	11.38
438.604	12.11
439.045	10.32
439.485	11.99
439.925	9.27
440.365	8.63
440.805	8.82
441.245	8.69
441.685	9.84
442.125	8.95
442.564	8.54
443.004	10.75
443.444	10.21
443.883	11.76
444.323	8.33
444.762	6.92
445.202	5.97
445.641	7.13
446.081	5.36
446.52	5.85
446.959	6.42
447.398	8.32
447.837	7.26
448.276	8.51
448.716	10.54
449.154	10.72
449.593	13.02
450.032	13.1
450.471	10.53
450.91	9.55
451.349	11.24
451.787	10.69
452.226	9.17
452.664	8.59
453.103	7.61
453.541	5.58
453.98	8.75
454.418	8.51
454.856	10.33
455.295	11.09
455.733	11.59
456.171	10.88
456.609	13.21
457.047	14.45
457.485	17.06
457.923	18.27
458.361	17.59
458.798	15.43
459.236	14.87
459.674	13.63
460.111	14.07
460.549	14
460.987	12.75
461.424	10.89
461.862	10.41
462.299	10.25
462.736	10.48
463.173	10.49
463.611	13.13
464.048	13.82
464.485	14.19
464.922	13.45
465.359	13.46
465.796	19.37
466.233	20.31
466.67	21.92
467.106	22.18
467.543	20.92
467.98	20.3
468.416	18.82
468.853	17.56
469.29	17.05
469.726	16.27
470.162	15.87
470.599	11.88
471.035	10.64
471.471	9.84
471.907	8.17
472.344	8.26
472.78	8.91
473.216	8.26
473.652	8.91
474.088	9.92
474.523	10.78
474.959	10.38
475.395	9.96
475.831	9.61
476.266	8.52
476.702	8.8
477.138	8.41
477.573	8.33
478.008	8.36
478.444	9.52
478.879	9.33
479.314	9.59
479.75	10.04
480.185	10.04
480.62	9.21
481.055	9.2
481.49	8.96
481.925	9.44
482.36	10.65
482.795	9.8
483.229	7.95
483.664	7.31
484.099	7.62
484.534	8.61
484.968	9.28
485.403	10.06
485.837	9.56
486.271	9.33
486.706	9.19
487.14	7.62
487.574	8.2
488.009	8.36
488.443	7.71
488.877	7.38
489.311	6.28
489.745	5.84
490.179	6.08
490.613	7.38
491.046	6.89
491.48	6.39
491.914	7.18
492.348	7.26
492.781	7.92
493.215	8.41
493.648	7.77
494.082	7.72
494.515	7.43
494.948	7.85
495.382	6.58
495.815	7.4
496.248	7.86
496.681	7.05
497.114	6.6
497.547	6.5
497.98	7.12
498.413	8.22
498.846	9.03
499.279	8.83
499.711	8.26
500.144	9.07
500.577	9.39
501.009	9.31
501.442	10.8
501.874	11.22
502.306	10.64
502.739	12.18
503.171	12.37
503.603	12.32
504.036	12.38
504.468	12.73
504.9	12.19
505.332	11.81
505.764	12.08
506.196	11.25
506.627	11.87
507.059	12.04
507.491	10.03
507.923	9.58
508.354	9.78
508.786	9.83
509.217	9.36
509.649	9.74
510.08	9.49
510.512	9.92
510.943	10.17
511.374	10.36
511.805	10.58
512.237	10.39
512.668	10.07
513.099	9.4
513.53	9.47
513.961	10.24
514.391	10.25
514.822	11.55
515.253	11.85
515.684	12.17
516.114	11.55
516.545	11.82
516.975	12.16
517.406	11.9
517.836	11.65
518.267	12.2
518.697	12.95
519.127	12.34
519.558	11.64
519.988	10.83
520.418	10.05
520.848	9.82
521.278	9.74
521.708	23.93
522.138	24.57
522.567	24.02
522.997	23.76
523.427	23.11
523.857	23.92
524.286	24.15
524.716	24.81
525.145	25.71
525.575	26.19
526.004	26.03
526.433	12.35
526.863	11.47
527.292	13
527.721	13.22
528.15	13.18
528.579	13.85
529.008	14.01
529.437	12.87
529.866	12.6
530.295	12.3
530.724	12.56
531.152	12.62
531.581	14.09
532.01	14.04
532.438	14.05
532.867	14.08
533.295	13.69
533.723	13.68
534.152	14.64
534.58	14.69
535.008	15.01
535.436	16.06
535.865	15.9
536.293	14.94
536.721	14.52
537.149	14.29
537.576	14.92
538.004	15.14
538.432	14.61
538.86	14.96
539.287	14.98
539.715	14.62
540.143	13.78
540.57	14.13
540.998	15.06
541.425	16.38
541.852	16.39
542.28	16.17
542.707	16.1
543.134	16.17
543.561	16.16
543.988	16.34
544.415	16.41
544.842	16.06
545.269	16.24
545.696	16.02
546.123	15.61
546.549	15.39
546.976	15.26
547.403	14.93
547.829	14.84
548.256	14.6
548.682	14.27
549.108	14.84
549.535	15.25
549.961	14.87
550.387	14.84
550.813	15.38
551.24	16.41
551.666	15.82
552.092	16.1
552.518	16.39
552.943	16.66
553.369	16.37
553.795	16.51
554.221	16.48
554.646	16.69
555.072	16.9
555.498	15.85
555.923	14.87
556.349	15.4
556.774	15.43
557.199	15.23
557.625	14.66
558.05	15.31
558.475	15.07
558.9	14.7
559.325	15.15
559.75	14.79
560.175	14.63
560.6	14.58
561.025	13.75
561.449	13.59
561.874	13.34
562.299	13.88
562.723	13.62
563.148	13.37
563.572	12.98
563.997	12.56
564.421	12.13
564.846	11.89
565.27	12.43
565.694	13.37
566.118	13.34
566.542	14.22
566.966	14.12
567.39	14.4
567.814	14.95
568.238	15.39
568.662	14.73
569.086	14.99
569.509	14.61
569.933	14.82
570.357	14.15
570.78	13.83
571.204	13.38
571.627	13.14
572.05	13
572.474	13.3
572.897	13.81
573.32	14.82
573.743	14.94
574.166	16.01
574.589	15.38
575.012	15.51
575.435	15.42
575.858	15.78
576.281	15.58
576.704	14.89
577.126	14.12
577.549	13.45
577.972	12.65
578.394	12.42
578.817	13.38
579.239	13.5
579.661	13.62
580.084	14.58
580.506	14.41
580.928	14.25
581.35	14.67
581.772	14.25
582.194	14.56
582.616	14.05
583.038	13.48
583.46	12.31
583.882	12.14
584.303	11.21
584.725	10.48
585.147	13.42
585.568	13.64
585.99	14.04
586.411	14.87
586.833	15.53
587.254	16.67
587.675	16.92
588.096	16.21
588.518	15.93
588.939	16.18
589.36	16.54
589.781	12.62
590.202	14.1
590.623	13.79
591.043	12.95
591.464	11.95
591.885	11.94
592.305	11.63
592.726	11.78
593.147	12.45
593.567	13.44
593.987	12.77
594.408	12.82
594.828	10.57
595.248	10.97
595.669	11.35
596.089	11.28
596.509	10.05
596.929	10.07
597.349	10.13
597.769	10.14
598.189	9.52
598.608	9.49
599.028	9.21
599.448	9.56
599.867	9.07
600.287	9.15
600.706	9.09
601.126	9.69
601.545	10.26
601.965	9.88
602.384	9.7
602.803	9.61
603.222	10.03
603.641	10.53
604.061	11.06
604.48	11.03
604.898	10.66
605.317	10.45
605.736	10.52
606.155	10.5
606.574	10.7
606.992	10.19
607.411	9.91
607.829	9.17
608.248	8.34
608.666	8.1
609.085	8.09
609.503	7.98
609.921	8.66
610.339	8.31
610.758	7.7
611.176	8.05
611.594	8.5
612.012	8.99
612.43	9.38
612.847	9.94
613.265	10.19
613.683	10.23
614.101	10.91
614.518	10.15
614.936	10.31
615.353	10.91
615.771	11.21
616.188	11.15
616.606	11.54
617.023	11.65
617.44	12.05
617.857	11.43
618.274	11.12
618.691	10.7
619.108	11.17
619.525	11.06
619.942	11.35
620.359	10.44
620.776	10.87
621.192	11.13
621.609	12.14
622.026	11.38
622.442	11.11
622.859	10.99
623.275	10.49
623.691	10.12
624.108	10.05
624.524	9.43
624.94	9.8
625.356	9.31
625.772	8.17
626.188	6.69
626.604	7.24
627.02	7.7
627.436	8.16
627.852	8.87
628.268	9.68
628.683	9.73
629.099	9.79
629.514	9.02
629.93	8.85
630.345	8.86
630.761	8.31
631.176	8.04
631.591	8.59
632.007	8.86
632.422	7.99
632.837	6.96
633.252	7.48
633.667	7.95
634.082	9.11
634.497	9.63
634.911	10.4
635.326	10.78
635.741	10.88
636.155	10.29
636.57	10.69
636.984	11.12
637.399	12.18
637.813	12.22
638.228	11.27
638.642	10.65
639.056	10.22
639.47	9.99
639.884	10.52
640.298	10.67
640.712	11.46
641.126	10.6
641.54	10.28
641.954	8.1
642.368	7.32
642.781	9.73
643.195	9.94
643.609	10.64
644.022	10.3
644.436	9.65
644.849	9.2
645.262	8.63
645.676	8.61
646.089	8.92
646.502	10.72
646.915	10.73
647.328	9.88
647.741	10.35
648.154	10.1
648.567	11.94
648.98	12.11
649.393	12.36
649.805	11.52
650.218	10.79
650.631	11.02
651.043	10.81
651.456	11.12
651.868	10.56
652.28	9.4
652.693	9.02
653.105	7.45
653.517	7.82
653.929	7.66
654.341	8.51
654.753	10.01
655.165	9.43
655.577	9.35
655.989	8.96
656.401	8.88
656.813	10.49
657.224	10.67
657.636	10.41
658.047	10.77
658.459	10.71
658.87	9.75
659.282	9.23
659.693	9.86
660.104	10.05
660.515	9.74
660.926	8.92
661.338	8
661.749	6.95
662.159	7.64
662.57	6.94
662.981	6.87
663.392	7.17
663.803	6.8
664.213	6.64
664.624	6.14
665.035	6.61
665.445	6.49
665.855	6.83
666.266	8.49
666.676	7.56
667.086	7.32
667.497	7.61
667.907	7.84
668.317	7.69
668.727	9.13
669.137	9.01
669.547	8.6
669.956	8.8
670.366	8.3
670.776	7.14
671.186	7.28
671.595	7.47
672.005	6.92
672.414	7.87
672.824	8.31
673.233	7.13
673.642	7.12
674.052	6.81
674.461	7.08
674.87	7.16
675.279	8.93
675.688	7.88
676.097	8.36
676.506	8.24
676.915	7.12
677.323	7.53
677.732	6.8
678.141	6.76
678.549	7.85
678.958	7.39
679.366	7.16
679.775	5.61
680.183	7.8
680.592	7.93
681	8.07
681.408	9.11
681.816	8.29
682.224	8.1
682.632	9.36
683.04	9.78
683.448	9.6
683.856	10.51
684.264	10.54
684.671	9.87
685.079	8.93
685.487	9.25
685.894	8.2
686.302	7.43
686.709	8.55
687.116	8.59
687.524	9.22
687.931	10.46
688.338	10.29
688.745	10.77
689.152	10.14
689.559	10.96
689.966	12.54
690.373	12.84
690.78	15.04
691.187	15.45
691.593	15.33
692	14.28
692.407	15.58
692.813	16.87
693.22	17.5
693.626	17.78
694.032	18.01
694.439	17.84
694.845	18.57
695.251	17.6
695.657	18.17
696.063	16.78
696.469	17.29
696.875	16.09
697.281	14.56
697.687	13.53
698.093	13.8
698.498	14.59
698.904	13.81
699.31	13.58
699.715	15.92
700.12	15.09
700.526	16.54
700.931	16.07
701.337	17
701.742	18.59
702.147	19.87
702.552	19.97
702.957	19.2
703.362	19.87
703.767	19.17
704.172	18
704.577	19.05
704.981	18.43
705.386	19.43
705.791	19.31
706.195	18.34
706.6	18.25
707.004	17.39
707.408	17.19
707.813	17.89
708.217	18.78
708.621	18.61
709.025	17.83
709.43	18.86
709.834	18.76
710.237	18.66
710.641	19.37
711.045	19.56
711.449	21.04
711.853	23.6
712.256	23.24
712.66	23.86
713.064	24.52
713.467	25.19
713.87	24.94
714.274	25.31
714.677	26.59
715.08	27.19
715.484	28
715.887	30.14
716.29	27.97
716.693	29.14
717.096	29.22
717.499	28.69
717.901	27.88
718.304	28.99
718.707	29.13
719.109	28.13
719.512	26.92
719.915	28.03
720.317	26.49
720.719	26.03
721.122	25.62
721.524	26.07
721.926	29.91
722.328	30.98
722.731	30.37
723.133	30.4
723.535	29.72
723.937	30.35
724.338	30.1
724.74	31.67
725.142	65.26
725.544	68.01
725.945	75.71
726.347	72.86
726.748	73.71
727.15	75.18
727.551	76.64
727.952	76.51
728.354	76.3
728.755	75.87
729.156	74.17
729.557	42.44
729.958	38.88
730.359	31.41
730.76	30.54
731.161	29.34
731.562	28.15
731.962	26.37
732.363	26.03
732.763	27.08
733.164	25.42
733.564	25.74
733.965	26.66
734.365	28.06
734.766	28.56
735.166	28.8
735.566	30.23
735.966	31.3
736.366	32.2
736.766	33.17
737.166	31.84
737.566	32.37
737.966	32.21
738.365	32.92
738.765	33.27
739.165	32.42
739.564	32.5
739.964	31.52
740.363	29.77
740.763	28.88
741.162	29.56
741.561	29.33
741.96	30.18
742.36	29.19
742.759	27.95
743.158	26.33
743.557	25.71
743.955	25.48
744.354	25.01
744.753	24.93
745.152	25.01
745.55	23.77
745.949	24.34
746.348	24.04
746.746	23.91
747.144	26.31
747.543	26.19
747.941	26.64
748.339	26.88
748.737	27.45
749.136	28.4
749.534	27.52
749.932	29.14
750.33	28.21
750.727	27.6
751.125	28.71
751.523	27.1
751.921	29.88
752.318	30.47
752.716	30.79
753.113	31.29
753.511	31.09
753.908	32.51
754.305	34.24
754.703	35.13
755.1	35.69
755.497	35.55
755.894	34.8
756.291	32.84
756.688	33.61
757.085	33.83
757.482	34.26
757.878	36.67
758.275	37.41
758.672	33
759.068	33.3
759.465	34.65
759.861	35.96
760.258	38.74
760.654	42.29
761.05	42.21
761.447	41.59
761.843	39.48
762.239	36.61
762.635	35.26
763.031	37.1
763.427	36.97
763.822	36.44
764.218	33.48
764.614	33.34
765.01	29.3
765.405	28.05
765.801	27.8
766.196	28.39
766.592	28.89
766.987	29.03
767.382	27
767.778	26.59
768.173	26.44
768.568	27.47
768.963	27.87
769.358	29.31
769.753	30.5
770.148	30.93
770.542	29.85
770.937	29.77
771.332	29.6
771.726	30.4
772.121	32.69
772.515	33.45
772.91	32.57
773.304	31.65
773.699	30.93
774.093	29.35
774.487	30.02
774.881	30.29
775.275	30.01
775.669	31.43
776.063	32.18
776.457	31.33
776.851	29.88
777.245	32.12
777.638	33.36
778.032	33.61
778.425	36.08
778.819	37.14
779.212	39.63
779.606	41.1
779.999	39.18
780.392	39.31
780.786	38.51
781.179	40.24
781.572	39.33
781.965	39.4
782.358	39.01
782.751	37.89
783.143	36.44
783.536	35.75
783.929	34.49
784.322	35.33
784.714	35.04
785.107	36.14
785.499	36.64
785.891	37.63
786.284	36.67
786.676	38.47
787.068	39.25
787.46	39.99
787.852	38.21
788.245	38.26
788.636	37.04
789.028	38.16
789.42	39.51
789.812	39.49
790.204	39.55
790.595	41.1
790.987	40.36
791.378	40.39
791.77	39.89
792.161	40.38
792.553	39.09
792.944	40.41
793.335	39.87
793.726	39.75
794.117	40.07
794.508	38.16
794.899	36.02
795.29	34.95
795.681	35.23
796.072	36.74
796.463	48.59
796.853	52.42
797.244	52.77
797.634	52.48
798.025	51.89
798.415	49.46
798.806	52.79
799.196	53.48
799.586	55.78
799.976	56.65
800.366	53.52
800.756	40.77
801.146	39.36
801.536	37.58
801.926	37.61
802.316	36.88
802.706	37.55
803.095	37.55
803.485	39.62
803.874	40.1
804.264	38.83
804.653	40.87
805.043	43.01
805.432	45.71
805.821	49.07
806.21	49.76
806.599	47.34
806.988	49.46
807.377	47.65
807.766	45.44
808.155	45.41
808.544	45.53
808.933	45.92
809.321	48.88
809.71	44.33
810.098	43.37
810.487	41.87
810.875	42.77
811.264	41.76
811.652	46.97
812.04	50.03
812.428	51.02
812.816	49.37
813.204	50.31
813.592	45.19
813.98	46.44
814.368	51.58
814.756	53.25
815.144	57.26
815.531	61.47
815.919	56.94
816.306	54.07
816.694	52.07
817.081	55.83
817.469	54.66
817.856	50.65
818.243	50.26
818.63	43.33
819.017	43.49
819.404	40.75
819.791	38.82
820.178	33.93
820.565	39.17
820.952	46.06
821.339	45.26
821.725	47.07
822.112	51.65
822.498	50.93
822.885	52.23
823.271	50.48
823.657	49.85
824.044	49.09
824.43	52.81
824.816	56.49
825.202	53.39
825.588	53.66
825.974	55.68
826.36	55.28
826.746	56.87
827.132	57.05
827.517	60.14
827.903	61.87
828.289	64.89
828.674	65.17
829.06	58.6
829.445	57
829.83	54.79
830.216	54.01
830.601	57.3
830.986	59.25
831.371	60.97
831.756	62.14
832.141	64.62
832.526	63.14
832.911	64.05
833.295	65.08
833.68	65.76
834.065	66.3
834.449	63.95
834.834	63.94
835.218	65.42
835.603	66.07
835.987	62.67
836.371	61.32
836.755	63.73
837.139	58.47
837.524	56.62
837.908	51.69
838.291	55.69
838.675	55.29
839.059	55.3
839.443	54.27
839.827	53.07
840.21	53.22
840.594	53.4
840.977	48.56
841.361	52.19
841.744	49.15
842.127	53.09
842.511	51.61
842.894	50.88
843.277	49.66
843.66	46.44
844.043	47.33
844.426	50.58
844.809	48.91
845.191	49.52
845.574	48.26
845.957	50.11
846.339	49.68
846.722	47.15
847.104	45.42
847.487	44.01
847.869	45.18
848.252	45.95
848.634	46.79
849.016	49.98
849.398	49.72
849.78	47.85
850.162	47.52
850.544	48.34
850.926	47.64
851.307	49.46
851.689	48
852.071	46.78
852.452	48.05
852.834	43.41
853.215	41.26
853.597	38.4
853.978	47.02
854.359	49.87
854.741	51.49
855.122	50.99
855.503	51.07
855.884	52.84
856.265	52.86
856.646	47.06
857.026	50.98
857.407	52.57
857.788	54.37
858.169	45.81
858.549	50.35
858.93	50.62
859.31	53.91
859.69	57.63
860.071	61.07
860.451	62.63
860.831	64.18
861.211	62.23
861.591	58.49
861.971	58.25
862.351	61.18
862.731	56.05
863.111	55.13
863.491	53.97
863.87	48.8
864.25	42.99
864.629	47.6
865.009	47.19
865.388	51.92
865.768	53.13
866.147	55.94
866.526	55.94
866.905	56.92
867.284	52.87
867.663	46.74
868.042	50.48
868.421	52.08
868.8	43.59
869.179	42.97
869.558	37.73
869.936	40.61
870.315	40.58
870.693	42.45
871.072	42.99
871.45	44.91
871.828	50.99
872.207	52.62
872.585	55.16
872.963	58.29
873.341	64.1
873.719	70.18
874.097	70.86
874.475	70.31
874.853	72.04
875.23	70.95
875.608	73.83
875.986	75.68
876.363	74.88
876.741	82.2
877.118	89.82
877.495	89.08
877.873	84.64
878.25	82.11
878.627	80.97
879.004	79.52
879.381	75.91
879.758	77.19
880.135	74.7
880.512	73.57
880.889	62.42
881.265	52.76
881.642	50.36
882.019	50.64
882.395	59.37
882.772	66.15
883.148	66.46
883.524	70.31
883.901	67.83
884.277	66.16
884.653	62.14
885.029	68.73
885.405	80.29
885.781	78.91
886.157	78.25
886.532	68.77
886.908	60.49
887.284	59.06
887.659	61.98
888.035	61.4
888.411	57.23
888.786	61.52
889.161	59.14
889.537	50.93
889.912	56.86
890.287	54.9
890.662	54.96
891.037	52.41
891.412	48.55
891.787	44.07
892.162	51.08
892.536	61.56
892.911	63.91
893.286	61.24
893.66	60.65
894.035	62.7
894.409	60.51
894.784	65.48
895.158	68.44
895.532	71.62
895.906	77.64
896.281	72.81
896.655	72.85
897.029	71.45
897.402	75.85
897.776	82.08
898.15	77.65
898.524	84.97
898.898	81.63
899.271	96.64
899.645	98.05
900.018	92.78
900.392	93.2
900.765	84.74
901.138	89.12
901.511	89.05
901.884	90.02
902.258	87.57
902.631	95.78
903.003	101.66
903.376	82.56
903.749	88.4
904.122	82.48
904.495	83.69
904.867	82.13
905.24	73.46
905.612	64.88
905.985	62.96
906.357	64.97
906.729	59.91
907.102	66.81
907.474	78.09
907.846	82.06
908.218	87.06
908.59	92.77
908.962	93.5
909.334	100.81
909.705	109.28
910.077	100.75
910.449	97.08
910.82	110.83
911.192	109.49
911.563	115.12
911.935	106.61
912.306	99.71
912.677	88.47
913.048	89.13
913.419	83.03
913.79	78.95
914.161	91.92
914.532	99.44
914.903	69.56
915.274	66.51
915.645	58.19
916.015	54.9
916.386	53.01
916.756	58.13
917.127	61.01
917.497	71.19
917.868	78.51
918.238	71.74
918.608	72.22
918.978	87.67
919.348	86.16
919.718	91.7
920.088	87.95
920.458	97.36
920.828	86.94
921.198	87.75
921.567	80.39
921.937	70.52
922.306	74.1
922.676	72.87
923.045	68.48
923.415	80.19
923.784	70.01
924.153	84.56
924.522	88.84
924.891	88.76
925.26	89.13
925.629	90.31
925.998	90.99
926.367	88.8
926.736	98.28
927.104	110.84
927.473	116.8
927.842	137.95
928.21	123.37
928.578	102.2
928.947	123.79
929.315	129.06
929.683	142.31
930.051	151.18
930.42	168.63
930.788	148
931.156	144.58
931.523	151.92
931.891	143.65
932.259	148.28
932.627	197.42
932.994	238.69
933.362	216.73
933.729	204.24
934.097	206.83
934.464	195.47
934.831	201.45
935.199	192.53
935.566	158.52
935.933	196.72
936.3	253.35
936.667	209.75
937.034	230.03
937.401	233.95
937.767	206.71
938.134	175.6
938.501	202.35
938.867	241.13
939.234	378.08
939.6	331.15
939.967	309.8
940.333	202.5
940.699	151.81
941.065	87.37
941.431	60.29
941.798	85.19
942.163	178.17
942.529	129.12
942.895	111.56
943.261	86.41
943.627	115.1
943.992	113.39
944.358	114.4
944.723	134.58
945.089	137.21
945.454	154.48
945.82	148.48
946.185	116.87
946.55	150.09
946.915	138.71
947.28	163.77
947.645	138.02
948.01	136.27
948.375	145.04
948.74	153.7
949.104	154.37
949.469	141.71
949.834	223.86
950.198	286.94
950.562	190.38
950.927	162.47
951.291	174.29
951.655	167.33
952.02	125.07
952.384	83.41
952.748	91.5
953.112	119.27
953.476	127.66
953.839	126.43
954.203	139.95
954.567	148.63
954.931	179.47
955.294	162.81
955.658	165.66
956.021	286.05
956.385	510.83
956.748	700.9
957.111	938.95
957.474	973.05
957.837	870.43
958.2	469.59
958.563	254.91
958.926	220.35
959.289	338.99
959.652	361.45
960.015	255.18
960.377	298.85
960.74	361.34
961.102	558.01
961.465	608.3
961.827	599.26
962.189	1017.87
962.552	723.25
962.914	526.66
963.276	339.06
963.638	301.79
964	285.91
964.362	223.1
964.724	205.82
965.085	164.37
965.447	150.81
965.809	118.69
966.17	119.2
966.532	109.91
966.893	122.17
967.255	110.84
967.616	106.01
967.977	104.49
968.338	106.56
968.699	107.07
969.061	97.95
969.421	105.99
969.782	107.31
970.143	99.56
970.504	120.82
970.865	141.3
971.225	155.39
971.586	148.95
971.946	188.59
972.307	164.17
972.667	186.06
973.027	198.13
973.388	189.16
973.748	143.42
974.108	171.69
974.468	151.33
974.828	148.93
975.188	120.1
975.548	134.2
975.907	125.52
976.267	141.86
976.627	137.18
976.986	137.48
977.346	129.81
977.705	140.78
978.064	119.64
978.424	109.5
978.783	87.57
979.142	84.86
979.501	90.99
979.86	94.78
980.219	82.93
980.578	80.82
980.937	85.69
981.296	95.65
981.654	85.6
982.013	99.67
982.371	172.51
982.73	175.63
983.088	201.11
983.447	167.23
983.805	253.97
984.163	579.78
984.521	578.23
984.879	829.12
985.237	-1351.2
985.595	1166.06
985.953	384.24
986.311	137.41
986.669	76.63
987.026	61.96
987.384	46.87
987.741	-12.71
988.099	48.63
988.456	50.74
988.814	75.74
989.171	63.05
989.528	53.22
989.885	44.25
990.242	63.77
990.599	65.24
990.956	59.28
991.313	66.22
991.67	69.15
992.027	87.55
992.383	77.13
992.74	63.22
993.096	72.43
993.453	74.72
993.809	81.38
994.165	97.89
994.522	128.77
994.878	131.38
995.234	154.46
995.59	147.71
995.946	96.8
996.302	123.62
996.658	139.24
997.013	112.3
997.369	158.9
997.725	195.41
998.08	146.42
998.436	94.99
998.791	155.79
999.147	138.72
999.502	159.28
999.857	119.39
1000.212	161.3
1000.567	317.43
1000.922	342.08
1001.277	222.17
1001.632	177.12
1001.987	178.92
1002.342	182.25
1002.696	160.81
1003.051	146.41
1003.406	172.12
1003.76	167.34
1004.114	175.1
1004.469	155.12
1004.823	117.36
1005.177	107.48
1005.531	87.34
1005.885	95.7
1006.239	116.8
1006.593	139.61
1006.947	167.23
1007.301	125.37
1007.655	132.38
1008.008	114.63
1008.362	104.36
1008.715	166.9
1009.069	179.52
1009.422	306.8
1009.776	576.47
1010.129	323.96
1010.482	271.68
1010.835	199.82
1011.188	441.03
1011.541	413.55
1011.894	-1930.93
1012.247	5903.33
1012.6	181.43
1012.952	147.46
1013.305	64.72
1013.657	35.07
1014.01	23.04
1014.362	34.69
1014.715	77.93
1015.067	91.97
1015.419	96.24
1015.771	104.17
1016.123	115.84
1016.475	138.81
1016.827	137.29
1017.179	151.07
1017.531	155.9
1017.883	160.05
1018.234	177.77
1018.586	187.49
1018.938	192.64
1019.289	248.46
1019.64	244.02
1019.992	199.83
1020.343	168.97
1020.694	175.36
1021.045	152.07
1021.396	180.79
1021.747	209.44
1022.098	192.4
1022.449	177.3
1022.8	191.43
1023.151	175.61
1023.501	173.28
1023.852	178.32
1024.202	214.69
1024.553	225.86
1024.903	247.06
1025.253	208.99
1025.604	208.9
1025.954	262.01
1026.304	298.8
1026.654	289.78
1027.004	321.38
1027.354	388.81
1027.703	437.94
1028.053	382.65
1028.403	695.35
1028.753	683.58
1029.102	694.67
1029.452	-45.77
1029.801	-78.5
1030.15	-63.56
1030.499	-66.98
897.758	1162.38
901.051	1127.65
904.343	1149.52
907.636	1147.86
910.928	1177.62
914.22	1139.78
917.511	1144.94
920.803	1168.61
924.094	1162.62
927.384	1164.73
930.675	1147.11
933.965	1132.9
937.255	1148.79
940.544	1131.92
943.834	1135.81
947.123	1106.95
950.411	1150.23
953.7	1144.2
956.988	1135.44
960.276	1098.2
963.563	1119.91
966.851	1125.11
970.138	1141.14
973.424	1142.28
976.711	1116.42
979.997	1140.24
983.283	1158.32
986.568	1126.33
989.853	1117.96
993.138	1127.91
996.423	1178.77
999.708	1155.73
1002.992	1167.25
1006.275	1128.37
1009.559	1128.89
1012.842	1176.75
1016.125	1152.66
1019.408	1141.99
1022.69	1168.96
1025.972	1181.65
1029.254	1172.11
1032.536	1152.16
1035.817	1156.27
1039.098	1142.75
1042.379	1164.54
1045.659	1175.19
1048.939	1150.16
1052.219	1149.52
1055.498	1149.84
1058.778	1140.85
1062.057	1134.48
1065.335	1149.96
1068.614	1149.2
1071.892	1142.68
1075.17	1172.98
1078.447	1172.12
1081.724	1168.45
1085.001	1178.26
1088.278	1165.61
1091.554	1165.28
1094.83	1167.05
1098.106	1177.47
1101.382	1192.35
1104.657	1190.79
1107.932	1193.68
1111.206	1178.67
1114.481	1156.82
1117.755	1160.43
1121.029	1155.98
1124.302	1184.95
1127.575	1169.61
1130.848	1169.35
1134.121	1155.94
1137.393	1131.68
1140.665	1164.35
1143.937	1149.35
1147.208	1128.66
1150.48	1154.15
1153.75	1145.97
1157.021	1150.04
1160.291	1137.55
1163.561	1159.73
1166.831	1142.96
1170.101	1153.19
1173.37	1136.17
1176.639	1115.99
1179.907	1142.89
1183.176	1146.38
1186.444	1149.21
1189.711	1161.32
1192.979	1171.72
1196.246	1151.78
1199.513	1161.07
1202.78	1163.57
1206.046	1167.38
1209.312	1184.5
1212.578	1186.73
1215.843	1165.98
1219.108	1159.05
1222.373	1168.35
1225.638	1155.1
1228.902	1146.92
1232.166	1133.35
1235.43	1126.28
1238.693	1139.1
1241.956	1138.55
1245.219	1157.28
1248.482	1155.21
1251.744	1158.45
1255.006	1210.58
1258.268	1186.49
1261.529	1171.05
1264.79	1172.49
1268.051	1215.57
1271.312	1222.85
1274.572	1203.57
1277.832	1198.98
1281.092	1190.14
1284.351	1185.91
1287.61	1179.2
1290.869	1149.25
1294.128	1149.97
1297.386	1168.91
1300.644	1166.19
1303.902	1169.08
1307.159	1104.9
1310.416	1129.57
1313.673	1139.9
1316.93	1141.83
1320.186	1151.76
1323.442	1165.16
1326.697	1163.1
1329.953	1153.57
1333.208	1169
1336.463	1157.55
1339.717	1142.76
1342.972	1197.18
1346.226	1184.74
1349.479	1167.32
1352.733	1153.94
1355.986	1165.72
1359.238	1156.86
1362.491	1157.49
1365.743	1155.62
1368.995	1156.28
1372.247	1166.37
1375.498	1172.1
1378.749	1187.57
1382	1171.22
1385.251	1181.22
1388.501	1164.49
1391.751	1158.69
1395	1148.44
1398.25	1164.21
1401.499	1176.71
1404.748	1152.19
1407.996	1144.55
1411.244	1144.85
1414.492	1136.18
1417.74	1127.71
1420.987	1136.7
1424.234	1160.13
1427.481	1146.97
1430.728	1169.83
1433.974	1162.27
1437.22	1161.63
1440.465	1156.49
1443.711	1156.59
1446.956	1161.71
1450.201	1153.36
1453.445	1176.7
1456.689	1166.19
1459.933	1174.7
1463.177	1191.09
1466.42	1181.94
1469.663	1168.01
1472.906	1174.73
1476.148	1199.56
1479.391	1181.79
1482.633	1175.55
1485.874	1183.8
1489.115	1184.2
1492.356	1178.98
1495.597	1166.59
1498.838	1163.64
1502.078	1157.66
1505.318	1150.99
1508.557	1160.72
1511.797	1158.42
1515.036	1179.39
1518.274	1159.97
1521.513	1136.89
1524.751	1141.04
1527.989	1149.67
1531.227	1159.15
1534.464	1157.18
1537.701	1154.27
1540.938	1156.78
1544.174	1136.25
1547.41	1128.66
1550.646	1147.82
1553.882	1166.05
1557.117	1196.3
1560.352	1198.8
1563.587	1176.38
1566.821	1163.13
1570.055	1176.16
1573.289	1159.98
1576.523	1182.75
1579.756	1189.52
1582.989	1200.68
1586.222	1177.69
1589.454	1197.36
1592.686	1190.05
1595.918	1199.07
1599.15	1201.92
1602.381	1222.43
1605.612	1213.11
1608.843	1254.66
1612.073	1222.74
1615.303	1214.91
1618.533	1210.93
1621.762	1213.33
1624.992	1200.93
1628.221	1194.75
1631.449	1191.66
1634.678	1206.1
1637.906	1188.96
1641.134	1197.61
1644.361	1183.7
1647.588	1175.29
1650.815	1189.59
1654.042	1174.34
1657.269	1185.84
1660.495	1175.67
1663.72	1172.11
1666.946	1155.93
1670.171	1144.71
1673.396	1131.5
1676.621	1124.36
1679.845	1126.1
1683.069	1127.04
1686.293	1137.92
1689.517	1133.06
1692.74	1113.2
1695.963	1121.4
1699.185	1136.93
1702.408	1124.67
1705.63	1137.3
1708.852	1143
1712.073	1130.27
1715.294	1136.31
1718.515	1164.7
1721.736	1144.12
1724.956	1139.3
1728.176	1150.51
1731.396	1157.03
1734.616	1154.13
1737.835	1178.7
1741.054	1161.38
1744.272	1163.23
1747.491	1181.85
1750.709	1190.47
1753.927	1167.12
1757.144	1182.66
1760.361	1205.51
1763.578	1190.94
1766.795	1169.72
1770.011	1166.82
1773.227	1174.45
1776.443	1195.12
1779.658	1211.64
1782.874	1187.31
1786.089	1181.95
1789.303	1182.37
1792.518	1183.94
1795.732	1179.55
1798.945	1186.08
1802.159	1209.05
1805.372	1178.06
1808.585	1173.32
1811.797	1173.57
1815.01	1189.68
1818.222	1202.26
1821.434	1188.53
1824.645	1203.66
1827.856	1203.68
1831.067	1212.8
1834.278	1194.15
1837.488	1183.72
1840.698	1241.53
1843.908	1222.45
1847.117	1207
1850.326	1170.23
1853.535	1200.47
1856.744	1214.98
1859.952	1182.85
1863.16	1182.73
1866.368	1200.48
1869.575	1244.24
1872.782	1196.22
1875.989	1166.89
1879.196	1190.62
1882.402	1188.43
1885.608	1201.71
1888.814	1173.36
1892.019	1132.9
1895.224	1160.91
1898.429	1149.88
1901.634	1137.67
1904.838	1130.54
1908.042	1153.15
1911.246	1164.26
1914.449	1145.91
1917.652	1139.48
1920.855	1130.33
1924.058	1142.11
1927.26	1167.98
1930.462	1174.89
1933.664	1191.8
1936.865	1168
1940.066	1173.81
1943.267	1150.46
1946.467	1153.72
1949.668	1158.23
1952.868	1193.34
1956.067	1195.26
1959.267	1165.97
1962.466	1176.65
1965.665	1167.23
1968.863	1166.58
1972.061	1166.45
1975.259	1164.61
1978.457	1200.42
1981.654	1182.56
1984.852	1182.34
1988.048	1162.74
1991.245	1153.62
1994.441	1194.88
1997.637	1169.49
2000.833	1162.43
2004.028	1177.34
2007.223	1206.78
2010.418	1193.95
2013.613	1174.66
2016.807	1170.24
2020.001	1172.36
2023.194	1181.91
2026.388	1171.13
2029.581	1147.6
2032.774	1179.35
2035.966	1184.57
2039.158	1157
2042.35	1167.08
2045.542	1135.02
2048.733	1172.12
2051.924	1164.02
2055.115	1169.99
2058.306	1155.69
2061.496	1178.85
2064.686	1202.74
2067.875	1156.05
2071.065	1158.13
2074.254	1167.62
2077.442	1146.86
2080.631	1185.67
2083.819	1155.51
2087.007	1150.83
2090.195	1144.67
2093.382	1145.58
2096.569	1146.36
2099.756	1124.28
2102.942	1154.19
2106.128	1155.46
2109.314	1153.07
2112.5	1146.89
2115.685	1133.52
2118.87	1135.64
2122.055	1172.95
2125.239	1159.04
2128.424	1156.35
2131.608	1182.02
2134.791	1174.04
2137.974	1189.87
2141.157	1184.72
2144.34	1170.86
2147.523	1164.11
2150.705	1179.33
2153.887	1162.18
2157.068	1147.97
2160.25	1138.1
2163.431	1149.35
2166.611	1133.59
2169.792	1145.28
2172.972	1096.82
2176.152	1131.3
2179.331	1139.48
2182.511	1138.39
2185.69	1145.33
2188.868	1145.63
2192.047	1164.34
2195.225	1178.8
2198.403	1151.26
2201.58	1143.5
2204.758	1137.6
2207.935	1173.79
2211.111	1128.82
2214.288	1124.15
2217.464	1140.22
2220.64	1123.71
2223.815	1148.18
2226.991	1110.73
2230.166	1115.4
2233.34	1135.23
2236.515	1143.14
2239.689	1179.86
2242.863	1156.15
2246.036	1179.68
2249.209	1175.83
2252.382	1186.86
2255.555	1187.74
2258.727	1167.47
2261.9	1185.04
2265.071	1182.86
2268.243	1182.94
2271.414	1160.65
2274.585	1143.88
2277.756	1176.11
2280.926	1156.16
2284.096	1169.28
2287.266	1135.97
2290.436	1160.55
2293.605	1165.69
2296.774	1182.54
2299.942	1185.75
2303.111	1196.14
2306.279	1218.27
2309.447	1214.78
2312.614	1201.61
2315.781	1209.45
2318.948	1199.3
2322.115	1218.61
2325.281	1168.34
2328.447	1174.26
2331.613	1157.65
2334.779	1155.56
2337.944	1152.33
2341.109	1151.47
2344.274	1147.46
2347.438	1128.92
2350.602	1143.48
2353.766	1148.3
2356.929	1144.52
2360.092	1164.29
2363.255	1144.99
2366.418	1135.53
2369.58	1151.55
2372.742	1138.87
2375.904	1128.8
2379.066	1126.17
2382.227	1138.74
2385.388	1117.25
2388.548	1096.55
2391.709	1111.61
2394.869	1107.13
2398.029	1137.39
2401.188	1127.43
2404.347	1119.6
2407.506	1112.96
2410.665	1143.39
2413.823	1131.4
2416.981	1125.08
2420.139	1134.42
2423.296	1151.72
2426.453	1138.76
2429.61	1152.24
2432.767	1136.3
2435.923	1155.51
2439.079	1133.06
2442.235	1150.6
2445.391	1118.61
2448.546	1138.69
2451.701	1155.31
2454.855	1152.69
2458.009	1167.3
2461.163	1162.19
2464.317	1145.7
2467.471	1158.45
2470.624	1174.68
2473.777	1168.08
2476.929	1174.67
2480.082	1185.31
2483.234	1178.02
2486.385	1150.23
2489.537	1147.28
2492.688	1137.64
2495.839	1153.36
2498.989	1156.75
2502.14	1148.69
2505.29	1142.4
2508.439	1154.07
2511.589	1127.91
2514.738	1130.18
2517.887	1136.47
2521.035	1171.05
2524.183	1151.24
2527.331	1148.13
2530.479	1137.77
2533.627	1142.52
