Data from N_1_HIR_IL_4N_Splice17_11-27-04-944.txt Node
Date: Sat Mar 14 11:27:04 EDT 2020
User: sa697716
Spectrometer: FLMS03696
Trigger mode: 0
Integration Time (sec): 3.180400E-1
Scans to average: 20
Electric dark correction enabled: true
Nonlinearity correction enabled: true
Boxcar width: 5
XAxis mode: Wavelengths
Number of Pixels in Spectrum: 2048
>>>>>Begin Spectral Data<<<<<
187.83	-101354.08
188.298	657.13
188.766	427.23
189.233	342.28
189.701	466.75
190.169	583.17
190.636	177.5
191.104	88.42
191.571	-61.41
192.039	-114.8
192.506	-110.49
192.974	296.18
193.441	-854.31
193.908	-375.2
194.375	-105.37
194.842	-72.88
195.31	-99.15
195.777	77.91
196.244	176.23
196.711	160.5
197.177	179.71
197.644	213.49
198.111	357.07
198.578	486.28
199.045	364.7
199.511	534.02
199.978	573.31
200.445	479.65
200.911	510.65
201.378	538.3
201.844	514
202.31	818.15
202.777	842.77
203.243	473.21
203.709	482.54
204.176	600.76
204.642	495.86
205.108	470.88
205.574	405.39
206.04	343.61
206.506	320.85
206.972	293.56
207.438	284.41
207.903	330.06
208.369	308.83
208.835	297.11
209.301	303.07
209.766	293.48
210.232	281.93
210.697	328.29
211.163	372.79
211.628	536.02
212.094	440.92
212.559	632.42
213.024	388.97
213.49	478.76
213.955	455.03
214.42	415.22
214.885	396.27
215.35	393.63
215.815	414.41
216.28	463.11
216.745	355.48
217.21	373.5
217.675	292.18
218.14	308.3
218.604	293.46
219.069	318.26
219.534	339.92
219.998	356.18
220.463	384.69
220.927	369.94
221.392	319.04
221.856	327.59
222.32	334.94
222.785	394.41
223.249	449.4
223.713	472.84
224.177	440.7
224.642	472.31
225.106	526.36
225.57	550.55
226.034	413.98
226.497	595.44
226.961	534.89
227.425	659.2
227.889	679.93
228.353	650.42
228.816	1272.32
229.28	1237.11
229.744	1025.76
230.207	706.27
230.671	672.96
231.134	1023.1
231.597	1193.26
232.061	1094.39
232.524	1022.14
232.987	730.45
233.45	661.76
233.914	569.83
234.377	522.61
234.84	468.88
235.303	462.5
235.766	504.19
236.229	575.17
236.691	342.4
237.154	355.18
237.617	279.39
238.08	249.24
238.542	274.26
239.005	212.29
239.468	218.87
239.93	207.2
240.393	206.28
240.855	184.65
241.317	152.7
241.78	154.29
242.242	173.81
242.704	212.61
243.166	202.86
243.629	210.91
244.091	239.24
244.553	262.92
245.015	295.88
245.477	368.58
245.939	504.71
246.4	586.69
246.862	565.11
247.324	530.56
247.786	535
248.247	651.45
248.709	564.35
249.17	427.08
249.632	467.62
250.093	575.27
250.555	478.48
251.016	323.69
251.477	310.35
251.939	354.87
252.4	361.83
252.861	412.67
253.322	411.99
253.783	462.08
254.244	592.23
254.705	417.92
255.166	321.03
255.627	315.89
256.088	444.55
256.549	437.15
257.009	367.71
257.47	416.48
257.931	331.99
258.391	255.64
258.852	261.32
259.312	273.61
259.773	306.73
260.233	322.92
260.694	301.7
261.154	314.74
261.614	303.81
262.074	268.9
262.534	304.7
262.994	304.36
263.455	375.28
263.915	324.11
264.374	293.87
264.834	314.03
265.294	304.26
265.754	302.29
266.214	277.91
266.673	232.67
267.133	273.62
267.593	237.13
268.052	267.82
268.512	230.56
268.971	329.91
269.431	356.6
269.89	339.35
270.349	510.87
270.809	567.88
271.268	556
271.727	1174.55
272.186	791.57
272.645	622.39
273.104	428.81
273.563	585.25
274.022	399.84
274.481	370.71
274.94	287.19
275.399	226.38
275.857	239.7
276.316	305.17
276.775	287.97
277.233	286.91
277.692	282.9
278.15	330.65
278.609	394.58
279.067	363.07
279.525	362.2
279.984	439.68
280.442	513.4
280.9	577.85
281.358	365.98
281.816	355.11
282.274	341.29
282.732	320.01
283.19	327.56
283.648	257.21
284.106	277.55
284.564	267.18
285.021	285.47
285.479	199.14
285.937	160.06
286.394	165.25
286.852	144.61
287.309	155.79
287.767	199.16
288.224	197.78
288.682	211.42
289.139	245.98
289.596	231.8
290.053	210.51
290.511	263.48
290.968	330.3
291.425	411.96
291.882	414.13
292.339	370.35
292.796	321.14
293.252	302.71
293.709	279.58
294.166	257.94
294.623	273.47
295.079	263.67
295.536	268.61
295.992	254.17
296.449	245.56
296.905	256.74
297.362	267.49
297.818	273.12
298.274	286.57
298.731	271.6
299.187	255.75
299.643	261.46
300.099	324.84
300.555	370.59
301.011	329.59
301.467	373.96
301.923	401.04
302.379	392.19
302.835	390.61
303.291	393.74
303.746	445.99
304.202	548.2
304.658	556.67
305.113	382.04
305.569	365.7
306.024	351.69
306.479	264.85
306.935	251.63
307.39	244.77
307.845	232.05
308.301	246.87
308.756	231.49
309.211	250.32
309.666	261.47
310.121	346.24
310.576	327.36
311.031	309.55
311.486	367.66
311.94	308.7
312.395	408.12
312.85	758.18
313.305	2900.09
313.759	19514.72
314.214	1384.48
314.668	1133.22
315.123	1086.77
315.577	464.85
316.032	448.89
316.486	567.6
316.94	495.09
317.394	353.29
317.849	278.23
318.303	262.81
318.757	255.5
319.211	284.24
319.665	255.41
320.119	241.6
320.572	307.43
321.026	303.41
321.48	252.2
321.934	251.58
322.387	243.5
322.841	283.76
323.295	294.32
323.748	277.05
324.202	262.49
324.655	318.9
325.108	480.07
325.562	377.96
326.015	405.41
326.468	305.64
326.921	352.69
327.374	370.32
327.827	373.32
328.28	410.65
328.733	303.69
329.186	291.07
329.639	259.38
330.092	203.34
330.545	205.08
330.997	220.01
331.45	269.2
331.903	330.78
332.355	476.09
332.808	450.01
333.26	383.02
333.713	459.04
334.165	452.62
334.617	597.26
335.069	468.6
335.522	750.54
335.974	852.34
336.426	681.19
336.878	406.51
337.33	274.84
337.782	250.55
338.234	320.57
338.686	329.66
339.137	387.81
339.589	368.69
340.041	320.89
340.493	255.41
340.944	258.2
341.396	297.27
341.847	293.06
342.299	349.31
342.75	500.32
343.201	384.57
343.653	415.4
344.104	486.79
344.555	413.03
345.006	567.32
345.457	547.02
345.908	437.84
346.359	418.26
346.81	328.88
347.261	289.25
347.712	242.2
348.163	272.57
348.613	335.22
349.064	320.51
349.515	267.32
349.965	284.93
350.416	302.1
350.866	282.36
351.317	301.4
351.767	475.14
352.217	667.11
352.668	566.79
353.118	518.34
353.568	395.47
354.018	344.97
354.468	395.51
354.918	296.9
355.368	283.41
355.818	406.33
356.268	1110.23
356.718	5238.55
357.168	1448.04
357.617	728.67
358.067	804.45
358.517	794.09
358.966	952.71
359.416	1165.7
359.865	1243.2
360.315	1360.66
360.764	688.49
361.213	395.4
361.663	315.96
362.112	322.02
362.561	496.72
363.01	385.66
363.459	289.35
363.908	290.08
364.357	256.44
364.806	370.57
365.255	263.42
365.703	268.88
366.152	280.09
366.601	270.74
367.05	254.02
367.498	252.7
367.947	249.95
368.395	268.7
368.844	245.46
369.292	253.69
369.74	198.63
370.189	286.04
370.637	301.07
371.085	266.9
371.533	305.17
371.981	268.83
372.429	277.31
372.877	285.27
373.325	258.97
373.773	225.47
374.221	204.64
374.669	241.37
375.116	212.4
375.564	226.01
376.012	212.86
376.459	197.75
376.907	228.88
377.354	241.91
377.801	265.6
378.249	303.86
378.696	376.72
379.143	483.19
379.591	502.66
380.038	828.35
380.485	603.59
380.932	731.23
381.379	753.5
381.826	640.96
382.273	450.17
382.72	348.48
383.166	352.23
383.613	262.13
384.06	219.05
384.506	251.69
384.953	183.73
385.4	186.18
385.846	165.13
386.292	125.47
386.739	107.32
387.185	97.64
387.631	99.51
388.078	113.62
388.524	114.92
388.97	105.07
389.416	103.47
389.862	123.27
390.308	109.42
390.754	111.91
391.2	132.79
391.645	131.71
392.091	160.7
392.537	164.85
392.983	136.77
393.428	157.01
393.874	173.06
394.319	178.19
394.765	181.87
395.21	179.8
395.655	162.56
396.101	147.89
396.546	137.79
396.991	110.58
397.436	106.71
397.881	102.01
398.326	81.28
398.771	78.54
399.216	63.72
399.661	48.66
400.106	55.02
400.551	62.68
400.995	57.28
401.44	55.64
401.885	59.47
402.329	55.47
402.774	57.3
403.218	68.91
403.663	65.42
404.107	67.36
404.551	74.6
404.995	67.39
405.44	60.99
405.884	59.48
406.328	53.1
406.772	49.04
407.216	48.58
407.66	45.9
408.104	33.65
408.547	32.94
408.991	31.48
409.435	26.52
409.879	29.98
410.322	29.9
410.766	30.18
411.209	33.46
411.653	34.59
412.096	35.44
412.54	33
412.983	32.86
413.426	34.51
413.869	32.8
414.312	34.09
414.756	29.99
415.199	28.59
415.642	31.03
416.085	30.59
416.527	27.87
416.97	26.51
417.413	29.99
417.856	30.22
418.298	28.41
418.741	24.88
419.184	22.69
419.626	20.21
420.069	19.93
420.511	18.33
420.953	20.8
421.396	22.3
421.838	20.18
422.28	17.99
422.722	18.61
423.164	16.21
423.606	19.15
424.048	18.04
424.49	18.91
424.932	17.58
425.374	15.52
425.816	12.04
426.258	12.74
426.699	14.7
427.141	18.68
427.582	17.9
428.024	17.83
428.465	14.48
428.907	14.73
429.348	14.18
429.789	18.49
430.231	21.93
430.672	23.66
431.113	21.23
431.554	19.68
431.995	16.94
432.436	18.44
432.877	18.68
433.318	23.91
433.759	21.5
434.2	22.8
434.64	19.99
435.081	20.19
435.522	18.88
435.962	18.9
436.403	21.44
436.843	20.3
437.284	18.82
437.724	18.7
438.164	14.89
438.604	16.88
439.045	18.1
439.485	19.98
439.925	18.04
440.365	16.3
440.805	15.86
441.245	15.04
441.685	15.16
442.125	13.72
442.564	14.04
443.004	16.03
443.444	15.58
443.883	16.06
444.323	13.96
444.762	10.31
445.202	11.79
445.641	12.89
446.081	11.08
446.52	12.46
446.959	14.39
447.398	15.18
447.837	14.21
448.276	13.18
448.716	14.2
449.154	11.73
449.593	14.58
450.032	14.09
450.471	12.83
450.91	12.58
451.349	12.21
451.787	11.35
452.226	11
452.664	9.92
453.103	10.76
453.541	7.97
453.98	11.04
454.418	11.53
454.856	12.47
455.295	11.72
455.733	12.25
456.171	12.49
456.609	13.37
457.047	13.04
457.485	15.63
457.923	16.89
458.361	16.22
458.798	15.66
459.236	14.48
459.674	13.13
460.111	14.33
460.549	14.44
460.987	11.97
461.424	10.54
461.862	9.57
462.299	8.84
462.736	8.52
463.173	9.67
463.611	12.77
464.048	13.76
464.485	14.16
464.922	13.33
465.359	11.65
465.796	18.86
466.233	19.84
466.67	23.34
467.106	24.86
467.543	22.8
467.98	22.14
468.416	18.91
468.853	17.36
469.29	16.69
469.726	16.37
470.162	17.07
470.599	11.97
471.035	10.42
471.471	7.97
471.907	5.53
472.344	6.33
472.78	6.51
473.216	5.85
473.652	6.23
474.088	5.16
474.523	6.01
474.959	5.45
475.395	4.81
475.831	4.85
476.266	4.96
476.702	4.49
477.138	4.69
477.573	3.86
478.008	4.64
478.444	6.49
478.879	8.47
479.314	8.18
479.75	8.39
480.185	8.52
480.62	8.51
481.055	8.25
481.49	8.57
481.925	8.83
482.36	10.56
482.795	9.41
483.229	7.44
483.664	6.85
484.099	6.83
484.534	7.14
484.968	8.17
485.403	7.95
485.837	7.37
486.271	6.98
486.706	6.03
487.14	4.97
487.574	5.41
488.009	5.85
488.443	4.99
488.877	5.79
489.311	5.1
489.745	5.01
490.179	5.15
490.613	6.96
491.046	7.01
491.48	7.67
491.914	8
492.348	7.93
492.781	8.25
493.215	9.28
493.648	8.28
494.082	8.44
494.515	8.26
494.948	9.01
495.382	6.63
495.815	7.06
496.248	7.07
496.681	6.67
497.114	6.12
497.547	6.04
497.98	6.48
498.413	8
498.846	8.48
499.279	7.72
499.711	6.91
500.144	7.89
500.577	8.63
501.009	8.03
501.442	8.7
501.874	10
502.306	9.69
502.739	11.75
503.171	10.79
503.603	10.64
504.036	10.7
504.468	10.61
504.9	10.34
505.332	9.75
505.764	10.26
506.196	10
506.627	9.53
507.059	9.06
507.491	5.99
507.923	6.21
508.354	6.58
508.786	6.69
509.217	7.03
509.649	7.47
510.08	6.81
510.512	7.32
510.943	7.25
511.374	7.4
511.805	7.3
512.237	7.29
512.668	6.47
513.099	5.4
513.53	5.18
513.961	5.45
514.391	5.08
514.822	6.51
515.253	6.48
515.684	6.17
516.114	6.24
516.545	7.26
516.975	7.51
517.406	7.46
517.836	7.22
518.267	7.35
518.697	8.12
519.127	8.44
519.558	7.54
519.988	7.12
520.418	6.8
520.848	6.17
521.278	5.24
521.708	32.13
522.138	33.19
522.567	33.09
522.997	32.89
523.427	32.21
523.857	31.74
524.286	31.77
524.716	31.74
525.145	32.23
525.575	32.68
526.004	32.51
526.433	5.61
526.863	4.3
527.292	5.48
527.721	6.36
528.15	6.41
528.579	6.97
529.008	6.63
529.437	5.83
529.866	5.62
530.295	5.07
530.724	6.3
531.152	6.93
531.581	8.05
532.01	7.92
532.438	7.46
532.867	6.82
533.295	6.89
533.723	6.94
534.152	7.55
534.58	8.09
535.008	8.3
535.436	8.66
535.865	8.08
536.293	7.16
536.721	6.51
537.149	6.12
537.576	6.72
538.004	6.33
538.432	5.93
538.86	6.72
539.287	5.67
539.715	5.88
540.143	4.75
540.57	5.1
540.998	5.39
541.425	7.18
541.852	7.39
542.28	7.26
542.707	7.56
543.134	8.22
543.561	7.48
543.988	7.89
544.415	7.65
544.842	7.53
545.269	7.29
545.696	7.76
546.123	7.01
546.549	7.44
546.976	7.32
547.403	7.41
547.829	6.9
548.256	6.58
548.682	6.55
549.108	7.02
549.535	7.24
549.961	6.99
550.387	6.48
550.813	6.96
551.24	6.77
551.666	6.6
552.092	6.28
552.518	6.36
552.943	7.24
553.369	6.85
553.795	6.69
554.221	6.69
554.646	6.68
555.072	7.53
555.498	6.47
555.923	5.82
556.349	6.13
556.774	5.96
557.199	6.21
557.625	5.68
558.05	6.25
558.475	6.09
558.9	6.01
559.325	6.95
559.75	6.74
560.175	6.57
560.6	6.66
561.025	5.99
561.449	5.72
561.874	4.97
562.299	5.1
562.723	4.68
563.148	4.67
563.572	4.85
563.997	4.73
564.421	3.99
564.846	3.45
565.27	3.8
565.694	4.12
566.118	4.19
566.542	5.46
566.966	5.35
567.39	5.58
567.814	5.87
568.238	5.79
568.662	4.82
569.086	4.69
569.509	4.82
569.933	6.05
570.357	5.91
570.78	5.96
571.204	6.24
571.627	6.23
572.05	5.89
572.474	6.17
572.897	6.05
573.32	6.77
573.743	6.62
574.166	7.4
574.589	6.22
575.012	6.04
575.435	6.01
575.858	5.64
576.281	6.06
576.704	5.97
577.126	4.98
577.549	5.3
577.972	4.57
578.394	5.1
578.817	6.75
579.239	6.18
579.661	6.78
580.084	7.73
580.506	7.63
580.928	7.02
581.35	7.39
581.772	8.02
582.194	7.61
582.616	7.52
583.038	7.02
583.46	4.94
583.882	5.58
584.303	4.66
584.725	3.21
585.147	6.74
585.568	7.14
585.99	7.4
586.411	7.72
586.833	8.19
587.254	8.45
587.675	8.64
588.096	9.31
588.518	8.95
588.939	9.22
589.36	10.09
589.781	5.68
590.202	7.99
590.623	7.57
591.043	6.64
591.464	6.66
591.885	7.56
592.305	6.69
592.726	5.95
593.147	6.36
593.567	6.61
593.987	7.1
594.408	7.07
594.828	4.75
595.248	5.96
595.669	6.71
596.089	6.43
596.509	5.68
596.929	5.84
597.349	6.23
597.769	5.86
598.189	5.95
598.608	4.92
599.028	5.04
599.448	4.61
599.867	3.85
600.287	3.43
600.706	3.47
601.126	3.81
601.545	5.15
601.965	4.98
602.384	4.96
602.803	4.63
603.222	5.12
603.641	5
604.061	5.35
604.48	5.33
604.898	5.01
605.317	5.03
605.736	4.79
606.155	4.63
606.574	4.84
606.992	5.08
607.411	5.43
607.829	5
608.248	4.88
608.666	4.56
609.085	5.42
609.503	5.79
609.921	6.14
610.339	6.19
610.758	5.06
611.176	4.84
611.594	5.27
612.012	5.31
612.43	5.99
612.847	5.94
613.265	6.71
613.683	5.67
614.101	5.8
614.518	5.03
614.936	5.2
615.353	6.37
615.771	7.16
616.188	6.75
616.606	7.01
617.023	7.36
617.44	7.63
617.857	7.01
618.274	6.93
618.691	7.53
619.108	7.94
619.525	8.03
619.942	7.2
620.359	6.96
620.776	7.14
621.192	7.64
621.609	8.03
622.026	8.55
622.442	8.78
622.859	8.77
623.275	7.8
623.691	7.36
624.108	7.18
624.524	7.14
624.94	6.8
625.356	6
625.772	5.68
626.188	5.04
626.604	4.78
627.02	4.31
627.436	4.93
627.852	6.23
628.268	7.06
628.683	6.9
629.099	7.24
629.514	6.82
629.93	7.3
630.345	6.9
630.761	6.33
631.176	6.25
631.591	7.9
632.007	7.7
632.422	6.48
632.837	6.19
633.252	7.37
633.667	7.1
634.082	7.46
634.497	8.44
634.911	10.03
635.326	9.67
635.741	10.2
636.155	9
636.57	9.74
636.984	9.7
637.399	10.4
637.813	9.11
638.228	9.45
638.642	9.33
639.056	8.57
639.47	7.04
639.884	8.09
640.298	7.81
640.712	8.33
641.126	7.77
641.54	7.81
641.954	5.3
642.368	5.91
642.781	7.92
643.195	7.87
643.609	8.21
644.022	8.38
644.436	7.7
644.849	6.69
645.262	6.78
645.676	5.92
646.089	6.35
646.502	9.23
646.915	8.11
647.328	7.09
647.741	7.75
648.154	7.56
648.567	8.98
648.98	9.86
649.393	10.43
649.805	11.04
650.218	11.26
650.631	11.29
651.043	10.52
651.456	12.04
651.868	11.72
652.28	11.06
652.693	10.22
653.105	8.98
653.517	8.94
653.929	9.93
654.341	9.18
654.753	10.06
655.165	9.78
655.577	9.32
655.989	8.6
656.401	7.7
656.813	8.55
657.224	9.22
657.636	9.01
658.047	9.38
658.459	8.39
658.87	6.64
659.282	5.96
659.693	6.45
660.104	6.79
660.515	6.81
660.926	6.5
661.338	5.99
661.749	5.42
662.159	6.38
662.57	4.8
662.981	5.27
663.392	6.32
663.803	6.92
664.213	6.71
664.624	6.57
665.035	5.43
665.445	5.35
665.855	5.59
666.266	6.74
666.676	5.79
667.086	6.54
667.497	6.99
667.907	7.01
668.317	5.91
668.727	8.76
669.137	7.87
669.547	8.53
669.956	8.53
670.366	8.6
670.776	8.27
671.186	8.24
671.595	8.32
672.005	7.88
672.414	8.78
672.824	10.86
673.233	8.39
673.642	9.3
674.052	9.54
674.461	10.81
674.87	11.1
675.279	12.01
675.688	10.6
676.097	12.01
676.506	11.45
676.915	10.73
677.323	10.5
677.732	9.86
678.141	10.31
678.549	10.49
678.958	9.81
679.366	8.09
679.775	7.54
680.183	10.79
680.592	10.41
681	10.91
681.408	11.1
681.816	10.69
682.224	10.46
682.632	11.35
683.04	11.15
683.448	11.68
683.856	13.8
684.264	14.15
684.671	12.43
685.079	10.83
685.487	9.96
685.894	9.79
686.302	8.52
686.709	9.82
687.116	8.9
687.524	10.29
687.931	10.76
688.338	10.19
688.745	9.2
689.152	7.96
689.559	8.91
689.966	10.41
690.373	11.37
690.78	12.57
691.187	12.59
691.593	13.07
692	12.86
692.407	12.29
692.813	14.42
693.22	15.18
693.626	14.98
694.032	15.91
694.439	16.57
694.845	16.06
695.251	15.43
695.657	14.7
696.063	13.44
696.469	13.95
696.875	13.7
697.281	12.31
697.687	11.67
698.093	12.24
698.498	11.44
698.904	9.79
699.31	9.44
699.715	10.95
700.12	11.3
700.526	12.25
700.931	10.29
701.337	10.96
701.742	11.33
702.147	11.41
702.552	13.12
702.957	12.2
703.362	13.38
703.767	13.22
704.172	12.34
704.577	12.02
704.981	11.23
705.386	12.47
705.791	12.7
706.195	10.9
706.6	11.58
707.004	9.27
707.408	9.85
707.813	9.86
708.217	11.07
708.621	10.51
709.025	9.67
709.43	10.89
709.834	10.44
710.237	10.02
710.641	10.28
711.045	10.53
711.449	12.39
711.853	15.1
712.256	14.16
712.66	12.8
713.064	12.56
713.467	14.61
713.87	14.48
714.274	15.7
714.677	16.17
715.08	17.51
715.484	17.58
715.887	19.55
716.29	17.15
716.693	19.34
717.096	20.91
717.499	23.38
717.901	21.79
718.304	20.58
718.707	19.38
719.109	19.29
719.512	18.02
719.915	19.66
720.317	18.38
720.719	17.97
721.122	16.37
721.524	16.36
721.926	19.43
722.328	20.66
722.731	20.26
723.133	20.6
723.535	20.34
723.937	21.45
724.338	22.04
724.74	23.06
725.142	62.49
725.544	66.22
725.945	76.95
726.347	72.78
726.748	71.73
727.15	74.01
727.551	76.35
727.952	74.91
728.354	73.87
728.755	72.26
729.156	70.28
729.557	31.19
729.958	27.02
730.359	16.41
730.76	16.34
731.161	17.1
731.562	14.68
731.962	12.05
732.363	13.21
732.763	13.57
733.164	12.06
733.564	12.11
733.965	13.25
734.365	14.15
734.766	14.82
735.166	14.13
735.566	14.28
735.966	16.24
736.366	16.79
736.766	16.19
737.166	15.08
737.566	15.22
737.966	15.21
738.365	14.75
738.765	15.89
739.165	15.64
739.564	15.86
739.964	14.73
740.363	12.97
740.763	11.61
741.162	12.5
741.561	13.08
741.96	13.64
742.36	12.22
742.759	12.74
743.158	9.62
743.557	8.42
743.955	7.78
744.354	8.14
744.753	7.7
745.152	9.18
745.55	7.8
745.949	7.78
746.348	8.56
746.746	8.55
747.144	11.09
747.543	12.38
747.941	12.66
748.339	13.72
748.737	14.45
749.136	16.03
749.534	14.35
749.932	16.75
750.33	16.99
750.727	15.37
751.125	16.33
751.523	13.84
751.921	16.93
752.318	17.86
752.716	18.53
753.113	18.19
753.511	17.66
753.908	18.59
754.305	21.61
754.703	21.99
755.1	22.72
755.497	22.07
755.894	21.79
756.291	19.93
756.688	20.32
757.085	20.31
757.482	21.88
757.878	24.66
758.275	27.13
758.672	20.57
759.068	21.72
759.465	22.88
759.861	25.2
760.258	26.95
760.654	26.05
761.05	28.54
761.447	24.93
761.843	24.61
762.239	23.73
762.635	20.48
763.031	17.73
763.427	16.7
763.822	16.23
764.218	16.05
764.614	14.73
765.01	12.27
765.405	10.57
765.801	12.19
766.196	10.93
766.592	9.42
766.987	10.79
767.382	12.2
767.778	12.02
768.173	11.93
768.568	12.53
768.963	13.51
769.358	15.55
769.753	16.99
770.148	16.49
770.542	15.24
770.937	15.38
771.332	14.89
771.726	13.89
772.121	17.25
772.515	16.83
772.91	16.69
773.304	16.8
773.699	16.15
774.093	14.61
774.487	14.43
774.881	16.24
775.275	17.01
775.669	16.59
776.063	17.39
776.457	15.49
776.851	15.66
777.245	16.57
777.638	16.11
778.032	15.79
778.425	16.77
778.819	20.5
779.212	22.79
779.606	23.7
779.999	22.63
780.392	24.55
780.786	21.97
781.179	23.22
781.572	22.88
781.965	24.67
782.358	25.82
782.751	25.26
783.143	22.09
783.536	20.49
783.929	18.12
784.322	19.28
784.714	17.57
785.107	19.6
785.499	21.68
785.891	22.27
786.284	22.15
786.676	20.99
787.068	22.69
787.46	24.44
787.852	24.04
788.245	23.92
788.636	23.86
789.028	25.23
789.42	25.87
789.812	24.89
790.204	25.26
790.595	26.79
790.987	28.3
791.378	27.35
791.77	24.65
792.161	23.5
792.553	25.02
792.944	26
793.335	25.28
793.726	25.14
794.117	25.84
794.508	23.18
794.899	20.94
795.29	19.38
795.681	19.56
796.072	20.49
796.463	36.74
796.853	39.97
797.244	40.65
797.634	40.82
798.025	41.3
798.415	37.29
798.806	39.43
799.196	41.93
799.586	45.4
799.976	46.51
800.366	46.61
800.756	29.58
801.146	26.59
801.536	26.15
801.926	27.15
802.316	28.2
802.706	28.83
803.095	30.03
803.485	28.4
803.874	25.45
804.264	24.47
804.653	26.13
805.043	28.34
805.432	30.89
805.821	33.54
806.21	33.54
806.599	31.14
806.988	33.39
807.377	29.27
807.766	28.46
808.155	29.03
808.544	28.74
808.933	28.76
809.321	31.4
809.71	27.77
810.098	27.04
810.487	25.12
810.875	25.14
811.264	27.01
811.652	39.1
812.04	39.93
812.428	41.39
812.816	41.21
813.204	44.43
813.592	39.18
813.98	42.4
814.368	44.04
814.756	45.78
815.144	47.97
815.531	49.54
815.919	40.6
816.306	39.5
816.694	39.87
817.081	42.36
817.469	40.63
817.856	39.15
818.243	35.52
818.63	29.7
819.017	31.28
819.404	32.94
819.791	30.71
820.178	25.34
820.565	29.53
820.952	36.93
821.339	36.95
821.725	37.93
822.112	41.05
822.498	44.9
822.885	43.53
823.271	40.76
823.657	38.9
824.044	39.63
824.43	42.43
824.816	48.56
825.202	44.36
825.588	40.96
825.974	43.16
826.36	44.17
826.746	41.78
827.132	43.84
827.517	47.4
827.903	47.52
828.289	50.06
828.674	47.78
829.06	41.39
829.445	37.72
829.83	39.76
830.216	36.89
830.601	40.33
830.986	47.82
831.371	50.38
831.756	54.31
832.141	57.58
832.526	57.28
832.911	61.89
833.295	58.61
833.68	59.36
834.065	62.46
834.449	60.46
834.834	60.2
835.218	57.21
835.603	59.42
835.987	54.22
836.371	50.78
836.755	50.23
837.139	47.55
837.524	49.94
837.908	46.79
838.291	46.87
838.675	46.03
839.059	42.42
839.443	38.74
839.827	35.66
840.21	33.78
840.594	37.33
840.977	37.58
841.361	39.47
841.744	35.43
842.127	37.87
842.511	35.78
842.894	37.09
843.277	36.09
843.66	38.11
844.043	39.22
844.426	44.08
844.809	38.8
845.191	37.94
845.574	38.8
845.957	42.43
846.339	43.38
846.722	44.06
847.104	43.66
847.487	41.66
847.869	40.97
848.252	43.37
848.634	43.67
849.016	45.29
849.398	43.03
849.78	39.16
850.162	39.89
850.544	41.36
850.926	37.42
851.307	36.15
851.689	43.96
852.071	39.75
852.452	37.76
852.834	36.66
853.215	40.6
853.597	40.67
853.978	50.66
854.359	53.07
854.741	53.54
855.122	55.6
855.503	56.14
855.884	50.76
856.265	55.62
856.646	47.11
857.026	45.2
857.407	43.81
857.788	41.67
858.169	34.09
858.549	38.69
858.93	38.29
859.31	39.89
859.69	42.05
860.071	43.48
860.451	44.86
860.831	48.62
861.211	49.27
861.591	46.34
861.971	47.93
862.351	48.05
862.731	39
863.111	39.58
863.491	43.94
863.87	41.08
864.25	38.45
864.629	44.45
865.009	47.21
865.388	48.32
865.768	54.45
866.147	59.93
866.526	59.94
866.905	64.06
867.284	62.47
867.663	53.48
868.042	49.11
868.421	48.46
868.8	39.21
869.179	46.66
869.558	43.14
869.936	38.7
870.315	37.97
870.693	42.04
871.072	39.5
871.45	37.93
871.828	41.45
872.207	51.51
872.585	55.52
872.963	57.33
873.341	58.72
873.719	65.95
874.097	66.76
874.475	63.54
874.853	57.7
875.23	60.38
875.608	64.39
875.986	67.72
876.363	64.96
876.741	75.99
877.118	84.21
877.495	84.6
877.873	85.5
878.25	88.3
878.627	86.52
879.004	88.78
879.381	83.59
879.758	83.86
880.135	74.97
880.512	71.98
880.889	56.21
881.265	46.78
881.642	39.49
882.019	38.62
882.395	45.85
882.772	58.2
883.148	59.63
883.524	62.24
883.901	61.22
884.277	61.79
884.653	62.84
885.029	74.22
885.405	89.13
885.781	92.93
886.157	87.34
886.532	82.5
886.908	75.16
887.284	71.63
887.659	73.41
888.035	70.05
888.411	70.5
888.786	72.13
889.161	65.57
889.537	53.85
889.912	53.2
890.287	49.36
890.662	46.4
891.037	36.13
891.412	43.82
891.787	38.96
892.162	44.11
892.536	46.44
892.911	48.81
893.286	45.79
893.66	48.62
894.035	50.59
894.409	49.51
894.784	52.51
895.158	58.03
895.532	59.58
895.906	64.38
896.281	64.02
896.655	70.48
897.029	75.99
897.402	87.23
897.776	91.97
898.15	94.33
898.524	103.03
898.898	102.93
899.271	118.89
899.645	105.8
900.018	101.96
900.392	105.6
900.765	103.16
901.138	98.48
901.511	87.93
901.884	94.51
902.258	86.05
902.631	96.06
903.003	105.82
903.376	87.57
903.749	101.96
904.122	109.37
904.495	112.99
904.867	109.24
905.24	95.94
905.612	95.18
905.985	74.99
906.357	76.59
906.729	68.73
907.102	72.37
907.474	76.94
907.846	75.83
908.218	79.47
908.59	82.92
908.962	85.48
909.334	89.14
909.705	96.17
910.077	94.6
910.449	95.66
910.82	101.38
911.192	96.79
911.563	113.13
911.935	117.68
912.306	110.87
912.677	108.12
913.048	115.68
913.419	128.68
913.79	132.57
914.161	150.5
914.532	163.61
914.903	149.84
915.274	147.68
915.645	140.02
916.015	119.41
916.386	120.53
916.756	126.93
917.127	113.93
917.497	104.35
917.868	111.82
918.238	107.26
918.608	95.7
918.978	96.29
919.348	89.5
919.718	96.53
920.088	107.74
920.458	118.17
920.828	113.08
921.198	110.13
921.567	117.25
921.937	87.68
922.306	79.18
922.676	81.56
923.045	88.07
923.415	99.45
923.784	87.94
924.153	95.6
924.522	92.29
924.891	92.48
925.26	99.07
925.629	91.25
925.998	111.28
926.367	118.66
926.736	132.69
927.104	147.82
927.473	140.53
927.842	165.43
928.21	141.33
928.578	129.6
928.947	129.72
929.315	137.28
929.683	191.53
930.051	188.12
930.42	215.07
930.788	187.69
931.156	165.9
931.523	190.59
931.891	176.57
932.259	188.35
932.627	254.85
932.994	340.92
933.362	308.3
933.729	259.16
934.097	238.2
934.464	214.13
934.831	215.33
935.199	227.57
935.566	205.71
935.933	182.73
936.3	220.25
936.667	165.14
937.034	224.3
937.401	207.05
937.767	180.46
938.134	171.88
938.501	220.94
938.867	271.01
939.234	406.71
939.6	362.72
939.967	514.83
940.333	361.15
940.699	286.99
941.065	169.75
941.431	241.94
941.798	279.95
942.163	409.87
942.529	271.23
942.895	229.61
943.261	160.51
943.627	215.21
943.992	173.36
944.358	168.1
944.723	209.6
945.089	220.26
945.454	222.34
945.82	209.37
946.185	182.56
946.55	226.54
946.915	214.1
947.28	268.57
947.645	232.71
948.01	242.48
948.375	263.05
948.74	259.83
949.104	265.26
949.469	261.05
949.834	477.73
950.198	566.83
950.562	360.93
950.927	307.09
951.291	347.77
951.655	297.91
952.02	215.62
952.384	167.02
952.748	174.45
953.112	207.72
953.476	200.64
953.839	185.31
954.203	192.49
954.567	212.86
954.931	300.88
955.294	263.54
955.658	253.68
956.021	492.69
956.385	695.39
956.748	1053.58
957.111	1336.37
957.474	1458.48
957.837	1506.1
958.2	778.58
958.563	307.96
958.926	253.63
959.289	371.4
959.652	438.32
960.015	305.14
960.377	519.96
960.74	548.42
961.102	876.04
961.465	1032.88
961.827	936.2
962.189	1818.52
962.552	1337.37
962.914	988.59
963.276	598.9
963.638	515.64
964	480.46
964.362	347.65
964.724	310.99
965.085	246.75
965.447	212.55
965.809	154.63
966.17	136.77
966.532	123.37
966.893	137.38
967.255	136.94
967.616	134.72
967.977	119.25
968.338	95.49
968.699	96.92
969.061	90.93
969.421	99.93
969.782	120.59
970.143	127.14
970.504	175.58
970.865	192.56
971.225	213.08
971.586	217.42
971.946	311.77
972.307	297.81
972.667	397.45
973.027	412.65
973.388	463.76
973.748	313.08
974.108	343.23
974.468	342.84
974.828	315.08
975.188	219.51
975.548	196.66
975.907	164.87
976.267	182.85
976.627	161.74
976.986	173.44
977.346	156.33
977.705	169.14
978.064	150.83
978.424	145.17
978.783	120.55
979.142	131.79
979.501	140.96
979.86	155.23
980.219	138.26
980.578	164.22
980.937	161.31
981.296	162.02
981.654	152.46
982.013	230.96
982.371	344.77
982.73	358.07
983.088	454.63
983.447	452.96
983.805	657.42
984.163	1457.55
984.521	1557.28
984.879	2081.46
985.237	-3139.8
985.595	3101.22
985.953	697.32
986.311	280.27
986.669	168.35
987.026	158.85
987.384	186.18
987.741	152.65
988.099	154.42
988.456	114.83
988.814	140.32
989.171	148.6
989.528	120.74
989.885	128.55
990.242	133.93
990.599	123.06
990.956	103.03
991.313	100.65
991.67	88.6
992.027	119.35
992.383	124.09
992.74	120.62
993.096	125.45
993.453	137.64
993.809	148.72
994.165	182.22
994.522	229.55
994.878	239.94
995.234	277.07
995.59	276.05
995.946	220.15
996.302	242.07
996.658	248.9
997.013	245.03
997.369	313.65
997.725	402.62
998.08	276.07
998.436	253.91
998.791	346.43
999.147	364.55
999.502	406.55
999.857	263.04
1000.212	348.1
1000.567	508.31
1000.922	401.29
1001.277	264.59
1001.632	201.74
1001.987	261.9
1002.342	239.38
1002.696	233.56
1003.051	205.2
1003.406	276.77
1003.76	277.15
1004.114	317.51
1004.469	307.53
1004.823	250.28
1005.177	252.81
1005.531	210.73
1005.885	200.25
1006.239	225.92
1006.593	284.27
1006.947	390.94
1007.301	256.22
1007.655	279.39
1008.008	190.37
1008.362	193.51
1008.715	280.46
1009.069	259.28
1009.422	444.49
1009.776	807.63
1010.129	496.04
1010.482	362.42
1010.835	232.66
1011.188	531.44
1011.541	454.11
1011.894	-2714.07
1012.247	8437.82
1012.6	563.59
1012.952	399.45
1013.305	141.46
1013.657	134.78
1014.01	126.36
1014.362	104.4
1014.715	154.81
1015.067	158.95
1015.419	169.58
1015.771	160.61
1016.123	164.35
1016.475	159.38
1016.827	156.28
1017.179	193.56
1017.531	177.25
1017.883	193.21
1018.234	226.48
1018.586	278.78
1018.938	317.68
1019.289	440.19
1019.64	492.25
1019.992	409.32
1020.343	397.43
1020.694	385.1
1021.045	324.94
1021.396	390.96
1021.747	423.85
1022.098	477.88
1022.449	334.49
1022.8	302.16
1023.151	238.5
1023.501	230.45
1023.852	237.4
1024.202	272.39
1024.553	263.75
1024.903	307.18
1025.253	280.06
1025.604	268.63
1025.954	301.46
1026.304	323.3
1026.654	364.44
1027.004	466.76
1027.354	653.86
1027.703	708.43
1028.053	807.9
1028.403	1275.86
1028.753	1367.39
1029.102	1440.17
1029.452	5362.63
1029.801	279.96
1030.15	226.23
1030.499	158.42
897.758	1491.61
901.051	1440.66
904.343	1469.62
907.636	1471.29
910.928	1511.03
914.22	1459.26
917.511	1465.41
920.803	1494.98
924.094	1486.46
927.384	1492.45
930.675	1465.99
933.965	1444.93
937.255	1469.02
940.544	1446.82
943.834	1443.03
947.123	1405.59
950.411	1464.69
953.7	1454.17
956.988	1446.12
960.276	1397.45
963.563	1425.17
966.851	1432.51
970.138	1456.46
973.424	1456.36
976.711	1423.09
979.997	1456.66
983.283	1483.69
986.568	1439.61
989.853	1428.65
993.138	1441.15
996.423	1508.29
999.708	1479.04
1002.992	1496.92
1006.275	1437.85
1009.559	1440.27
1012.842	1502.65
1016.125	1472.12
1019.408	1456.3
1022.69	1490.67
1025.972	1508.69
1029.254	1495.92
1032.536	1468.98
1035.817	1473.86
1039.098	1455.26
1042.379	1484.65
1045.659	1500.17
1048.939	1465.28
1052.219	1467.17
1055.498	1461.72
1058.778	1453.44
1062.057	1440.09
1065.335	1456.82
1068.614	1459.71
1071.892	1454.36
1075.17	1488.95
1078.447	1492.09
1081.724	1489.37
1085.001	1502.36
1088.278	1487.16
1091.554	1487.4
1094.83	1486.85
1098.106	1510.12
1101.382	1527.07
1104.657	1525.56
1107.932	1526.15
1111.206	1510.94
1114.481	1477.46
1117.755	1478.71
1121.029	1473.18
1124.302	1512.58
1127.575	1493.09
1130.848	1492.8
1134.121	1473.11
1137.393	1446.1
1140.665	1486.11
1143.937	1470.11
1147.208	1437.22
1150.48	1476.6
1153.75	1468.58
1157.021	1471.85
1160.291	1454.9
1163.561	1490.32
1166.831	1463.88
1170.101	1477.25
1173.37	1453.63
1176.639	1426.52
1179.907	1457.67
1183.176	1470.82
1186.444	1472.36
1189.711	1485.66
1192.979	1502.45
1196.246	1475.74
1199.513	1482.76
1202.78	1487.5
1206.046	1494.27
1209.312	1513.18
1212.578	1519.92
1215.843	1496.86
1219.108	1478.4
1222.373	1492.82
1225.638	1477.66
1228.902	1469.1
1232.166	1444.37
1235.43	1437.47
1238.693	1457.16
1241.956	1453.51
1245.219	1484.34
1248.482	1475.81
1251.744	1476.38
1255.006	1552.57
1258.268	1519.29
1261.529	1494.76
1264.79	1492.44
1268.051	1553.04
1271.312	1557.81
1274.572	1536.72
1277.832	1527.94
1281.092	1512.81
1284.351	1510.27
1287.61	1502.41
1290.869	1460.94
1294.128	1460.41
1297.386	1483.89
1300.644	1482.7
1303.902	1486.14
1307.159	1404.11
1310.416	1434.95
1313.673	1451.76
1316.93	1455.44
1320.186	1469.68
1323.442	1488.52
1326.697	1489.01
1329.953	1473.2
1333.208	1499.69
1336.463	1482.48
1339.717	1464.36
1342.972	1532.28
1346.226	1516.19
1349.479	1491.66
1352.733	1474.93
1355.986	1484.93
1359.238	1472.27
1362.491	1475.99
1365.743	1476.05
1368.995	1472.25
1372.247	1485.45
1375.498	1494.73
1378.749	1522.55
1382	1495.77
1385.251	1512.79
1388.501	1488.04
1391.751	1486.02
1395	1470.79
1398.25	1487.44
1401.499	1505.95
1404.748	1475.09
1407.996	1462.4
1411.244	1460.19
1414.492	1450.39
1417.74	1439.1
1420.987	1446.92
1424.234	1483.74
1427.481	1459.47
1430.728	1493.66
1433.974	1480.07
1437.22	1479.28
1440.465	1474.15
1443.711	1477.34
1446.956	1486.48
1450.201	1469.88
1453.445	1499.43
1456.689	1487.11
1459.933	1495.87
1463.177	1523.83
1466.42	1505.05
1469.663	1493.46
1472.906	1502.55
1476.148	1533.45
1479.391	1505.32
1482.633	1494.21
1485.874	1509.96
1489.115	1513.77
1492.356	1502.83
1495.597	1487.17
1498.838	1475.45
1502.078	1470.23
1505.318	1456.87
1508.557	1471.6
1511.797	1471.2
1515.036	1504.47
1518.274	1476.7
1521.513	1442.1
1524.751	1446.81
1527.989	1461.67
1531.227	1471.96
1534.464	1479.75
1537.701	1471.37
1540.938	1475.32
1544.174	1445.3
1547.41	1433.67
1550.646	1457.85
1553.882	1488.62
1557.117	1526.92
1560.352	1530.62
1563.587	1503.16
1566.821	1484.01
1570.055	1497.55
1573.289	1480.69
1576.523	1513.82
1579.756	1520.29
1582.989	1534.56
1586.222	1504.75
1589.454	1526.91
1592.686	1517.95
1595.918	1532.62
1599.15	1531.82
1602.381	1558.47
1605.612	1546.45
1608.843	1605.42
1612.073	1555.02
1615.303	1551.79
1618.533	1547.19
1621.762	1549.84
1624.992	1530.87
1628.221	1528.44
1631.449	1522.37
1634.678	1539.39
1637.906	1516.94
1641.134	1531.15
1644.361	1509.17
1647.588	1503.89
1650.815	1518.93
1654.042	1497.07
1657.269	1512.14
1660.495	1502.08
1663.72	1492.87
1666.946	1472.25
1670.171	1460.13
1673.396	1442.64
1676.621	1430.35
1679.845	1428.21
1683.069	1430.55
1686.293	1446.33
1689.517	1441.8
1692.74	1415.6
1695.963	1428.5
1699.185	1451.46
1702.408	1437.26
1705.63	1452.53
1708.852	1464.96
1712.073	1446.02
1715.294	1458.83
1718.515	1490.07
1721.736	1463.84
1724.956	1453.5
1728.176	1468.58
1731.396	1479.96
1734.616	1476.65
1737.835	1503.97
1741.054	1482.5
1744.272	1480.26
1747.491	1507.57
1750.709	1519.46
1753.927	1491.7
1757.144	1508.68
1760.361	1543.74
1763.578	1525.34
1766.795	1493.79
1770.011	1484.43
1773.227	1496.12
1776.443	1526.12
1779.658	1551.38
1782.874	1516.91
1786.089	1512.08
1789.303	1512.21
1792.518	1511.57
1795.732	1506.57
1798.945	1513.61
1802.159	1543.7
1805.372	1508.86
1808.585	1505.46
1811.797	1504.49
1815.01	1522.05
1818.222	1540.39
1821.434	1513.27
1824.645	1536.51
1827.856	1543.7
1831.067	1558.7
1834.278	1524.59
1837.488	1511.81
1840.698	1589.27
1843.908	1560.64
1847.117	1543.7
1850.326	1497.17
1853.535	1532.42
1856.744	1559.49
1859.952	1513.38
1863.16	1513.14
1866.368	1531.43
1869.575	1601.63
1872.782	1531.34
1875.989	1489.8
1879.196	1521.99
1882.402	1515.9
1885.608	1535.62
1888.814	1502.75
1892.019	1446.63
1895.224	1485.14
1898.429	1465.54
1901.634	1450.89
1904.838	1440.3
1908.042	1476.79
1911.246	1489.75
1914.449	1464.84
1917.652	1456.15
1920.855	1444.43
1924.058	1459.51
1927.26	1492.9
1930.462	1502.88
1933.664	1528.19
1936.865	1495.69
1940.066	1503.56
1943.267	1468.46
1946.467	1474.41
1949.668	1481.94
1952.868	1527.45
1956.067	1527.01
1959.267	1486.78
1962.466	1501.86
1965.665	1488.92
1968.863	1487.83
1972.061	1485.24
1975.259	1480.37
1978.457	1528.8
1981.654	1502.17
1984.852	1504.71
1988.048	1479.01
1991.245	1466.02
1994.441	1524.88
1997.637	1490.05
2000.833	1482.48
2004.028	1501.97
2007.223	1545.66
2010.418	1536.47
2013.613	1503.22
2016.807	1501.47
2020.001	1498.58
2023.194	1508.04
2026.388	1497.11
2029.581	1462.36
2032.774	1506.46
2035.966	1510.51
2039.158	1477.4
2042.35	1490.8
2045.542	1443.6
2048.733	1496.41
2051.924	1485.87
2055.115	1494.97
2058.306	1475.88
2061.496	1510.57
2064.686	1541.95
2067.875	1477.84
2071.065	1479.03
2074.254	1489.92
2077.442	1458.91
2080.631	1512.86
2083.819	1474.55
2087.007	1469.95
2090.195	1461.35
2093.382	1464.63
2096.569	1460.03
2099.756	1433.18
2102.942	1472.85
2106.128	1479.4
2109.314	1474.58
2112.5	1468.03
2115.685	1445.31
2118.87	1448.93
2122.055	1495.38
2125.239	1480.03
2128.424	1477.23
2131.608	1507.06
2134.791	1496.43
2137.974	1516.1
2141.157	1509.82
2144.34	1492.16
2147.523	1481.47
2150.705	1503.1
2153.887	1477.52
2157.068	1458.67
2160.25	1445.24
2163.431	1462.1
2166.611	1445.56
2169.792	1460.95
2172.972	1401.54
2176.152	1438.49
2179.331	1452.77
2182.511	1455.3
2185.69	1466.56
2188.868	1473.18
2192.047	1496.08
2195.225	1514.93
2198.403	1474.3
2201.58	1466.77
2204.758	1454.23
2207.935	1504.3
2211.111	1449.53
2214.288	1441.28
2217.464	1463.2
2220.64	1436.64
2223.815	1466.17
2226.991	1421.41
2230.166	1428.03
2233.34	1461.08
2236.515	1467.52
2239.689	1514.65
2242.863	1480.28
2246.036	1514.17
2249.209	1505.12
2252.382	1519.72
2255.555	1523.82
2258.727	1496.46
2261.9	1511.16
2265.071	1509.14
2268.243	1506.46
2271.414	1475.14
2274.585	1461.89
2277.756	1503.18
2280.926	1474.84
2284.096	1495.09
2287.266	1446.46
2290.436	1481.45
2293.605	1491.46
2296.774	1519.35
2299.942	1520.42
2303.111	1531.48
2306.279	1568.23
2309.447	1560.69
2312.614	1543.58
2315.781	1558.18
2318.948	1539.81
2322.115	1567.64
2325.281	1495.33
2328.447	1501.33
2331.613	1478.74
2334.779	1477.62
2337.944	1472.3
2341.109	1470.99
2344.274	1466.94
2347.438	1444.53
2350.602	1458.81
2353.766	1466.25
2356.929	1461.76
2360.092	1488.3
2363.255	1464.81
2366.418	1451.33
2369.58	1477.02
2372.742	1453.95
2375.904	1438.53
2379.066	1431.41
2382.227	1447.94
2385.388	1423.15
2388.548	1392.43
2391.709	1415.18
2394.869	1411.41
2398.029	1446.54
2401.188	1435.23
2404.347	1422.48
2407.506	1422.32
2410.665	1460
2413.823	1444.88
2416.981	1434.95
2420.139	1444.16
2423.296	1471.51
2426.453	1453.9
2429.61	1466.74
2432.767	1450
2435.923	1476.46
2439.079	1441.68
2442.235	1463.69
2445.391	1424.59
2448.546	1453.2
2451.701	1475.02
2454.855	1474.29
2458.009	1490.57
2461.163	1480.01
2464.317	1461.14
2467.471	1478
2470.624	1498.92
2473.777	1492.5
2476.929	1504.03
2480.082	1518.71
2483.234	1508.15
2486.385	1468.47
2489.537	1463.55
2492.688	1457
2495.839	1476.3
2498.989	1485.3
2502.14	1475.97
2505.29	1469.93
2508.439	1483.79
2511.589	1447.15
2514.738	1446.39
2517.887	1456.51
2521.035	1505.24
2524.183	1476.65
2527.331	1472.36
2530.479	1462.86
2533.627	1466.73
