Data from N_1_DEC_NC_4N_Splice17_11-36-09-846.txt Node
Date: Sat Mar 14 11:36:09 EDT 2020
User: sa697716
Spectrometer: FLMS03696
Trigger mode: 0
Integration Time (sec): 3.180400E-1
Scans to average: 20
Electric dark correction enabled: true
Nonlinearity correction enabled: true
Boxcar width: 5
XAxis mode: Wavelengths
Number of Pixels in Spectrum: 2048
>>>>>Begin Spectral Data<<<<<
187.83	-56426.51
188.298	538.68
188.766	337.92
189.233	305.25
189.701	397.76
190.169	477.17
190.636	178.53
191.104	135.92
191.571	-17.77
192.039	-78.54
192.506	-89.73
192.974	283.11
193.441	-298.89
193.908	-94.21
194.375	-11.43
194.842	-7.98
195.31	-12.26
195.777	73.38
196.244	169.28
196.711	79.54
197.177	60.1
197.644	14.81
198.111	24.7
198.578	2.34
199.045	-5.33
199.511	-15.44
199.978	-41.5
200.445	-21.32
200.911	-49.13
201.378	-149.25
201.844	-75.31
202.31	-156.89
202.777	-141.4
203.243	-68.77
203.709	-91.55
204.176	-86.27
204.642	-58.41
205.108	-49.43
205.574	-59.72
206.04	-75.93
206.506	-65.3
206.972	-94.32
207.438	-76.93
207.903	-73.25
208.369	-42.53
208.835	-17.17
209.301	-25.66
209.766	-48.15
210.232	-58.82
210.697	-75.39
211.163	-101.21
211.628	-167.11
212.094	-109.46
212.559	-90.37
213.024	-52.16
213.49	-36.89
213.955	-46.56
214.42	-72.49
214.885	-69.11
215.35	-45.77
215.815	23.11
216.28	32.09
216.745	25.47
217.21	43.07
217.675	5.03
218.14	0.96
218.604	-43.84
219.069	-32.49
219.534	-4
219.998	-19.23
220.463	-27.36
220.927	-83.9
221.392	-68.31
221.856	-46.6
222.32	-120.16
222.785	-115.65
223.249	-135.65
223.713	-142.77
224.177	-155.08
224.642	-240.43
225.106	-294.79
225.57	-361.93
226.034	-225.54
226.497	-317.42
226.961	-248.35
227.425	-190.98
227.889	-263.86
228.353	-282.36
228.816	-584.07
229.28	-445.62
229.744	-334.33
230.207	-93.01
230.671	-41.43
231.134	-177.17
231.597	-162
232.061	-206.63
232.524	-240.4
232.987	-119.31
233.45	-59.6
233.914	-44.2
234.377	-114.89
234.84	-102.42
235.303	-177.53
235.766	-211.44
236.229	-225.19
236.691	-161.07
237.154	-213.24
237.617	-142.82
238.08	-169.15
238.542	-227.4
239.005	-145.61
239.468	-118.96
239.93	-118.41
240.393	-96.44
240.855	-81.06
241.317	-90.75
241.78	-138.98
242.242	-129.15
242.704	-123.33
243.166	-81.93
243.629	-46.47
244.091	-59.67
244.553	-84
245.015	-69.09
245.477	-114.2
245.939	-187.71
246.4	-196.42
246.862	-185.34
247.324	-183.39
247.786	-249.34
248.247	-371.39
248.709	-488.73
249.17	-322.97
249.632	-183.23
250.093	-136.19
250.555	-106.62
251.016	-26.78
251.477	-7.25
251.939	10.54
252.4	11.84
252.861	19.17
253.322	33.11
253.783	8.86
254.244	-36.68
254.705	-108.85
255.166	-165.73
255.627	-168.55
256.088	-249.45
256.549	-287.4
257.009	-244.12
257.47	-322.98
257.931	-298.48
258.391	-205.59
258.852	-182.43
259.312	-196.5
259.773	-255.41
260.233	-169.47
260.694	-116.65
261.154	-132.12
261.614	-42.46
262.074	-46.36
262.534	-17.91
262.994	11.41
263.455	-20.06
263.915	4.71
264.374	15.9
264.834	44.4
265.294	20.6
265.754	20.36
266.214	26.49
266.673	-4.54
267.133	-22.48
267.593	-46.86
268.052	-50
268.512	-46.84
268.971	-8.97
269.431	-18.04
269.89	-56.48
270.349	-53.09
270.809	-20.89
271.268	-42.65
271.727	-244.68
272.186	-125.63
272.645	-65.39
273.104	-112.63
273.563	-160.84
274.022	-219.88
274.481	-154.97
274.94	-102.53
275.399	-100.21
275.857	-150.78
276.316	-236.28
276.775	-183.04
277.233	-177.71
277.692	-157.33
278.15	-120.98
278.609	-81.54
279.067	-58.52
279.525	-54.71
279.984	-102.77
280.442	-109.69
280.9	-25.98
281.358	4.22
281.816	12.29
282.274	5.67
282.732	-29.88
283.19	-65.66
283.648	-84.03
284.106	-115.21
284.564	-114.69
285.021	-75.5
285.479	-54.86
285.937	-105.83
286.394	-79.03
286.852	-106.85
287.309	-118.17
287.767	-78.38
288.224	-56.37
288.682	-60.93
289.139	-48.2
289.596	-37.93
290.053	-52.19
290.511	-92.27
290.968	-59.01
291.425	-136.4
291.882	-40.05
292.339	-2.08
292.796	-41.25
293.252	-72.84
293.709	-30.96
294.166	-28.2
294.623	-52.02
295.079	-68.9
295.536	-29.77
295.992	-24.98
296.449	-16.71
296.905	-1.67
297.362	16.04
297.818	25.43
298.274	43.71
298.731	26.79
299.187	19.95
299.643	23.06
300.099	35.01
300.555	15.74
301.011	34.53
301.467	94.04
301.923	29.8
302.379	39.72
302.835	27.64
303.291	27.19
303.746	20.39
304.202	16.21
304.658	9.71
305.113	34.73
305.569	35.31
306.024	-16.99
306.479	-80.98
306.935	-33.09
307.39	-72.12
307.845	-72.76
308.301	-58.46
308.756	-71.58
309.211	-58.04
309.666	-65.36
310.121	-66.62
310.576	-84.32
311.031	-98.43
311.486	-145.02
311.94	-184.79
312.395	-231.55
312.85	-480.84
313.305	-3542.95
313.759	-13598.69
314.214	-1012.63
314.668	-763.08
315.123	-648.23
315.577	-206.62
316.032	-142.66
316.486	-164.96
316.94	-87.85
317.394	-74.34
317.849	-40.52
318.303	-31.06
318.757	-20.75
319.211	-28.06
319.665	-20.35
320.119	-29.99
320.572	-65.01
321.026	-52.64
321.48	-46.59
321.934	-87.06
322.387	-93.37
322.841	-97.58
323.295	-43.49
323.748	-102.66
324.202	-84.49
324.655	-98.34
325.108	-79.29
325.562	-18.71
326.015	-17.55
326.468	-9.36
326.921	15.24
327.374	65.19
327.827	82.5
328.28	84.37
328.733	79.42
329.186	67.87
329.639	68.77
330.092	42.62
330.545	35.22
330.997	27.53
331.45	43.46
331.903	73.86
332.355	48.6
332.808	27.69
333.26	17.06
333.713	25.15
334.165	6.58
334.617	-38.08
335.069	-89.54
335.522	-191.63
335.974	-261.36
336.426	-280.31
336.878	-314.52
337.33	-130.01
337.782	-134.88
338.234	-154.22
338.686	-217.15
339.137	-257.27
339.589	-219.67
340.041	-130.13
340.493	-100.55
340.944	-87.85
341.396	-78.83
341.847	-2.73
342.299	15.21
342.75	51.67
343.201	3.02
343.653	-0.11
344.104	-5.6
344.555	-13.45
345.006	-92.84
345.457	16.32
345.908	15.64
346.359	19.74
346.81	-15.42
347.261	-46.88
347.712	-82.1
348.163	-111.01
348.613	-54.6
349.064	-33.65
349.515	-22.38
349.965	2.77
350.416	-66.14
350.866	-88.34
351.317	-113.93
351.767	-175.65
352.217	-236.8
352.668	-133.31
353.118	-35.04
353.568	-123.98
354.018	-93.43
354.468	-72.57
354.918	-30.23
355.368	-17.58
355.818	-29.93
356.268	-184.5
356.718	-79.76
357.168	82.12
357.617	15.4
358.067	-68.9
358.517	-61.92
358.966	-114.31
359.416	-116.1
359.865	-206.92
360.315	-292.72
360.764	-131.91
361.213	-74.73
361.663	-127.04
362.112	-204.75
362.561	-361.36
363.01	-244.72
363.459	-209.41
363.908	-226.72
364.357	-140.01
364.806	-292.6
365.255	-204.55
365.703	-139.75
366.152	-115.52
366.601	-76.34
367.05	-7.99
367.498	4.75
367.947	-8.83
368.395	-30.83
368.844	-15.77
369.292	-109.6
369.74	-57.46
370.189	-107.08
370.637	-149.02
371.085	-135.75
371.533	-169.8
371.981	-212.61
372.429	-165.53
372.877	-169.8
373.325	-134.76
373.773	-158.22
374.221	-159.32
374.669	-182.72
375.116	-155.14
375.564	-152.55
376.012	-159.33
376.459	-133.17
376.907	-172.76
377.354	-252.97
377.801	-188.08
378.249	-169.11
378.696	-242.08
379.143	-163.97
379.591	-188.98
380.038	-381.95
380.485	-253.26
380.932	-343.87
381.379	-158.61
381.826	-16.8
382.273	-41.39
382.72	-86.39
383.166	-68.08
383.613	-14
384.06	-14.34
384.506	-27.25
384.953	7.63
385.4	-18.05
385.846	-2.49
386.292	-30.48
386.739	-50.86
387.185	-46.12
387.631	-48.7
388.078	-38.32
388.524	-57.42
388.97	-60.39
389.416	-40.62
389.862	-45.9
390.308	-30.46
390.754	-35.07
391.2	-42.34
391.645	-54.44
392.091	-18.3
392.537	-7.69
392.983	-29.81
393.428	4.72
393.874	3.06
394.319	9.65
394.765	29.59
395.21	18.59
395.655	19.67
396.101	25.29
396.546	29.97
396.991	9.98
397.436	6.63
397.881	9.18
398.326	-10.66
398.771	-2.28
399.216	-8.24
399.661	-12.49
400.106	0.17
400.551	10.66
400.995	14.06
401.44	16.9
401.885	17.81
402.329	18.81
402.774	21.09
403.218	32.07
403.663	30.11
404.107	34
404.551	37.74
404.995	27.39
405.44	18.82
405.884	12.17
406.328	7.02
406.772	2.63
407.216	3.25
407.66	0.81
408.104	-6.41
408.547	-6.09
408.991	-6.58
409.435	-13.53
409.879	-8.47
410.322	-6.74
410.766	-2.2
411.209	2.15
411.653	4.48
412.096	7.44
412.54	7.04
412.983	6.3
413.426	10.47
413.869	9.72
414.312	16.89
414.756	12.24
415.199	10.89
415.642	12.02
416.085	11.71
416.527	10.49
416.97	8.29
417.413	9.96
417.856	7.91
418.298	3.63
418.741	0.64
419.184	-2.97
419.626	-6.24
420.069	-5.84
420.511	-5.88
420.953	-4.51
421.396	-2.18
421.838	-3.88
422.28	-4.78
422.722	-1.07
423.164	-1.21
423.606	-1.26
424.048	-2.09
424.49	3.83
424.932	1.78
425.374	-2.21
425.816	-4.88
426.258	-8.06
426.699	-7.85
427.141	-4.05
427.582	-7.77
428.024	-9.39
428.465	-12.93
428.907	-14.03
429.348	-17.12
429.789	-13.97
430.231	-8.65
430.672	-7.95
431.113	-7.64
431.554	-6.31
431.995	-10.94
432.436	-4.62
432.877	-2.47
433.318	4.17
433.759	3.2
434.2	3.39
434.64	2.8
435.081	1.52
435.522	2.49
435.962	1.2
436.403	3.1
436.843	3.85
437.284	-0.85
437.724	-1.98
438.164	-5.54
438.604	-4.36
439.045	-2.83
439.485	-0.71
439.925	-1.81
440.365	-1.82
440.805	-1.17
441.245	-1.16
441.685	-1
442.125	-1.06
442.564	-1.44
443.004	-0.65
443.444	-1.25
443.883	-0.17
444.323	-4.81
444.762	-7.48
445.202	-9.14
445.641	-8.13
446.081	-10.59
446.52	-10.62
446.959	-8.74
447.398	-6.02
447.837	-5.9
448.276	-4.91
448.716	-4.96
449.154	-5.14
449.593	-3
450.032	-3.25
450.471	-4.58
450.91	-4.55
451.349	-2.61
451.787	-4.31
452.226	-7.29
452.664	-6.87
453.103	-7.05
453.541	-7.99
453.98	-3.97
454.418	-4.53
454.856	-2.14
455.295	-0.34
455.733	0.92
456.171	-0.41
456.609	0.83
457.047	2.2
457.485	3.99
457.923	5.54
458.361	5.16
458.798	2.73
459.236	2.98
459.674	1.55
460.111	1.21
460.549	1.59
460.987	0.3
461.424	-1.33
461.862	-1.78
462.299	-2.56
462.736	-1.68
463.173	-2.6
463.611	0.48
464.048	1.37
464.485	2.35
464.922	2.35
465.359	0.71
465.796	9.18
466.233	11.52
466.67	14.32
467.106	16.14
467.543	14.77
467.98	14.67
468.416	13.38
468.853	12.07
469.29	10.34
469.726	8.69
470.162	8.94
470.599	2.66
471.035	0.89
471.471	-0.8
471.907	-3.23
472.344	-3.96
472.78	-3.08
473.216	-4.49
473.652	-3.63
474.088	-3.79
474.523	-2.4
474.959	-2.8
475.395	-3.3
475.831	-3.22
476.266	-3.4
476.702	-3.99
477.138	-3.8
477.573	-4.12
478.008	-3.9
478.444	-3.81
478.879	-2.35
479.314	-2.27
479.75	-1.94
480.185	-2.52
480.62	-2.26
481.055	-2.7
481.49	-1.39
481.925	-0.72
482.36	1.12
482.795	0.65
483.229	-0.08
483.664	-0.14
484.099	0.13
484.534	0.42
484.968	1.69
485.403	1.4
485.837	1.08
486.271	0.39
486.706	-0.25
487.14	-2.02
487.574	-1.08
488.009	-1.22
488.443	-2.05
488.877	-1.74
489.311	-2.23
489.745	-2.42
490.179	-1.86
490.613	0.77
491.046	0.52
491.48	0.39
491.914	1.26
492.348	0.95
492.781	1.54
493.215	1.9
493.648	0.75
494.082	0.67
494.515	1.29
494.948	1.89
495.382	-0.5
495.815	0.07
496.248	0.38
496.681	-0.38
497.114	-1.35
497.547	-0.6
497.98	0.65
498.413	1.96
498.846	2.35
499.279	1.14
499.711	-0.13
500.144	0.02
500.577	1.12
501.009	0.4
501.442	1.7
501.874	2.57
502.306	1.97
502.739	3.52
503.171	3.55
503.603	4.3
504.036	4.61
504.468	5.01
504.9	5.06
505.332	4.04
505.764	4.17
506.196	3.85
506.627	4.21
507.059	3.92
507.491	1.3
507.923	1.57
508.354	1.49
508.786	1.47
509.217	1.26
509.649	1.27
510.08	1.04
510.512	2.68
510.943	2.59
511.374	2.59
511.805	2.25
512.237	2.04
512.668	1.16
513.099	-0.36
513.53	-0.64
513.961	0.27
514.391	0.51
514.822	2.01
515.253	1.62
515.684	1.32
516.114	1.51
516.545	2.22
516.975	2.46
517.406	2.05
517.836	2.35
518.267	3.12
518.697	3.5
519.127	3.05
519.558	1.66
519.988	1.03
520.418	0.9
520.848	-0.28
521.278	-0.64
521.708	19.67
522.138	20.13
522.567	19.87
522.997	19.56
523.427	19.03
523.857	19.51
524.286	19.49
524.716	19.6
525.145	19.67
525.575	20.45
526.004	20.25
526.433	0.72
526.863	0.39
527.292	1.6
527.721	2.48
528.15	1.78
528.579	1.78
529.008	2.37
529.437	1.61
529.866	1.54
530.295	1.35
530.724	1.98
531.152	1.76
531.581	2.61
532.01	2.8
532.438	2.09
532.867	2.07
533.295	2.43
533.723	2.04
534.152	2.89
534.58	3.44
535.008	3.66
535.436	4.43
535.865	4.17
536.293	3.28
536.721	2.37
537.149	2.53
537.576	3.4
538.004	3.47
538.432	3.17
538.86	3.5
539.287	2.93
539.715	2.96
540.143	1.82
540.57	2.11
540.998	2.13
541.425	4.01
541.852	3.11
542.28	2.87
542.707	2.83
543.134	3.1
543.561	3.06
543.988	3.62
544.415	3.47
544.842	3.4
545.269	3.38
545.696	4.41
546.123	4.01
546.549	4.8
546.976	5
547.403	4.51
547.829	3.82
548.256	3.2
548.682	2.92
549.108	3.81
549.535	3.47
549.961	2.87
550.387	2.13
550.813	2.58
551.24	2.53
551.666	1.74
552.092	2.28
552.518	2.47
552.943	3.15
553.369	2.8
553.795	2.4
554.221	3.47
554.646	3.96
555.072	4.94
555.498	3.2
555.923	2.58
556.349	2.99
556.774	2.78
557.199	2.92
557.625	1.58
558.05	2.02
558.475	1.38
558.9	0.98
559.325	1.43
559.75	1.15
560.175	1.64
560.6	1.67
561.025	1.35
561.449	1.03
561.874	0.9
562.299	1.98
562.723	1.51
563.148	1.41
563.572	0.89
563.997	0.83
564.421	-0.21
564.846	-0.25
565.27	0.05
565.694	0.15
566.118	0.09
566.542	0.95
566.966	0.86
567.39	0.76
567.814	1.39
568.238	2.1
568.662	1.51
569.086	1.73
569.509	1.06
569.933	2.08
570.357	1.96
570.78	1.94
571.204	2.03
571.627	2.15
572.05	2.59
572.474	3.12
572.897	2.95
573.32	3.6
573.743	3.22
574.166	4.11
574.589	3.19
575.012	3.61
575.435	3.32
575.858	3.38
576.281	3.26
576.704	2.36
577.126	1.42
577.549	1.45
577.972	0.4
578.394	0.95
578.817	2.8
579.239	2.24
579.661	2.26
580.084	4.07
580.506	4.56
580.928	4.06
581.35	4.72
581.772	4.78
582.194	4.78
582.616	4.55
583.038	3.78
583.46	1.69
583.882	2.7
584.303	1.89
584.725	0.6
585.147	3.68
585.568	4.64
585.99	5.16
586.411	5.62
586.833	6.05
587.254	6.73
587.675	6.55
588.096	6.55
588.518	6.45
588.939	6.73
589.36	6.88
589.781	2.03
590.202	3.79
590.623	3.24
591.043	2.36
591.464	1.77
591.885	2.38
592.305	2.97
592.726	2.83
593.147	2.4
593.567	3.08
593.987	3.01
594.408	2.2
594.828	-0.48
595.248	0.57
595.669	2.09
596.089	1.87
596.509	1.32
596.929	0.98
597.349	1.16
597.769	1.57
598.189	1.25
598.608	1.27
599.028	1.7
599.448	1.58
599.867	0.92
600.287	0.04
600.706	0.54
601.126	0.62
601.545	1.46
601.965	1.4
602.384	0.75
602.803	0.76
603.222	0.74
603.641	0.95
604.061	1.79
604.48	1.57
604.898	1.01
605.317	0.69
605.736	0.79
606.155	0.82
606.574	0.86
606.992	0.96
607.411	1.14
607.829	0.55
608.248	0.5
608.666	-0.34
609.085	-0.11
609.503	0.54
609.921	1.05
610.339	0.91
610.758	0.01
611.176	-0.01
611.594	0.71
612.012	0.28
612.43	0.95
612.847	0.87
613.265	2.05
613.683	2.01
614.101	1.73
614.518	0.69
614.936	0.63
615.353	1.77
615.771	2.22
616.188	1.98
616.606	2
617.023	2.64
617.44	2.98
617.857	1.42
618.274	1.32
618.691	2.03
619.108	2.61
619.525	2.49
619.942	2.45
620.359	1.58
620.776	1.24
621.192	1.74
621.609	2
622.026	2.12
622.442	2.83
622.859	2.21
623.275	1.43
623.691	1.2
624.108	1.19
624.524	0.29
624.94	0.75
625.356	0.65
625.772	-0.05
626.188	-1.21
626.604	-1.62
627.02	-1.67
627.436	-0.79
627.852	0.58
628.268	1.05
628.683	0.8
629.099	1.04
629.514	0.66
629.93	0.83
630.345	1.1
630.761	0.88
631.176	1.36
631.591	3.45
632.007	3.57
632.422	1.81
632.837	0.72
633.252	2.16
633.667	2.35
634.082	2.37
634.497	2.91
634.911	4.5
635.326	4.66
635.741	5.13
636.155	3.45
636.57	4.08
636.984	4.68
637.399	6.07
637.813	4.58
638.228	4
638.642	3.71
639.056	3.29
639.47	2.42
639.884	2.27
640.298	1.66
640.712	2.51
641.126	2.01
641.54	1.35
641.954	-0.64
642.368	-0.13
642.781	2.86
643.195	2.43
643.609	2.34
644.022	2.11
644.436	1.12
644.849	1.1
645.262	-0.27
645.676	-1.61
646.089	-1.41
646.502	0.61
646.915	0.08
647.328	-1.53
647.741	-0.56
648.154	-0.12
648.567	1.38
648.98	3.37
649.393	2.91
649.805	3.74
650.218	4.06
650.631	4.8
651.043	4.63
651.456	5.09
651.868	3.64
652.28	2.42
652.693	1.54
653.105	0.24
653.517	-0.24
653.929	-0.02
654.341	-0.11
654.753	0.9
655.165	0.05
655.577	-0.37
655.989	-0.24
656.401	0.17
656.813	2.43
657.224	1.83
657.636	1.07
658.047	1.57
658.459	1.79
658.87	0.31
659.282	-0.17
659.693	0.86
660.104	1.64
660.515	1.09
660.926	1.39
661.338	0.4
661.749	0.33
662.159	1.54
662.57	0.05
662.981	0.26
663.392	0.94
663.803	0.17
664.213	0.4
664.624	-0.03
665.035	-0.66
665.445	-1.7
665.855	-1.03
666.266	0.68
666.676	-0.67
667.086	-1.11
667.497	-1.31
667.907	-1.37
668.317	-0.55
668.727	1.67
669.137	0.12
669.547	-0.18
669.956	-0.69
670.366	-0.57
670.776	-0.97
671.186	-0.65
671.595	-0.01
672.005	-0.88
672.414	-0.34
672.824	-0.01
673.233	-3.92
673.642	-2.96
674.052	-1.72
674.461	0.04
674.87	-0.43
675.279	0.1
675.688	-1.29
676.097	-0.47
676.506	-1.09
676.915	-2.03
677.323	-2.07
677.732	-1.58
678.141	-2.43
678.549	-2.95
678.958	-4.42
679.366	-5.75
679.775	-7.49
680.183	-4.52
680.592	-5.09
681	-3.72
681.408	-3.08
681.816	-3.3
682.224	-3.47
682.632	-0.97
683.04	-0.27
683.448	0
683.856	2.2
684.264	3.03
684.671	0.53
685.079	-0.12
685.487	-0.55
685.894	-1.02
686.302	-2.12
686.709	-1.31
687.116	-2.79
687.524	-2
687.931	-0.2
688.338	-1.06
688.745	-0.87
689.152	-0.2
689.559	0.77
689.966	2.62
690.373	3.25
690.78	4.3
691.187	4.17
691.593	4.41
692	4.43
692.407	3.89
692.813	6.03
693.22	6.38
693.626	5.04
694.032	5.59
694.439	4.32
694.845	3.1
695.251	2.25
695.657	2.51
696.063	1.33
696.469	0.46
696.875	0.47
697.281	-1.61
697.687	-1.98
698.093	-0.82
698.498	-1.26
698.904	-2.09
699.31	-1.28
699.715	0.66
700.12	0.07
700.526	1.54
700.931	1.49
701.337	2.12
701.742	3.15
702.147	3.14
702.552	3.66
702.957	2.36
703.362	2.87
703.767	2.06
704.172	0.64
704.577	0.43
704.981	-1.89
705.386	-1.2
705.791	-1.14
706.195	-2.69
706.6	-3.01
707.004	-5.15
707.408	-4.2
707.813	-3.02
708.217	-1.37
708.621	-1.1
709.025	-1.46
709.43	1.75
709.834	1.37
710.237	0.86
710.641	1.97
711.045	3.48
711.449	5.47
711.853	8.86
712.256	8.25
712.66	8.5
713.064	8.88
713.467	10.15
713.87	8.98
714.274	9.35
714.677	10.48
715.08	9.87
715.484	9.54
715.887	11.97
716.29	8.33
716.693	9.06
717.096	8.37
717.499	7.59
717.901	7.75
718.304	6.45
718.707	4.93
719.109	3.44
719.512	3.51
719.915	5.45
720.317	2.78
720.719	1.89
721.122	0.75
721.524	0.06
721.926	4.68
722.328	3.55
722.731	3.92
723.133	5.29
723.535	5.2
723.937	6.36
724.338	7.02
724.74	8.79
725.142	55.49
725.544	59.61
725.945	72.16
726.347	68.56
726.748	69.78
727.15	70.58
727.551	74.15
727.952	73.64
728.354	71.93
728.755	70.07
729.156	68.35
729.557	23.89
729.958	19.91
730.359	8.87
730.76	7.69
731.161	6.68
731.562	5.33
731.962	1.18
732.363	1.04
732.763	0.9
733.164	-1.87
733.564	-0.52
733.965	-0.12
734.365	0.39
734.766	0.66
735.166	0.99
735.566	2.55
735.966	3.63
736.366	4.7
736.766	4.7
737.166	4.1
737.566	5.45
737.966	4.27
738.365	4.94
738.765	6.88
739.165	6.06
739.564	5.79
739.964	3.29
740.363	2.07
740.763	1.36
741.162	2.97
741.561	3.23
741.96	3.66
742.36	3.14
742.759	2.43
743.158	0.28
743.557	0.42
743.955	0.17
744.354	1.27
744.753	0.97
745.152	1.64
745.55	-0.44
745.949	-0.35
746.348	0.82
746.746	-0.66
747.144	2.35
747.543	1.2
747.941	0.28
748.339	0.86
748.737	2.12
749.136	3.79
749.534	1.79
749.932	3.63
750.33	3.55
750.727	1.05
751.125	3.16
751.523	1.34
751.921	5.14
752.318	6.23
752.716	7.22
753.113	6.85
753.511	6.07
753.908	7.48
754.305	11.22
754.703	11.09
755.1	12.4
755.497	12.3
755.894	10.97
756.291	7.24
756.688	7.14
757.085	6.28
757.482	6.66
757.878	7.57
758.275	7.74
758.672	-0.14
759.068	1.03
759.465	0.33
759.861	-2.54
760.258	-7.73
760.654	-5.59
761.05	-4.1
761.447	-4.55
761.843	-5.64
762.239	-3.87
762.635	-6.39
763.031	-8.88
763.427	-10.03
763.822	-10.03
764.218	-10.28
764.614	-5.56
765.01	-6.77
765.405	-7.54
765.801	-6.41
766.196	-5.98
766.592	-6.54
766.987	-4.49
767.382	-2.52
767.778	-1.9
768.173	-1.66
768.568	-0.72
768.963	-0.45
769.358	1.5
769.753	2.97
770.148	2.75
770.542	2.51
770.937	0.95
771.332	0.27
771.726	-0.09
772.121	3.24
772.515	2.89
772.91	3.53
773.304	4.66
773.699	3.5
774.093	2.54
774.487	2.92
774.881	2.24
775.275	3.08
775.669	2.87
776.063	1.88
776.457	0.08
776.851	-0.09
777.245	1.15
777.638	-0.87
778.032	-3.1
778.425	-2.33
778.819	0.53
779.212	4.01
779.606	6.98
779.999	6.56
780.392	8.48
780.786	7.08
781.179	8.09
781.572	7.54
781.965	8.41
782.358	9.95
782.751	8.31
783.143	5.81
783.536	4.61
783.929	2.47
784.322	3.18
784.714	1.76
785.107	2.75
785.499	4.81
785.891	6.11
786.284	5.51
786.676	6.69
787.068	9.5
787.46	9.74
787.852	6.97
788.245	6.11
788.636	4.48
789.028	6.28
789.42	7.64
789.812	7.26
790.204	5.88
790.595	8.73
790.987	7.27
791.378	6.41
791.77	3.49
792.161	4.45
792.553	5.83
792.944	7.29
793.335	4.49
793.726	2.1
794.117	2.06
794.508	-1.07
794.899	-4.98
795.29	-4.85
795.681	-6.37
796.072	-4.4
796.463	14.22
796.853	17.5
797.244	18.77
797.634	21.51
798.025	22.26
798.415	19.26
798.806	22.32
799.196	25.1
799.586	28.99
799.976	31.53
800.366	29.59
800.756	8.63
801.146	5.82
801.536	3.67
801.926	2.08
802.316	3.25
802.706	4.06
803.095	4.31
803.485	3.12
803.874	-0.01
804.264	-1.14
804.653	3.68
805.043	5.54
805.432	7.19
805.821	11.58
806.21	13.53
806.599	10.97
806.988	11.94
807.377	7.69
807.766	6.8
808.155	5.95
808.544	5.73
808.933	2.35
809.321	4.53
809.71	-0.11
810.098	-3.22
810.487	-6.71
810.875	-7.49
811.264	-6.27
811.652	6.89
812.04	9.05
812.428	11.42
812.816	8.06
813.204	10.78
813.592	6.26
813.98	8.16
814.368	15.16
814.756	15.27
815.144	20.79
815.531	22.46
815.919	11.15
816.306	9.96
816.694	8.53
817.081	11.33
817.469	12.36
817.856	10.89
818.243	11.89
818.63	3.26
819.017	6.59
819.404	3.06
819.791	1.29
820.178	-0.98
820.565	3.38
820.952	11.3
821.339	13.8
821.725	11.3
822.112	17.67
822.498	15.63
822.885	16.51
823.271	12.69
823.657	7.79
824.044	4.71
824.43	4
824.816	8.13
825.202	5.5
825.588	2.22
825.974	6.13
826.36	2.27
826.746	3.38
827.132	4.73
827.517	11.79
827.903	14.22
828.289	20.87
828.674	22.6
829.06	17.51
829.445	13.15
829.83	9.8
830.216	7.94
830.601	12.01
830.986	20.83
831.371	21.3
831.756	22.16
832.141	29.35
832.526	28.3
832.911	29.83
833.295	27.74
833.68	26.68
834.065	30.41
834.449	29.84
834.834	28.81
835.218	24.95
835.603	24.53
835.987	16.49
836.371	12.23
836.755	13.01
837.139	10.2
837.524	8.13
837.908	7.23
838.291	10.85
838.675	7.4
839.059	6.2
839.443	3.23
839.827	-2.13
840.21	-2.58
840.594	-1.76
840.977	-5.88
841.361	-8.14
841.744	-9.87
842.127	-8.31
842.511	-12.12
842.894	-14.6
843.277	-12.28
843.66	-16.89
844.043	-12.24
844.426	-6.49
844.809	-8.84
845.191	-8.38
845.574	-4.99
845.957	-2.7
846.339	1.19
846.722	0.88
847.104	-0.19
847.487	-5.44
847.869	-3.19
848.252	0.3
848.634	0.33
849.016	-1.72
849.398	0.02
849.78	-2.46
850.162	-0.3
850.544	-0.09
850.926	-3.25
851.307	3.29
851.689	4.13
852.071	-1.41
852.452	-7.04
852.834	-10.11
853.215	-4.43
853.597	-8.26
853.978	1.44
854.359	2.3
854.741	4.66
855.122	8.36
855.503	6.1
855.884	5.92
856.265	11.87
856.646	9.71
857.026	15.89
857.407	15.78
857.788	18.92
858.169	10.7
858.549	16.99
858.93	13.6
859.31	13.25
859.69	15.87
860.071	17.83
860.451	17.76
860.831	18.58
861.211	13.86
861.591	6.6
861.971	2.82
862.351	0.42
862.731	-12.27
863.111	-10.39
863.491	-7.02
863.87	-7.65
864.25	-10.56
864.629	-3.62
865.009	-3.63
865.388	-2.22
865.768	-2.95
866.147	4.49
866.526	10.95
866.905	17.17
867.284	7.78
867.663	2.07
868.042	-3.74
868.421	-3.96
868.8	-7.85
869.179	-3.15
869.558	-3.9
869.936	2.05
870.315	-2.19
870.693	0.5
871.072	-3.86
871.45	-1.4
871.828	4.38
872.207	5.51
872.585	8.2
872.963	3.14
873.341	9.32
873.719	19.27
874.097	19.44
874.475	17.92
874.853	14.4
875.23	15.73
875.608	17.82
875.986	17.62
876.363	22.38
876.741	31.75
877.118	39.54
877.495	39.49
877.873	32
878.25	28.34
878.627	26.08
879.004	18.92
879.381	21.31
879.758	25.9
880.135	22.32
880.512	20.93
880.889	9.62
881.265	3.79
881.642	-3.06
882.019	-4.53
882.395	3.1
882.772	12.39
883.148	21.29
883.524	24.23
883.901	21.2
884.277	16.29
884.653	13.51
885.029	23.04
885.405	32.09
885.781	33.12
886.157	31.64
886.532	29.09
886.908	19.67
887.284	13.96
887.659	8.28
888.035	10.1
888.411	11.6
888.786	12.75
889.161	4.17
889.537	-5.87
889.912	-7.81
890.287	-5.27
890.662	-6.14
891.037	-8.3
891.412	-8.16
891.787	-12.95
892.162	-12.11
892.536	-6.96
892.911	-1.76
893.286	-6.73
893.66	-2.72
894.035	3.16
894.409	-5.29
894.784	-2.6
895.158	0.91
895.532	6.41
895.906	15.42
896.281	21.1
896.655	22.03
897.029	21.66
897.402	29.83
897.776	24.5
898.15	18.75
898.524	23.35
898.898	21.47
899.271	24.51
899.645	25.72
900.018	22.65
900.392	22.9
900.765	22.51
901.138	23.15
901.511	16.49
901.884	32.01
902.258	31.39
902.631	41.57
903.003	40.91
903.376	34.72
903.749	33.02
904.122	24.11
904.495	3.41
904.867	-13.42
905.24	-7.23
905.612	1.42
905.985	-20.58
906.357	-34.91
906.729	-40.18
907.102	-24.94
907.474	-17.04
907.846	-7.34
908.218	-3.24
908.59	10.43
908.962	15.87
909.334	12.23
909.705	11.26
910.077	16.08
910.449	24.34
910.82	30.42
911.192	28.8
911.563	31.69
911.935	16.04
912.306	12.93
912.677	6.03
913.048	11.23
913.419	7.24
913.79	-13.26
914.161	-12.3
914.532	-2.47
914.903	-12.97
915.274	-13.02
915.645	-13.65
916.015	-17.4
916.386	-17.23
916.756	-13.97
917.127	-21.76
917.497	-13.49
917.868	7.79
918.238	5.62
918.608	2.95
918.978	10.77
919.348	0.15
919.718	-0.43
920.088	18.62
920.458	30.74
920.828	24.92
921.198	21.95
921.567	16.7
921.937	12.13
922.306	5.41
922.676	-6.25
923.045	6.07
923.415	18.2
923.784	15.73
924.153	12.87
924.522	15.23
924.891	11.49
925.26	15.47
925.629	14.06
925.998	4.56
926.367	10.8
926.736	38.61
927.104	33.61
927.473	27.56
927.842	8.45
928.21	-13.02
928.578	-41.4
928.947	-27.06
929.315	-28.56
929.683	-20.11
930.051	-8.07
930.42	-13.78
930.788	-42.99
931.156	-45.26
931.523	-11.03
931.891	9.83
932.259	39.7
932.627	89.65
932.994	121.53
933.362	115.03
933.729	93.77
934.097	78.49
934.464	69.38
934.831	60.89
935.199	58.93
935.566	34.34
935.933	80.12
936.3	96.93
936.667	54.62
937.034	118.87
937.401	102.46
937.767	110.67
938.134	105.52
938.501	126.97
938.867	165.85
939.234	248.99
939.6	203.74
939.967	117.11
940.333	106.01
940.699	83.9
941.065	-11.37
941.431	-1.26
941.798	13.07
942.163	40.81
942.529	44.41
942.895	31.88
943.261	42.32
943.627	49.13
943.992	61.17
944.358	25.6
944.723	65.71
945.089	52.43
945.454	69.08
945.82	43.16
946.185	25.72
946.55	30.82
946.915	26.9
947.28	21.02
947.645	29.79
948.01	50.09
948.375	75.88
948.74	53.96
949.104	56.07
949.469	-30.35
949.834	-27.15
950.198	71.26
950.562	87.46
950.927	65.28
951.291	54.59
951.655	41.89
952.02	-29.03
952.384	-23.66
952.748	-0.57
953.112	40
953.476	69.62
953.839	58.4
954.203	63.62
954.567	57.79
954.931	54.39
955.294	58.95
955.658	63.81
956.021	141.84
956.385	148.77
956.748	156.4
957.111	26.58
957.474	-156.1
957.837	-255.13
958.2	-311.93
958.563	-108.64
958.926	-9.76
959.289	-32.35
959.652	3.04
960.015	26.8
960.377	65.38
960.74	25.8
961.102	-69.86
961.465	141.39
961.827	471.72
962.189	885.89
962.552	669.63
962.914	486.9
963.276	271.18
963.638	190.18
964	153.83
964.362	146.62
964.724	116.14
965.085	102.5
965.447	95.85
965.809	33.41
966.17	20.52
966.532	11.02
966.893	13.36
967.255	31.57
967.616	23.76
967.977	26.55
968.338	-2.84
968.699	24.91
969.061	29.82
969.421	24.08
969.782	3.78
970.143	28.48
970.504	59.32
970.865	78.77
971.225	100.81
971.586	99.96
971.946	113.25
972.307	102.38
972.667	98.82
973.027	69.77
973.388	62.87
973.748	67.66
974.108	66.16
974.468	1.23
974.828	41.96
975.188	19.62
975.548	17.05
975.907	33.73
976.267	41.98
976.627	55.66
976.986	58.13
977.346	38.43
977.705	40.01
978.064	17.15
978.424	27.7
978.783	-12.55
979.142	-20.12
979.501	-15.31
979.86	-15.99
980.219	-35.53
980.578	-61.61
980.937	-100.25
981.296	-67.89
981.654	-78.88
982.013	-128.04
982.371	-165.23
982.73	-100.64
983.088	-145.1
983.447	-124.18
983.805	-168.27
984.163	-272.19
984.521	-364.45
984.879	-396.87
985.237	806.92
985.595	-483.92
985.953	-188.73
986.311	-187.95
986.669	-117.79
987.026	-83.71
987.384	-184.87
987.741	-233.72
988.099	-117.11
988.456	-76.06
988.814	-43.12
989.171	-35.34
989.528	-63.39
989.885	-52.8
990.242	-2.37
990.599	-27.03
990.956	-25.47
991.313	4.46
991.67	16.11
992.027	53.97
992.383	45.18
992.74	56.58
993.096	61.26
993.453	64.29
993.809	57.76
994.165	54.22
994.522	106.17
994.878	112.97
995.234	130.16
995.59	112.02
995.946	30.29
996.302	32.19
996.658	-17.67
997.013	-50.54
997.369	-8.17
997.725	61.9
998.08	73.64
998.436	-73.05
998.791	-69.08
999.147	-4.99
999.502	12.11
999.857	15
1000.212	-17.22
1000.567	50.29
1000.922	139.45
1001.277	37.36
1001.632	14.29
1001.987	-15.69
1002.342	34.51
1002.696	45.89
1003.051	47.26
1003.406	54.83
1003.76	44.49
1004.114	53.01
1004.469	51.54
1004.823	30.97
1005.177	28.29
1005.531	9.33
1005.885	14.28
1006.239	24.04
1006.593	27.25
1006.947	36.64
1007.301	31.15
1007.655	28.85
1008.008	42.73
1008.362	54.51
1008.715	68.89
1009.069	63.66
1009.422	185.29
1009.776	286.09
1010.129	113.13
1010.482	29.82
1010.835	-50.08
1011.188	-189.08
1011.541	-118.26
1011.894	848.61
1012.247	-2475.27
1012.6	-177.26
1012.952	-22.7
1013.305	-94.26
1013.657	-24.25
1014.01	-5.89
1014.362	-11.19
1014.715	40.78
1015.067	67.39
1015.419	67.92
1015.771	62.26
1016.123	70
1016.475	74.49
1016.827	65.91
1017.179	97.41
1017.531	71.51
1017.883	64.79
1018.234	120.45
1018.586	130.73
1018.938	153.85
1019.289	196.93
1019.64	188.63
1019.992	125.91
1020.343	95.84
1020.694	123.07
1021.045	101.56
1021.396	123.74
1021.747	155.23
1022.098	97.25
1022.449	66.02
1022.8	47.74
1023.151	59.97
1023.501	79.96
1023.852	86.71
1024.202	123.18
1024.553	87.79
1024.903	128.09
1025.253	123.79
1025.604	115.99
1025.954	127.06
1026.304	132.35
1026.654	130.39
1027.004	141.07
1027.354	110.98
1027.703	87.3
1028.053	-64.21
1028.403	245.25
1028.753	-261.63
1029.102	-790.61
1029.452	-6536.69
1029.801	-284.53
1030.15	-177.14
1030.499	-174.33
897.758	1682.51
901.051	1622.8
904.343	1654.71
907.636	1658.36
910.928	1706.02
914.22	1645.38
917.511	1648.67
920.803	1684.9
924.094	1676.37
927.384	1681.35
930.675	1653.93
933.965	1627.63
937.255	1656.41
940.544	1631.85
943.834	1624.94
947.123	1580.53
950.411	1647.51
953.7	1635.39
956.988	1627.37
960.276	1571.42
963.563	1602.33
966.851	1611.04
970.138	1640.38
973.424	1640.03
976.711	1601.56
979.997	1640.07
983.283	1669.93
986.568	1620.58
989.853	1606.81
993.138	1622.58
996.423	1697
999.708	1666.06
1002.992	1687.27
1006.275	1616.72
1009.559	1619.99
1012.842	1693.09
1016.125	1659.53
1019.408	1642.9
1022.69	1679.5
1025.972	1706.06
1029.254	1687.72
1032.536	1659.57
1035.817	1663.02
1039.098	1641.1
1042.379	1675.66
1045.659	1695.28
1048.939	1654.59
1052.219	1654.57
1055.498	1646.43
1058.778	1639.86
1062.057	1622.61
1065.335	1642.81
1068.614	1646.07
1071.892	1643.88
1075.17	1679.93
1078.447	1686.12
1081.724	1676.42
1085.001	1694.58
1088.278	1677.76
1091.554	1677.37
1094.83	1676.98
1098.106	1698.95
1101.382	1718.91
1104.657	1719.85
1107.932	1720.03
1111.206	1704.19
1114.481	1664.9
1117.755	1669.78
1121.029	1663.1
1124.302	1707.45
1127.575	1689.53
1130.848	1689.58
1134.121	1668.54
1137.393	1638.1
1140.665	1680.94
1143.937	1664.12
1147.208	1623.33
1150.48	1669.18
1153.75	1660.39
1157.021	1660.49
1160.291	1644.66
1163.561	1681.21
1166.831	1651.43
1170.101	1670.51
1173.37	1639.82
1176.639	1609.41
1179.907	1642.26
1183.176	1659.02
1186.444	1662.25
1189.711	1677.33
1192.979	1694.9
1196.246	1665.27
1199.513	1674.65
1202.78	1678.55
1206.046	1684.42
1209.312	1706.3
1212.578	1715.1
1215.843	1688.82
1219.108	1668.27
1222.373	1684.57
1225.638	1666.57
1228.902	1662.36
1232.166	1628.29
1235.43	1620.02
1238.693	1645.42
1241.956	1640.7
1245.219	1679.46
1248.482	1668.03
1251.744	1669.74
1255.006	1755.63
1258.268	1713.58
1261.529	1686.22
1264.79	1684.69
1268.051	1755.82
1271.312	1762.22
1274.572	1734.92
1277.832	1723.66
1281.092	1706.89
1284.351	1701.45
1287.61	1690.05
1290.869	1646.04
1294.128	1647.73
1297.386	1675.16
1300.644	1669.03
1303.902	1676
1307.159	1577.19
1310.416	1616.65
1313.673	1637.96
1316.93	1640.8
1320.186	1661.46
1323.442	1683.95
1326.697	1686.65
1329.953	1665.41
1333.208	1695.22
1336.463	1675.8
1339.717	1652.13
1342.972	1733.05
1346.226	1711.25
1349.479	1680.46
1352.733	1664.54
1355.986	1671.62
1359.238	1658.6
1362.491	1661.64
1365.743	1661.84
1368.995	1657.4
1372.247	1669.75
1375.498	1683.59
1378.749	1720.64
1382	1687.57
1385.251	1706.45
1388.501	1674.65
1391.751	1675.59
1395	1656.1
1398.25	1676.22
1401.499	1697.6
1404.748	1663.57
1407.996	1650.62
1411.244	1645.07
1414.492	1634.46
1417.74	1624.54
1420.987	1632.98
1424.234	1677.51
1427.481	1646.51
1430.728	1687.68
1433.974	1670.86
1437.22	1669.92
1440.465	1661.95
1443.711	1666.73
1446.956	1681.85
1450.201	1659.48
1453.445	1689.23
1456.689	1679.26
1459.933	1687.74
1463.177	1719
1466.42	1699.51
1469.663	1684.03
1472.906	1696.26
1476.148	1732.91
1479.391	1699.88
1482.633	1683.46
1485.874	1701.69
1489.115	1709.28
1492.356	1694.63
1495.597	1675.36
1498.838	1666.4
1502.078	1656.94
1505.318	1641.33
1508.557	1661.19
1511.797	1658.93
1515.036	1697.62
1518.274	1669.9
1521.513	1626.71
1524.751	1631.23
1527.989	1649.31
1531.227	1663.72
1534.464	1671.84
1537.701	1663.06
1540.938	1667.68
1544.174	1630.56
1547.41	1618.83
1550.646	1644.84
1553.882	1678.85
1557.117	1725.65
1560.352	1729.5
1563.587	1698.19
1566.821	1676.05
1570.055	1686.64
1573.289	1669.91
1576.523	1708.21
1579.756	1719.02
1582.989	1736.03
1586.222	1702.79
1589.454	1727.11
1592.686	1715.14
1595.918	1736.22
1599.15	1733.15
1602.381	1763.92
1605.612	1753.91
1608.843	1820.46
1612.073	1764.22
1615.303	1755.05
1618.533	1752.2
1621.762	1754.22
1624.992	1729.48
1628.221	1729.8
1631.449	1720.87
1634.678	1739.13
1637.906	1713.32
1641.134	1731.29
1644.361	1706.23
1647.588	1698.63
1650.815	1717.25
1654.042	1686.81
1657.269	1706.48
1660.495	1696.15
1663.72	1681.93
1666.946	1657.64
1670.171	1645.45
1673.396	1624.79
1676.621	1611.08
1679.845	1606.34
1683.069	1609.54
1686.293	1627.29
1689.517	1626.46
1692.74	1595.18
1695.963	1609.8
1699.185	1642.03
1702.408	1625.62
1705.63	1641.64
1708.852	1657.64
1712.073	1634.02
1715.294	1649.75
1718.515	1682.6
1721.736	1654.4
1724.956	1638.35
1728.176	1654.83
1731.396	1667.54
1734.616	1661.85
1737.835	1692.84
1741.054	1670.06
1744.272	1664.27
1747.491	1699.96
1750.709	1710.59
1753.927	1680.34
1757.144	1697.93
1760.361	1741.99
1763.578	1719.1
1766.795	1686.78
1770.011	1673.81
1773.227	1689.08
1776.443	1723.86
1779.658	1754.63
1782.874	1709.94
1786.089	1708.27
1789.303	1710.05
1792.518	1706.72
1795.732	1699.25
1798.945	1710.83
1802.159	1742.94
1805.372	1706.46
1808.585	1701.13
1811.797	1702.1
1815.01	1717.56
1818.222	1740.72
1821.434	1705.87
1824.645	1734.34
1827.856	1744.99
1831.067	1765
1834.278	1721.38
1837.488	1708.82
1840.698	1796.63
1843.908	1761.85
1847.117	1740.19
1850.326	1690.5
1853.535	1730.28
1856.744	1764.45
1859.952	1709
1863.16	1713.07
1866.368	1727.83
1869.575	1815.3
1872.782	1729.18
1875.989	1681.82
1879.196	1715.11
1882.402	1711.72
1885.608	1737.36
1888.814	1698.99
1892.019	1635.94
1895.224	1678.82
1898.429	1651.73
1901.634	1640.67
1904.838	1624.62
1908.042	1669.97
1911.246	1682.59
1914.449	1659.14
1917.652	1643.15
1920.855	1629.21
1924.058	1645.36
1927.26	1681.94
1930.462	1697.05
1933.664	1728.24
1936.865	1687.59
1940.066	1698.62
1943.267	1655.74
1946.467	1664.9
1949.668	1674.68
1952.868	1731.54
1956.067	1727.94
1959.267	1680.94
1962.466	1698.68
1965.665	1684.95
1968.863	1683.19
1972.061	1679.99
1975.259	1677.56
1978.457	1735.6
1981.654	1700.78
1984.852	1704.08
1988.048	1670.8
1991.245	1657.66
1994.441	1728.47
1997.637	1688.2
2000.833	1674.29
2004.028	1701.12
2007.223	1751.42
2010.418	1739.63
2013.613	1698.8
2016.807	1700.48
2020.001	1694.38
2023.194	1704.97
2026.388	1695.38
2029.581	1650.73
2032.774	1700.97
2035.966	1709.57
2039.158	1668.88
2042.35	1684.11
2045.542	1628.2
2048.733	1689.93
2051.924	1674.99
2055.115	1688.51
2058.306	1668.19
2061.496	1705.17
2064.686	1741.53
2067.875	1670.47
2071.065	1669.36
2074.254	1681.02
2077.442	1645
2080.631	1708
2083.819	1663.66
2087.007	1660.54
2090.195	1650.28
2093.382	1655.51
2096.569	1648.62
2099.756	1622.34
2102.942	1664.04
2106.128	1673.63
2109.314	1665.15
2112.5	1659.71
2115.685	1632.36
2118.87	1637.8
2122.055	1687.66
2125.239	1670.75
2128.424	1666.17
2131.608	1700.89
2134.791	1687.96
2137.974	1712.29
2141.157	1705.99
2144.34	1688.66
2147.523	1675.05
2150.705	1698.72
2153.887	1671.25
2157.068	1654.48
2160.25	1633.28
2163.431	1650.78
2166.611	1632.34
2169.792	1649.47
2172.972	1581.65
2176.152	1619.66
2179.331	1636.73
2182.511	1642.62
2185.69	1656.55
2188.868	1660.6
2192.047	1683.52
2195.225	1706.46
2198.403	1662.85
2201.58	1648.64
2204.758	1637.13
2207.935	1695.15
2211.111	1634.8
2214.288	1625.91
2217.464	1650.09
2220.64	1615.64
2223.815	1653.06
2226.991	1601.48
2230.166	1611.08
2233.34	1647.35
2236.515	1659.15
2239.689	1706.17
2242.863	1668.43
2246.036	1705.55
2249.209	1694.57
2252.382	1706.96
2255.555	1717.33
2258.727	1683.59
2261.9	1704.01
2265.071	1699.33
2268.243	1697.56
2271.414	1661.99
2274.585	1652.23
2277.756	1698.93
2280.926	1668.96
2284.096	1686.13
2287.266	1637.62
2290.436	1672.86
2293.605	1684.08
2296.774	1717.71
2299.942	1721.49
2303.111	1730.74
2306.279	1771.45
2309.447	1760.82
2312.614	1741.25
2315.781	1756.2
2318.948	1742.1
2322.115	1770.77
2325.281	1688.88
2328.447	1694.22
2331.613	1668.53
2334.779	1664.03
2337.944	1661.79
2341.109	1664.27
2344.274	1654.67
2347.438	1630.32
2350.602	1646.96
2353.766	1651.65
2356.929	1644.59
2360.092	1677.92
2363.255	1655.37
2366.418	1637.83
2369.58	1670.96
2372.742	1634.77
2375.904	1615.51
2379.066	1611.92
2382.227	1626.46
2385.388	1597.93
2388.548	1565.23
2391.709	1592.9
2394.869	1587.97
2398.029	1620.48
2401.188	1610.75
2404.347	1594.18
2407.506	1601.91
2410.665	1646.84
2413.823	1628.51
2416.981	1617.21
2420.139	1627.98
2423.296	1658.39
2426.453	1638.45
2429.61	1651.66
2432.767	1638.65
2435.923	1669.26
2439.079	1625.32
2442.235	1649.38
2445.391	1604.95
2448.546	1641.46
2451.701	1666.74
2454.855	1667.21
2458.009	1685.01
2461.163	1672.25
2464.317	1652.51
2467.471	1672.2
2470.624	1692.53
2473.777	1693.31
2476.929	1705.45
2480.082	1722.16
2483.234	1706.94
2486.385	1657.05
2489.537	1653.01
2492.688	1648.74
2495.839	1664.52
2498.989	1676.76
2502.14	1665.9
2505.29	1662.31
2508.439	1673.7
2511.589	1633.44
2514.738	1630.98
2517.887	1644.26
2521.035	1707.55
2524.183	1669.43
2527.331	1662.87
2530.479	1659.03
2533.627	1660.3
