Data from N_1_DEC_ON_6N_Splice17_11-22-34-856.txt Node
Date: Sat Mar 14 11:22:34 EDT 2020
User: sa697716
Spectrometer: FLMS03696
Trigger mode: 0
Integration Time (sec): 3.180400E-1
Scans to average: 20
Electric dark correction enabled: true
Nonlinearity correction enabled: true
Boxcar width: 5
XAxis mode: Wavelengths
Number of Pixels in Spectrum: 2048
>>>>>Begin Spectral Data<<<<<
187.83	-173053.25
188.298	1174.79
188.766	675.84
189.233	592.05
189.701	787.95
190.169	1094.18
190.636	403.56
191.104	310.04
191.571	52.23
192.039	2.67
192.506	-40.49
192.974	268.8
193.441	-597.1
193.908	-171.22
194.375	-37.9
194.842	-13.07
195.31	-6.89
195.777	86.09
196.244	197.16
196.711	252.39
197.177	333.45
197.644	433.67
198.111	737.72
198.578	1049.77
199.045	847.24
199.511	1337.81
199.978	1539.88
200.445	1318.72
200.911	1423.05
201.378	1589.36
201.844	1457.6
202.31	2411.71
202.777	2477.77
203.243	1371.22
203.709	1287.18
204.176	1493.83
204.642	1246.74
205.108	1144.83
205.574	929.57
206.04	847.57
206.506	782.03
206.972	718.42
207.438	690.99
207.903	794.66
208.369	707.58
208.835	704.43
209.301	737.87
209.766	738.41
210.232	727.81
210.697	890.05
211.163	1065.45
211.628	1588.64
212.094	1324.95
212.559	1641.6
213.024	1000.8
213.49	1215.09
213.955	1167.89
214.42	1128.19
214.885	1054.36
215.35	1016.77
215.815	969.27
216.28	1021.77
216.745	817.1
217.21	858.07
217.675	733.84
218.14	776.21
218.604	784.76
219.069	807.35
219.534	789.63
219.998	819.41
220.463	878.41
220.927	953.03
221.392	825.42
221.856	765.64
222.32	855.11
222.785	1003.12
223.249	1200.88
223.713	1259.13
224.177	1206.73
224.642	1378.02
225.106	1587.4
225.57	1656.6
226.034	1209.76
226.497	1752.91
226.961	1564.22
227.425	1760.45
227.889	1851.32
228.353	1764.55
228.816	3462.85
229.28	3278.8
229.744	2762.13
230.207	1688.7
230.671	1632.52
231.134	2508.56
231.597	2886.77
232.061	2771.32
232.524	2590.88
232.987	1781.33
233.45	1575.62
233.914	1376.9
234.377	1327.81
234.84	1216.57
235.303	1400.4
235.766	1539.16
236.229	1583.03
236.691	959.9
237.154	1050.07
237.617	787.57
238.08	791.47
238.542	918.08
239.005	674.82
239.468	683.78
239.93	634.73
240.393	578.29
240.855	508.98
241.317	520.55
241.78	610.97
242.242	632.73
242.704	718.73
243.166	624.14
243.629	577.13
244.091	648.34
244.553	703.73
245.015	772.46
245.477	972.24
245.939	1382.17
246.4	1453.8
246.862	1422.85
247.324	1326.14
247.786	1427.33
248.247	1861.89
248.709	1820.57
249.17	1385.47
249.632	1368.59
250.093	1595.14
250.555	1429.5
251.016	922.22
251.477	879.08
251.939	933.85
252.4	961.96
252.861	1134.73
253.322	1053.86
253.783	1239.31
254.244	1593.97
254.705	1207.16
255.166	1039.92
255.627	1006.89
256.088	1385.95
256.549	1478.95
257.009	1300.33
257.47	1573.47
257.931	1258.14
258.391	962.62
258.852	989.52
259.312	1032.99
259.773	1262.73
260.233	1108.83
260.694	939
261.154	1061.08
261.614	865.21
262.074	749.95
262.534	787.25
262.994	746.98
263.455	944.49
263.915	794.44
264.374	724.33
264.834	779.67
265.294	835.6
265.754	845.38
266.214	772.63
266.673	707.6
267.133	884.15
267.593	856.86
268.052	1038.57
268.512	882.5
268.971	1106.54
269.431	1221.59
269.89	1080.23
270.349	1571.75
270.809	1761.49
271.268	1602.44
271.727	3535.48
272.186	2296.46
272.645	1734.22
273.104	1227.56
273.563	1809.5
274.022	1368.69
274.481	1187.33
274.94	948.52
275.399	690.6
275.857	785.17
276.316	1028.06
276.775	915.7
277.233	911.31
277.692	866.03
278.15	1019.97
278.609	1095.56
279.067	1020.38
279.525	993.39
279.984	1248.13
280.442	1563.36
280.9	1619.14
281.358	1086.26
281.816	1034.35
282.274	1037.4
282.732	1064.69
283.19	1046.16
283.648	903.89
284.106	963.42
284.564	954.15
285.021	912.96
285.479	686.22
285.937	623.93
286.394	581.4
286.852	594.49
287.309	611.04
287.767	634.43
288.224	636
288.682	679.46
289.139	777.76
289.596	722
290.053	729.91
290.511	904.62
290.968	1078.69
291.425	1407.03
291.882	1220.25
292.339	1074.51
292.796	1018.63
293.252	934.93
293.709	779.38
294.166	671.46
294.623	737.46
295.079	710.98
295.536	732.45
295.992	668.95
296.449	666.98
296.905	696.33
297.362	681.79
297.818	705.45
298.274	734.14
298.731	728.77
299.187	737.09
299.643	775.67
300.099	940.61
300.555	1009.69
301.011	848.56
301.467	852.6
301.923	953.24
302.379	940.34
302.835	928.73
303.291	932.59
303.746	1051.04
304.202	1316.33
304.658	1331.08
305.113	914.93
305.569	914.38
306.024	946.4
306.479	900.83
306.935	806.45
307.39	856.8
307.845	817.9
308.301	849.08
308.756	831.8
309.211	812.98
309.666	852.66
310.121	1088.72
310.576	1081.38
311.031	1081.75
311.486	1190.19
311.94	1156.34
312.395	1581.1
312.85	2890.37
313.305	13559.67
313.759	76171.76
314.214	5496.52
314.668	4351.66
315.123	3789.86
315.577	1442.44
316.032	1323.49
316.486	1700.19
316.94	1354.45
317.394	954.47
317.849	760.14
318.303	726.21
318.757	677.46
319.211	750.76
319.665	661.07
320.119	650.2
320.572	903.98
321.026	867.09
321.48	708.59
321.934	742.9
322.387	747.46
322.841	818.61
323.295	764.41
323.748	835.98
324.202	858.38
324.655	1037.68
325.108	1503.46
325.562	1078.72
326.015	1238.2
326.468	944.34
326.921	1071.07
327.374	1025.28
327.827	1075.2
328.28	1221.79
328.733	868.92
329.186	777.19
329.639	739.93
330.092	606.1
330.545	594.14
330.997	627.92
331.45	711.84
331.903	868.46
332.355	1441.47
332.808	1377.79
333.26	1139.38
333.713	1223.26
334.165	1231.53
334.617	1650.07
335.069	1300.08
335.522	2287.58
335.974	2436.45
336.426	2204.88
336.878	1446.22
337.33	767.96
337.782	758.13
338.234	969.31
338.686	1151.71
339.137	1380.29
339.589	1309.65
340.041	1090.45
340.493	954.4
340.944	985.23
341.396	1046.68
341.847	908.97
342.299	1097.87
342.75	1376.17
343.201	1149.37
343.653	1292.69
344.104	1541.29
344.555	1223.93
345.006	1841.72
345.457	1434.28
345.908	1136.06
346.359	1095.01
346.81	901.23
347.261	902.14
347.712	857.6
348.163	927.22
348.613	991.07
349.064	935.43
349.515	803.12
349.965	818.38
350.416	957.55
350.866	1060.97
351.317	1180.94
351.767	1901.37
352.217	2442.08
352.668	2081.27
353.118	1888.33
353.568	1699.2
354.018	1343.49
354.468	1432.18
354.918	1051.84
355.368	936.43
355.818	1313.23
356.268	3625.98
356.718	15729.53
357.168	3946.4
357.617	1992.85
358.067	2260.65
358.517	2172.25
358.966	2649.03
359.416	3060.36
359.865	3264.98
360.315	3834.48
360.764	1797.73
361.213	1030.69
361.663	955.85
362.112	1170.33
362.561	1866.35
363.01	1423.8
363.459	1185.85
363.908	1258.22
364.357	1117.03
364.806	1870.68
365.255	1291.71
365.703	1199.03
366.152	1217.31
366.601	1015.19
367.05	849.37
367.498	783.28
367.947	811.26
368.395	872.55
368.844	795.62
369.292	912.48
369.74	644.3
370.189	968.71
370.637	1139.85
371.085	983.1
371.533	1193.7
371.981	1112.96
372.429	1085.66
372.877	1132.32
373.325	941.6
373.773	960.47
374.221	836.72
374.669	1038.95
375.116	920.09
375.564	930.84
376.012	1049.63
376.459	867.39
376.907	1064.09
377.354	1292.45
377.801	1232.5
378.249	1448.12
378.696	1781.91
379.143	2266.34
379.591	2462.6
380.038	4069.28
380.485	2974.3
380.932	3207.35
381.379	3086.2
381.826	2394.79
382.273	1707.66
382.72	1509.68
383.166	1519.04
383.613	1051.63
384.06	962.7
384.506	1138.13
384.953	879.04
385.4	918.48
385.846	855.87
386.292	860.08
386.739	873.36
387.185	921.28
387.631	1007.99
388.078	1072.82
388.524	1225.36
388.97	1216.45
389.416	1080.87
389.862	1210.44
390.308	1204.07
390.754	1290.52
391.2	1506.62
391.645	1680.3
392.091	1774.44
392.537	1848.48
392.983	1951.19
393.428	2043.68
393.874	2319.08
394.319	2534.01
394.765	2682.38
395.21	3087.02
395.655	3235.97
396.101	3354.7
396.546	3329.19
396.991	3670.85
397.436	3738.4
397.881	3976.23
398.326	4150.08
398.771	4303.21
399.216	4099.62
399.661	3976.94
400.106	4228.98
400.551	4589.05
400.995	4336.41
401.44	4497.15
401.885	4405.01
402.329	4618.88
402.774	4575.81
403.218	4547.45
403.663	4528.27
404.107	4804.09
404.551	5010.78
404.995	4776.73
405.44	4799.42
405.884	5072.68
406.328	5086.27
406.772	5235.95
407.216	4924.62
407.66	4945.99
408.104	4921.83
408.547	4798.75
408.991	4813.24
409.435	4778.92
409.879	4830.46
410.322	4879.92
410.766	4827.12
411.209	4715.57
411.653	4670.28
412.096	4703.53
412.54	4836.75
412.983	4911.32
413.426	5014.15
413.869	5115.34
414.312	5109.68
414.756	5029.2
415.199	4894.82
415.642	4839.23
416.085	4920.7
416.527	4956.1
416.97	5111.2
417.413	4896.33
417.856	4899.01
418.298	4893.83
418.741	4885.37
419.184	4900.04
419.626	5131.92
420.069	5153.13
420.511	5198.69
420.953	5120.58
421.396	5117.1
421.838	5037.5
422.28	5195.5
422.722	5259.6
423.164	5413.24
423.606	5400.48
424.048	5485.59
424.49	5271.7
424.932	5315.67
425.374	5312.46
425.816	5439.31
426.258	5519.34
426.699	5503.43
427.141	5308.48
427.582	5299.57
428.024	5209.93
428.465	5198.49
428.907	5132.25
429.348	5176.18
429.789	5256.09
430.231	5203.87
430.672	5350.19
431.113	5332.72
431.554	5432.76
431.995	5541.73
432.436	5568.15
432.877	5647.17
433.318	5682.46
433.759	5770.85
434.2	5851.26
434.64	5868.46
435.081	5964.95
435.522	5742.08
435.962	5644.11
436.403	5604.78
436.843	5776.9
437.284	5741.78
437.724	5657.61
438.164	5755.03
438.604	5683.41
439.045	5516.61
439.485	5346.78
439.925	5326.21
440.365	5282.24
440.805	5282.66
441.245	5271.26
441.685	5111.58
442.125	5114.83
442.564	5170.93
443.004	5059.25
443.444	5069.43
443.883	5105.3
444.323	5127.37
444.762	5200.69
445.202	5309.18
445.641	5417.95
446.081	5440.91
446.52	5526.14
446.959	5507.02
447.398	5418.94
447.837	5419.79
448.276	5382.49
448.716	5469.29
449.154	5536.21
449.593	5376.61
450.032	5344.78
450.471	5261.56
450.91	5262.9
451.349	5223.37
451.787	5190.62
452.226	5249.64
452.664	5224.52
453.103	5206.23
453.541	5196.98
453.98	5157.69
454.418	5205.16
454.856	5106.16
455.295	5081.93
455.733	5096.42
456.171	5114.19
456.609	5090.38
457.047	5075.42
457.485	5119.98
457.923	5109.71
458.361	5033.11
458.798	5055.34
459.236	5044.85
459.674	5105.93
460.111	5148.35
460.549	5112.89
460.987	5122.45
461.424	5137.78
461.862	5131.66
462.299	5078.72
462.736	5086.63
463.173	5121.31
463.611	5056.4
464.048	5050.55
464.485	5107.35
464.922	5096.64
465.359	5116.41
465.796	5014.38
466.233	5014.26
466.67	4990.44
467.106	5009.65
467.543	5017.75
467.98	5007.74
468.416	4962.61
468.853	5001.43
469.29	4920.45
469.726	4916.48
470.162	4835.16
470.599	4891.99
471.035	4907.75
471.471	4855.64
471.907	4896.32
472.344	4909.53
472.78	4943.17
473.216	5029.61
473.652	4975.26
474.088	4978.27
474.523	4969.97
474.959	5030
475.395	4991.1
475.831	4954.57
476.266	4979.49
476.702	4963.75
477.138	4903.35
477.573	4886.68
478.008	4860.87
478.444	4868.38
478.879	4884.19
479.314	4881.93
479.75	4852.39
480.185	4852.35
480.62	4868.2
481.055	4856.81
481.49	4843.27
481.925	4854.65
482.36	4838.2
482.795	4876.46
483.229	4905.36
483.664	4908.25
484.099	4847.12
484.534	4845.66
484.968	4822.47
485.403	4783.52
485.837	4736.53
486.271	4693.69
486.706	4682.74
487.14	4650.12
487.574	4592.72
488.009	4570.98
488.443	4540.63
488.877	4567.52
489.311	4569.15
489.745	4601.89
490.179	4618.98
490.613	4666.23
491.046	4683.75
491.48	4693.61
491.914	4672.93
492.348	4683.18
492.781	4688.05
493.215	4686.82
493.648	4697.5
494.082	4722.5
494.515	4705.89
494.948	4727.26
495.382	4740.79
495.815	4738.49
496.248	4734.54
496.681	4779.82
497.114	4814.55
497.547	4829.12
497.98	4848.16
498.413	4817.21
498.846	4815.1
499.279	4821.73
499.711	4812.35
500.144	4784.74
500.577	4790.67
501.009	4808.33
501.442	4812.3
501.874	4777.3
502.306	4766.29
502.739	4773.23
503.171	4842.93
503.603	4837.53
504.036	4856.46
504.468	4844.29
504.9	4863.1
505.332	4865.56
505.764	4850.89
506.196	4851.52
506.627	4881.87
507.059	4897.75
507.491	4908.1
507.923	4840.7
508.354	4864.1
508.786	4866.71
509.217	4904.45
509.649	4923.2
510.08	4956.76
510.512	4967
510.943	4971.23
511.374	4956.66
511.805	4984.63
512.237	5007.34
512.668	5084.65
513.099	5119.71
513.53	5134.4
513.961	5112.15
514.391	5137.05
514.822	5162.37
515.253	5210.29
515.684	5222.62
516.114	5257.95
516.545	5263.31
516.975	5293.19
517.406	5298.67
517.836	5265.72
518.267	5267.9
518.697	5317.07
519.127	5319.77
519.558	5331.83
519.988	5326.69
520.418	5344.61
520.848	5386.7
521.278	5392.61
521.708	5296.39
522.138	5307.6
522.567	5376.42
522.997	5409.24
523.427	5399.35
523.857	5391.05
524.286	5369.91
524.716	5370.35
525.145	5386.66
525.575	5379.46
526.004	5390.43
526.433	5443.79
526.863	5409.29
527.292	5347.86
527.721	5352.64
528.15	5375.2
528.579	5379.69
529.008	5406.49
529.437	5463.11
529.866	5476.59
530.295	5497.31
530.724	5495.07
531.152	5542.3
531.581	5554.78
532.01	5583.21
532.438	5585.09
532.867	5602.62
533.295	5631.14
533.723	5626.17
534.152	5601.18
534.58	5588.81
535.008	5529.89
535.436	5521.92
535.865	5532.57
536.293	5558.28
536.721	5578.05
537.149	5616.86
537.576	5588.91
538.004	5600.96
538.432	5609.68
538.86	5591.56
539.287	5602.38
539.715	5631.27
540.143	5635.93
540.57	5622.7
540.998	5615.98
541.425	5554.68
541.852	5512.78
542.28	5529.6
542.707	5502.13
543.134	5475.82
543.561	5476.88
543.988	5466.22
544.415	5475.47
544.842	5468.63
545.269	5455.59
545.696	5468.98
546.123	5522.54
546.549	5502.51
546.976	5473.71
547.403	5479.25
547.829	5493.82
548.256	5511.17
548.682	5510.59
549.108	5497.51
549.535	5507.24
549.961	5524.58
550.387	5491.76
550.813	5476.94
551.24	5503.26
551.666	5515.73
552.092	5496.75
552.518	5485.01
552.943	5467.97
553.369	5493.28
553.795	5509.78
554.221	5509.44
554.646	5495.07
555.072	5514.95
555.498	5524.41
555.923	5536.39
556.349	5561.22
556.774	5569.77
557.199	5560.03
557.625	5573.17
558.05	5548.12
558.475	5576.46
558.9	5568.7
559.325	5539.16
559.75	5524.92
560.175	5509.07
560.6	5496.31
561.025	5498.73
561.449	5505.35
561.874	5522.09
562.299	5523.79
562.723	5536.27
563.148	5494.92
563.572	5501.36
563.997	5526.87
564.421	5539.78
564.846	5532.24
565.27	5529.47
565.694	5506.86
566.118	5529.61
566.542	5536.76
566.966	5509.26
567.39	5484.9
567.814	5442.34
568.238	5431.51
568.662	5442.97
569.086	5448.55
569.509	5478.37
569.933	5441.67
570.357	5439.24
570.78	5394.58
571.204	5373.75
571.627	5364.26
572.05	5381.17
572.474	5403.18
572.897	5390
573.32	5385.28
573.743	5379.86
574.166	5339.11
574.589	5360.88
575.012	5349.27
575.435	5361.48
575.858	5349.58
576.281	5335.79
576.704	5312.57
577.126	5305.09
577.549	5298.68
577.972	5298.81
578.394	5287.54
578.817	5287.17
579.239	5258.7
579.661	5248.74
580.084	5224.17
580.506	5215.2
580.928	5234.23
581.35	5226.56
581.772	5234.77
582.194	5208.4
582.616	5178.54
583.038	5145.66
583.46	5124.19
583.882	5116.1
584.303	5136.14
584.725	5122.74
585.147	5098.02
585.568	5099.81
585.99	5093.13
586.411	5063.82
586.833	5066.65
587.254	5037.66
587.675	5055.8
588.096	5073.61
588.518	5036.71
588.939	4961.62
589.36	4943.25
589.781	4929.01
590.202	4847.76
590.623	4847.75
591.043	4873.94
591.464	4857.51
591.885	4858.95
592.305	4849.46
592.726	4812.61
593.147	4823
593.567	4812.23
593.987	4792.83
594.408	4776.2
594.828	4778.27
595.248	4756.93
595.669	4694.07
596.089	4674.49
596.509	4659
596.929	4615.33
597.349	4614.49
597.769	4577.4
598.189	4547.75
598.608	4542.14
599.028	4537.67
599.448	4531.12
599.867	4487.78
600.287	4474.6
600.706	4458.65
601.126	4425.46
601.545	4421.19
601.965	4417.94
602.384	4402.86
602.803	4415.93
603.222	4402.07
603.641	4385.59
604.061	4373.42
604.48	4361.94
604.898	4385.93
605.317	4399.61
605.736	4402.26
606.155	4385.48
606.574	4351.86
606.992	4362.9
607.411	4341.84
607.829	4314.6
608.248	4303.54
608.666	4296.48
609.085	4291.65
609.503	4263.95
609.921	4240.7
610.339	4243.89
610.758	4242.67
611.176	4227.31
611.594	4197.93
612.012	4190.2
612.43	4198.87
612.847	4215.4
613.265	4208.64
613.683	4217.93
614.101	4219.8
614.518	4212.26
614.936	4188.27
615.353	4149.13
615.771	4146.21
616.188	4154.34
616.606	4149.69
617.023	4137.07
617.44	4106.28
617.857	4104.7
618.274	4092.54
618.691	4080.01
619.108	4055.73
619.525	4038.28
619.942	4058.51
620.359	4062.36
620.776	4041.71
621.192	4019.53
621.609	4000.29
622.026	4003.73
622.442	4004.87
622.859	4002
623.275	3969.1
623.691	3975.91
624.108	3999.09
624.524	4028.63
624.94	4013.04
625.356	4028.59
625.772	4057.15
626.188	4083.57
626.604	4076.02
627.02	4050.95
627.436	4031.94
627.852	4038.01
628.268	4060.41
628.683	4024.11
629.099	3992.3
629.514	3978.84
629.93	3991.34
630.345	4004.65
630.761	3994.17
631.176	4011.25
631.591	3995.27
632.007	3981.82
632.422	3986.56
632.837	3961
633.252	3957.11
633.667	3936.42
634.082	3918.32
634.497	3886.5
634.911	3835.03
635.326	3839.07
635.741	3798.69
636.155	3788.68
636.57	3802.65
636.984	3814.46
637.399	3829.04
637.813	3845.27
638.228	3855.39
638.642	3883.63
639.056	3869.34
639.47	3888.88
639.884	3875.61
640.298	3873.16
640.712	3884.67
641.126	3867.89
641.54	3863.92
641.954	3881.03
642.368	3863.83
642.781	3850.98
643.195	3810.55
643.609	3825.93
644.022	3818.91
644.436	3818.73
644.849	3787.83
645.262	3758.59
645.676	3772.01
646.089	3756.32
646.502	3696.97
646.915	3685.28
647.328	3644
647.741	3650.42
648.154	3620.55
648.567	3615.75
648.98	3580.87
649.393	3600.16
649.805	3602.74
650.218	3594.58
650.631	3557.69
651.043	3557.32
651.456	3548.16
651.868	3557
652.28	3613.83
652.693	3643.35
653.105	3642.18
653.517	3640.21
653.929	3611.63
654.341	3608.2
654.753	3551.4
655.165	3571.05
655.577	3566.31
655.989	3563.19
656.401	3559.13
656.813	3459.51
657.224	3437.4
657.636	3403.17
658.047	3404.57
658.459	3394.38
658.87	3422.65
659.282	3433.42
659.693	3389.53
660.104	3367.41
660.515	3347.06
660.926	3366.89
661.338	3390.5
661.749	3396.12
662.159	3379.76
662.57	3394.05
662.981	3399
663.392	3387.08
663.803	3420.11
664.213	3433.03
664.624	3437.47
665.035	3470.82
665.445	3435.73
665.855	3415.41
666.266	3391.48
666.676	3398.23
667.086	3370.43
667.497	3373.28
667.907	3352.64
668.317	3318.07
668.727	3290.91
669.137	3297.78
669.547	3285.05
669.956	3296.5
670.366	3303.79
670.776	3306.99
671.186	3317.71
671.595	3325.01
672.005	3337.2
672.414	3322.65
672.824	3305.81
673.233	3335.94
673.642	3335.12
674.052	3334.11
674.461	3325.25
674.87	3336.5
675.279	3309.61
675.688	3309.1
676.097	3294.98
676.506	3267.52
676.915	3319.74
677.323	3315.56
677.732	3291.39
678.141	3275.31
678.549	3222.39
678.958	3208.58
679.366	3188.48
679.775	3196.4
680.183	3206.27
680.592	3210.99
681	3207.41
681.408	3151.31
681.816	3155.28
682.224	3159.23
682.632	3153.4
683.04	3217.29
683.448	3238.97
683.856	3259.17
684.264	3271.65
684.671	3273.39
685.079	3290.47
685.487	3316.33
685.894	3388.46
686.302	3414.64
686.709	3403.59
687.116	3412.25
687.524	3395.23
687.931	3383.73
688.338	3378.47
688.745	3381.23
689.152	3391.36
689.559	3413.77
689.966	3423.36
690.373	3372.96
690.78	3361.08
691.187	3394.43
691.593	3386.89
692	3366.48
692.407	3382.15
692.813	3417
693.22	3429.26
693.626	3449.41
694.032	3451.55
694.439	3501.68
694.845	3528.08
695.251	3580.92
695.657	3616.38
696.063	3704.18
696.469	3744.49
696.875	3772
697.281	3754.2
697.687	3741.38
698.093	3711.47
698.498	3732.2
698.904	3726.84
699.31	3765.12
699.715	3769.38
700.12	3821.81
700.526	3789.09
700.931	3829.67
701.337	3851.9
701.742	3857.08
702.147	3927.92
702.552	3934.18
702.957	3976.51
703.362	3974.73
703.767	3987.14
704.172	4016.26
704.577	3939.05
704.981	3969.42
705.386	3962.77
705.791	3927.98
706.195	3988.82
706.6	3971.94
707.004	4040.52
707.408	3987.12
707.813	3997.64
708.217	3963.22
708.621	3944.19
709.025	4032.07
709.43	4010.34
709.834	4053.01
710.237	4107.58
710.641	4070.31
711.045	4075.08
711.449	4044.12
711.853	4044.92
712.256	4061.17
712.66	4067.63
713.064	4104.25
713.467	4088.02
713.87	4125.18
714.274	4077.14
714.677	4075.49
715.08	4104.41
715.484	4123.61
715.887	4160.96
716.29	4189.23
716.693	4208.74
717.096	4254.17
717.499	4231.87
717.901	4172.04
718.304	4165.16
718.707	4200.38
719.109	4168.38
719.512	4203.55
719.915	4156.24
720.317	4164.68
720.719	4237.28
721.122	4254.29
721.524	4243.62
721.926	4224.68
722.328	4296.11
722.731	4259.99
723.133	4237.77
723.535	4338.07
723.937	4300.58
724.338	4296.77
724.74	4294.24
725.142	4216.33
725.544	4207.65
725.945	4222.15
726.347	4216.85
726.748	4214.98
727.15	4228.74
727.551	4200.43
727.952	4178.64
728.354	4160.43
728.755	4173.83
729.156	4170.72
729.557	4212.27
729.958	4160.21
730.359	4170.17
730.76	4214.68
731.161	4227.52
731.562	4266.3
731.962	4327.32
732.363	4327.93
732.763	4325.7
733.164	4399.11
733.564	4369.18
733.965	4309.99
734.365	4298.36
734.766	4333.6
735.166	4302.33
735.566	4252.04
735.966	4225.27
736.366	4220.42
736.766	4169.35
737.166	4202.98
737.566	4173.87
737.966	4160.35
738.365	4200.66
738.765	4197.11
739.165	4135.69
739.564	4120.34
739.964	4172.33
740.363	4147.25
740.763	4157.55
741.162	4158.62
741.561	4136.24
741.96	4101.03
742.36	4127.76
742.759	4140.05
743.158	4184.5
743.557	4204.75
743.955	4249.25
744.354	4208.5
744.753	4258.71
745.152	4220.26
745.55	4269.02
745.949	4262.27
746.348	4260.41
746.746	4269.57
747.144	4227.88
747.543	4200.33
747.941	4236.83
748.339	4162.37
748.737	4149.79
749.136	4135.8
749.534	4185.9
749.932	4151.84
750.33	4164.87
750.727	4211.19
751.125	4185.71
751.523	4169.87
751.921	4205.21
752.318	4172.01
752.716	4219.78
753.113	4226.73
753.511	4240.46
753.908	4234.03
754.305	4208.7
754.703	4256.35
755.1	4297.44
755.497	4332.19
755.894	4452.12
756.291	4510.36
756.688	4615.16
757.085	4711.34
757.482	4840.81
757.878	4926.72
758.275	4923.39
758.672	5026.13
759.068	4995.38
759.465	5047.93
759.861	5139.43
760.258	5253.4
760.654	5151.47
761.05	4915.41
761.447	4710.65
761.843	4547.09
762.239	4417.17
762.635	4474.24
763.031	4511.32
763.427	4454.37
763.822	4398.39
764.218	4357.01
764.614	4211.61
765.01	4170.76
765.405	4206.5
765.801	4261.64
766.196	4242.97
766.592	4290.62
766.987	4220.43
767.382	4195.44
767.778	4235.61
768.173	4217.43
768.568	4224.32
768.963	4174.37
769.358	4224.31
769.753	4213.44
770.148	4165.95
770.542	4181.28
770.937	4166.8
771.332	4241.55
771.726	4253.74
772.121	4198.57
772.515	4240.24
772.91	4226.98
773.304	4281.93
773.699	4224.64
774.093	4261.26
774.487	4299.04
774.881	4320.68
775.275	4306.02
775.669	4265.75
776.063	4294.36
776.457	4317.28
776.851	4247.65
777.245	4228.84
777.638	4242.74
778.032	4320.22
778.425	4280.93
778.819	4301.28
779.212	4261.96
779.606	4219.96
779.999	4222.94
780.392	4194.46
780.786	4241.87
781.179	4244.51
781.572	4264.24
781.965	4257.55
782.358	4200.04
782.751	4225.41
783.143	4172.14
783.536	4199.36
783.929	4209.55
784.322	4270.31
784.714	4273.8
785.107	4245.02
785.499	4268.88
785.891	4218.72
786.284	4172.32
786.676	4237.68
787.068	4189.07
787.46	4190.51
787.852	4175.5
788.245	4201.91
788.636	4189.89
789.028	4201.94
789.42	4196.36
789.812	4175.56
790.204	4216.65
790.595	4260.7
790.987	4111.75
791.378	4108.38
791.77	4174.7
792.161	4245.72
792.553	4262.61
792.944	4171.41
793.335	4107.79
793.726	4133.68
794.117	4169.26
794.508	4236.68
794.899	4200.39
795.29	4269.95
795.681	4288.32
796.072	4182
796.463	4044.77
796.853	4025.66
797.244	4098.12
797.634	4097.01
798.025	4073.95
798.415	4056.29
798.806	4080.59
799.196	4095.75
799.586	4091.45
799.976	4034.29
800.366	4127.98
800.756	4229.23
801.146	4174.96
801.536	4161.72
801.926	4171.9
802.316	4161.9
802.706	4175.21
803.095	4086.41
803.485	4124.79
803.874	4125.81
804.264	4243.56
804.653	4212.94
805.043	4267.12
805.432	4303.27
805.821	4278
806.21	4256.21
806.599	4278.89
806.988	4260.14
807.377	4269.73
807.766	4282.35
808.155	4369.97
808.544	4185.57
808.933	4128.06
809.321	4058.21
809.71	4121.97
810.098	4113.76
810.487	4232.88
810.875	4346.99
811.264	4252.78
811.652	4260.63
812.04	4199.54
812.428	4139.8
812.816	4295.44
813.204	4314.54
813.592	4366.09
813.98	4353.9
814.368	4209.89
814.756	4263.15
815.144	4138.83
815.531	4202.23
815.919	4111.58
816.306	4153.15
816.694	4018.85
817.081	4021.15
817.469	4124.61
817.856	4143.19
818.243	4242.49
818.63	4369.27
819.017	4240.95
819.404	4234.09
819.791	4295.33
820.178	4407.87
820.565	4425.49
820.952	4655.16
821.339	4479.13
821.725	4497.09
822.112	4246.87
822.498	4189.85
822.885	4182.25
823.271	4133.2
823.657	4253.26
824.044	4282.65
824.43	4331.29
824.816	4327.51
825.202	4189.62
825.588	4430.08
825.974	4384.89
826.36	4462.03
826.746	4420.15
827.132	4466.68
827.517	4412.01
827.903	4159.18
828.289	4126.64
828.674	3892.82
829.06	3838.19
829.445	3908.03
829.83	3968.13
830.216	4059.51
830.601	4129.54
830.986	4009.99
831.371	3957.29
831.756	4074.84
832.141	3966.29
832.526	3951.73
832.911	4014.4
833.295	3978.79
833.68	4082.48
834.065	3938.92
834.449	3723.91
834.834	3703.65
835.218	3701.58
835.603	3778.26
835.987	3721.09
836.371	3908.76
836.755	3874.68
837.139	3952.87
837.524	3996.36
837.908	3945.76
838.291	3944.72
838.675	3942.22
839.059	3976.08
839.443	3958.58
839.827	3889.68
840.21	3979.65
840.594	3922.9
840.977	3944.85
841.361	3916.91
841.744	3979.66
842.127	3925.47
842.511	3959.2
842.894	4076.77
843.277	4140.53
843.66	4236.9
844.043	4232.76
844.426	4040.18
844.809	3953.14
845.191	3945.44
845.574	3833.03
845.957	3735.36
846.339	3683.48
846.722	3543.37
847.104	3513.26
847.487	3439.35
847.869	3409.88
848.252	3432.75
848.634	3466.67
849.016	3489.74
849.398	3481.91
849.78	3611.93
850.162	3581.11
850.544	3623.95
850.926	3691.04
851.307	3631.26
851.689	3637.31
852.071	3671.08
852.452	3694.66
852.834	3660.45
853.215	3697.37
853.597	3696.02
853.978	3723.73
854.359	3778.98
854.741	3609.81
855.122	3606.54
855.503	3572.6
855.884	3610.03
856.265	3609.17
856.646	3625.67
857.026	3552.56
857.407	3534.97
857.788	3554.75
858.169	3584.37
858.549	3430.85
858.93	3510.68
859.31	3497.67
859.69	3516.65
860.071	3434.42
860.451	3381.19
860.831	3245.59
861.211	3412.64
861.591	3480.72
861.971	3451.39
862.351	3461.48
862.731	3483.59
863.111	3485.34
863.491	3493.13
863.87	3577.95
864.25	3586.07
864.629	3484.47
865.009	3519.16
865.388	3608.78
865.768	3823.61
866.147	3777.65
866.526	3537.62
866.905	3571.48
867.284	3765.19
867.663	3573.07
868.042	3423.18
868.421	3408.61
868.8	3458.1
869.179	3488.46
869.558	3282.64
869.936	3026.13
870.315	3067.98
870.693	3138.06
871.072	3368.25
871.45	3192.36
871.828	3221.02
872.207	3370.94
872.585	3304.76
872.963	3382.37
873.341	3258.96
873.719	3205.28
874.097	3149.08
874.475	3192.93
874.853	3254.86
875.23	3110.2
875.608	3235.14
875.986	3487.57
876.363	3325.46
876.741	3418.65
877.118	3322.28
877.495	3454.81
877.873	3490.4
878.25	3651.71
878.627	3492.54
879.004	3517.21
879.381	3474.2
879.758	3365.06
880.135	3117.27
880.512	3279.03
880.889	3175.67
881.265	3123.04
881.642	3083.39
882.019	3125.04
882.395	3056.9
882.772	3166.04
883.148	3020.31
883.524	2996.37
883.901	2965.03
884.277	2992.95
884.653	2956.52
885.029	3022.38
885.405	3331.63
885.781	3290.19
886.157	3141.78
886.532	3157.75
886.908	3135.94
887.284	3464.57
887.659	3564.87
888.035	3659.29
888.411	3739.22
888.786	3770.07
889.161	3879.67
889.537	3779.48
889.912	3876.83
890.287	3838.18
890.662	3903.12
891.037	3788.72
891.412	3492.27
891.787	3403.14
892.162	3233.42
892.536	3249.78
892.911	3072.97
893.286	2942.84
893.66	2766.42
894.035	2768.01
894.409	2932.67
894.784	2748.82
895.158	2731.52
895.532	2819.85
895.906	2830.74
896.281	2820.94
896.655	2711.89
897.029	3012.39
897.402	3069.42
897.776	3337.6
898.15	3271.03
898.524	3197.7
898.898	3189.13
899.271	3521.2
899.645	3024.21
900.018	2881.11
900.392	2993.14
900.765	3021.16
901.138	2837.5
901.511	2826.6
901.884	2646.84
902.258	2479.31
902.631	2600.98
903.003	3031.05
903.376	2766.82
903.749	3138.63
904.122	3374.17
904.495	3709.57
904.867	3744.55
905.24	3219.26
905.612	2970.26
905.985	2980.09
906.357	3064.43
906.729	2871.36
907.102	2416.54
907.474	2285.67
907.846	2257.11
908.218	2198.73
908.59	1934
908.962	1861.48
909.334	1994.84
909.705	2083.76
910.077	2013.12
910.449	2071.91
910.82	2118.09
911.192	2310.05
911.563	2400.26
911.935	2552.8
912.306	2546.55
912.677	2600.85
913.048	2555.47
913.419	2750.53
913.79	2734.84
914.161	2920.05
914.532	2801.43
914.903	2563.16
915.274	2427.78
915.645	2379.33
916.015	2091.38
916.386	2003.9
916.756	2130.46
917.127	2206.85
917.497	1993.98
917.868	2196.83
918.238	2107.4
918.608	2191.97
918.978	2268.09
919.348	2430.95
919.718	2543.55
920.088	2480.13
920.458	2593.7
920.828	2743.48
921.198	2611.21
921.567	2786.72
921.937	2156.77
922.306	2171.98
922.676	2311.97
923.045	1933.21
923.415	1835.99
923.784	1661.32
924.153	1700.94
924.522	1690.28
924.891	1581.46
925.26	1673.78
925.629	1602.21
925.998	1813.22
926.367	1745.34
926.736	1648.96
927.104	1900.09
927.473	1980.13
927.842	2308.16
928.21	2203.15
928.578	2203.23
928.947	2009.37
929.315	1941.1
929.683	2197.4
930.051	2101.2
930.42	2280.91
930.788	1837.96
931.156	1713.55
931.523	1523.36
931.891	1324.66
932.259	1216.84
932.627	1356.87
932.994	1814.82
933.362	1455.23
933.729	1208.63
934.097	1128.43
934.464	969.16
934.831	1078.24
935.199	1055.72
935.566	1027.79
935.933	1025.86
936.3	1248.62
936.667	994.64
937.034	949.52
937.401	957.07
937.767	863.65
938.134	794.69
938.501	1132.63
938.867	1299.69
939.234	2272.31
939.6	1956.54
939.967	2319.96
940.333	1605.67
940.699	1389.47
941.065	1112.23
941.431	1511.68
941.798	1519.7
942.163	2054.63
942.529	1307.72
942.895	1195.35
943.261	794.89
943.627	1047.33
943.992	910.58
944.358	899.6
944.723	935.07
945.089	916.19
945.454	830.98
945.82	868.14
946.185	814.02
946.55	955.32
946.915	857.37
947.28	1016.1
947.645	912.21
948.01	855.42
948.375	898.2
948.74	1017.1
949.104	1160.43
949.469	1597.71
949.834	2762.92
950.198	2709.25
950.562	1617.32
950.927	1340.32
951.291	1584.17
951.655	1335.05
952.02	1228.04
952.384	930.16
952.748	851.78
953.112	860.77
953.476	773.67
953.839	715.27
954.203	706.1
954.567	887.35
954.931	1364.24
955.294	1158.31
955.658	1154.99
956.021	2000.84
956.385	3357.22
956.748	4895.77
957.111	7433.29
957.474	8192.81
957.837	9117.68
958.2	6945.97
958.563	2425.43
958.926	1729.26
959.289	2594.69
959.652	2933.93
960.015	2177.6
960.377	3115.85
960.74	3575.13
961.102	5934.59
961.465	6563.86
961.827	3808.49
962.189	7113.65
962.552	5057.82
962.914	3996.34
963.276	2641.16
963.638	2203.36
964	2178.09
964.362	1524.55
964.724	1468.75
965.085	1111.73
965.447	922.12
965.809	1006.54
966.17	1011.41
966.532	1101.99
966.893	1034.15
967.255	945.73
967.616	1114.15
967.977	923.4
968.338	1015.4
968.699	868.06
969.061	875.52
969.421	895.6
969.782	1021.18
970.143	902.82
970.504	969.85
970.865	1107.86
971.225	1175.89
971.586	1175.92
971.946	1665.18
972.307	1443.01
972.667	1875.39
973.027	1909.12
973.388	2287.38
973.748	1584.46
974.108	1721.79
974.468	2224.24
974.828	1746.41
975.188	1310.25
975.548	1192.75
975.907	1002.19
976.267	1148.94
976.627	983.17
976.986	1039.73
977.346	996.28
977.705	961.16
978.064	874.53
978.424	754.48
978.783	764.04
979.142	885.01
979.501	857.29
979.86	918.1
980.219	871.67
980.578	1116.41
980.937	1233.7
981.296	1107.01
981.654	1139.1
982.013	1780.08
982.371	2339.24
982.73	2211.38
983.088	2514.48
983.447	2724.91
983.805	3896.86
984.163	8202.46
984.521	8982.57
984.879	13005.28
985.237	-21621.36
985.595	21171.09
985.953	5246.89
986.311	2985.85
986.669	1756.34
987.026	1544.93
987.384	2019.92
987.741	2134.95
988.099	1571.4
988.456	1277.04
988.814	1226.55
989.171	1079.91
989.528	1032.46
989.885	1099.01
990.242	889.24
990.599	1095.52
990.956	894.6
991.313	655.34
991.67	545.06
992.027	614.48
992.383	545.43
992.74	494.34
993.096	518.13
993.453	544.86
993.809	558.49
994.165	743.46
994.522	717.92
994.878	787.61
995.234	981.95
995.59	963.96
995.946	853.07
996.302	991.78
996.658	1132.8
997.013	1223.06
997.369	1493.73
997.725	1944.84
998.08	1242.92
998.436	1805.98
998.791	2542.53
999.147	2554.19
999.502	2789.65
999.857	2008.17
1000.212	3294.65
1000.567	4693.35
1000.922	2783.86
1001.277	1789.69
1001.632	1357.04
1001.987	1785.74
1002.342	1332.45
1002.696	1071.11
1003.051	875.88
1003.406	1072.45
1003.76	1075.26
1004.114	1057.25
1004.469	895.09
1004.823	754.01
1005.177	803.38
1005.531	627.49
1005.885	573.34
1006.239	642.6
1006.593	805.69
1006.947	1080.63
1007.301	802.18
1007.655	884.85
1008.008	655.33
1008.362	752.31
1008.715	1076.01
1009.069	968.41
1009.422	1555.15
1009.776	3028.46
1010.129	1981.03
1010.482	1668.89
1010.835	1353.65
1011.188	2802.79
1011.541	2720.72
1011.894	-16479.17
1012.247	48613.91
1012.6	3310.5
1012.952	2168.36
1013.305	1077.25
1013.657	805.58
1014.01	785.75
1014.362	640.3
1014.715	633.35
1015.067	588.03
1015.419	553.26
1015.771	511.24
1016.123	469.76
1016.475	482.7
1016.827	512.69
1017.179	558.22
1017.531	557.93
1017.883	550.87
1018.234	581.86
1018.586	721
1018.938	756.1
1019.289	1064.88
1019.64	1199.75
1019.992	1082.03
1020.343	1016.03
1020.694	830.07
1021.045	736.86
1021.396	843.11
1021.747	952.16
1022.098	1070.81
1022.449	783.2
1022.8	737.11
1023.151	545.38
1023.501	492.77
1023.852	548.33
1024.202	569.67
1024.553	623.39
1024.903	638.92
1025.253	567.59
1025.604	511.67
1025.954	636.52
1026.304	749
1026.654	875.32
1027.004	1224.98
1027.354	1920.9
1027.703	1838.43
1028.053	2398.6
1028.403	3616.55
1028.753	5100.63
1029.102	6757.08
1029.452	34711.83
1029.801	1510.42
1030.15	994.02
1030.499	814.27
897.758	1384.91
901.051	1338.71
904.343	1365.12
907.636	1367.22
910.928	1404.19
914.22	1358.21
917.511	1365.17
920.803	1390.13
924.094	1386.97
927.384	1393.5
930.675	1368.9
933.965	1350.46
937.255	1371.56
940.544	1352.33
943.834	1351.53
947.123	1317.35
950.411	1369.38
953.7	1360.72
956.988	1354.38
960.276	1307.28
963.563	1331.55
966.851	1338.89
970.138	1360.64
973.424	1362.32
976.711	1329.56
979.997	1358.94
983.283	1383.82
986.568	1345.37
989.853	1333.95
993.138	1346.21
996.423	1404.03
999.708	1381.36
1002.992	1397.1
1006.275	1342.31
1009.559	1345.95
1012.842	1404.91
1016.125	1376.22
1019.408	1360.44
1022.69	1392.17
1025.972	1411.1
1029.254	1398.44
1032.536	1376.96
1035.817	1378.99
1039.098	1361.62
1042.379	1391.96
1045.659	1405.14
1048.939	1373.97
1052.219	1375.21
1055.498	1370.89
1058.778	1362.82
1062.057	1349.24
1065.335	1366.93
1068.614	1368.5
1071.892	1364.37
1075.17	1395.38
1078.447	1396.78
1081.724	1391.83
1085.001	1404.09
1088.278	1388.29
1091.554	1391.59
1094.83	1390.61
1098.106	1409.21
1101.382	1424.38
1104.657	1423.47
1107.932	1424.21
1111.206	1411.52
1114.481	1381.18
1117.755	1383.19
1121.029	1378.64
1124.302	1415.74
1127.575	1395.76
1130.848	1395.72
1134.121	1378.2
1137.393	1352.36
1140.665	1389.07
1143.937	1372.61
1147.208	1344.31
1150.48	1377.5
1153.75	1369.43
1157.021	1373
1160.291	1356.79
1163.561	1387.71
1166.831	1367.39
1170.101	1381.52
1173.37	1358.97
1176.639	1334.96
1179.907	1365
1183.176	1374.46
1186.444	1377.62
1189.711	1391.71
1192.979	1406.29
1196.246	1381.37
1199.513	1388.6
1202.78	1392.28
1206.046	1397.78
1209.312	1414.38
1212.578	1417.82
1215.843	1395.59
1219.108	1382.15
1222.373	1394.79
1225.638	1377.98
1228.902	1369.86
1232.166	1350.13
1235.43	1342
1238.693	1358.71
1241.956	1354.54
1245.219	1384.67
1248.482	1378.66
1251.744	1379.57
1255.006	1447.5
1258.268	1415.98
1261.529	1396.13
1264.79	1395.23
1268.051	1450.85
1271.312	1457.86
1274.572	1436.3
1277.832	1429.3
1281.092	1415.51
1284.351	1411.93
1287.61	1404.11
1290.869	1366.48
1294.128	1367.21
1297.386	1389.48
1300.644	1386.82
1303.902	1391.15
1307.159	1311.86
1310.416	1340.68
1313.673	1355.67
1316.93	1358.07
1320.186	1373.87
1323.442	1390.11
1326.697	1390.17
1329.953	1377.79
1333.208	1397.93
1336.463	1384.38
1339.717	1364.41
1342.972	1435.04
1346.226	1419.13
1349.479	1397.72
1352.733	1382.55
1355.986	1392.17
1359.238	1381.26
1362.491	1383.28
1365.743	1382.78
1368.995	1379.98
1372.247	1391.49
1375.498	1400.53
1378.749	1420.98
1382	1398.4
1385.251	1412.83
1388.501	1390.68
1391.751	1384.78
1395	1371.52
1398.25	1387.38
1401.499	1403.82
1404.748	1379
1407.996	1367.31
1411.244	1365.5
1414.492	1355.74
1417.74	1344.55
1420.987	1353.39
1424.234	1385.57
1427.481	1365.79
1430.728	1397.38
1433.974	1385.98
1437.22	1383.21
1440.465	1377.64
1443.711	1378.86
1446.956	1387.68
1450.201	1373.51
1453.445	1401.62
1456.689	1389.5
1459.933	1398.98
1463.177	1424
1466.42	1407.88
1469.663	1394.3
1472.906	1402.77
1476.148	1431.72
1479.391	1408.05
1482.633	1397.83
1485.874	1410.49
1489.115	1414.3
1492.356	1405.12
1495.597	1389.17
1498.838	1380.65
1502.078	1375.62
1505.318	1365.34
1508.557	1379.35
1511.797	1379.13
1515.036	1406.88
1518.274	1382.79
1521.513	1351.74
1524.751	1354.5
1527.989	1366.97
1531.227	1377.94
1534.464	1382.97
1537.701	1376.19
1540.938	1380.41
1544.174	1352.26
1547.41	1341.59
1550.646	1364.56
1553.882	1390.74
1557.117	1425.03
1560.352	1431.36
1563.587	1406.03
1566.821	1388.33
1570.055	1400.56
1573.289	1384.16
1576.523	1414.06
1579.756	1421.36
1582.989	1432.41
1586.222	1406.53
1589.454	1430.9
1592.686	1422.11
1595.918	1434.76
1599.15	1434.87
1602.381	1461.89
1605.612	1451.08
1608.843	1503.9
1612.073	1459.18
1615.303	1455.62
1618.533	1454.51
1621.762	1454.35
1624.992	1433.17
1628.221	1433.47
1631.449	1427.85
1634.678	1440.33
1637.906	1419.26
1641.134	1429.56
1644.361	1411.53
1647.588	1405.58
1650.815	1418.43
1654.042	1398.48
1657.269	1413.98
1660.495	1404.33
1663.72	1396.11
1666.946	1375.41
1670.171	1367.26
1673.396	1346.9
1676.621	1341.65
1679.845	1339.34
1683.069	1341.74
1686.293	1356.33
1689.517	1350.33
1692.74	1325.43
1695.963	1336.24
1699.185	1357.8
1702.408	1345.25
1705.63	1359.49
1708.852	1371.89
1712.073	1354.23
1715.294	1364.86
1718.515	1394.37
1721.736	1369.18
1724.956	1362.44
1728.176	1375.2
1731.396	1384.51
1734.616	1381.15
1737.835	1407.59
1741.054	1387.42
1744.272	1387.82
1747.491	1408.39
1750.709	1419.57
1753.927	1392.47
1757.144	1408.29
1760.361	1438.44
1763.578	1423.61
1766.795	1395.79
1770.011	1386.4
1773.227	1398.68
1776.443	1425.88
1779.658	1445.09
1782.874	1415.77
1786.089	1411.99
1789.303	1411.67
1792.518	1414.32
1795.732	1407.88
1798.945	1415.76
1802.159	1443.42
1805.372	1411.33
1808.585	1405.51
1811.797	1404.13
1815.01	1423.91
1818.222	1440.75
1821.434	1417.54
1824.645	1441.1
1827.856	1443.62
1831.067	1459.56
1834.278	1425.82
1837.488	1415.1
1840.698	1486.37
1843.908	1459.65
1847.117	1441.61
1850.326	1397.11
1853.535	1431.59
1856.744	1453.74
1859.952	1409.4
1863.16	1411.94
1866.368	1428.09
1869.575	1493.84
1872.782	1429.89
1875.989	1391.35
1879.196	1420.73
1882.402	1419.42
1885.608	1436.17
1888.814	1403.38
1892.019	1353.14
1895.224	1387.89
1898.429	1369.71
1901.634	1356.8
1904.838	1343.81
1908.042	1377.49
1911.246	1391.47
1914.449	1369.86
1917.652	1360.2
1920.855	1350.48
1924.058	1362.13
1927.26	1392.73
1930.462	1403.38
1933.664	1426.34
1936.865	1397.53
1940.066	1405.48
1943.267	1371.88
1946.467	1376.49
1949.668	1381.54
1952.868	1424.75
1956.067	1424.18
1959.267	1392.39
1962.466	1405.09
1965.665	1391.89
1968.863	1392.74
1972.061	1387.97
1975.259	1387.07
1978.457	1432.35
1981.654	1408.76
1984.852	1412.14
1988.048	1386.91
1991.245	1376.1
1994.441	1427.31
1997.637	1396.05
2000.833	1387.07
2004.028	1403.84
2007.223	1447.21
2010.418	1435.19
2013.613	1407.73
2016.807	1404.03
2020.001	1403.24
2023.194	1412.21
2026.388	1401.17
2029.581	1369.39
2032.774	1408.21
2035.966	1416.28
2039.158	1384.59
2042.35	1394.29
2045.542	1351.26
2048.733	1399.65
2051.924	1389.86
2055.115	1397.73
2058.306	1381.89
2061.496	1412.25
2064.686	1442.62
2067.875	1384.11
2071.065	1385.6
2074.254	1395.21
2077.442	1366.64
2080.631	1417.31
2083.819	1379.4
2087.007	1374.86
2090.195	1366.49
2093.382	1368.46
2096.569	1365.88
2099.756	1339.9
2102.942	1375.72
2106.128	1380.95
2109.314	1374.38
2112.5	1368.73
2115.685	1350.36
2118.87	1354.39
2122.055	1395.84
2125.239	1381.71
2128.424	1378.37
2131.608	1405.63
2134.791	1396.85
2137.974	1417.9
2141.157	1410.57
2144.34	1397.84
2147.523	1386.68
2150.705	1404.55
2153.887	1381.73
2157.068	1367.01
2160.25	1352.33
2163.431	1367.53
2166.611	1352.24
2169.792	1364.89
2172.972	1309.18
2176.152	1343.47
2179.331	1357.28
2182.511	1358.81
2185.69	1368.78
2188.868	1372.78
2192.047	1394.07
2195.225	1413.23
2198.403	1378.49
2201.58	1368.66
2204.758	1361.22
2207.935	1405.57
2211.111	1357
2214.288	1348.04
2217.464	1368.44
2220.64	1345.6
2223.815	1372.38
2226.991	1330.3
2230.166	1336.83
2233.34	1362.17
2236.515	1372.18
2239.689	1413.38
2242.863	1381.73
2246.036	1410.02
2249.209	1401.69
2252.382	1416.45
2255.555	1416.88
2258.727	1393.7
2261.9	1409.42
2265.071	1405.4
2268.243	1406.88
2271.414	1376.25
2274.585	1362.78
2277.756	1400.68
2280.926	1378.51
2284.096	1396.28
2287.266	1353.79
2290.436	1386.52
2293.605	1392.94
2296.774	1417.17
2299.942	1421.13
2303.111	1430.45
2306.279	1463.25
2309.447	1455.36
2312.614	1442.19
2315.781	1449.89
2318.948	1439.58
2322.115	1463.2
2325.281	1393.43
2328.447	1401.66
2331.613	1381.26
2334.779	1378.09
2337.944	1373.88
2341.109	1373.77
2344.274	1369.45
2347.438	1347.34
2350.602	1362.6
2353.766	1366.27
2356.929	1362.58
2360.092	1389.46
2363.255	1366.35
2366.418	1354.19
2369.58	1377
2372.742	1355.85
2375.904	1342.57
2379.066	1337.7
2382.227	1353.43
2385.388	1328.99
2388.548	1300.28
2391.709	1318.73
2394.869	1318.09
2398.029	1349.35
2401.188	1338.9
2404.347	1329.2
2407.506	1327.36
2410.665	1363.59
2413.823	1349.7
2416.981	1339.28
2420.139	1352.15
2423.296	1374.81
2426.453	1360.44
2429.61	1371.74
2432.767	1358.38
2435.923	1381.52
2439.079	1347.7
2442.235	1370.56
2445.391	1331.51
2448.546	1357.95
2451.701	1378.89
2454.855	1376.23
2458.009	1392.15
2461.163	1384.3
2464.317	1367.1
2467.471	1381.44
2470.624	1400.87
2473.777	1395.22
2476.929	1403.5
2480.082	1418.36
2483.234	1407.6
2486.385	1371.26
2489.537	1366.2
2492.688	1361.39
2495.839	1377.05
2498.989	1382.32
2502.14	1374.44
2505.29	1370.56
2508.439	1382.46
2511.589	1349.21
2514.738	1350.32
2517.887	1359.07
2521.035	1405.86
2524.183	1378.73
2527.331	1372.85
2530.479	1363.88
2533.627	1369.36
