Data from N_1_DEC_OH_4N_Splice17_11-20-27-230.txt Node
Date: Sat Mar 14 11:20:27 EDT 2020
User: sa697716
Spectrometer: FLMS03696
Trigger mode: 0
Integration Time (sec): 3.180400E-1
Scans to average: 20
Electric dark correction enabled: true
Nonlinearity correction enabled: true
Boxcar width: 5
XAxis mode: Wavelengths
Number of Pixels in Spectrum: 2048
>>>>>Begin Spectral Data<<<<<
187.83	-156642.05
188.298	1226.76
188.766	626.94
189.233	552.43
189.701	753.91
190.169	1132.72
190.636	381.09
191.104	276.85
191.571	53.41
192.039	-22.62
192.506	-50.74
192.974	304.56
193.441	-310.94
193.908	-38.73
194.375	-11.83
194.842	-8.76
195.31	71.51
195.777	88.99
196.244	161.38
196.711	140.33
197.177	142.48
197.644	149.86
198.111	233.87
198.578	299.48
199.045	207.81
199.511	312.56
199.978	355.63
200.445	324.6
200.911	339.24
201.378	330.22
201.844	312.39
202.31	501.7
202.777	482.07
203.243	300.58
203.709	274.7
204.176	329.84
204.642	299.32
205.108	285.47
205.574	222.69
206.04	191.76
206.506	189.75
206.972	153.05
207.438	143.77
207.903	163.75
208.369	163.62
208.835	183.85
209.301	198.11
209.766	184.11
210.232	179.67
210.697	212.82
211.163	230.71
211.628	300.96
212.094	308.21
212.559	436.68
213.024	288.17
213.49	321.17
213.955	291.93
214.42	282.8
214.885	256.47
215.35	267.18
215.815	299.31
216.28	330.86
216.745	284.02
217.21	310.27
217.675	252.62
218.14	260.58
218.604	273.12
219.069	289.55
219.534	301.56
219.998	314.63
220.463	328.95
220.927	304.7
221.392	249.64
221.856	235.86
222.32	226.3
222.785	258.2
223.249	275.22
223.713	264.05
224.177	244.07
224.642	215.55
225.106	209.6
225.57	150.94
226.034	171.31
226.497	278.85
226.961	282.63
227.425	363.04
227.889	348.7
228.353	346.41
228.816	646.3
229.28	586.98
229.744	408.16
230.207	325.65
230.671	346.75
231.134	417.46
231.597	519.62
232.061	382.79
232.524	303.57
232.987	250.29
233.45	290.35
233.914	249.2
234.377	231.35
234.84	264.85
235.303	298.15
235.766	303.13
236.229	306.57
236.691	158.31
237.154	176.57
237.617	152.2
238.08	132.35
238.542	126.33
239.005	105.83
239.468	128.26
239.93	108.24
240.393	100.56
240.855	94.61
241.317	96.02
241.78	92.23
242.242	111.1
242.704	147.15
243.166	149.52
243.629	150.95
244.091	175.11
244.553	185.47
245.015	218.96
245.477	263.23
245.939	365.44
246.4	393
246.862	417.27
247.324	388.26
247.786	386.21
248.247	439.81
248.709	364.75
249.17	290.5
249.632	313.64
250.093	382.79
250.555	340.93
251.016	250.56
251.477	246.67
251.939	266.56
252.4	274.77
252.861	308.84
253.322	314.05
253.783	346.13
254.244	400.2
254.705	249.87
255.166	186.76
255.627	170.17
256.088	237.76
256.549	241.69
257.009	218.03
257.47	229.06
257.931	160.53
258.391	126.89
258.852	165.41
259.312	176.53
259.773	207.21
260.233	214.67
260.694	203.07
261.154	210.7
261.614	214.26
262.074	180.79
262.534	199.1
262.994	206.76
263.455	244.68
263.915	200.75
264.374	180.17
264.834	212.31
265.294	216.84
265.754	224.92
266.214	209.12
266.673	180.12
267.133	212.81
267.593	183.76
268.052	210.06
268.512	184.51
268.971	281.72
269.431	339.04
269.89	300.55
270.349	442.7
270.809	495.92
271.268	445.6
271.727	858.17
272.186	580.77
272.645	414.51
273.104	260.59
273.563	365.16
274.022	193.34
274.481	183.71
274.94	147.9
275.399	107.01
275.857	83.12
276.316	85.67
276.775	88.56
277.233	94.07
277.692	135.13
278.15	175.31
278.609	220.07
279.067	202.01
279.525	209.08
279.984	243.55
280.442	287.64
280.9	383.71
281.358	277.41
281.816	280.77
282.274	269.71
282.732	236.57
283.19	241.31
283.648	205.18
284.106	217.4
284.564	176.64
285.021	182.79
285.479	126.57
285.937	69.54
286.394	70.72
286.852	54.68
287.309	66.5
287.767	98.85
288.224	114.59
288.682	124.78
289.139	153.8
289.596	160.59
290.053	152.35
290.511	188.72
290.968	284.12
291.425	347.61
291.882	348.4
292.339	306.26
292.796	277.39
293.252	225.84
293.709	187.83
294.166	172.22
294.623	183.07
295.079	165.55
295.536	182.64
295.992	165.82
296.449	167.83
296.905	153.84
297.362	169.99
297.818	177.76
298.274	198.96
298.731	192.8
299.187	185.52
299.643	193.83
300.099	259.17
300.555	280.01
301.011	245.6
301.467	289.6
301.923	307.61
302.379	288.16
302.835	275.86
303.291	274.79
303.746	301.76
304.202	375.25
304.658	325.13
305.113	223.88
305.569	222.91
306.024	208.3
306.479	147.1
306.935	152.29
307.39	140.44
307.845	131.08
308.301	159.14
308.756	138.97
309.211	139.26
309.666	160.58
310.121	222.63
310.576	200.29
311.031	191.04
311.486	203.7
311.94	176.23
312.395	203.69
312.85	318.06
313.305	655.1
313.759	7685.53
314.214	458.13
314.668	397.08
315.123	282.18
315.577	171.95
316.032	195.87
316.486	213.38
316.94	221.32
317.394	203.71
317.849	186.19
318.303	174.78
318.757	165.99
319.211	191.09
319.665	171.27
320.119	168.15
320.572	204.52
321.026	188.45
321.48	168.93
321.934	155.47
322.387	126.98
322.841	133.02
323.295	145.95
323.748	116.05
324.202	149.06
324.655	186.75
325.108	354.51
325.562	279.65
326.015	317.53
326.468	259.22
326.921	290.52
327.374	292.31
327.827	310.61
328.28	345.65
328.733	266.06
329.186	208.07
329.639	204.88
330.092	155.14
330.545	157.15
330.997	165.33
331.45	194.03
331.903	242.17
332.355	370.61
332.808	383.25
333.26	327.36
333.713	372.3
334.165	373.31
334.617	433.68
335.069	275.32
335.522	396.67
335.974	417.68
336.426	308.9
336.878	156.44
337.33	112.67
337.782	82.22
338.234	109.09
338.686	108.97
339.137	143.03
339.589	146.46
340.041	175.11
340.493	151.35
340.944	147.2
341.396	170.27
341.847	189.07
342.299	243.15
342.75	300.2
343.201	215.49
343.653	216.84
344.104	261.67
344.555	218.52
345.006	263
345.457	303.51
345.908	247.4
346.359	259.06
346.81	203.52
347.261	196.94
347.712	188.9
348.163	203.13
348.613	276.69
349.064	249.42
349.515	232.54
349.965	242.06
350.416	234.55
350.866	243.58
351.317	237.66
351.767	352.27
352.217	359.69
352.668	323.64
353.118	325.07
353.568	201.19
354.018	195.73
354.468	210.21
354.918	197.74
355.368	189.11
355.818	246.89
356.268	533.25
356.718	2472.19
357.168	818.9
357.617	437.84
358.067	470.73
358.517	447.81
358.966	509.59
359.416	608.19
359.865	627.31
360.315	669.99
360.764	352.76
361.213	226.84
361.663	180.46
362.112	176.66
362.561	232.22
363.01	168.75
363.459	149.59
363.908	134.28
364.357	138.45
364.806	145.24
365.255	103.67
365.703	94.09
366.152	96.67
366.601	98.66
367.05	132.82
367.498	141.37
367.947	141.22
368.395	125.28
368.844	129.91
369.292	113.33
369.74	107.28
370.189	152.65
370.637	177.71
371.085	154.64
371.533	185.28
371.981	95.78
372.429	106.95
372.877	100.85
373.325	105.08
373.773	73.71
374.221	57.1
374.669	50.08
375.116	53.02
375.564	44.75
376.012	54.63
376.459	61.04
376.907	95.16
377.354	90.1
377.801	104.51
378.249	122.36
378.696	148.84
379.143	258.31
379.591	266.25
380.038	358.41
380.485	325.88
380.932	306.33
381.379	340.21
381.826	312.67
382.273	187
382.72	147.56
383.166	142.87
383.613	120.99
384.06	108.41
384.506	116.77
384.953	93.17
385.4	100.78
385.846	92.57
386.292	63.81
386.739	34.06
387.185	34.77
387.631	39.73
388.078	54.51
388.524	57.72
388.97	48.88
389.416	48.49
389.862	57.13
390.308	48.66
390.754	52.33
391.2	61.48
391.645	68.98
392.091	90.92
392.537	97.64
392.983	85.11
393.428	98.75
393.874	100.37
394.319	120.12
394.765	127.84
395.21	119.5
395.655	113.04
396.101	105.34
396.546	93.32
396.991	75.72
397.436	65.98
397.881	62.57
398.326	49.57
398.771	50.04
399.216	33.57
399.661	21.67
400.106	30.35
400.551	34.28
400.995	29.94
401.44	33.77
401.885	33.48
402.329	32.62
402.774	33.87
403.218	43.63
403.663	38.69
404.107	41.81
404.551	48.07
404.995	41.23
405.44	35.06
405.884	36.3
406.328	28.25
406.772	26.73
407.216	29.83
407.66	27.36
408.104	15.73
408.547	15.61
408.991	13.6
409.435	9.8
409.879	13.37
410.322	13.66
410.766	15.6
411.209	22.05
411.653	21.96
412.096	22.72
412.54	19.8
412.983	20.29
413.426	24.28
413.869	23.66
414.312	25.12
414.756	22.75
415.199	23.24
415.642	23.23
416.085	22.38
416.527	20.58
416.97	15.77
417.413	17.65
417.856	18.86
418.298	18.19
418.741	15.76
419.184	13.4
419.626	8.26
420.069	7.58
420.511	8.57
420.953	11.28
421.396	14.37
421.838	15.66
422.28	17.4
422.722	19.74
423.164	17.35
423.606	20.02
424.048	20.61
424.49	24.01
424.932	22.5
425.374	19.04
425.816	15.4
426.258	12.77
426.699	14.48
427.141	17.11
427.582	12.69
428.024	10.57
428.465	8.45
428.907	7.45
429.348	6.26
429.789	7.17
430.231	10.15
430.672	9.53
431.113	10
431.554	7.6
431.995	2.82
432.436	5.37
432.877	6.62
433.318	9.49
433.759	10.09
434.2	9.05
434.64	9.35
435.081	8.34
435.522	10.12
435.962	9.98
436.403	12.33
436.843	11.1
437.284	8.95
437.724	7.56
438.164	3.24
438.604	3.41
439.045	7.01
439.485	8.87
439.925	9.69
440.365	9.34
440.805	9.89
441.245	10.5
441.685	11.9
442.125	12.69
442.564	13.73
443.004	15.73
443.444	15.68
443.883	14.35
444.323	11.65
444.762	6.38
445.202	4.11
445.641	5.92
446.081	4.03
446.52	4.5
446.959	4.31
447.398	5.3
447.837	4.49
448.276	3.57
448.716	4.32
449.154	3.82
449.593	7.68
450.032	9.17
450.471	5.35
450.91	4.06
451.349	6
451.787	5.04
452.226	3.12
452.664	2.67
453.103	3.36
453.541	1.48
453.98	3.33
454.418	2.91
454.856	4.6
455.295	6.29
455.733	7.64
456.171	5.82
456.609	7.44
457.047	8.89
457.485	10.7
457.923	12.11
458.361	11.39
458.798	9.72
459.236	9.42
459.674	7.08
460.111	6.85
460.549	7.18
460.987	6.85
461.424	5.46
461.862	5.82
462.299	5.75
462.736	5.55
463.173	6.21
463.611	9.44
464.048	10.11
464.485	11.33
464.922	11.68
465.359	10.74
465.796	15.28
466.233	16.87
466.67	18.42
467.106	18.79
467.543	16.62
467.98	15.96
468.416	14.75
468.853	14.14
469.29	13.56
469.726	12.47
470.162	12.55
470.599	8.54
471.035	7.45
471.471	6.05
471.907	4.24
472.344	5.38
472.78	6.26
473.216	4.69
473.652	4.93
474.088	3.22
474.523	3.46
474.959	2.66
475.395	3.22
475.831	3.11
476.266	3.2
476.702	2.82
477.138	2.77
477.573	2.5
478.008	2.95
478.444	3.33
478.879	5.41
479.314	5.83
479.75	6.46
480.185	5.3
480.62	4.94
481.055	4.3
481.49	5.77
481.925	6.28
482.36	8.14
482.795	7.83
483.229	7.38
483.664	6.79
484.099	6.59
484.534	6.33
484.968	7.39
485.403	7.37
485.837	6.19
486.271	5.82
486.706	4.96
487.14	3.08
487.574	3.27
488.009	3.33
488.443	3.11
488.877	3.97
489.311	3.16
489.745	2.86
490.179	3.11
490.613	5.29
491.046	4.67
491.48	4.69
491.914	5.23
492.348	5.09
492.781	4.94
493.215	4.85
493.648	3.98
494.082	4.12
494.515	4.5
494.948	5.43
495.382	4.04
495.815	4.47
496.248	5
496.681	4.53
497.114	3.84
497.547	4.49
497.98	5.42
498.413	6.6
498.846	7.16
499.279	6.39
499.711	5.59
500.144	5.34
500.577	6.02
501.009	5.36
501.442	6.26
501.874	7.67
502.306	7.09
502.739	8.53
503.171	7.71
503.603	7.62
504.036	7.98
504.468	8.08
504.9	8
505.332	7.71
505.764	8.44
506.196	7.53
506.627	7.45
507.059	7.96
507.491	5.87
507.923	6.12
508.354	6.95
508.786	7.06
509.217	7.08
509.649	7.7
510.08	7.27
510.512	7.97
510.943	8.88
511.374	9.08
511.805	8.36
512.237	8.14
512.668	7.82
513.099	6.47
513.53	6.44
513.961	6.83
514.391	6.91
514.822	8.37
515.253	8.33
515.684	8.3
516.114	8.32
516.545	8.77
516.975	9.25
517.406	9.38
517.836	10.23
518.267	10.2
518.697	10.63
519.127	10.71
519.558	9.7
519.988	9.21
520.418	8.9
520.848	8.23
521.278	7.84
521.708	24.2
522.138	24.71
522.567	24.22
522.997	24.62
523.427	24.44
523.857	24.83
524.286	25.36
524.716	25.44
525.145	25.74
525.575	26.44
526.004	26.19
526.433	10.69
526.863	10.13
527.292	11.54
527.721	11.49
528.15	11.41
528.579	11.57
529.008	11.38
529.437	10.71
529.866	10.25
530.295	9.94
530.724	11.3
531.152	11.33
531.581	12.1
532.01	11.98
532.438	12.21
532.867	11.98
533.295	11.78
533.723	11.72
534.152	12.29
534.58	13.33
535.008	13.58
535.436	14.23
535.865	14.05
536.293	13.6
536.721	12.93
537.149	12.88
537.576	13.38
538.004	13.32
538.432	13.11
538.86	13.25
539.287	12.55
539.715	12.94
540.143	11.97
540.57	12.15
540.998	12.69
541.425	14.01
541.852	14.07
542.28	14.05
542.707	14.35
543.134	14.59
543.561	14.52
543.988	15.06
544.415	14.53
544.842	14.38
545.269	13.84
545.696	13.72
546.123	13.31
546.549	13.8
546.976	13.63
547.403	13.59
547.829	13.03
548.256	13.26
548.682	13.36
549.108	14.17
549.535	13.64
549.961	13.7
550.387	13.79
550.813	14.47
551.24	13.73
551.666	13.61
552.092	13.41
552.518	13.38
552.943	13.42
553.369	12.68
553.795	12.51
554.221	13.24
554.646	12.95
555.072	13.19
555.498	11.88
555.923	11.81
556.349	11.89
556.774	12.03
557.199	12.12
557.625	11.77
558.05	12.18
558.475	11.83
558.9	11.88
559.325	12.88
559.75	13.02
560.175	13.22
560.6	12.91
561.025	12.14
561.449	12.54
561.874	12.69
562.299	12.97
562.723	12.66
563.148	12.57
563.572	12.11
563.997	11.55
564.421	10.38
564.846	9.74
565.27	10.21
565.694	10.71
566.118	10.16
566.542	11.19
566.966	11.36
567.39	11.74
567.814	11.68
568.238	11.69
568.662	11.69
569.086	12.1
569.509	11.96
569.933	12.72
570.357	12.4
570.78	12.03
571.204	12.13
571.627	11.71
572.05	11.4
572.474	12.44
572.897	13.01
573.32	13.53
573.743	13.47
574.166	14.36
574.589	13.4
575.012	13.26
575.435	13.19
575.858	12.65
576.281	12.99
576.704	12.72
577.126	11.21
577.549	10.41
577.972	9.52
578.394	9.16
578.817	9.98
579.239	10.14
579.661	10.98
580.084	11.66
580.506	11.29
580.928	10.66
581.35	10.5
581.772	10.78
582.194	10.75
582.616	10.34
583.038	9.97
583.46	8.71
583.882	8.63
584.303	7.18
584.725	6.63
585.147	9.9
585.568	9.97
585.99	10.4
586.411	10.78
586.833	11.32
587.254	11.99
587.675	12.34
588.096	12.1
588.518	12.19
588.939	13
589.36	13.24
589.781	9.29
590.202	10.8
590.623	10.45
591.043	9.35
591.464	9.05
591.885	9.57
592.305	9.19
592.726	9.2
593.147	9.46
593.567	10.04
593.987	9.55
594.408	9.43
594.828	7.7
595.248	8.14
595.669	9.48
596.089	9.83
596.509	9.08
596.929	8.8
597.349	8.95
597.769	8.56
598.189	8.48
598.608	8.65
599.028	8.4
599.448	8.49
599.867	8.04
600.287	6.82
600.706	6.61
601.126	6.89
601.545	7.81
601.965	7.77
602.384	7.28
602.803	7
603.222	7.49
603.641	7.38
604.061	7.51
604.48	7.37
604.898	7.6
605.317	7.6
605.736	7.43
606.155	7.48
606.574	7.34
606.992	7.49
607.411	7.47
607.829	6.84
608.248	6.99
608.666	6.15
609.085	6.55
609.503	6.56
609.921	6.86
610.339	7.03
610.758	6.52
611.176	6.77
611.594	7.11
612.012	7.41
612.43	8
612.847	8.08
613.265	9.55
613.683	9.01
614.101	9.14
614.518	8.31
614.936	7.9
615.353	8.13
615.771	8.19
616.188	8.14
616.606	7.5
617.023	7.37
617.44	7.21
617.857	6.4
618.274	6.63
618.691	6.86
619.108	7.32
619.525	7.2
619.942	7.3
620.359	6.96
620.776	7.06
621.192	7.81
621.609	8.47
622.026	9.27
622.442	9.27
622.859	8.99
623.275	8.6
623.691	8.16
624.108	8.74
624.524	8.76
624.94	9.13
625.356	9.01
625.772	8.33
626.188	7.14
626.604	6.65
627.02	6.49
627.436	6.8
627.852	8.05
628.268	8.17
628.683	7.44
629.099	6.86
629.514	5.38
629.93	5.33
630.345	5.32
630.761	5.05
631.176	4.78
631.591	6.47
632.007	7.01
632.422	5.9
632.837	5.63
633.252	6.99
633.667	7.33
634.082	8.42
634.497	8.56
634.911	10.41
635.326	10.51
635.741	10.7
636.155	9.41
636.57	9.57
636.984	9.46
637.399	10.56
637.813	9.23
638.228	9.26
638.642	9.04
639.056	8.94
639.47	7.55
639.884	8.19
640.298	7.78
640.712	8.87
641.126	8.76
641.54	9.08
641.954	6.9
642.368	7.32
642.781	9.09
643.195	9.47
643.609	9.65
644.022	9.06
644.436	8
644.849	8.06
645.262	6.56
645.676	6.18
646.089	5.96
646.502	7.96
646.915	7.3
647.328	6.6
647.741	6.44
648.154	6.06
648.567	8.32
648.98	9.6
649.393	9.71
649.805	10.67
650.218	10.66
650.631	11.15
651.043	11.03
651.456	11.81
651.868	11.63
652.28	10.69
652.693	10.27
653.105	8.84
653.517	7.53
653.929	7.48
654.341	7.87
654.753	8.02
655.165	8.17
655.577	7.99
655.989	7.95
656.401	7.12
656.813	8.97
657.224	9.42
657.636	8.79
658.047	10.8
658.459	10.66
658.87	9.18
659.282	8.46
659.693	8.34
660.104	7.82
660.515	7.68
660.926	7.1
661.338	6.84
661.749	6.37
662.159	7.08
662.57	5.79
662.981	5.99
663.392	6.11
663.803	6.42
664.213	5.76
664.624	6.17
665.035	5.73
665.445	5.95
665.855	6.46
666.266	7.09
666.676	7.08
667.086	6.44
667.497	6.33
667.907	5.89
668.317	5.7
668.727	7.67
669.137	6.64
669.547	6.61
669.956	5.93
670.366	5.14
670.776	5.34
671.186	4.85
671.595	5.46
672.005	5.64
672.414	6.62
672.824	7.37
673.233	5.2
673.642	5.43
674.052	5.37
674.461	6.4
674.87	5.99
675.279	6.85
675.688	5.47
676.097	5.75
676.506	5.61
676.915	5.28
677.323	5.26
677.732	5.68
678.141	5.19
678.549	5.24
678.958	4.26
679.366	3.75
679.775	2.54
680.183	4.78
680.592	4.76
681	5.01
681.408	4.64
681.816	4.76
682.224	4.55
682.632	6.68
683.04	7.34
683.448	7.54
683.856	9.12
684.264	10.28
684.671	9.52
685.079	8.41
685.487	8.39
685.894	9.12
686.302	8.35
686.709	9.2
687.116	8.8
687.524	9.4
687.931	10.19
688.338	10.03
688.745	8.49
689.152	8.42
689.559	10.05
689.966	11.57
690.373	12.12
690.78	13.53
691.187	13.8
691.593	14.27
692	13.75
692.407	14.66
692.813	16.65
693.22	18.08
693.626	17.13
694.032	17.73
694.439	16.99
694.845	16.88
695.251	16.21
695.657	15.69
696.063	14.1
696.469	14.54
696.875	13.86
697.281	12.35
697.687	12.18
698.093	13.31
698.498	13.32
698.904	12.69
699.31	13.08
699.715	14.89
700.12	15.37
700.526	17.19
700.931	16.49
701.337	16.99
701.742	17.41
702.147	16.86
702.552	16.85
702.957	16.37
703.362	16.42
703.767	15.87
704.172	14.03
704.577	13.27
704.981	11.93
705.386	12.34
705.791	13.54
706.195	12.79
706.6	13.25
707.004	12.04
707.408	11.45
707.813	12.67
708.217	12.94
708.621	13.51
709.025	14.19
709.43	16.2
709.834	16.86
710.237	15.4
710.641	16.08
711.045	17.14
711.449	19.23
711.853	21.64
712.256	21.3
712.66	21.59
713.064	22.17
713.467	23.56
713.87	23.64
714.274	24.85
714.677	26.88
715.08	28.19
715.484	28.31
715.887	30.53
716.29	28.91
716.693	30.56
717.096	32.62
717.499	32.35
717.901	31.26
718.304	30.44
718.707	29.4
719.109	27.82
719.512	25.86
719.915	27.14
720.317	25.6
720.719	25.66
721.122	24.75
721.524	23.95
721.926	27.55
722.328	28.18
722.731	26.78
723.133	26.15
723.535	26.43
723.937	28.36
724.338	28.61
724.74	29.59
725.142	67.16
725.544	69.37
725.945	79.81
726.347	76.14
726.748	76.53
727.15	78.97
727.551	81.92
727.952	81.41
728.354	78.59
728.755	77.74
729.156	75.63
729.557	39.55
729.958	37
730.359	26.99
730.76	27.34
731.161	26.33
731.562	26.04
731.962	24.35
732.363	24.58
732.763	25.59
733.164	23.56
733.564	24.63
733.965	25
734.365	25.53
734.766	25.74
735.166	25.72
735.566	27.1
735.966	26.99
736.366	26.46
736.766	26.27
737.166	26.37
737.566	26.93
737.966	26.4
738.365	26.84
738.765	28.1
739.165	27.95
739.564	27.37
739.964	26.32
740.363	24.81
740.763	23.71
741.162	24.88
741.561	23.72
741.96	23.78
742.36	23.09
742.759	22.9
743.158	21.58
743.557	20.92
743.955	21.19
744.354	20.9
744.753	20.73
745.152	22.32
745.55	21.48
745.949	22.2
746.348	22.45
746.746	22.22
747.144	23.08
747.543	22.16
747.941	22.16
748.339	22.35
748.737	22.89
749.136	24.75
749.534	23.04
749.932	23.83
750.33	23.96
750.727	23.8
751.125	24.02
751.523	23.34
751.921	26.54
752.318	27.24
752.716	27.98
753.113	27.24
753.511	27.43
753.908	28.91
754.305	31.36
754.703	31.7
755.1	33.1
755.497	34.09
755.894	33.56
756.291	31.4
756.688	33.28
757.085	33.23
757.482	35.77
757.878	37.29
758.275	39.09
758.672	36.15
759.068	36.73
759.465	36.41
759.861	36.17
760.258	38.92
760.654	39.81
761.05	37.47
761.447	35.5
761.843	33.23
762.239	33.66
762.635	30.89
763.031	27.55
763.427	26.85
763.822	27.27
764.218	25.8
764.614	25.17
765.01	23.79
765.405	22.25
765.801	23.72
766.196	24.11
766.592	22.41
766.987	23.25
767.382	23.75
767.778	23.77
768.173	22.74
768.568	23.04
768.963	23.29
769.358	24.59
769.753	27.04
770.148	26.46
770.542	25.57
770.937	24.62
771.332	25.35
771.726	24.5
772.121	26.67
772.515	27.65
772.91	27.85
773.304	26.82
773.699	26.14
774.093	23.89
774.487	24.1
774.881	23.75
775.275	24.42
775.669	23.18
776.063	24.37
776.457	23.99
776.851	23.9
777.245	24.99
777.638	25.72
778.032	25.47
778.425	26.56
778.819	30.18
779.212	33.02
779.606	33.75
779.999	33.68
780.392	35
780.786	33.01
781.179	32.84
781.572	32.95
781.965	34.77
782.358	36.1
782.751	35.36
783.143	31.66
783.536	30.71
783.929	30.55
784.322	31.54
784.714	29.94
785.107	30.47
785.499	32.48
785.891	32.37
786.284	30.78
786.676	30
787.068	31.34
787.46	32.66
787.852	31.06
788.245	29.35
788.636	28.31
789.028	28.95
789.42	31.68
789.812	29.92
790.204	31.38
790.595	33.89
790.987	34.06
791.378	34.66
791.77	33.67
792.161	33.99
792.553	33.9
792.944	34.11
793.335	34.11
793.726	32.22
794.117	33.4
794.508	31.61
794.899	27.95
795.29	27.34
795.681	25.64
796.072	24.81
796.463	37.96
796.853	42.23
797.244	41.57
797.634	41.29
798.025	40.99
798.415	39.75
798.806	40.93
799.196	43.23
799.586	44.51
799.976	45.42
800.366	45.36
800.756	30.58
801.146	28.04
801.536	28.96
801.926	29.3
802.316	30.03
802.706	31.48
803.095	31.42
803.485	30.61
803.874	28.54
804.264	28.88
804.653	30.35
805.043	35.05
805.432	37.83
805.821	40.49
806.21	41.82
806.599	41.27
806.988	40.52
807.377	38.38
807.766	38.24
808.155	40.51
808.544	39.62
808.933	37.03
809.321	36.1
809.71	31.84
810.098	28.52
810.487	25.94
810.875	24.98
811.264	26.47
811.652	37.16
812.04	38.86
812.428	40.14
812.816	37.93
813.204	42.82
813.592	39.86
813.98	42.91
814.368	47.61
814.756	50.07
815.144	53.94
815.531	53.79
815.919	43.4
816.306	43.64
816.694	41.9
817.081	45.7
817.469	45.32
817.856	44.11
818.243	41.92
818.63	35.12
819.017	38.08
819.404	34.46
819.791	34.09
820.178	30.4
820.565	34.49
820.952	41.8
821.339	41.88
821.725	43.97
822.112	46.27
822.498	49.77
822.885	52.54
823.271	48.28
823.657	47.25
824.044	46.98
824.43	48.29
824.816	52.18
825.202	47.34
825.588	45.4
825.974	45.77
826.36	47.02
826.746	46.05
827.132	45.35
827.517	48.32
827.903	51.14
828.289	55.13
828.674	52.75
829.06	45.14
829.445	40.67
829.83	40.27
830.216	36.72
830.601	39.88
830.986	46.63
831.371	49.38
831.756	51.18
832.141	54.69
832.526	53.14
832.911	58.39
833.295	59.18
833.68	64.47
834.065	67.39
834.449	67.17
834.834	66.37
835.218	61.18
835.603	64.62
835.987	60.36
836.371	58
836.755	58.06
837.139	54.55
837.524	50.89
837.908	47.5
838.291	50.2
838.675	49.47
839.059	46.31
839.443	45.88
839.827	39.35
840.21	39.1
840.594	38.29
840.977	38.73
841.361	39.51
841.744	39.13
842.127	39.27
842.511	36.62
842.894	36.63
843.277	34.93
843.66	31.03
844.043	35.03
844.426	38.94
844.809	33.79
845.191	34.57
845.574	36.54
845.957	38.29
846.339	39.05
846.722	37.53
847.104	38.87
847.487	36.09
847.869	41.24
848.252	40.79
848.634	39.95
849.016	45.07
849.398	42.36
849.78	39.97
850.162	46.64
850.544	47.75
850.926	46.69
851.307	42.7
851.689	47.68
852.071	42.11
852.452	42.06
852.834	39.33
853.215	40.8
853.597	40.66
853.978	46.1
854.359	41.09
854.741	39.89
855.122	39.74
855.503	39.52
855.884	38.49
856.265	42.62
856.646	40.89
857.026	43.45
857.407	44.11
857.788	43.56
858.169	40.17
858.549	44.38
858.93	45.32
859.31	45.36
859.69	50.42
860.071	53.7
860.451	53.42
860.831	54.03
861.211	50.2
861.591	45.09
861.971	41.12
862.351	38.34
862.731	32.69
863.111	32.08
863.491	32.4
863.87	28.28
864.25	24.84
864.629	31
865.009	28.82
865.388	35.5
865.768	34.58
866.147	39.37
866.526	45.79
866.905	50.73
867.284	54.54
867.663	47.57
868.042	41.61
868.421	41.9
868.8	33.09
869.179	35.61
869.558	30.2
869.936	36.05
870.315	34.65
870.693	34.15
871.072	28.5
871.45	22.64
871.828	31.07
872.207	40.11
872.585	42.18
872.963	44.3
873.341	48.42
873.719	56.4
874.097	51.99
874.475	51
874.853	44.51
875.23	46.7
875.608	53.7
875.986	54.8
876.363	53.12
876.741	60.45
877.118	66.08
877.495	64.41
877.873	60.61
878.25	63.87
878.627	64.83
879.004	67.7
879.381	62.78
879.758	61.53
880.135	57.19
880.512	54.81
880.889	42.28
881.265	33.72
881.642	30.16
882.019	28.33
882.395	32.05
882.772	36.45
883.148	43.72
883.524	45.23
883.901	42.68
884.277	43.92
884.653	42.71
885.029	46.74
885.405	54.52
885.781	56.62
886.157	51.08
886.532	45.44
886.908	39.19
887.284	36.26
887.659	43.86
888.035	48.45
888.411	48.13
888.786	53.15
889.161	51.52
889.537	46.6
889.912	43.6
890.287	47.76
890.662	49.42
891.037	45.97
891.412	39.8
891.787	31.23
892.162	31.11
892.536	32.89
892.911	32.56
893.286	31.25
893.66	32.74
894.035	38.2
894.409	35.47
894.784	38.94
895.158	42.63
895.532	48.54
895.906	54.71
896.281	53.44
896.655	57.01
897.029	60.16
897.402	64.91
897.776	61.61
898.15	57.33
898.524	65.3
898.898	66.04
899.271	69.98
899.645	71.45
900.018	65.18
900.392	68.98
900.765	58.91
901.138	60.72
901.511	53.57
901.884	63.03
902.258	62.04
902.631	66.19
903.003	67.89
903.376	69.3
903.749	71.93
904.122	78.22
904.495	74.84
904.867	67.24
905.24	61.78
905.612	65.68
905.985	58.91
906.357	55.65
906.729	55.26
907.102	59.71
907.474	50.3
907.846	49.36
908.218	46.35
908.59	56.36
908.962	63.51
909.334	68.93
909.705	78.39
910.077	76.88
910.449	83.43
910.82	84.91
911.192	94.27
911.563	108.51
911.935	101.02
912.306	98.27
912.677	89.97
913.048	94.3
913.419	92.27
913.79	80.06
914.161	82.57
914.532	80.03
914.903	60.66
915.274	46.92
915.645	45.08
916.015	32.56
916.386	33.32
916.756	33.24
917.127	33.75
917.497	34.54
917.868	38.53
918.238	40.58
918.608	40.53
918.978	40.79
919.348	31.84
919.718	29.45
920.088	52.36
920.458	57.3
920.828	53.98
921.198	47.4
921.567	43.8
921.937	45.59
922.306	35.99
922.676	34.04
923.045	47.12
923.415	59.97
923.784	60.83
924.153	68.97
924.522	72.92
924.891	71.62
925.26	76.74
925.629	73.6
925.998	75.43
926.367	81.56
926.736	99.26
927.104	112.4
927.473	108.63
927.842	119.87
928.21	99.49
928.578	86.37
928.947	80.64
929.315	81.29
929.683	110.93
930.051	114.89
930.42	121.78
930.788	77.98
931.156	73.48
931.523	111.46
931.891	107.69
932.259	119.2
932.627	162.79
932.994	221.16
933.362	212.45
933.729	205.79
934.097	191.82
934.464	186.07
934.831	225.07
935.199	229.01
935.566	184.8
935.933	165.79
936.3	187.17
936.667	141.71
937.034	196.04
937.401	172.43
937.767	138.59
938.134	119.98
938.501	133.87
938.867	162.32
939.234	220.22
939.6	177.26
939.967	246.69
940.333	179.57
940.699	137.97
941.065	61.17
941.431	120.03
941.798	153.21
942.163	261.12
942.529	169.49
942.895	139.79
943.261	104.44
943.627	149.43
943.992	141.05
944.358	136.92
944.723	169.77
945.089	157.96
945.454	127.43
945.82	121.62
946.185	103.58
946.55	125.97
946.915	110.11
947.28	128.1
947.645	115.58
948.01	126.94
948.375	139.9
948.74	144.32
949.104	162.34
949.469	196.67
949.834	314.42
950.198	358.44
950.562	266.9
950.927	221.17
951.291	281.6
951.655	241.26
952.02	162.96
952.384	137.55
952.748	142.91
953.112	174.14
953.476	156.63
953.839	140.39
954.203	142.96
954.567	151.92
954.931	180.04
955.294	152.1
955.658	132.79
956.021	251.31
956.385	310.53
956.748	427.86
957.111	324.34
957.474	324.49
957.837	275.81
958.2	28.86
958.563	30.89
958.926	89.22
959.289	119.59
959.652	162.9
960.015	125.05
960.377	215.31
960.74	182.05
961.102	261.62
961.465	406.46
961.827	554.65
962.189	1125.25
962.552	831.51
962.914	661.27
963.276	432.26
963.638	346.45
964	353.28
964.362	255.43
964.724	219.7
965.085	169.98
965.447	146.1
965.809	107.46
966.17	98.82
966.532	97.62
966.893	89.09
967.255	71.5
967.616	70.2
967.977	55.83
968.338	53.71
968.699	81.96
969.061	83.37
969.421	82.67
969.782	80.52
970.143	76.36
970.504	105.22
970.865	117.99
971.225	141.91
971.586	159.24
971.946	213.64
972.307	195.96
972.667	220.65
973.027	213.91
973.388	232.19
973.748	182.72
974.108	199.3
974.468	204.88
974.828	213.67
975.188	162.23
975.548	144.11
975.907	123.35
976.267	120.34
976.627	103.95
976.986	109.79
977.346	99.72
977.705	99.47
978.064	89.56
978.424	80.18
978.783	54.24
979.142	50.95
979.501	54.47
979.86	67.88
980.219	55.75
980.578	62.92
980.937	63.84
981.296	58.63
981.654	41.89
982.013	25.53
982.371	34.57
982.73	43.83
983.088	37.78
983.447	44.84
983.805	74.94
984.163	269.14
984.521	304.39
984.879	251.47
985.237	-554.75
985.595	460.08
985.953	199.79
986.311	94.6
986.669	73.62
987.026	76.3
987.384	68.65
987.741	18.55
988.099	53.39
988.456	51.58
988.814	85.78
989.171	82.62
989.528	64.46
989.885	69.19
990.242	80.02
990.599	78.68
990.956	61.1
991.313	54.04
991.67	55.86
992.027	86.41
992.383	77.01
992.74	67.58
993.096	74.83
993.453	80.53
993.809	72.58
994.165	77.55
994.522	114.3
994.878	139.71
995.234	180.68
995.59	175.45
995.946	106.14
996.302	132.09
996.658	154.56
997.013	142.62
997.369	223.89
997.725	311.23
998.08	203.65
998.436	139.21
998.791	140.64
999.147	104.77
999.502	126.26
999.857	84.25
1000.212	-32.51
1000.567	-99.55
1000.922	-20.45
1001.277	-61.07
1001.632	-44.99
1001.987	-83.26
1002.342	9.71
1002.696	29.26
1003.051	33.96
1003.406	37.82
1003.76	27.9
1004.114	53.08
1004.469	54.25
1004.823	58.89
1005.177	58.25
1005.531	71.81
1005.885	79.78
1006.239	88.8
1006.593	102.69
1006.947	138.5
1007.301	94.39
1007.655	116.4
1008.008	90
1008.362	82.04
1008.715	82.24
1009.069	79.95
1009.422	162.89
1009.776	286.26
1010.129	183.88
1010.482	109.69
1010.835	55.27
1011.188	155.96
1011.541	142.43
1011.894	-743.08
1012.247	2728.48
1012.6	217.58
1012.952	198.15
1013.305	21.3
1013.657	34.05
1014.01	7.16
1014.362	6
1014.715	48.03
1015.067	44.62
1015.419	39.07
1015.771	44.09
1016.123	65.87
1016.475	74.68
1016.827	62.87
1017.179	74.03
1017.531	54.52
1017.883	63.24
1018.234	120.22
1018.586	139.44
1018.938	156.9
1019.289	215.72
1019.64	221.87
1019.992	156.17
1020.343	136.96
1020.694	154.71
1021.045	153.2
1021.396	192.77
1021.747	233.11
1022.098	202.65
1022.449	136.13
1022.8	142.77
1023.151	129.18
1023.501	129.84
1023.852	141.44
1024.202	159.06
1024.553	158.67
1024.903	171.44
1025.253	160.18
1025.604	142.67
1025.954	179.45
1026.304	198.38
1026.654	191.25
1027.004	243.55
1027.354	306.52
1027.703	415.67
1028.053	511.29
1028.403	849.66
1028.753	1025.04
1029.102	1121.05
1029.452	4276.37
1029.801	132.64
1030.15	109.98
1030.499	113.98
897.758	1346.37
901.051	1303.25
904.343	1328.55
907.636	1328.36
910.928	1365.8
914.22	1320.78
917.511	1327.68
920.803	1352.92
924.094	1345.88
927.384	1350.89
930.675	1328.65
933.965	1310.82
937.255	1329.37
940.544	1310.05
943.834	1312.77
947.123	1277.24
950.411	1328
953.7	1318.57
956.988	1311.5
960.276	1269.85
963.563	1293.77
966.851	1300.2
970.138	1321.55
973.424	1324.07
976.711	1294.07
979.997	1319.74
983.283	1343.62
986.568	1306.13
989.853	1295.86
993.138	1308.78
996.423	1363.35
999.708	1339.7
1002.992	1355.24
1006.275	1303.76
1009.559	1307.66
1012.842	1363.76
1016.125	1337.66
1019.408	1323.77
1022.69	1353.29
1025.972	1370.08
1029.254	1357.7
1032.536	1337.14
1035.817	1341.54
1039.098	1323.97
1042.379	1350.98
1045.659	1362.88
1048.939	1331.3
1052.219	1333.09
1055.498	1328.72
1058.778	1322.16
1062.057	1310.43
1065.335	1326.61
1068.614	1326.86
1071.892	1321.67
1075.17	1353.46
1078.447	1356
1081.724	1351.55
1085.001	1365.13
1088.278	1348.78
1091.554	1350.74
1094.83	1350.52
1098.106	1367.49
1101.382	1382.32
1104.657	1383.08
1107.932	1382.64
1111.206	1368.32
1114.481	1340.65
1117.755	1342
1121.029	1337.31
1124.302	1371.2
1127.575	1354.47
1130.848	1353.23
1134.121	1337.9
1137.393	1312.49
1140.665	1347.73
1143.937	1331.82
1147.208	1307.02
1150.48	1337.1
1153.75	1330.19
1157.021	1333.39
1160.291	1319.61
1163.561	1348.22
1166.831	1328.2
1170.101	1341.03
1173.37	1320.17
1176.639	1296.91
1179.907	1327.17
1183.176	1332.83
1186.444	1338
1189.711	1351.8
1192.979	1365.4
1196.246	1339.92
1199.513	1348.88
1202.78	1352.08
1206.046	1356.24
1209.312	1374.39
1212.578	1378.35
1215.843	1353.52
1219.108	1344.38
1222.373	1354.22
1225.638	1338.05
1228.902	1330.2
1232.166	1312.79
1235.43	1303.58
1238.693	1319.24
1241.956	1317.92
1245.219	1344.06
1248.482	1337.5
1251.744	1340.73
1255.006	1403.69
1258.268	1375.98
1261.529	1357.2
1264.79	1354.89
1268.051	1407.8
1271.312	1415.58
1274.572	1396.12
1277.832	1387.79
1281.092	1373.84
1284.351	1371.12
1287.61	1363.67
1290.869	1329.61
1294.128	1328.9
1297.386	1348.6
1300.644	1348.03
1303.902	1350.67
1307.159	1276.11
1310.416	1304.07
1313.673	1317.9
1316.93	1322.06
1320.186	1335.25
1323.442	1352.54
1326.697	1350.24
1329.953	1335.26
1333.208	1356.77
1336.463	1343.77
1339.717	1326.88
1342.972	1389.84
1346.226	1375.03
1349.479	1354.87
1352.733	1338.67
1355.986	1348.89
1359.238	1336.61
1362.491	1338.64
1365.743	1340.51
1368.995	1338.01
1372.247	1347.84
1375.498	1354.97
1378.749	1375.78
1382	1353.95
1385.251	1368.53
1388.501	1347.38
1391.751	1343.52
1395	1331
1398.25	1346.36
1401.499	1361.48
1404.748	1335.4
1407.996	1325.25
1411.244	1324.4
1414.492	1315.23
1417.74	1305.61
1420.987	1313.28
1424.234	1345.12
1427.481	1325.19
1430.728	1354.37
1433.974	1343.7
1437.22	1343.46
1440.465	1338.81
1443.711	1339.75
1446.956	1349.23
1450.201	1334.52
1453.445	1361.16
1456.689	1349.46
1459.933	1358.42
1463.177	1380.4
1466.42	1367.33
1469.663	1356.43
1472.906	1362.6
1476.148	1391.94
1479.391	1367.18
1482.633	1357.49
1485.874	1370.87
1489.115	1373.19
1492.356	1366.08
1495.597	1349.97
1498.838	1344.97
1502.078	1338.82
1505.318	1326.41
1508.557	1340.79
1511.797	1337.32
1515.036	1366.42
1518.274	1342.19
1521.513	1313.07
1524.751	1317.27
1527.989	1328.71
1531.227	1339.47
1534.464	1342.26
1537.701	1335.64
1540.938	1339.45
1544.174	1313.83
1547.41	1304.48
1550.646	1327.01
1553.882	1352.49
1557.117	1384.86
1560.352	1389.69
1563.587	1364.88
1566.821	1348.65
1570.055	1361.26
1573.289	1344.8
1576.523	1374.21
1579.756	1380.21
1582.989	1392.55
1586.222	1366.52
1589.454	1388.04
1592.686	1379.15
1595.918	1390.26
1599.15	1388.95
1602.381	1415.9
1605.612	1405.35
1608.843	1456.78
1612.073	1413.2
1615.303	1408.22
1618.533	1405.22
1621.762	1403.09
1624.992	1386.94
1628.221	1385.71
1631.449	1380.52
1634.678	1396.49
1637.906	1374.28
1641.134	1383.86
1644.361	1366.52
1647.588	1362.25
1650.815	1375.55
1654.042	1356.55
1657.269	1373.2
1660.495	1362.14
1663.72	1357.38
1666.946	1338.04
1670.171	1326.86
1673.396	1311.8
1676.621	1305.71
1679.845	1302.23
1683.069	1303.49
1686.293	1318.78
1689.517	1312.56
1692.74	1289.34
1695.963	1299.11
1699.185	1317.25
1702.408	1304.82
1705.63	1319.22
1708.852	1327.16
1712.073	1310.69
1715.294	1323.14
1718.515	1351.97
1721.736	1325.65
1724.956	1319.81
1728.176	1332.34
1731.396	1342.64
1734.616	1339.56
1737.835	1365.31
1741.054	1346.73
1744.272	1347.2
1747.491	1369.35
1750.709	1378.73
1753.927	1352.47
1757.144	1368.11
1760.361	1398.18
1763.578	1380.69
1766.795	1353.94
1770.011	1346.81
1773.227	1357.48
1776.443	1383.95
1779.658	1403.29
1782.874	1374.52
1786.089	1368.8
1789.303	1369
1792.518	1371.65
1795.732	1365.16
1798.945	1372.83
1802.159	1400.89
1805.372	1367.3
1808.585	1363.15
1811.797	1360.65
1815.01	1379.96
1818.222	1394.55
1821.434	1374.95
1824.645	1396.77
1827.856	1399.57
1831.067	1414.11
1834.278	1386.64
1837.488	1373.58
1840.698	1442.68
1843.908	1417.11
1847.117	1400.6
1850.326	1356.87
1853.535	1390.71
1856.744	1410.8
1859.952	1369.92
1863.16	1369.28
1866.368	1387.33
1869.575	1448.93
1872.782	1385.56
1875.989	1351.05
1879.196	1380.65
1882.402	1376.87
1885.608	1395.3
1888.814	1363.2
1892.019	1313.33
1895.224	1346.27
1898.429	1331.9
1901.634	1317.11
1904.838	1305.87
1908.042	1340.01
1911.246	1351.96
1914.449	1329.18
1917.652	1320.19
1920.855	1309.09
1924.058	1320.79
1927.26	1352.42
1930.462	1362.24
1933.664	1383.18
1936.865	1353.83
1940.066	1361.26
1943.267	1331.49
1946.467	1335.48
1949.668	1341.59
1952.868	1382.95
1956.067	1382.49
1959.267	1351.54
1962.466	1364.53
1965.665	1352.57
1968.863	1352.6
1972.061	1351.16
1975.259	1347.65
1978.457	1389.16
1981.654	1368.11
1984.852	1369.49
1988.048	1347.28
1991.245	1336.78
1994.441	1384.08
1997.637	1356.85
2000.833	1346.89
2004.028	1364.63
2007.223	1404.99
2010.418	1394.2
2013.613	1368.27
2016.807	1364.06
2020.001	1361.83
2023.194	1370.39
2026.388	1360.73
2029.581	1331.78
2032.774	1366.73
2035.966	1374.38
2039.158	1343.22
2042.35	1353.2
2045.542	1311.79
2048.733	1358.1
2051.924	1350.21
2055.115	1358.63
2058.306	1342.91
2061.496	1370.73
2064.686	1398.34
2067.875	1342.78
2071.065	1342.71
2074.254	1351.95
2077.442	1326.03
2080.631	1373.4
2083.819	1337.02
2087.007	1330.16
2090.195	1323.28
2093.382	1326.95
2096.569	1324.03
2099.756	1302.73
2102.942	1336.59
2106.128	1341.72
2109.314	1338.48
2112.5	1331.71
2115.685	1313.85
2118.87	1317.4
2122.055	1359.49
2125.239	1343.74
2128.424	1338.66
2131.608	1367.88
2134.791	1354.39
2137.974	1376.2
2141.157	1369.69
2144.34	1353.77
2147.523	1345.14
2150.705	1363.34
2153.887	1341.82
2157.068	1325.48
2160.25	1315.03
2163.431	1328.55
2166.611	1311.2
2169.792	1327.57
2172.972	1268.42
2176.152	1306.29
2179.331	1317.86
2182.511	1317.45
2185.69	1326.43
2188.868	1328.2
2192.047	1350.23
2195.225	1366.05
2198.403	1335.06
2201.58	1326.76
2204.758	1317.72
2207.935	1363.73
2211.111	1311.56
2214.288	1305.67
2217.464	1325.01
2220.64	1303.72
2223.815	1331.16
2226.991	1290.2
2230.166	1296.72
2233.34	1320.88
2236.515	1328.99
2239.689	1368.7
2242.863	1339.6
2246.036	1369.36
2249.209	1360.09
2252.382	1374.36
2255.555	1376.15
2258.727	1352.58
2261.9	1368.38
2265.071	1365.01
2268.243	1364.92
2271.414	1336.04
2274.585	1323.61
2277.756	1358.63
2280.926	1336.61
2284.096	1353.3
2287.266	1312.97
2290.436	1342.71
2293.605	1350.32
2296.774	1371.95
2299.942	1377.36
2303.111	1387.3
2306.279	1417.31
2309.447	1410.74
2312.614	1397.48
2315.781	1406.3
2318.948	1397.37
2322.115	1419.27
2325.281	1357.03
2328.447	1362.66
2331.613	1344.77
2334.779	1340.31
2337.944	1336.05
2341.109	1338.58
2344.274	1330.97
2347.438	1311.38
2350.602	1325.89
2353.766	1328.81
2356.929	1324.68
2360.092	1350.04
2363.255	1327.82
2366.418	1314.96
2369.58	1336.82
2372.742	1318.57
2375.904	1304.79
2379.066	1300.74
2382.227	1314.72
2385.388	1290.33
2388.548	1264.52
2391.709	1282.1
2394.869	1278.09
2398.029	1310.21
2401.188	1299.96
2404.347	1290.32
2407.506	1286.78
2410.665	1321.47
2413.823	1309.92
2416.981	1300.46
2420.139	1311.52
2423.296	1334.18
2426.453	1319.71
2429.61	1332.39
2432.767	1317.88
2435.923	1339.92
2439.079	1308.36
2442.235	1329.44
2445.391	1294.39
2448.546	1317.78
2451.701	1338.04
2454.855	1335.6
2458.009	1350.08
2461.163	1344.09
2464.317	1325.63
2467.471	1339.69
2470.624	1360.62
2473.777	1353.74
2476.929	1362.88
2480.082	1373.74
2483.234	1366.39
2486.385	1330.59
2489.537	1326.84
2492.688	1321.59
2495.839	1334.87
2498.989	1340.53
2502.14	1332.54
2505.29	1325.03
2508.439	1340.59
2511.589	1308.58
2514.738	1310.45
2517.887	1318.23
2521.035	1362.57
2524.183	1336.1
2527.331	1330.33
2530.479	1323.97
2533.627	1328.34
