Data from N_1_DIV_WI_4N_Splice17_11-32-14-507.txt Node
Date: Sat Mar 14 11:32:14 EDT 2020
User: sa697716
Spectrometer: FLMS03696
Trigger mode: 0
Integration Time (sec): 3.180400E-1
Scans to average: 20
Electric dark correction enabled: true
Nonlinearity correction enabled: true
Boxcar width: 5
XAxis mode: Wavelengths
Number of Pixels in Spectrum: 2048
>>>>>Begin Spectral Data<<<<<
187.83	-182447.48
188.298	1304.36
188.766	663.41
189.233	631.13
189.701	750.5
190.169	1067.32
190.636	371.52
191.104	320.96
191.571	8.28
192.039	-37.82
192.506	-105.11
192.974	160.71
193.441	-501.46
193.908	-133.64
194.375	6.36
194.842	-59.98
195.31	-51.14
195.777	52.64
196.244	172.62
196.711	76.58
197.177	62.2
197.644	19.96
198.111	45.89
198.578	45.85
199.045	-8.54
199.511	-38.45
199.978	-86.43
200.445	-36.02
200.911	-57.06
201.378	-161.01
201.844	-112.33
202.31	-226.72
202.777	-218.85
203.243	-133.36
203.709	-100.12
204.176	-82.54
204.642	-55.34
205.108	-40.19
205.574	-36.65
206.04	-53.38
206.506	-24.71
206.972	-36.47
207.438	-27.63
207.903	-44.06
208.369	-10.17
208.835	-2.18
209.301	-8.77
209.766	-27.07
210.232	-33.13
210.697	-50.97
211.163	-84.91
211.628	-181.1
212.094	-101.57
212.559	-53.66
213.024	-27.83
213.49	-17.98
213.955	-50.47
214.42	-58.81
214.885	-43.72
215.35	-25.61
215.815	39.73
216.28	55.43
216.745	47.01
217.21	55.76
217.675	22.7
218.14	33.19
218.604	9.86
219.069	35.34
219.534	66.95
219.998	54.2
220.463	71.44
220.927	-1.99
221.392	-3.59
221.856	5.93
222.32	-56.23
222.785	-67.94
223.249	-96.87
223.713	-101.03
224.177	-101.12
224.642	-190.92
225.106	-230.22
225.57	-270.61
226.034	-101.87
226.497	-117.55
226.961	-51.85
227.425	10.03
227.889	27.7
228.353	27.97
228.816	26.03
229.28	67.48
229.744	-14.04
230.207	76.54
230.671	46.34
231.134	-103.43
231.597	-133.7
232.061	-249.16
232.524	-260.26
232.987	-178.4
233.45	-121.57
233.914	-116.1
234.377	-174.52
234.84	-139.62
235.303	-226.81
235.766	-225.59
236.229	-224.23
236.691	-152.19
237.154	-178.26
237.617	-131.95
238.08	-157.31
238.542	-208.14
239.005	-145.19
239.468	-124.56
239.93	-102.28
240.393	-82.45
240.855	-67.83
241.317	-80.56
241.78	-115.05
242.242	-89.99
242.704	-52.64
243.166	-24.08
243.629	9.4
244.091	16.07
244.553	22.92
245.015	35.81
245.477	32.45
245.939	36.84
246.4	56.55
246.862	96.35
247.324	91.33
247.786	30.45
248.247	-45.64
248.709	-172.6
249.17	-108.39
249.632	-45.26
250.093	-25.56
250.555	-22.33
251.016	16.8
251.477	37.13
251.939	24.41
252.4	8.64
252.861	-24.92
253.322	3.8
253.783	-34.08
254.244	-93.03
254.705	-131.11
255.166	-168.38
255.627	-154.74
256.088	-230.22
256.549	-282.92
257.009	-249.35
257.47	-302.57
257.931	-236.33
258.391	-152.98
258.852	-128.43
259.312	-145.27
259.773	-187.64
260.233	-96.6
260.694	-71.43
261.154	-88.44
261.614	-24.74
262.074	-17.24
262.534	-9.5
262.994	17.7
263.455	-3.84
263.915	18.26
264.374	26.16
264.834	29.65
265.294	11.03
265.754	22.39
266.214	11.42
266.673	2.95
267.133	-7.3
267.593	-13.01
268.052	-3.51
268.512	-13.63
268.971	30.31
269.431	79.4
269.89	82.3
270.349	98.14
270.809	122.28
271.268	163.79
271.727	217.8
272.186	158.88
272.645	115.96
273.104	21.22
273.563	32.59
274.022	-66.99
274.481	-79.07
274.94	-67.09
275.399	-50.93
275.857	-96.83
276.316	-182.67
276.775	-162.49
277.233	-156.03
277.692	-127.24
278.15	-111.38
278.609	-63.11
279.067	-70.74
279.525	-37.03
279.984	-66.32
280.442	-72.44
280.9	13.49
281.358	38.01
281.816	47.67
282.274	27.13
282.732	-14.69
283.19	-32.05
283.648	-47.82
284.106	-39.79
284.564	-61.68
285.021	-29.44
285.479	-23.95
285.937	-50.83
286.394	-43.52
286.852	-52.8
287.309	-53.52
287.767	0.55
288.224	18.11
288.682	17.49
289.139	16.07
289.596	19.6
290.053	-2.47
290.511	-32.12
290.968	-9.26
291.425	-40.89
291.882	20.9
292.339	53.55
292.796	4.55
293.252	-7.44
293.709	19.84
294.166	27.86
294.623	23.99
295.079	14.82
295.536	43.7
295.992	28.23
296.449	27.25
296.905	37.22
297.362	47.88
297.818	39.33
298.274	44.37
298.731	22.75
299.187	36.7
299.643	39.83
300.099	53.04
300.555	57.03
301.011	84.99
301.467	150.58
301.923	123.35
302.379	119.64
302.835	104.08
303.291	99.47
303.746	117.07
304.202	117.04
304.658	101.52
305.113	94.42
305.569	92.69
306.024	66.69
306.479	3.47
306.935	25.61
307.39	-6
307.845	1.97
308.301	23.65
308.756	-7.08
309.211	-12.81
309.666	-15.63
310.121	-15.28
310.576	-44.1
311.031	-80.15
311.486	-153.18
311.94	-186.93
312.395	-258.75
312.85	-509.92
313.305	-3504.45
313.759	-11621.54
314.214	-840.15
314.668	-571.75
315.123	-436.36
315.577	-134.78
316.032	-105.77
316.486	-115.73
316.94	-32.02
317.394	-4.47
317.849	21.38
318.303	14.82
318.757	9.14
319.211	1.61
319.665	5.01
320.119	-4.33
320.572	-14.2
321.026	20.69
321.48	32.02
321.934	-10.82
322.387	-4.82
322.841	-13.93
323.295	38.31
323.748	2.83
324.202	27.54
324.655	30.99
325.108	103.05
325.562	87.97
326.015	39.26
326.468	9.73
326.921	42.63
327.374	57.8
327.827	71.66
328.28	50.88
328.733	47.89
329.186	34.98
329.639	24.77
330.092	6.24
330.545	20.25
330.997	27.72
331.45	66.73
331.903	84.89
332.355	101.74
332.808	69.66
333.26	41.07
333.713	41.43
334.165	31.46
334.617	32.31
335.069	-27.94
335.522	-175.28
335.974	-166.88
336.426	-270.05
336.878	-238.85
337.33	-110.05
337.782	-111.43
338.234	-103.81
338.686	-104.23
339.137	-117.24
339.589	-103.94
340.041	-45.7
340.493	-30.69
340.944	-30.49
341.396	-35.18
341.847	-13.97
342.299	20.14
342.75	59.44
343.201	11.07
343.653	8.02
344.104	-41.34
344.555	-33.9
345.006	-112.63
345.457	3.74
345.908	2.81
346.359	43.9
346.81	29.2
347.261	-14.27
347.712	-44.89
348.163	-45.94
348.613	-15.62
349.064	13.47
349.515	16.63
349.965	33.2
350.416	-0.58
350.866	-19.67
351.317	-39.06
351.767	-63.25
352.217	-88.69
352.668	-13.18
353.118	-5.08
353.568	-143.79
354.018	-79.86
354.468	-81.19
354.918	-56.15
355.368	-40.83
355.818	-76.64
356.268	-433.22
356.718	-1194.23
357.168	-153.25
357.617	-90.91
358.067	-126.64
358.517	-26.02
358.966	-0.49
359.416	77.65
359.865	31.43
360.315	-72.39
360.764	-3.09
361.213	25.54
361.663	-48
362.112	-101.17
362.561	-198.74
363.01	-151.24
363.459	-151.15
363.908	-224.39
364.357	-177.82
364.806	-317.37
365.255	-218.81
365.703	-157.28
366.152	-131.28
366.601	-54.99
367.05	2.81
367.498	33.81
367.947	21.47
368.395	23.41
368.844	44.68
369.292	7.7
369.74	30.75
370.189	9.18
370.637	-16.86
371.085	-20.77
371.533	-53.47
371.981	-121.63
372.429	-109.43
372.877	-110.33
373.325	-100.49
373.773	-127.67
374.221	-119.02
374.669	-164.49
375.116	-107.63
375.564	-93.16
376.012	-117.69
376.459	-81.28
376.907	-88.08
377.354	-147.8
377.801	-111.56
378.249	-112.3
378.696	-155.94
379.143	-182.44
379.591	-190.4
380.038	-419.77
380.485	-309.47
380.932	-357.04
381.379	-207.85
381.826	-76.57
382.273	-19.1
382.72	-35.27
383.166	-19.8
383.613	-0.94
384.06	-1.76
384.506	-9.23
384.953	6.28
385.4	-12.62
385.846	-1.54
386.292	-29.25
386.739	-40.16
387.185	-56.24
387.631	-58.37
388.078	-37.39
388.524	-31.56
388.97	-23.98
389.416	-11.53
389.862	-14.74
390.308	-1.52
390.754	-2.96
391.2	-3.45
391.645	-18.77
392.091	14.21
392.537	35.75
392.983	21.58
393.428	41.01
393.874	34.86
394.319	44.78
394.765	57.37
395.21	50.04
395.655	43.84
396.101	41.55
396.546	48.83
396.991	21.28
397.436	8.22
397.881	1.15
398.326	-15.81
398.771	-3.65
399.216	-13.24
399.661	-15.51
400.106	-12.23
400.551	-5.82
400.995	-3.27
401.44	-1.39
401.885	5.84
402.329	6.76
402.774	13.48
403.218	21.1
403.663	17.23
404.107	22.05
404.551	26.73
404.995	23.35
405.44	14.48
405.884	12.3
406.328	6.44
406.772	4.62
407.216	4.76
407.66	-1
408.104	-9.06
408.547	-8.06
408.991	-7.82
409.435	-9.31
409.879	-5.53
410.322	-0.83
410.766	2.27
411.209	3.59
411.653	1.7
412.096	4.72
412.54	4.55
412.983	7.18
413.426	9.24
413.869	8.37
414.312	11.62
414.756	8.07
415.199	7.56
415.642	8.24
416.085	11.55
416.527	10.71
416.97	9.08
417.413	12.73
417.856	10.85
418.298	10.36
418.741	6.85
419.184	1.83
419.626	-2.2
420.069	-2.83
420.511	-2.32
420.953	-1.26
421.396	1.78
421.838	-0.66
422.28	-2.98
422.722	-0.14
423.164	-2.81
423.606	-0.8
424.048	0.48
424.49	4.53
424.932	2.56
425.374	1.71
425.816	-2.89
426.258	-4.43
426.699	-3.66
427.141	-0.27
427.582	-3.1
428.024	-3.01
428.465	-4.69
428.907	-4.78
429.348	-6.73
429.789	-3.3
430.231	-0.29
430.672	1.42
431.113	2.12
431.554	2.62
431.995	-0.56
432.436	2.48
432.877	4.12
433.318	7.5
433.759	5.97
434.2	6.89
434.64	5.09
435.081	3.88
435.522	3.91
435.962	2.55
436.403	4.62
436.843	2.74
437.284	0.41
437.724	-2.24
438.164	-8.41
438.604	-7.06
439.045	-3.63
439.485	-1.59
439.925	-3.32
440.365	-3.48
440.805	-3.6
441.245	-3.37
441.685	-2.72
442.125	-3.88
442.564	-2.74
443.004	0.72
443.444	0.52
443.883	-1.24
444.323	-3.13
444.762	-5.21
445.202	-6.59
445.641	-4.08
446.081	-7.34
446.52	-5.82
446.959	-3.25
447.398	-1.35
447.837	-1.26
448.276	-1.99
448.716	-0.69
449.154	-1.64
449.593	0.36
450.032	1.98
450.471	-2.4
450.91	-1.28
451.349	0.33
451.787	-1.3
452.226	-3.29
452.664	-2.67
453.103	-2.61
453.541	-4.69
453.98	-1.46
454.418	-1.68
454.856	0.03
455.295	1.7
455.733	2.01
456.171	0.1
456.609	1.59
457.047	2.11
457.485	3.18
457.923	4.5
458.361	4.72
458.798	2.8
459.236	2.62
459.674	0.16
460.111	0.89
460.549	1.72
460.987	1.24
461.424	0.57
461.862	0.95
462.299	0.24
462.736	1.43
463.173	1.01
463.611	4.76
464.048	5.48
464.485	6.46
464.922	6.17
465.359	4.38
465.796	11.59
466.233	11.52
466.67	13.55
467.106	14.79
467.543	12.87
467.98	12.48
468.416	9.33
468.853	7.94
469.29	7.7
469.726	6.37
470.162	6.85
470.599	1.16
471.035	0.49
471.471	-1.22
471.907	-2.91
472.344	-3.18
472.78	-2.6
473.216	-2.52
473.652	-1.82
474.088	-3.28
474.523	-1.98
474.959	-2.52
475.395	-3.11
475.831	-2.33
476.266	-3.05
476.702	-3.45
477.138	-3
477.573	-3.13
478.008	-3.09
478.444	-2.31
478.879	0.18
479.314	0.4
479.75	0.67
480.185	1.22
480.62	0.77
481.055	0.92
481.49	1.33
481.925	2.35
482.36	4.57
482.795	3.66
483.229	2.62
483.664	1.78
484.099	1.16
484.534	1.94
484.968	2.24
485.403	2.11
485.837	1.37
486.271	1.62
486.706	0.62
487.14	-0.86
487.574	-0.39
488.009	-0.16
488.443	-0.42
488.877	0.69
489.311	-0.77
489.745	-0.73
490.179	-0.37
490.613	1.95
491.046	1.31
491.48	1.38
491.914	1.15
492.348	0.84
492.781	1.1
493.215	0.71
493.648	-0.63
494.082	0.32
494.515	0.61
494.948	1.06
495.382	-1.04
495.815	-0.54
496.248	-0.09
496.681	-0.35
497.114	-0.84
497.547	-0.7
497.98	0.37
498.413	1.94
498.846	2.05
499.279	1.04
499.711	0.45
500.144	0.7
500.577	1.18
501.009	0.38
501.442	1.97
501.874	3.17
502.306	2.77
502.739	4.39
503.171	4.2
503.603	3.98
504.036	4.3
504.468	4.04
504.9	4.57
505.332	4.09
505.764	4.82
506.196	3.69
506.627	3.16
507.059	3.11
507.491	0.9
507.923	0.76
508.354	1.86
508.786	1.65
509.217	2
509.649	2.02
510.08	1.99
510.512	2.41
510.943	2.41
511.374	2.93
511.805	2.59
512.237	1.97
512.668	1.03
513.099	-0.42
513.53	-0.38
513.961	0.14
514.391	-0.37
514.822	0.34
515.253	0.31
515.684	0.31
516.114	0.16
516.545	0.82
516.975	1.17
517.406	1.24
517.836	1.32
518.267	2.02
518.697	2.46
519.127	2.34
519.558	1.76
519.988	1.57
520.418	1.59
520.848	0.89
521.278	0.1
521.708	19.01
522.138	19.42
522.567	19.09
522.997	18.55
523.427	17.6
523.857	18.11
524.286	18.18
524.716	17.81
525.145	18.24
525.575	18.73
526.004	18.43
526.433	0.07
526.863	-0.03
527.292	0.85
527.721	1.22
528.15	1.45
528.579	1.49
529.008	1.21
529.437	0.2
529.866	-0.55
530.295	-1.02
530.724	0.3
531.152	0.4
531.581	1.06
532.01	0.9
532.438	0.59
532.867	0.25
533.295	0.33
533.723	0.67
534.152	1.49
534.58	2.16
535.008	2.66
535.436	3.17
535.865	2.84
536.293	2.14
536.721	1.54
537.149	1.75
537.576	2.83
538.004	3.36
538.432	2.44
538.86	2.72
539.287	1.96
539.715	1.8
540.143	0.72
540.57	0.79
540.998	0.39
541.425	2
541.852	1.77
542.28	0.97
542.707	0.54
543.134	1.22
543.561	1.43
543.988	2.07
544.415	2.02
544.842	1.64
545.269	1.87
545.696	2.88
546.123	2.48
546.549	2.46
546.976	2.52
547.403	2.6
547.829	1.92
548.256	1.38
548.682	1.4
549.108	1.88
549.535	2.06
549.961	1.54
550.387	1.06
550.813	1.93
551.24	2.16
551.666	1.97
552.092	1.47
552.518	1.82
552.943	2.23
553.369	1.74
553.795	1.69
554.221	1.97
554.646	2.25
555.072	3.4
555.498	1.68
555.923	0.88
556.349	0.55
556.774	0.5
557.199	0.45
557.625	-0.45
558.05	-0.12
558.475	-0.61
558.9	-0.51
559.325	-0.22
559.75	-0.85
560.175	-0.47
560.6	-0.87
561.025	-1.41
561.449	-0.98
561.874	-1.23
562.299	0.16
562.723	-0.37
563.148	-0.29
563.572	-0.73
563.997	-1.12
564.421	-2.22
564.846	-2.86
565.27	-1.89
565.694	-1.17
566.118	-1.36
566.542	-0.16
566.966	-1.09
567.39	-0.88
567.814	-0.33
568.238	-0.19
568.662	-0.47
569.086	-0
569.509	-0.18
569.933	0.83
570.357	0.95
570.78	0.85
571.204	1.41
571.627	1.36
572.05	1.62
572.474	2.2
572.897	2.6
573.32	3.57
573.743	3.72
574.166	4.54
574.589	3.47
575.012	3.41
575.435	2.96
575.858	2.01
576.281	2.55
576.704	2.4
577.126	0.94
577.549	0.27
577.972	-0.48
578.394	-0.55
578.817	0.96
579.239	0.96
579.661	0.94
580.084	2.37
580.506	2.51
580.928	1.78
581.35	1.89
581.772	2.1
582.194	2.62
582.616	2.14
583.038	1.57
583.46	0.14
583.882	0.47
584.303	-0.43
584.725	-1.9
585.147	1.87
585.568	2.73
585.99	2.37
586.411	3.02
586.833	3.68
587.254	4.6
587.675	4.11
588.096	3.68
588.518	3.47
588.939	4.21
589.36	5.2
589.781	0.34
590.202	2.45
590.623	3.08
591.043	2.27
591.464	1.57
591.885	1.64
592.305	2.11
592.726	2.32
593.147	2.78
593.567	3.43
593.987	3.17
594.408	3.28
594.828	0.61
595.248	1.14
595.669	2.67
596.089	2.57
596.509	1.91
596.929	1.89
597.349	1.95
597.769	1.54
598.189	1.08
598.608	0.52
599.028	0.28
599.448	0.16
599.867	-0.63
600.287	-1.32
600.706	-0.75
601.126	-0.6
601.545	0.53
601.965	0.28
602.384	0.31
602.803	0.34
603.222	1.07
603.641	0.82
604.061	1.54
604.48	1.21
604.898	0.32
605.317	-0.21
605.736	-0.37
606.155	-0.78
606.574	-0.77
606.992	-0.59
607.411	-0.09
607.829	-0.98
608.248	-0.6
608.666	-1.01
609.085	-0.64
609.503	-0.24
609.921	0.16
610.339	0.54
610.758	0.14
611.176	0.28
611.594	0.58
612.012	0.19
612.43	1.4
612.847	1.82
613.265	2.41
613.683	2.4
614.101	2.61
614.518	1.95
614.936	1.63
615.353	2.25
615.771	2.29
616.188	2.07
616.606	2.01
617.023	1.8
617.44	1.4
617.857	0.21
618.274	0.39
618.691	0.77
619.108	1.35
619.525	1.27
619.942	0.93
620.359	0.93
620.776	0.71
621.192	1.84
621.609	2.22
622.026	2.63
622.442	3.33
622.859	2.94
623.275	2.23
623.691	1.3
624.108	1.62
624.524	1.41
624.94	1.77
625.356	1.66
625.772	0.14
626.188	-0.89
626.604	-0.93
627.02	-1.27
627.436	-1.07
627.852	0.46
628.268	1.47
628.683	1.15
629.099	0.91
629.514	0.21
629.93	-0.33
630.345	-0.19
630.761	0.01
631.176	0.29
631.591	2.83
632.007	3
632.422	1.68
632.837	0.76
633.252	2.29
633.667	2.66
634.082	2.76
634.497	3.57
634.911	5.16
635.326	5.13
635.741	5.4
636.155	3.72
636.57	4.3
636.984	4.46
637.399	6.04
637.813	4.74
638.228	5.09
638.642	4.84
639.056	3.81
639.47	2.63
639.884	2.54
640.298	1.93
640.712	1.38
641.126	0.6
641.54	-0.18
641.954	-2.52
642.368	-2.32
642.781	-0.73
643.195	-0.62
643.609	0.68
644.022	0.14
644.436	-0.1
644.849	-0.8
645.262	-0.68
645.676	-1.7
646.089	-1.11
646.502	0.12
646.915	-0.56
647.328	-1.39
647.741	-1.21
648.154	-1.71
648.567	1.43
648.98	2.27
649.393	3.04
649.805	2.68
650.218	3.48
650.631	3.41
651.043	3.85
651.456	4.77
651.868	3.98
652.28	3.27
652.693	3.04
653.105	0.68
653.517	-0.05
653.929	-0.74
654.341	0.05
654.753	1.06
655.165	1.33
655.577	0.75
655.989	0.37
656.401	-1.37
656.813	0.09
657.224	-0.09
657.636	-0.83
658.047	0.32
658.459	1.16
658.87	-0.74
659.282	-1.86
659.693	-1.44
660.104	-0.44
660.515	0
660.926	0.67
661.338	0.55
661.749	-0.08
662.159	0.92
662.57	-0.32
662.981	-0.27
663.392	1.45
663.803	1.86
664.213	1.63
664.624	1.18
665.035	0.52
665.445	0.36
665.855	0.6
666.266	2.05
666.676	1.7
667.086	1.07
667.497	1.84
667.907	1.6
668.317	1.09
668.727	3.61
669.137	2.43
669.547	2.77
669.956	2.09
670.366	1.96
670.776	2.14
671.186	2.23
671.595	2.66
672.005	1.37
672.414	1.47
672.824	2.88
673.233	0.14
673.642	0.97
674.052	1.33
674.461	3.12
674.87	2.69
675.279	3.31
675.688	1.6
676.097	2.98
676.506	2.82
676.915	2.21
677.323	2.01
677.732	2.11
678.141	1.7
678.549	0.74
678.958	-0.88
679.366	-1.87
679.775	-3.27
680.183	-0.71
680.592	-1.05
681	-0.77
681.408	-0.26
681.816	-0.8
682.224	-0.92
682.632	-0.06
683.04	0.04
683.448	0
683.856	2.18
684.264	3.26
684.671	1.9
685.079	0.37
685.487	-1.01
685.894	-2.19
686.302	-2.92
686.709	-2.91
687.116	-2.92
687.524	-1.57
687.931	0.8
688.338	0.19
688.745	-1.71
689.152	-2.53
689.559	-1.59
689.966	1.47
690.373	2.29
690.78	3.54
691.187	3.81
691.593	3.81
692	2.5
692.407	2.14
692.813	4.61
693.22	5.86
693.626	5.58
694.032	6.59
694.439	5.46
694.845	5.56
695.251	4.79
695.657	4.99
696.063	4.19
696.469	4.24
696.875	4.24
697.281	1.52
697.687	1.28
698.093	2.13
698.498	2.16
698.904	1.18
699.31	0.89
699.715	2.89
700.12	2.5
700.526	2.97
700.931	3.31
701.337	3.25
701.742	4.07
702.147	3.68
702.552	3.85
702.957	2.43
703.362	2.69
703.767	2.16
704.172	-0.03
704.577	-0.56
704.981	-1.8
705.386	-1.87
705.791	-2.1
706.195	-3.68
706.6	-3.44
707.004	-5.66
707.408	-5.13
707.813	-4.02
708.217	-3.29
708.621	-3.19
709.025	-2.68
709.43	-0.59
709.834	-0.88
710.237	-1.02
710.641	-0.31
711.045	0.27
711.449	2.48
711.853	4.74
712.256	3.68
712.66	3.51
713.064	4.11
713.467	4.64
713.87	3.55
714.274	5.01
714.677	5.27
715.08	6.44
715.484	5.55
715.887	7.61
716.29	5.23
716.693	6.47
717.096	6.79
717.499	5.37
717.901	5.13
718.304	5.91
718.707	4.01
719.109	3.84
719.512	1.66
719.915	5.54
720.317	3.74
720.719	1.39
721.122	-0.02
721.524	1.48
721.926	5.73
722.328	4.76
722.731	3.29
723.133	4.01
723.535	3.2
723.937	3.74
724.338	2.54
724.74	2.67
725.142	50.43
725.544	53.79
725.945	64.3
726.347	61.41
726.748	62.38
727.15	64.79
727.551	67.02
727.952	65.56
728.354	63.99
728.755	62.72
729.156	61.14
729.557	16.76
729.958	13.42
730.359	2.45
730.76	1.68
731.161	1.72
731.562	-0.48
731.962	-4.12
732.363	-2.59
732.763	-1.6
733.164	-3.41
733.564	-2.13
733.965	-1.04
734.365	-0.08
734.766	-0.81
735.166	-0.9
735.566	-1.01
735.966	0.36
736.366	1.97
736.766	2.57
737.166	2.2
737.566	3.39
737.966	3.22
738.365	3.04
738.765	3.33
739.165	3.66
739.564	3.73
739.964	3
740.363	2.43
740.763	0.76
741.162	1.64
741.561	1.46
741.96	1.1
742.36	0.3
742.759	0.72
743.158	-0.97
743.557	-1.83
743.955	-1.65
744.354	-1.71
744.753	-2.18
745.152	-0.38
745.55	-2.32
745.949	-2.25
746.348	-2.12
746.746	-3.29
747.144	-1.48
747.543	-1.9
747.941	-2.09
748.339	-1.91
748.737	-0.92
749.136	-0.52
749.534	-1.87
749.932	0.55
750.33	0.49
750.727	-0.56
751.125	1.52
751.523	-0.59
751.921	2.38
752.318	3.67
752.716	5.43
753.113	4.43
753.511	4.21
753.908	5.52
754.305	8.3
754.703	8.4
755.1	9.49
755.497	9.16
755.894	8.19
756.291	6.27
756.688	6.66
757.085	4.14
757.482	6
757.878	7.82
758.275	7.79
758.672	0.07
759.068	0.13
759.465	-3.13
759.861	-6.44
760.258	-6.94
760.654	-7.36
761.05	-6.21
761.447	-4.62
761.843	-6.56
762.239	-6.02
762.635	-6.53
763.031	-8.32
763.427	-7.23
763.822	-3.04
764.218	-2.97
764.614	-3.21
765.01	-4.51
765.405	-6.49
765.801	-5.88
766.196	-5.49
766.592	-6.57
766.987	-6.24
767.382	-4.83
767.778	-5.19
768.173	-5.95
768.568	-4.75
768.963	-2.96
769.358	-1.28
769.753	0.19
770.148	1.24
770.542	1.51
770.937	1.07
771.332	0.94
771.726	0.42
772.121	3.77
772.515	3.77
772.91	3.37
773.304	3.53
773.699	2.94
774.093	1.96
774.487	0.93
774.881	0.63
775.275	1.32
775.669	0.64
776.063	-0.08
776.457	-3.05
776.851	-2.41
777.245	-2.54
777.638	-3.42
778.032	-5.3
778.425	-3.53
778.819	-0.47
779.212	1.94
779.606	4.73
779.999	4.73
780.392	7.7
780.786	6.89
781.179	7.43
781.572	7.9
781.965	7.83
782.358	9.43
782.751	7.57
783.143	4.67
783.536	3.69
783.929	-0.08
784.322	-0.89
784.714	-3.49
785.107	-2.36
785.499	-2.49
785.891	-0.83
786.284	-0.54
786.676	-1.33
787.068	0.94
787.46	1.48
787.852	0.09
788.245	-0.38
788.636	-0.02
789.028	1.75
789.42	2.95
789.812	4.16
790.204	2.62
790.595	4.73
790.987	6.5
791.378	5.58
791.77	2.93
792.161	3.27
792.553	5.03
792.944	5.39
793.335	4.15
793.726	4.64
794.117	4.74
794.508	1.7
794.899	-2.57
795.29	-2.82
795.681	-4.03
796.072	-3.24
796.463	13.02
796.853	16.93
797.244	18.3
797.634	20.1
798.025	19.1
798.415	18.07
798.806	20.93
799.196	24.22
799.586	25.07
799.976	27.43
800.366	26.97
800.756	6.4
801.146	2.07
801.536	-0.49
801.926	-1.26
802.316	-1.02
802.706	-1.27
803.095	0.56
803.485	-0.28
803.874	-1.87
804.264	-4.68
804.653	-0.94
805.043	3.98
805.432	7.97
805.821	12.89
806.21	14.13
806.599	12.41
806.988	13.18
807.377	10.87
807.766	8.99
808.155	8.85
808.544	10.29
808.933	7.86
809.321	7.87
809.71	2.56
810.098	-0.21
810.487	-5.95
810.875	-5.47
811.264	-6.73
811.652	3.92
812.04	5.93
812.428	7.88
812.816	5.24
813.204	7.8
813.592	3.66
813.98	6.2
814.368	12.52
814.756	17.34
815.144	18.03
815.531	22.61
815.919	11.55
816.306	12.53
816.694	12.53
817.081	15.1
817.469	14.56
817.856	14.98
818.243	11.47
818.63	2.66
819.017	7.06
819.404	7.72
819.791	4.37
820.178	1.08
820.565	2.32
820.952	10.22
821.339	10.81
821.725	13.52
822.112	16.04
822.498	20.08
822.885	20.94
823.271	14.03
823.657	9.44
824.044	11.98
824.43	12.74
824.816	18.41
825.202	14.35
825.588	14.02
825.974	14.26
826.36	15.15
826.746	12.24
827.132	11.56
827.517	14.8
827.903	17.77
828.289	16.44
828.674	18.84
829.06	14.23
829.445	9.99
829.83	5.6
830.216	4.02
830.601	4.77
830.986	13.59
831.371	18.61
831.756	24.52
832.141	29.76
832.526	31.23
832.911	31.43
833.295	28.55
833.68	28.4
834.065	33.27
834.449	30.72
834.834	30.42
835.218	28.59
835.603	27.1
835.987	20.41
836.371	16.55
836.755	17.54
837.139	13.05
837.524	11.39
837.908	10.65
838.291	14.08
838.675	15.07
839.059	14.81
839.443	9.86
839.827	8.21
840.21	6.17
840.594	10.05
840.977	8.26
841.361	8.78
841.744	4.91
842.127	7.72
842.511	-0.43
842.894	-1.82
843.277	-4.76
843.66	-5.99
844.043	-6.99
844.426	-0.87
844.809	-7.73
845.191	-10.01
845.574	-7.09
845.957	-2.77
846.339	-4.67
846.722	0.09
847.104	-2.41
847.487	-5.08
847.869	-3.22
848.252	0.61
848.634	-0.88
849.016	0.51
849.398	-0.82
849.78	-3.81
850.162	-2.15
850.544	-0.98
850.926	-5.56
851.307	-5.82
851.689	-0.9
852.071	-6.59
852.452	-6.84
852.834	-8.91
853.215	-7.16
853.597	-5.32
853.978	1.34
854.359	2.29
854.741	4.65
855.122	7.92
855.503	6.59
855.884	4.83
856.265	11.95
856.646	3.59
857.026	8.61
857.407	8.82
857.788	6.96
858.169	-0.94
858.549	6.93
858.93	8.05
859.31	9.9
859.69	19.74
860.071	20.88
860.451	16.46
860.831	20.52
861.211	11.8
861.591	4.46
861.971	2.9
862.351	6.6
862.731	-3.04
863.111	-7.23
863.491	-5.83
863.87	-14.97
864.25	-19.51
864.629	-7.93
865.009	-10.94
865.388	-4.94
865.768	-1.66
866.147	3.75
866.526	4.16
866.905	6.47
867.284	2.81
867.663	-1.26
868.042	-4.53
868.421	0.22
868.8	-13.71
869.179	-8.31
869.558	-9.11
869.936	-5.18
870.315	-5.31
870.693	0.21
871.072	-3.67
871.45	-1.66
871.828	3.2
872.207	7.84
872.585	7.85
872.963	7.27
873.341	12.16
873.719	22.82
874.097	20.43
874.475	14.55
874.853	8.06
875.23	11.71
875.608	10.39
875.986	3.72
876.363	5.73
876.741	13.96
877.118	23.14
877.495	21.6
877.873	11.4
878.25	11.06
878.627	15.39
879.004	11.08
879.381	7.44
879.758	16.46
880.135	16.73
880.512	15.18
880.889	2.87
881.265	-1.46
881.642	-8.31
882.019	-7.6
882.395	5.59
882.772	14.03
883.148	22.5
883.524	25.08
883.901	20.13
884.277	16.01
884.653	18.13
885.029	25.48
885.405	36.62
885.781	41.95
886.157	42.94
886.532	36.69
886.908	30.83
887.284	27.27
887.659	26.27
888.035	24.89
888.411	30.39
888.786	29.42
889.161	26.42
889.537	16.6
889.912	13.39
890.287	10.9
890.662	7.28
891.037	-0.13
891.412	-0.84
891.787	-2.94
892.162	4.64
892.536	6.75
892.911	12.43
893.286	9.25
893.66	8.64
894.035	9.56
894.409	0.34
894.784	4.53
895.158	11.48
895.532	12.01
895.906	20.48
896.281	16.74
896.655	23.96
897.029	18.02
897.402	20.8
897.776	27.15
898.15	23.65
898.524	32.89
898.898	32.47
899.271	27.96
899.645	32.3
900.018	19.43
900.392	22.63
900.765	10.79
901.138	17.79
901.511	11.82
901.884	13.48
902.258	18.23
902.631	20.86
903.003	16.3
903.376	13.47
903.749	14.56
904.122	7.83
904.495	-5.46
904.867	-15.02
905.24	-14.13
905.612	-11.85
905.985	-18.74
906.357	-31.04
906.729	-27.22
907.102	-11.93
907.474	-8.13
907.846	-1.71
908.218	8.39
908.59	27.5
908.962	29.25
909.334	31.79
909.705	40.44
910.077	40.75
910.449	46.43
910.82	46.58
911.192	41.09
911.563	50.19
911.935	34.92
912.306	28.37
912.677	12.55
913.048	25.69
913.419	14.27
913.79	1.65
914.161	0.59
914.532	14.49
914.903	18.66
915.274	13.92
915.645	14.23
916.015	11.11
916.386	18.04
916.756	20.23
917.127	8.55
917.497	20.82
917.868	35.41
918.238	34.1
918.608	22.1
918.978	14.88
919.348	10.95
919.718	9.29
920.088	14.47
920.458	18.1
920.828	-1.76
921.198	2.41
921.567	-8.01
921.937	-7.37
922.306	-21.58
922.676	-21.06
923.045	8.8
923.415	31.12
923.784	27.34
924.153	36.08
924.522	35.21
924.891	31.39
925.26	34.28
925.629	35.47
925.998	30.48
926.367	36.87
926.736	52.77
927.104	35.65
927.473	7.26
927.842	1.38
928.21	-26.55
928.578	-63.94
928.947	-36.3
929.315	-34.03
929.683	-33.62
930.051	-12.92
930.42	0.55
930.788	-2.5
931.156	1.22
931.523	39.56
931.891	42.81
932.259	71.38
932.627	123.07
932.994	162.79
933.362	156.13
933.729	132.93
934.097	119.02
934.464	113.22
934.831	110.64
935.199	93.73
935.566	90.37
935.933	56.32
936.3	46.83
936.667	21.74
937.034	99.01
937.401	104.66
937.767	92.34
938.134	77.37
938.501	73.76
938.867	104.99
939.234	164.79
939.6	115.33
939.967	171.51
940.333	121.9
940.699	87.07
941.065	-20
941.431	-52.64
941.798	-12.58
942.163	39.78
942.529	27.08
942.895	2.49
943.261	22.74
943.627	8.91
943.992	30.65
944.358	37.43
944.723	90.75
945.089	98.68
945.454	92.54
945.82	63.29
946.185	21.51
946.55	28.59
946.915	31.8
947.28	20.6
947.645	37.88
948.01	43.93
948.375	67.37
948.74	48.49
949.104	40.63
949.469	-13.34
949.834	36.69
950.198	207.76
950.562	150.03
950.927	109.33
951.291	155.73
951.655	109.94
952.02	62.89
952.384	45.53
952.748	52.5
953.112	81.39
953.476	90.38
953.839	78.79
954.203	72.65
954.567	70.35
954.931	82.69
955.294	90.43
955.658	87.65
956.021	184.52
956.385	185.66
956.748	310.86
957.111	275.11
957.474	190.22
957.837	-48.94
958.2	-216.2
958.563	-37.99
958.926	-7.05
959.289	-45.47
959.652	-35.33
960.015	-1.49
960.377	12.71
960.74	-28.03
961.102	-196.31
961.465	-14.75
961.827	404.59
962.189	873.72
962.552	597.3
962.914	485.11
963.276	319.11
963.638	271.98
964	217.45
964.362	177.47
964.724	137.86
965.085	127.05
965.447	115.53
965.809	42.9
966.17	30.27
966.532	41.31
966.893	46.71
967.255	24.57
967.616	15.57
967.977	20.92
968.338	4.91
968.699	30.5
969.061	27.72
969.421	19.12
969.782	18.13
970.143	30.23
970.504	62
970.865	75.22
971.225	109.51
971.586	108.71
971.946	133.3
972.307	122.7
972.667	127.33
973.027	132.95
973.388	123.13
973.748	117.42
974.108	127.42
974.468	46.49
974.828	105.84
975.188	74.45
975.548	54.18
975.907	56.55
976.267	60.13
976.627	70.53
976.986	72.38
977.346	54.49
977.705	60.59
978.064	48.55
978.424	42.64
978.783	4.33
979.142	0.31
979.501	20.94
979.86	25.71
980.219	10.58
980.578	-1.52
980.937	-24.54
981.296	13.86
981.654	6.24
982.013	-30.39
982.371	3.26
982.73	34.38
983.088	18.65
983.447	19.58
983.805	42.79
984.163	193.84
984.521	86.31
984.879	-132.18
985.237	350.07
985.595	-48.9
985.953	27.37
986.311	33.71
986.669	37.52
987.026	0.77
987.384	-13.09
987.741	-49.88
988.099	20.39
988.456	37.93
988.814	65.59
989.171	55.81
989.528	10.75
989.885	4.83
990.242	23.67
990.599	3.52
990.956	23.19
991.313	32.22
991.67	32.33
992.027	73.26
992.383	62.3
992.74	62.33
993.096	71.87
993.453	82.29
993.809	84.81
994.165	91.36
994.522	132.13
994.878	136.58
995.234	149.53
995.59	144.84
995.946	53.02
996.302	65.19
996.658	68.34
997.013	45.4
997.369	80.33
997.725	107.79
998.08	64.9
998.436	-86.59
998.791	-114.17
999.147	-115
999.502	-117.69
999.857	-74.62
1000.212	-196.93
1000.567	-339.84
1000.922	-68.1
1001.277	-10.92
1001.632	17.72
1001.987	-3.66
1002.342	15.87
1002.696	21.26
1003.051	40.39
1003.406	46.55
1003.76	41.97
1004.114	47.66
1004.469	46.62
1004.823	18.53
1005.177	-26.79
1005.531	-32.33
1005.885	-9.45
1006.239	6.56
1006.593	21.87
1006.947	45.83
1007.301	25.58
1007.655	19.79
1008.008	34.92
1008.362	47.98
1008.715	39.88
1009.069	67.3
1009.422	181.36
1009.776	243.16
1010.129	95.94
1010.482	2.02
1010.835	-97.6
1011.188	-211.8
1011.541	-185.66
1011.894	1423.66
1012.247	-4566.25
1012.6	-210.88
1012.952	-107.27
1013.305	-127.11
1013.657	-47.59
1014.01	-23.33
1014.362	1.96
1014.715	69.59
1015.067	79.88
1015.419	69.84
1015.771	67.35
1016.123	82.78
1016.475	85.76
1016.827	74.15
1017.179	108.89
1017.531	99.91
1017.883	80
1018.234	130.55
1018.586	125.97
1018.938	164.99
1019.289	247.87
1019.64	268.48
1019.992	194.87
1020.343	180.33
1020.694	204.26
1021.045	155.11
1021.396	186.58
1021.747	263.29
1022.098	201.41
1022.449	168.05
1022.8	137.26
1023.151	120.65
1023.501	117.36
1023.852	130.15
1024.202	145.61
1024.553	118.56
1024.903	157.09
1025.253	155.87
1025.604	135.36
1025.954	166.51
1026.304	157.83
1026.654	162.62
1027.004	194.38
1027.354	255.22
1027.703	335.5
1028.053	349.97
1028.403	585.23
1028.753	555.83
1029.102	-43.85
1029.452	-3680.6
1029.801	-220.52
1030.15	-134.78
1030.499	-141.08
897.758	1600.78
901.051	1545.81
904.343	1572.8
907.636	1577.45
910.928	1620.92
914.22	1565.22
917.511	1570.31
920.803	1604.01
924.094	1596.51
927.384	1602.83
930.675	1574.59
933.965	1551.35
937.255	1575.51
940.544	1555.37
943.834	1548.89
947.123	1508.21
950.411	1571.61
953.7	1559.86
956.988	1551.47
960.276	1498.05
963.563	1528.19
966.851	1537.61
970.138	1564.36
973.424	1566.54
976.711	1528.06
979.997	1564.77
983.283	1593.53
986.568	1546.2
989.853	1534.44
993.138	1548.72
996.423	1615.92
999.708	1588.08
1002.992	1607.83
1006.275	1542.87
1009.559	1544.29
1012.842	1615.08
1016.125	1582.46
1019.408	1566.79
1022.69	1602.35
1025.972	1626.7
1029.254	1612.36
1032.536	1588.02
1035.817	1590.25
1039.098	1566.77
1042.379	1600.19
1045.659	1618.13
1048.939	1579.2
1052.219	1580.83
1055.498	1572.68
1058.778	1565.78
1062.057	1549.19
1065.335	1566.92
1068.614	1572.55
1071.892	1565.98
1075.17	1604.99
1078.447	1608.74
1081.724	1603.61
1085.001	1619.65
1088.278	1602.54
1091.554	1605.49
1094.83	1604.14
1098.106	1624.24
1101.382	1645.88
1104.657	1642.98
1107.932	1644.71
1111.206	1626.96
1114.481	1589.84
1117.755	1594.89
1121.029	1588.75
1124.302	1631.52
1127.575	1609.13
1130.848	1607.83
1134.121	1589.87
1137.393	1557.56
1140.665	1599.39
1143.937	1584.21
1147.208	1549.77
1150.48	1592.86
1153.75	1580.46
1157.021	1583.2
1160.291	1567.85
1163.561	1605.14
1166.831	1579.75
1170.101	1594.94
1173.37	1565.9
1176.639	1537.89
1179.907	1569.74
1183.176	1583.25
1186.444	1586.81
1189.711	1602.01
1192.979	1620.39
1196.246	1588.82
1199.513	1598.48
1202.78	1601.85
1206.046	1608.89
1209.312	1630.57
1212.578	1637.75
1215.843	1610.98
1219.108	1592.13
1222.373	1608.2
1225.638	1591.33
1228.902	1583.45
1232.166	1555.67
1235.43	1548.94
1238.693	1570.41
1241.956	1565.11
1245.219	1601.08
1248.482	1589.58
1251.744	1592.36
1255.006	1672.86
1258.268	1633.26
1261.529	1608.27
1264.79	1607.31
1268.051	1671.81
1271.312	1675.96
1274.572	1651.24
1277.832	1641.57
1281.092	1625.76
1284.351	1623.08
1287.61	1613.32
1290.869	1571.01
1294.128	1571.75
1297.386	1597.39
1300.644	1592.52
1303.902	1600.23
1307.159	1509.24
1310.416	1545.49
1313.673	1566.11
1316.93	1568.22
1320.186	1585.23
1323.442	1606.3
1326.697	1609.34
1329.953	1588.85
1333.208	1616.14
1336.463	1597.96
1339.717	1575.93
1342.972	1651
1346.226	1632.63
1349.479	1604.17
1352.733	1588.92
1355.986	1597.57
1359.238	1583.51
1362.491	1585.57
1365.743	1587.43
1368.995	1584.55
1372.247	1596.15
1375.498	1606.31
1378.749	1639.53
1382	1608.04
1385.251	1626.98
1388.501	1597.14
1391.751	1596.36
1395	1579.46
1398.25	1599.42
1401.499	1619.79
1404.748	1586.54
1407.996	1573.8
1411.244	1571.81
1414.492	1560.52
1417.74	1549.68
1420.987	1555.26
1424.234	1598.86
1427.481	1570.08
1430.728	1608.62
1433.974	1594.02
1437.22	1590.92
1440.465	1587.19
1443.711	1591.48
1446.956	1602.11
1450.201	1582.77
1453.445	1612.48
1456.689	1603.4
1459.933	1611.08
1463.177	1639.14
1466.42	1621.63
1469.663	1605
1472.906	1617.74
1476.148	1650.87
1479.391	1618.38
1482.633	1605.43
1485.874	1623.43
1489.115	1629.55
1492.356	1616.14
1495.597	1598.6
1498.838	1592.51
1502.078	1582.82
1505.318	1568.71
1508.557	1586.91
1511.797	1584.68
1515.036	1625.4
1518.274	1595.07
1521.513	1554.59
1524.751	1561.26
1527.989	1577.68
1531.227	1589.54
1534.464	1597.12
1537.701	1587.38
1540.938	1592.98
1544.174	1555.41
1547.41	1545.55
1550.646	1570.13
1553.882	1604.28
1557.117	1647.79
1560.352	1650.27
1563.587	1619.61
1566.821	1598.89
1570.055	1610.42
1573.289	1593.61
1576.523	1630.62
1579.756	1640.55
1582.989	1653.77
1586.222	1621.56
1589.454	1644.96
1592.686	1635.86
1595.918	1653.8
1599.15	1654.26
1602.381	1682.51
1605.612	1671.09
1608.843	1735.44
1612.073	1681.46
1615.303	1675.77
1618.533	1673.88
1621.762	1673.39
1624.992	1651.12
1628.221	1648.26
1631.449	1641.36
1634.678	1658.15
1637.906	1634.68
1641.134	1648.76
1644.361	1626.3
1647.588	1618.43
1650.815	1636.37
1654.042	1607.73
1657.269	1627
1660.495	1616.75
1663.72	1603.94
1666.946	1581.54
1670.171	1569.01
1673.396	1549.61
1676.621	1539.91
1679.845	1534.38
1683.069	1537.06
1686.293	1554.96
1689.517	1553.19
1692.74	1524.23
1695.963	1537.62
1699.185	1567.22
1702.408	1548.36
1705.63	1567.14
1708.852	1580.8
1712.073	1557.42
1715.294	1572.2
1718.515	1607.57
1721.736	1577.92
1724.956	1564.37
1728.176	1579.63
1731.396	1594.32
1734.616	1588.33
1737.835	1620.57
1741.054	1595.65
1744.272	1591.38
1747.491	1624.87
1750.709	1635.84
1753.927	1603.98
1757.144	1621.25
1760.361	1661.27
1763.578	1642.74
1766.795	1607.26
1770.011	1597.65
1773.227	1612
1776.443	1644.48
1779.658	1673.8
1782.874	1631.97
1786.089	1628.62
1789.303	1628.31
1792.518	1629.96
1795.732	1621.9
1798.945	1631.82
1802.159	1664.51
1805.372	1626.66
1808.585	1622.58
1811.797	1623.64
1815.01	1639.84
1818.222	1660.48
1821.434	1631.49
1824.645	1658.99
1827.856	1665.9
1831.067	1685.15
1834.278	1643.15
1837.488	1631.12
1840.698	1714.8
1843.908	1681.63
1847.117	1662.12
1850.326	1613.54
1853.535	1652.97
1856.744	1681.76
1859.952	1629.26
1863.16	1631.71
1866.368	1647.93
1869.575	1730.7
1872.782	1648.85
1875.989	1605.6
1879.196	1638.44
1882.402	1633.67
1885.608	1658.07
1888.814	1621.39
1892.019	1561.79
1895.224	1603.88
1898.429	1578.87
1901.634	1567.95
1904.838	1551.94
1908.042	1595.7
1911.246	1609.16
1914.449	1585.06
1917.652	1571.01
1920.855	1557.39
1924.058	1572.66
1927.26	1608.24
1930.462	1621.1
1933.664	1650.16
1936.865	1611.35
1940.066	1623.41
1943.267	1583.25
1946.467	1588.78
1949.668	1597.79
1952.868	1649.45
1956.067	1647.03
1959.267	1602.03
1962.466	1619.13
1965.665	1605.48
1968.863	1603.77
1972.061	1601.73
1975.259	1594.13
1978.457	1647.9
1981.654	1618.61
1984.852	1620.99
1988.048	1591.83
1991.245	1577.32
1994.441	1642.85
1997.637	1605.71
2000.833	1593.56
2004.028	1616.76
2007.223	1664.11
2010.418	1656.04
2013.613	1617.92
2016.807	1617.16
2020.001	1612.77
2023.194	1626.13
2026.388	1615.2
2029.581	1574.28
2032.774	1623.09
2035.966	1629.99
2039.158	1593.27
2042.35	1607.34
2045.542	1554.55
2048.733	1613.18
2051.924	1600.84
2055.115	1611.1
2058.306	1588.06
2061.496	1627.16
2064.686	1662.98
2067.875	1590.3
2071.065	1590.99
2074.254	1602.76
2077.442	1569.98
2080.631	1629.55
2083.819	1587.56
2087.007	1583.32
2090.195	1573.49
2093.382	1579.92
2096.569	1573.22
2099.756	1545.15
2102.942	1588.21
2106.128	1597.27
2109.314	1589.97
2112.5	1581.63
2115.685	1556.1
2118.87	1561.68
2122.055	1607.07
2125.239	1595.03
2128.424	1586.66
2131.608	1621.58
2134.791	1611.08
2137.974	1634.02
2141.157	1626.54
2144.34	1608.7
2147.523	1597.7
2150.705	1621.49
2153.887	1593.24
2157.068	1577.18
2160.25	1558
2163.431	1577.29
2166.611	1558.12
2169.792	1574.58
2172.972	1509.98
2176.152	1548.8
2179.331	1566.55
2182.511	1569.12
2185.69	1581.44
2188.868	1587.84
2192.047	1610.19
2195.225	1630.86
2198.403	1586.62
2201.58	1575.13
2204.758	1564.39
2207.935	1618.03
2211.111	1559.96
2214.288	1549.69
2217.464	1574.5
2220.64	1544.24
2223.815	1577.93
2226.991	1528.97
2230.166	1536.88
2233.34	1572.41
2236.515	1582.76
2239.689	1629.53
2242.863	1593.94
2246.036	1629.94
2249.209	1617.41
2252.382	1631.57
2255.555	1637.07
2258.727	1606.45
2261.9	1627.22
2265.071	1622.9
2268.243	1622.83
2271.414	1587.2
2274.585	1576.66
2277.756	1619.62
2280.926	1588.91
2284.096	1609.24
2287.266	1560.06
2290.436	1596.86
2293.605	1607.54
2296.774	1634.76
2299.942	1639.3
2303.111	1649.14
2306.279	1687.33
2309.447	1676.23
2312.614	1659.31
2315.781	1674.94
2318.948	1658.61
2322.115	1686.49
2325.281	1607.16
2328.447	1612.14
2331.613	1591.05
2334.779	1586.58
2337.944	1583.49
2341.109	1585.75
2344.274	1579.98
2347.438	1554.73
2350.602	1571.28
2353.766	1575.99
2356.929	1570.43
2360.092	1600.85
2363.255	1578.68
2366.418	1560.9
2369.58	1592.16
2372.742	1562.83
2375.904	1545.96
2379.066	1540.31
2382.227	1556.53
2385.388	1529.11
2388.548	1501.11
2391.709	1524.13
2394.869	1520.73
2398.029	1553.04
2401.188	1543.1
2404.347	1529.92
2407.506	1530.78
2410.665	1574.15
2413.823	1555.74
2416.981	1545.74
2420.139	1556.9
2423.296	1584.41
2426.453	1565.51
2429.61	1583.06
2432.767	1569
2435.923	1599.14
2439.079	1556.27
2442.235	1579.88
2445.391	1535.85
2448.546	1570.05
2451.701	1594.14
2454.855	1592.29
2458.009	1607.21
2461.163	1599.04
2464.317	1575.85
2467.471	1594.37
2470.624	1615.08
2473.777	1609.43
2476.929	1622.32
2480.082	1638.12
2483.234	1625.36
2486.385	1578.63
2489.537	1574.17
2492.688	1573.38
2495.839	1588.31
2498.989	1598.79
2502.14	1588.51
2505.29	1583.87
2508.439	1600.26
2511.589	1560.49
2514.738	1560.17
2517.887	1570.86
2521.035	1629.07
2524.183	1595.72
2527.331	1587.31
2530.479	1582.29
2533.627	1584.02
