Data from N_1_DEC_OH_4N_Splice17_11-20-18-320.txt Node
Date: Sat Mar 14 11:20:18 EDT 2020
User: sa697716
Spectrometer: FLMS03696
Trigger mode: 0
Integration Time (sec): 3.180400E-1
Scans to average: 20
Electric dark correction enabled: true
Nonlinearity correction enabled: true
Boxcar width: 5
XAxis mode: Wavelengths
Number of Pixels in Spectrum: 2048
>>>>>Begin Spectral Data<<<<<
187.83	-149111.51
188.298	1309.46
188.766	645.47
189.233	550.63
189.701	838.72
190.169	1231.47
190.636	507.41
191.104	489.35
191.571	145.29
192.039	92.32
192.506	121.73
192.974	604.52
193.441	-431.59
193.908	-164.21
194.375	-54.31
194.842	72.44
195.31	167.89
195.777	170.31
196.244	330.46
196.711	374.49
197.177	460.26
197.644	603.6
198.111	1051.78
198.578	1406.01
199.045	1124.14
199.511	1832.41
199.978	2120.51
200.445	1788.08
200.911	1950.99
201.378	2194.9
201.844	1976.48
202.31	3354.2
202.777	3538.35
203.243	1971.99
203.709	1870.81
204.176	2200.12
204.642	1811.83
205.108	1673.74
205.574	1373.37
206.04	1266.95
206.506	1175.75
206.972	1118.92
207.438	1067.13
207.903	1203.01
208.369	1051.33
208.835	1047.94
209.301	1079.17
209.766	1091.12
210.232	1074.67
210.697	1293.98
211.163	1558.62
211.628	2301.62
212.094	1911.35
212.559	2322.35
213.024	1428.72
213.49	1700.67
213.955	1631.68
214.42	1582.84
214.885	1466.43
215.35	1379.14
215.815	1326.4
216.28	1369.23
216.745	1080.89
217.21	1110.71
217.675	951.29
218.14	1001.64
218.604	1021.46
219.069	1060.71
219.534	1025.55
219.998	1068.47
220.463	1173.33
220.927	1271.74
221.392	1108.78
221.856	1041.88
222.32	1181.87
222.785	1387.86
223.249	1617.07
223.713	1699.33
224.177	1615.59
224.642	1947.64
225.106	2246.01
225.57	2319.92
226.034	1698.84
226.497	2469.26
226.961	2173.95
227.425	2531.97
227.889	2661.24
228.353	2597.68
228.816	5163.7
229.28	4798.94
229.744	3967.08
230.207	2424.78
230.671	2343.15
231.134	3662.98
231.597	4193.77
232.061	4089.84
232.524	3834.5
232.987	2620.88
233.45	2304.19
233.914	2018.06
234.377	2010.9
234.84	1803.93
235.303	2056.14
235.766	2262.97
236.229	2314.32
236.691	1401.1
237.154	1559.47
237.617	1175.65
238.08	1166.59
238.542	1347.14
239.005	986.72
239.468	984.32
239.93	915.57
240.393	837.92
240.855	739.46
241.317	746.23
241.78	909.93
242.242	933.22
242.704	1009.16
243.166	893.94
243.629	826.46
244.091	940.34
244.553	1025.57
245.015	1113.27
245.477	1422.88
245.939	2040.51
246.4	2163.25
246.862	2083.78
247.324	1969.83
247.786	2168.27
248.247	2790.01
248.709	2811.95
249.17	2104.72
249.632	2023.11
250.093	2359
250.555	2043.1
251.016	1282.03
251.477	1209.65
251.939	1308.59
252.4	1349.4
252.861	1586.83
253.322	1489.58
253.783	1728.98
254.244	2187.8
254.705	1700.27
255.166	1476.49
255.627	1435.68
256.088	1999.93
256.549	2137.04
257.009	1818.28
257.47	2195.47
257.931	1782.3
258.391	1346.67
258.852	1396.44
259.312	1460.65
259.773	1750.35
260.233	1536.51
260.694	1319.1
261.154	1478.82
261.614	1217.28
262.074	1080.4
262.534	1127.62
262.994	1062.72
263.455	1367.74
263.915	1149.75
264.374	1070.6
264.834	1169.69
265.294	1228.39
265.754	1247.85
266.214	1147.14
266.673	1042.25
267.133	1269.03
267.593	1234.01
268.052	1486.93
268.512	1266.35
268.971	1550.36
269.431	1706.11
269.89	1509.83
270.349	2248.56
270.809	2483.18
271.268	2278.69
271.727	5070.47
272.186	3361.07
272.645	2515.93
273.104	1789.22
273.563	2604.22
274.022	1974.79
274.481	1697.57
274.94	1308.56
275.399	988.19
275.857	1139.12
276.316	1505.16
276.775	1340.54
277.233	1322.62
277.692	1253.61
278.15	1459.62
278.609	1553.89
279.067	1490.8
279.525	1419.46
279.984	1842.78
280.442	2266.22
280.9	2325.61
281.358	1561.83
281.816	1486.99
282.274	1475.76
282.732	1513.98
283.19	1522.52
283.648	1324.05
284.106	1405.58
284.564	1415.82
285.021	1359.56
285.479	1013.75
285.937	913.05
286.394	830.74
286.852	844.59
287.309	898.79
287.767	913.83
288.224	882.37
288.682	962.54
289.139	1063.96
289.596	989.82
290.053	1010.22
290.511	1245.31
290.968	1505.74
291.425	1992.55
291.882	1710.41
292.339	1500.28
292.796	1425.98
293.252	1338.11
293.709	1092.2
294.166	986.25
294.623	1070.43
295.079	1014.99
295.536	1044.08
295.992	941.56
296.449	940.46
296.905	956.24
297.362	931.15
297.818	986.35
298.274	1023.64
298.731	1020.91
299.187	997.71
299.643	1069.97
300.099	1313.08
300.555	1425.91
301.011	1213.9
301.467	1211.33
301.923	1405.45
302.379	1362.66
302.835	1356.03
303.291	1358.98
303.746	1525.63
304.202	1924.53
304.658	1962.37
305.113	1336.12
305.569	1324.87
306.024	1408.19
306.479	1304.21
306.935	1128.49
307.39	1221.26
307.845	1137.74
308.301	1187.5
308.756	1184.01
309.211	1184.09
309.666	1220.81
310.121	1534.58
310.576	1565.46
311.031	1564.47
311.486	1770.32
311.94	1779.31
312.395	2404.65
312.85	4445.23
313.305	21292.77
313.759	114502.08
314.214	8359.47
314.668	6637.23
315.123	5619.68
315.577	2083.67
316.032	1890.2
316.486	2394.37
316.94	1942.18
317.394	1364.44
317.849	1084.7
318.303	1016.97
318.757	963.16
319.211	1037.06
319.665	919.51
320.119	941.55
320.572	1310.07
321.026	1238.19
321.48	1025.66
321.934	1071.97
322.387	1062.19
322.841	1146.91
323.295	1080.08
323.748	1199.17
324.202	1236.3
324.655	1489.05
325.108	2112.15
325.562	1522.73
326.015	1784.75
326.468	1361.77
326.921	1544.79
327.374	1475.22
327.827	1551.2
328.28	1722.06
328.733	1200.43
329.186	1066.68
329.639	1021.5
330.092	851.4
330.545	811.1
330.997	840.64
331.45	949.71
331.903	1141.06
332.355	1898.21
332.808	1845.51
333.26	1532.07
333.713	1676.1
334.165	1676.12
334.617	2224.86
335.069	1781.91
335.522	3206.13
335.974	3493.99
336.426	3123.17
336.878	2135.88
337.33	1122.69
337.782	1120.17
338.234	1420.52
338.686	1667.24
339.137	1981.29
339.589	1890.75
340.041	1501.13
340.493	1296.27
340.944	1348.52
341.396	1478.5
341.847	1284.39
342.299	1582.25
342.75	1931.91
343.201	1678.23
343.653	1931.81
344.104	2381.13
344.555	1837.46
345.006	2755.64
345.457	2181.87
345.908	1687.45
346.359	1602.79
346.81	1260.62
347.261	1272.05
347.712	1235.25
348.163	1293.72
348.613	1355.33
349.064	1257.47
349.515	1113.03
349.965	1183.23
350.416	1379.1
350.866	1512.03
351.317	1667.89
351.767	2775.68
352.217	3518.46
352.668	2942.29
353.118	2746.8
353.568	2564.89
354.018	2067.98
354.468	2224.13
354.918	1601.29
355.368	1405.92
355.818	2016.34
356.268	5809.24
356.718	24825.12
357.168	6209
357.617	3144.39
358.067	3473.4
358.517	3252.6
358.966	3833.64
359.416	4377.05
359.865	4749.1
360.315	5697.25
360.764	2659.51
361.213	1508.43
361.663	1402.49
362.112	1723.92
362.561	2757.92
363.01	2103.94
363.459	1773.72
363.908	1895.19
364.357	1634.6
364.806	2718.45
365.255	1853.67
365.703	1728.13
366.152	1735.02
366.601	1444.86
367.05	1207.83
367.498	1105.3
367.947	1153.89
368.395	1202.05
368.844	1095.95
369.292	1276.69
369.74	910.94
370.189	1380.04
370.637	1619.39
371.085	1414.64
371.533	1692.17
371.981	1581.31
372.429	1508.36
372.877	1576.99
373.325	1344.61
373.773	1373.02
374.221	1227.64
374.669	1515
375.116	1324
375.564	1325.68
376.012	1441.94
376.459	1231.65
376.907	1488.46
377.354	1808.99
377.801	1691.13
378.249	1959.36
378.696	2443.41
379.143	2993.83
379.591	3167.9
380.038	5406.43
380.485	4001.27
380.932	4372.04
381.379	4053.01
381.826	3078.56
382.273	2213.14
382.72	1979.55
383.166	1942.19
383.613	1293.94
384.06	1171.53
384.506	1388.29
384.953	1063.36
385.4	1082.1
385.846	991.08
386.292	990.19
386.739	1005.07
387.185	1040.65
387.631	1100.12
388.078	1159.51
388.524	1320.4
388.97	1303.81
389.416	1140.3
389.862	1239.32
390.308	1222.01
390.754	1303.68
391.2	1509.29
391.645	1657.19
392.091	1730.39
392.537	1785.7
392.983	1865.23
393.428	1929.91
393.874	2170.9
394.319	2354.29
394.765	2465.82
395.21	2809.97
395.655	2922.7
396.101	2991.97
396.546	2947.17
396.991	3226.33
397.436	3266.1
397.881	3450.71
398.326	3584.17
398.771	3690.2
399.216	3492.67
399.661	3381.39
400.106	3576.29
400.551	3860.38
400.995	3633.43
401.44	3748.31
401.885	3657.85
402.329	3816.47
402.774	3764.14
403.218	3733.01
403.663	3704.18
404.107	3915.78
404.551	4062.24
404.995	3858.08
405.44	3854.22
405.884	4055.67
406.328	4049.76
406.772	4149.1
407.216	3896.24
407.66	3899.93
408.104	3857.43
408.547	3747.99
408.991	3747.83
409.435	3712.74
409.879	3743.31
410.322	3776.49
410.766	3724.94
411.209	3631.32
411.653	3589
412.096	3607.72
412.54	3702.19
412.983	3755.32
413.426	3826.33
413.869	3897.94
414.312	3885.78
414.756	3820.66
415.199	3715.07
415.642	3672.8
416.085	3731.93
416.527	3757.77
416.97	3868.5
417.413	3708.2
417.856	3709.44
418.298	3703.86
418.741	3694.07
419.184	3703.28
419.626	3871.52
420.069	3883.46
420.511	3917.01
420.953	3858.37
421.396	3852.7
421.838	3787.59
422.28	3900.02
422.722	3948.46
423.164	4060.55
423.606	4050.35
424.048	4114.72
424.49	3957.69
424.932	3990.45
425.374	3987.27
425.816	4080.75
426.258	4137.03
426.699	4124.69
427.141	3977.49
427.582	3972.11
428.024	3909.79
428.465	3900.24
428.907	3845.64
429.348	3873.31
429.789	3927.22
430.231	3882.34
430.672	3983.53
431.113	3971.98
431.554	4050.9
431.995	4132.93
432.436	4143.42
432.877	4198.31
433.318	4222.8
433.759	4288.64
434.2	4348.78
434.64	4358.52
435.081	4430.39
435.522	4267.72
435.962	4195.45
436.403	4164.69
436.843	4291.19
437.284	4266.9
437.724	4203.93
438.164	4278.15
438.604	4225.35
439.045	4100.91
439.485	3979.04
439.925	3966.66
440.365	3936.87
440.805	3938.25
441.245	3931.97
441.685	3814.66
442.125	3813.31
442.564	3857.09
443.004	3776.01
443.444	3784.83
443.883	3816.92
444.323	3839.28
444.762	3893.35
445.202	3978.96
445.641	4066.12
446.081	4086.69
446.52	4153.36
446.959	4150.95
447.398	4090.79
447.837	4096.73
448.276	4073.41
448.716	4141.27
449.154	4194.46
449.593	4081.39
450.032	4060.9
450.471	4000.47
450.91	4004.83
451.349	3984.09
451.787	3965.33
452.226	4014.01
452.664	3999.77
453.103	3994.34
453.541	3995.78
453.98	3971.35
454.418	4008.65
454.856	3934.63
455.295	3919.52
455.733	3934.14
456.171	3948.8
456.609	3931.32
457.047	3922.75
457.485	3959.11
457.923	3950.6
458.361	3893.01
458.798	3910.01
459.236	3905.56
459.674	3955.68
460.111	3989.42
460.549	3962.61
460.987	3969.22
461.424	3981.68
461.862	3978.42
462.299	3938.47
462.736	3946.1
463.173	3970.05
463.611	3917.65
464.048	3913.38
464.485	3957.38
464.922	3948.49
465.359	3965.73
465.796	3888.62
466.233	3890.31
466.67	3870.83
467.106	3881.72
467.543	3886.77
467.98	3881.32
468.416	3847.25
468.853	3877.24
469.29	3815.99
469.726	3813.41
470.162	3748.57
470.599	3794.3
471.035	3805.83
471.471	3764.23
471.907	3799.24
472.344	3809.53
472.78	3836.12
473.216	3907.94
473.652	3869.5
474.088	3876.89
474.523	3876.8
474.959	3931.43
475.395	3903.81
475.831	3882.71
476.266	3911.39
476.702	3905.06
477.138	3865.7
477.573	3858.72
478.008	3845.61
478.444	3858.77
478.879	3875.9
479.314	3880.23
479.75	3862.24
480.185	3868.55
480.62	3884.46
481.055	3881.27
481.49	3875.59
481.925	3889.16
482.36	3878.91
482.795	3909.75
483.229	3932.05
483.664	3935.78
484.099	3890.57
484.534	3891.7
484.968	3878.47
485.403	3853.92
485.837	3821.76
486.271	3793.64
486.706	3795.37
487.14	3780.63
487.574	3746.5
488.009	3742.39
488.443	3729.01
488.877	3757.64
489.311	3767.65
489.745	3806.01
490.179	3829.09
490.613	3878.44
491.046	3905.66
491.48	3924.4
491.914	3917.51
492.348	3939.07
492.781	3954.64
493.215	3966.97
493.648	3992.42
494.082	4029.77
494.515	4028.22
494.948	4060.26
495.382	4086.15
495.815	4097.82
496.248	4110.39
496.681	4166.58
497.114	4210.39
497.547	4238.91
497.98	4273.29
498.413	4263.33
498.846	4280.12
499.279	4305.18
499.711	4320.41
500.144	4318.13
500.577	4346.81
501.009	4386.14
501.442	4415
501.874	4412.4
502.306	4433.08
502.739	4469.95
503.171	4566.2
503.603	4592.94
504.036	4643.38
504.468	4663.95
504.9	4716.39
505.332	4755.04
505.764	4776.84
506.196	4816.01
506.627	4885.26
507.059	4937.92
507.491	4986.55
507.923	4960.19
508.354	5026.7
508.786	5075.99
509.217	5160.05
509.649	5222.17
510.08	5301.75
510.512	5354.77
510.943	5400.57
511.374	5425.72
511.805	5502.16
512.237	5573.48
512.668	5702.73
513.099	5786.2
513.53	5842.75
513.961	5856.99
514.391	5931.65
514.822	6006.36
515.253	6110.44
515.684	6172.78
516.114	6265.13
516.545	6315.57
516.975	6396.24
517.406	6446.17
517.836	6444.27
518.267	6482.67
518.697	6577.8
519.127	6610.18
519.558	6651.87
519.988	6670.28
520.418	6716.31
520.848	6788.77
521.278	6816.78
521.708	6695.02
522.138	6728.11
522.567	6836.95
522.997	6901.34
523.427	6913.95
523.857	6927.82
524.286	6923.97
524.716	6946.28
525.145	6985.77
525.575	6993.25
526.004	7021.48
526.433	7122.24
526.863	7090.1
527.292	7017.3
527.721	7028.52
528.15	7056.84
528.579	7059.34
529.008	7095.49
529.437	7174.67
529.866	7202.82
530.295	7240.17
530.724	7248.1
531.152	7322.08
531.581	7343.74
532.01	7388.59
532.438	7395.61
532.867	7427.47
533.295	7475.45
533.723	7476.55
534.152	7446.71
534.58	7430.79
535.008	7354.28
535.436	7345.6
535.865	7362.76
536.293	7405.19
536.721	7443.48
537.149	7513.57
537.576	7493.12
538.004	7524.65
538.432	7544.73
538.86	7528.75
539.287	7550.1
539.715	7595.23
540.143	7610.57
540.57	7600.21
540.998	7597.35
541.425	7513.14
541.852	7454.31
542.28	7473.46
542.707	7433.3
543.134	7397.91
543.561	7400
543.988	7386.46
544.415	7404.05
544.842	7397.95
545.269	7381.73
545.696	7400.95
546.123	7477.15
546.549	7449.47
546.976	7411.03
547.403	7421.85
547.829	7445.31
548.256	7470.95
548.682	7472.38
549.108	7455.11
549.535	7471.1
549.961	7493.94
550.387	7452.81
550.813	7436.54
551.24	7475.43
551.666	7492.86
552.092	7464.69
552.518	7450.51
552.943	7428.99
553.369	7468.68
553.795	7497.15
554.221	7500.88
554.646	7489.73
555.072	7521.32
555.498	7541.61
555.923	7569.83
556.349	7616.37
556.774	7639.19
557.199	7633.91
557.625	7660.35
558.05	7628.63
558.475	7667.45
558.9	7657.32
559.325	7617.73
559.75	7595.77
560.175	7570.31
560.6	7547.2
561.025	7543.16
561.449	7548.04
561.874	7566.03
562.299	7562.29
562.723	7577.45
563.148	7516.84
563.572	7520.88
563.997	7548.92
564.421	7561.62
564.846	7544.94
565.27	7535.34
565.694	7500.36
566.118	7519.42
566.542	7519.69
566.966	7472.51
567.39	7424.73
567.814	7356.08
568.238	7330.52
568.662	7333.53
569.086	7325.79
569.509	7352.91
569.933	7288.93
570.357	7271.95
570.78	7199.55
571.204	7156.76
571.627	7133.61
572.05	7149.62
572.474	7171.32
572.897	7145.98
573.32	7134.6
573.743	7122.14
574.166	7061.99
574.589	7085.2
575.012	7066.19
575.435	7079.29
575.858	7061.36
576.281	7038.26
576.704	7002.5
577.126	6986.47
577.549	6971.2
577.972	6963.71
578.394	6946.13
578.817	6937.8
579.239	6892.38
579.661	6868.16
580.084	6830.2
580.506	6809.01
580.928	6825.64
581.35	6804.59
581.772	6806.12
582.194	6762.97
582.616	6715.11
583.038	6661.03
583.46	6627.91
583.882	6614.75
584.303	6634.16
584.725	6610.52
585.147	6568.55
585.568	6560.64
585.99	6540.31
586.411	6491.13
586.833	6484.9
587.254	6441.02
587.675	6457.45
588.096	6466.6
588.518	6402.53
588.939	6296.35
589.36	6257.04
589.781	6231.69
590.202	6116.78
590.623	6111.29
591.043	6136.37
591.464	6104.53
591.885	6093.31
592.305	6071.71
592.726	6017.56
593.147	6022.07
593.567	5999.12
593.987	5968.14
594.408	5942
594.828	5939.41
595.248	5901.92
595.669	5816.92
596.089	5789.15
596.509	5765.72
596.929	5705.63
597.349	5697.56
597.769	5646.48
598.189	5605.3
598.608	5591.21
599.028	5578.56
599.448	5565.69
599.867	5508.81
600.287	5486.86
600.706	5459.33
601.126	5411.14
601.545	5396.94
601.965	5387.61
602.384	5360.74
602.803	5367.9
603.222	5344.32
603.641	5317.2
604.061	5293.22
604.48	5271.4
604.898	5291.42
605.317	5300.14
605.736	5293.81
606.155	5264.69
606.574	5211.08
606.992	5213.03
607.411	5177.1
607.829	5135.14
608.248	5106.21
608.666	5085.66
609.085	5067.78
609.503	5020.59
609.921	4979.06
610.339	4969.26
610.758	4955.82
611.176	4925.74
611.594	4880.47
612.012	4857.96
612.43	4851.11
612.847	4859.39
613.265	4837.76
613.683	4832.35
614.101	4820.12
614.518	4797.45
614.936	4756.82
615.353	4697.22
615.771	4682.58
616.188	4679.45
616.606	4664.65
617.023	4641.54
617.44	4594.93
617.857	4583.54
618.274	4558.81
618.691	4536.04
619.108	4500.42
619.525	4471.97
619.942	4482.39
620.359	4476.42
620.776	4445.07
621.192	4409.44
621.609	4378.11
622.026	4375.45
622.442	4366.48
622.859	4358.09
623.275	4316.79
623.691	4318.17
624.108	4336.47
624.524	4365.98
624.94	4343.21
625.356	4352.59
625.772	4380.01
626.188	4403.89
626.604	4392.13
627.02	4364.7
627.436	4341.25
627.852	4346.02
628.268	4365.41
628.683	4322.15
629.099	4285.71
629.514	4270.42
629.93	4281.52
630.345	4291.41
630.761	4277.44
631.176	4289.76
631.591	4266.81
632.007	4247.33
632.422	4244.68
632.837	4210.27
633.252	4199.89
633.667	4168.21
634.082	4139.42
634.497	4097.16
634.911	4032.01
635.326	4024.75
635.741	3969.66
636.155	3942.96
636.57	3942.76
636.984	3937.84
637.399	3934.83
637.813	3933.97
638.228	3926.48
638.642	3935.69
639.056	3900.11
639.47	3899.83
639.884	3866.18
640.298	3840.81
640.712	3832.68
641.126	3794.38
641.54	3768.24
641.954	3762.69
642.368	3724.75
642.781	3690.55
643.195	3630.63
643.609	3625.34
644.022	3599.34
644.436	3577.08
644.849	3530.91
645.262	3485.27
645.676	3480.48
646.089	3451.14
646.502	3383.75
646.915	3357.43
647.328	3308.94
647.741	3302.3
648.154	3263.04
648.567	3246.65
648.98	3208.21
649.393	3216.88
649.805	3211.17
650.218	3196.19
650.631	3155.6
651.043	3147.26
651.456	3132.72
651.868	3131.97
652.28	3175.02
652.693	3194.38
653.105	3186.11
653.517	3178.95
653.929	3146.5
654.341	3138.86
654.753	3082.76
655.165	3093.52
655.577	3080.9
655.989	3070.55
656.401	3057.2
656.813	2962.32
657.224	2934.49
657.636	2896.83
658.047	2884.21
658.459	2865.94
658.87	2876.55
659.282	2870.87
659.693	2821.27
660.104	2790.02
660.515	2759.59
660.926	2763.58
661.338	2769.97
661.749	2761
662.159	2734.83
662.57	2733.6
662.981	2723.46
663.392	2701.53
663.803	2718
664.213	2716.68
664.624	2710.19
665.035	2724.94
665.445	2685.13
665.855	2660.44
666.266	2632.88
666.676	2627.16
667.086	2598.13
667.497	2592.97
667.907	2569.78
668.317	2534.73
668.727	2508.76
669.137	2507.39
669.547	2492.25
669.956	2496.82
670.366	2498.26
670.776	2496.1
671.186	2504.37
671.595	2505.94
672.005	2511.27
672.414	2498.53
672.824	2484.91
673.233	2503
673.642	2503.32
674.052	2501.95
674.461	2495.95
674.87	2501.29
675.279	2481.2
675.688	2480.32
676.097	2471.11
676.506	2453.39
676.915	2494.35
677.323	2493.48
677.732	2478.64
678.141	2468.12
678.549	2430.02
678.958	2422.26
679.366	2412.92
679.775	2426.55
680.183	2438.2
680.592	2449.3
681	2453.12
681.408	2418.96
681.816	2431.08
682.224	2444.97
682.632	2453.1
683.04	2517.69
683.448	2550.13
683.856	2580.13
684.264	2607.14
684.671	2631.06
685.079	2671.63
685.487	2720.41
685.894	2810.15
686.302	2867.13
686.709	2894.92
687.116	2943.6
687.524	2972.37
687.931	3008.34
688.338	3050.92
688.745	3098.05
689.152	3149.54
689.559	3214.63
689.966	3270.99
690.373	3272.56
690.78	3311.8
691.187	3398.79
691.593	3448.06
692	3485.67
692.407	3560.28
692.813	3660.43
693.22	3735.02
693.626	3823.17
694.032	3890.6
694.439	4013.64
694.845	4106.87
695.251	4232.6
695.657	4335.3
696.063	4501.87
696.469	4615.35
696.875	4709.57
697.281	4747.59
697.687	4791.84
698.093	4813.58
698.498	4899.82
698.904	4952.68
699.31	5063.48
699.715	5127.85
700.12	5258.06
700.526	5263.71
700.931	5369.9
701.337	5452.84
701.742	5505.82
702.147	5652.44
702.552	5704.43
702.957	5813.55
703.362	5854.39
703.767	5912.31
704.172	5991.52
704.577	5913.56
704.981	5999.43
705.386	6024.47
705.791	6003.69
706.195	6132.9
706.6	6143.49
707.004	6286.26
707.408	6231.87
707.813	6274.69
708.217	6248.13
708.621	6247.98
709.025	6413.15
709.43	6403.47
709.834	6498.51
710.237	6613.97
710.641	6580.4
711.045	6607.58
711.449	6579.46
711.853	6600.3
712.256	6651.95
712.66	6686.58
713.064	6767.33
713.467	6762.25
713.87	6845.53
714.274	6784.54
714.677	6803.86
715.08	6873.47
715.484	6932.56
715.887	7016.81
716.29	7086.21
716.693	7140.71
717.096	7238.05
717.499	7224.64
717.901	7145.89
718.304	7157.13
718.707	7237.01
719.109	7195.6
719.512	7267.07
719.915	7190.64
720.317	7211.36
720.719	7353.39
721.122	7393.6
721.524	7386.62
721.926	7358.42
722.328	7492.1
722.731	7435.34
723.133	7407.12
723.535	7588.8
723.937	7529.24
724.338	7530.41
724.74	7534.9
725.142	7367.51
725.544	7357.52
725.945	7376.03
726.347	7374.07
726.748	7369.35
727.15	7398.4
727.551	7345
727.952	7311.88
728.354	7286.19
728.755	7317.08
729.156	7311.51
729.557	7418.72
729.958	7325.4
730.359	7349.37
730.76	7424
731.161	7445.75
731.562	7507.75
731.962	7617.16
732.363	7609.96
732.763	7596.38
733.164	7719.29
733.564	7668.82
733.965	7558.25
734.365	7534.11
734.766	7596.78
735.166	7543.28
735.566	7448.01
735.966	7397.69
736.366	7383.92
736.766	7296.79
737.166	7352.38
737.566	7299.29
737.966	7267.95
738.365	7332.27
738.765	7321.62
739.165	7209.19
739.564	7178.18
739.964	7269.53
740.363	7220.41
740.763	7234.52
741.162	7227.22
741.561	7186.07
741.96	7122.28
742.36	7164.39
742.759	7186.33
743.158	7258.01
743.557	7287.14
743.955	7351.14
744.354	7276.24
744.753	7361.24
745.152	7288.44
745.55	7369.57
745.949	7352.22
746.348	7340.5
746.746	7353.68
747.144	7271.68
747.543	7224.35
747.941	7280.82
748.339	7152.75
748.737	7122.68
749.136	7093.08
749.534	7177.55
749.932	7114.2
750.33	7135.71
750.727	7213
751.125	7166.04
751.523	7139.49
751.921	7186.24
752.318	7123.45
752.716	7200.85
753.113	7211.56
753.511	7233.78
753.908	7219.13
754.305	7175.82
754.703	7248.46
755.1	7312.37
755.497	7366.11
755.894	7563.02
756.291	7664.07
756.688	7838.17
757.085	7997.55
757.482	8216.75
757.878	8360.78
758.275	8361.9
758.672	8548.21
759.068	8514.94
759.465	8612.4
759.861	8779.92
760.258	8993.11
760.654	8835.2
761.05	8456.87
761.447	8125.65
761.843	7849.59
762.239	7625.45
762.635	7715.34
763.031	7769.84
763.427	7670.75
763.822	7571.74
764.218	7496.2
764.614	7240.62
765.01	7165.42
765.405	7220.92
765.801	7304.17
766.196	7260.02
766.592	7330.99
766.987	7203.42
767.382	7149.68
767.778	7208.71
768.173	7170.89
768.568	7176.81
768.963	7084.81
769.358	7165.58
769.753	7144.3
770.148	7063.2
770.542	7088.14
770.937	7059.78
771.332	7188.4
771.726	7213.65
772.121	7114.76
772.515	7189.51
772.91	7166.95
773.304	7264.52
773.699	7168.56
774.093	7230.27
774.487	7292.66
774.881	7331.46
775.275	7312.78
775.669	7244.67
776.063	7289.76
776.457	7328.17
776.851	7207.2
777.245	7172.36
777.638	7191.52
778.032	7319.08
778.425	7250.13
778.819	7281.28
779.212	7206.15
779.606	7130.01
779.999	7130.43
780.392	7082.62
780.786	7165.45
781.179	7168.23
781.572	7200.33
781.965	7189.11
782.358	7089.29
782.751	7132.76
783.143	7044.78
783.536	7104.03
783.929	7121.68
784.322	7223.82
784.714	7222.16
785.107	7174.49
785.499	7213.64
785.891	7133.31
786.284	7052.08
786.676	7162.84
787.068	7078.9
787.46	7077.96
787.852	7042.85
788.245	7085.89
788.636	7064.4
789.028	7081.37
789.42	7069.95
789.812	7033.55
790.204	7099.94
790.595	7167.89
790.987	6917.33
791.378	6907.8
791.77	7020.34
792.161	7137.5
792.553	7162.73
792.944	7007.75
793.335	6899.28
793.726	6936.24
794.117	6995.29
794.508	7108.76
794.899	7052.28
795.29	7170.63
795.681	7198.61
796.072	7012.95
796.463	6765.68
796.853	6734.55
797.244	6854.47
797.634	6853.08
798.025	6817.62
798.415	6786.16
798.806	6822.49
799.196	6853.18
799.586	6836.62
799.976	6738.09
800.366	6902.79
800.756	7091.64
801.146	7000.97
801.536	6983.36
801.926	7005.41
802.316	6985.01
802.706	7012.84
803.095	6867.07
803.485	6925.09
803.874	6937.38
804.264	7139.4
804.653	7080.49
805.043	7168.36
805.432	7222.4
805.821	7171.63
806.21	7135.5
806.599	7172.71
806.988	7138.83
807.377	7145.98
807.766	7165.72
808.155	7300.11
808.544	6987.01
808.933	6895.42
809.321	6767.9
809.71	6879.5
810.098	6861.95
810.487	7057.16
810.875	7240.44
811.264	7072.87
811.652	7078.68
812.04	6975.11
812.428	6879.68
812.816	7146.74
813.204	7168.4
813.592	7262.56
813.98	7236.18
814.368	6987.87
814.756	7068.82
815.144	6871.14
815.531	6987.29
815.919	6837
816.306	6897.66
816.694	6673.7
817.081	6668.16
817.469	6847.74
817.856	6883.91
818.243	7052.69
818.63	7278.44
819.017	7068
819.404	7048.8
819.791	7137.55
820.178	7332.58
820.565	7363.34
820.952	7738.56
821.339	7446.25
821.725	7470.58
822.112	7050.93
822.498	6950.56
822.885	6937.04
823.271	6860.02
823.657	7073.93
824.044	7134.84
824.43	7211.86
824.816	7203.56
825.202	6973.22
825.588	7378.51
825.974	7300.72
826.36	7439.81
826.746	7368.46
827.132	7442.1
827.517	7344.01
827.903	6915.01
828.289	6846.65
828.674	6462.97
829.06	6366.5
829.445	6484.45
829.83	6583.49
830.216	6726.95
830.601	6824.58
830.986	6631.85
831.371	6549.12
831.756	6745.83
832.141	6563.17
832.526	6537.64
832.911	6636.08
833.295	6590.47
833.68	6769.41
834.065	6522.54
834.449	6175.08
834.834	6155.18
835.218	6149.93
835.603	6270.97
835.987	6175.08
836.371	6483.46
836.755	6440.38
837.139	6576.95
837.524	6653.42
837.908	6559.91
838.291	6562.14
838.675	6556.48
839.059	6606.38
839.443	6575.87
839.827	6463.15
840.21	6612.11
840.594	6522.29
840.977	6555.79
841.361	6510.67
841.744	6612.24
842.127	6526.45
842.511	6584.1
842.894	6767.79
843.277	6873.38
843.66	7033.66
844.043	7031.02
844.426	6715.98
844.809	6576.1
845.191	6558.32
845.574	6371.88
845.957	6202
846.339	6116.41
846.722	5873.27
847.104	5839.62
847.487	5723.66
847.869	5675.95
848.252	5716.33
848.634	5768.47
849.016	5800.77
849.398	5792.79
849.78	6003.4
850.162	5960.57
850.544	6026.41
850.926	6150.05
851.307	6043.68
851.689	6050.57
852.071	6106.83
852.452	6139.37
852.834	6083.52
853.215	6156.76
853.597	6153.72
853.978	6201.32
854.359	6294.9
854.741	6007.36
855.122	5998.34
855.503	5941.52
855.884	6001.27
856.265	5998.23
856.646	6024.71
857.026	5900.69
857.407	5862.34
857.788	5885.21
858.169	5940.34
858.549	5678.62
858.93	5824.47
859.31	5809.51
859.69	5839.49
860.071	5694.59
860.451	5605.69
860.831	5379.44
861.211	5664.81
861.591	5772.57
861.971	5726.63
862.351	5732.91
862.731	5766.54
863.111	5759.01
863.491	5764.9
863.87	5908.8
864.25	5920.37
864.629	5753.32
865.009	5804.82
865.388	5945.74
865.768	6310.34
866.147	6230.03
866.526	5847.51
866.905	5903.33
867.284	6231.34
867.663	5923.37
868.042	5672.33
868.421	5652.9
868.8	5738.68
869.179	5800.07
869.558	5451.45
869.936	5015.16
870.315	5095.58
870.693	5199.53
871.072	5579.94
871.45	5298.66
871.828	5348.32
872.207	5601.78
872.585	5492.47
872.963	5609.45
873.341	5391.05
873.719	5307.73
874.097	5222.76
874.475	5297.37
874.853	5399.6
875.23	5159.61
875.608	5353.78
875.986	5761.68
876.363	5496.79
876.741	5652.35
877.118	5499.01
877.495	5735.89
877.873	5792.45
878.25	6064.3
878.627	5790.66
879.004	5842.68
879.381	5781.63
879.758	5602.2
880.135	5190.11
880.512	5453.6
880.889	5280.64
881.265	5196.42
881.642	5131.97
882.019	5206.85
882.395	5084.94
882.772	5269.24
883.148	5018.79
883.524	4974.78
883.901	4923.57
884.277	4966.07
884.653	4910.18
885.029	5023.39
885.405	5536.22
885.781	5467.02
886.157	5214.82
886.532	5247.64
886.908	5217.75
887.284	5777.25
887.659	5944.36
888.035	6101.06
888.411	6234.34
888.786	6284.93
889.161	6458.38
889.537	6298.57
889.912	6450.14
890.287	6391.64
890.662	6503.06
891.037	6313.09
891.412	5817.88
891.787	5678.59
892.162	5394.79
892.536	5426.54
892.911	5124.01
893.286	4921.37
893.66	4618.43
894.035	4625.53
894.409	4907.93
894.784	4592.41
895.158	4549.31
895.532	4690.37
895.906	4687.61
896.281	4668.51
896.655	4477.64
897.029	4989.61
897.402	5080.75
897.776	5531.8
898.15	5407.74
898.524	5261.4
898.898	5243.53
899.271	5794.7
899.645	4970.33
900.018	4757.05
900.392	4944.05
900.765	5008.28
901.138	4682.88
901.511	4654.72
901.884	4343.73
902.258	4080
902.631	4289.93
903.003	5007.17
903.376	4583.46
903.749	5190.42
904.122	5592.38
904.495	6145.1
904.867	6194
905.24	5339.52
905.612	4921.85
905.985	4943.32
906.357	5074.6
906.729	4746.37
907.102	3984.8
907.474	3752.09
907.846	3717.78
908.218	3608.08
908.59	3167.33
908.962	3035.5
909.334	3238.61
909.705	3384.09
910.077	3273.08
910.449	3381.49
910.82	3455.27
911.192	3774.65
911.563	3919.75
911.935	4170.15
912.306	4154.91
912.677	4250.29
913.048	4186.24
913.419	4507.99
913.79	4478.24
914.161	4784.49
914.532	4558.62
914.903	4174.74
915.274	3952.81
915.645	3880.71
916.015	3407.66
916.386	3256.31
916.756	3483.73
917.127	3620.54
917.497	3279.43
917.868	3605.78
918.238	3465.93
918.608	3608.17
918.978	3731.18
919.348	4000.8
919.718	4186.71
920.088	4090.88
920.458	4296.82
920.828	4543.8
921.198	4319.47
921.567	4595.57
921.937	3566
922.306	3583.75
922.676	3853.09
923.045	3216.26
923.415	3048.14
923.784	2753.52
924.153	2807.68
924.522	2783.16
924.891	2600.24
925.26	2750.38
925.629	2649.14
925.998	2995.24
926.367	2882.32
926.736	2701.03
927.104	3135.71
927.473	3265.16
927.842	3818.16
928.21	3644.83
928.578	3666.98
928.947	3319.83
929.315	3193.71
929.683	3589.11
930.051	3440.62
930.42	3768.64
930.788	3031.31
931.156	2806.76
931.523	2498.67
931.891	2180.81
932.259	1994.58
932.627	2191.27
932.994	2909.69
933.362	2320.38
933.729	1935.73
934.097	1778.44
934.464	1483.18
934.831	1656.29
935.199	1618.68
935.566	1553.76
935.933	1538.5
936.3	1872.34
936.667	1503.41
937.034	1465.33
937.401	1489.98
937.767	1331.53
938.134	1253.44
938.501	1806.07
938.867	2046.18
939.234	3628.69
939.6	3245.08
939.967	3817.09
940.333	2680.01
940.699	2322.01
941.065	1843.38
941.431	2453.27
941.798	2420.35
942.163	3218.61
942.529	2023.94
942.895	1836.27
943.261	1190.73
943.627	1544.56
943.992	1347.43
944.358	1325.24
944.723	1360.32
945.089	1320.31
945.454	1198.68
945.82	1261.37
946.185	1187.9
946.55	1393.26
946.915	1258.93
947.28	1459.3
947.645	1287.63
948.01	1223.35
948.375	1271.22
948.74	1495.97
949.104	1747.75
949.469	2494.27
949.834	4408.02
950.198	4271.48
950.562	2580.08
950.927	2129.65
951.291	2537.75
951.655	2163.25
952.02	1951.05
952.384	1490.68
952.748	1316.98
953.112	1307.83
953.476	1162.77
953.839	1068.77
954.203	1065.32
954.567	1304.11
954.931	2037.01
955.294	1793.01
955.658	1793.89
956.021	3091.62
956.385	5175.96
956.748	7622.1
957.111	11564.6
957.474	12851.41
957.837	14541.28
958.2	10901.62
958.563	3953.55
958.926	2728.54
959.289	4095.15
959.652	4660.34
960.015	3515.42
960.377	5025.08
960.74	5770.09
961.102	10074.52
961.465	11024.36
961.827	6147.98
962.189	11767.35
962.552	8333.2
962.914	6727.78
963.276	4394.59
963.638	3653.45
964	3585.48
964.362	2485.1
964.724	2389.23
965.085	1722.09
965.447	1435.51
965.809	1606.77
966.17	1624.23
966.532	1770.93
966.893	1649.39
967.255	1520.32
967.616	1801.82
967.977	1503.58
968.338	1676.35
968.699	1434.49
969.061	1462.02
969.421	1496.82
969.782	1708.13
970.143	1480.51
970.504	1581.43
970.865	1823.15
971.225	1909.9
971.586	1896.6
971.946	2694.85
972.307	2345.84
972.667	3011.53
973.027	3088.68
973.388	3716.58
973.748	2521.77
974.108	2725.1
974.468	3562.05
974.828	2771.08
975.188	2113.85
975.548	1925.39
975.907	1624.76
976.267	1796.67
976.627	1538.85
976.986	1601.7
977.346	1533.89
977.705	1482.97
978.064	1374.89
978.424	1165.89
978.783	1185.08
979.142	1353.37
979.501	1302.49
979.86	1386.21
980.219	1344.53
980.578	1720.96
980.937	1909.06
981.296	1710.6
981.654	1757.97
982.013	2692.95
982.371	3532.9
982.73	3374.67
983.088	3859.99
983.447	4193.82
983.805	6001
984.163	12744.62
984.521	14179.39
984.879	21249.09
985.237	-34746.13
985.595	34477.13
985.953	8655.48
986.311	5028.33
986.669	2950.14
987.026	2557.93
987.384	3437.45
987.741	3563.05
988.099	2597.45
988.456	2127.35
988.814	2021.86
989.171	1775.4
989.528	1728.55
989.885	1832.36
990.242	1464.59
990.599	1801.11
990.956	1490.72
991.313	1062.14
991.67	886.8
992.027	964.34
992.383	850.57
992.74	754.72
993.096	796.35
993.453	837.6
993.809	868.8
994.165	1148.9
994.522	1098.24
994.878	1213.81
995.234	1511.4
995.59	1501.37
995.946	1380.66
996.302	1572.65
996.658	1810.86
997.013	2003.67
997.369	2393.11
997.725	3123.5
998.08	2046.94
998.436	3074.74
998.791	4232.15
999.147	4223.79
999.502	4625.88
999.857	3406.89
1000.212	5535.69
1000.567	7956.28
1000.922	4611.29
1001.277	2919.3
1001.632	2163.18
1001.987	2810.42
1002.342	2000.21
1002.696	1651.49
1003.051	1355.53
1003.406	1622.08
1003.76	1597.79
1004.114	1608.49
1004.469	1362.51
1004.823	1133.97
1005.177	1222.64
1005.531	976.06
1005.885	872.72
1006.239	1004.92
1006.593	1226.96
1006.947	1641.41
1007.301	1254.53
1007.655	1364.1
1008.008	1007.9
1008.362	1126.43
1008.715	1637.93
1009.069	1499.78
1009.422	2338.13
1009.776	4610.89
1010.129	3066.18
1010.482	2604.67
1010.835	2184.47
1011.188	4564.02
1011.541	4363.5
1011.894	-26583.39
1012.247	78761.93
1012.6	5302.26
1012.952	3417.92
1013.305	1759.45
1013.657	1297.57
1014.01	1229.68
1014.362	1019.87
1014.715	942.33
1015.067	838.75
1015.419	830.38
1015.771	754.95
1016.123	687.18
1016.475	710.72
1016.827	755.35
1017.179	807.2
1017.531	810.88
1017.883	824.82
1018.234	816.89
1018.586	1035.03
1018.938	1094.29
1019.289	1514.42
1019.64	1723.42
1019.992	1584.33
1020.343	1432.15
1020.694	1170.62
1021.045	1049.34
1021.396	1237.47
1021.747	1379.49
1022.098	1650.33
1022.449	1179.11
1022.8	1120.09
1023.151	790.25
1023.501	723.83
1023.852	802.21
1024.202	873.85
1024.553	938.01
1024.903	937.91
1025.253	803.83
1025.604	730.73
1025.954	905.64
1026.304	1093.26
1026.654	1266.32
1027.004	1874.77
1027.354	2981.34
1027.703	2791.59
1028.053	3642.95
1028.403	5489.22
1028.753	7885.03
1029.102	10454.17
1029.452	51566.36
1029.801	2191.6
1030.15	1456.81
1030.499	1217.66
897.758	1346.84
901.051	1304.67
904.343	1328.94
907.636	1328.24
910.928	1366.72
914.22	1319.85
917.511	1327.7
920.803	1351.49
924.094	1344.02
927.384	1349.96
930.675	1327.46
933.965	1309.61
937.255	1327.51
940.544	1308.54
943.834	1311.9
947.123	1275.53
950.411	1327.3
953.7	1317.32
956.988	1309.99
960.276	1268.74
963.563	1291.58
966.851	1297.03
970.138	1318.46
973.424	1321.06
976.711	1290.51
979.997	1315.94
983.283	1340.2
986.568	1302.81
989.853	1292.09
993.138	1305.05
996.423	1360.06
999.708	1337.25
1002.992	1352.65
1006.275	1303.14
1009.559	1304.91
1012.842	1362.19
1016.125	1334.8
1019.408	1320.23
1022.69	1350.43
1025.972	1367.14
1029.254	1355.04
1032.536	1333.97
1035.817	1337.95
1039.098	1320.06
1042.379	1345.63
1045.659	1359.31
1048.939	1327.97
1052.219	1329.56
1055.498	1326.63
1058.778	1318.69
1062.057	1307.93
1065.335	1324
1068.614	1324.96
1071.892	1318.23
1075.17	1352.5
1078.447	1352.65
1081.724	1348.32
1085.001	1361.62
1088.278	1346.88
1091.554	1346.88
1094.83	1348.59
1098.106	1365.67
1101.382	1380.11
1104.657	1380.33
1107.932	1381.54
1111.206	1366.61
1114.481	1341
1117.755	1342.26
1121.029	1337.32
1124.302	1370.73
1127.575	1353.99
1130.848	1352.35
1134.121	1336.79
1137.393	1312.93
1140.665	1347.4
1143.937	1331.66
1147.208	1305.98
1150.48	1335.82
1153.75	1328.56
1157.021	1331.95
1160.291	1318.21
1163.561	1347.02
1166.831	1327.53
1170.101	1339.11
1173.37	1317.92
1176.639	1295.92
1179.907	1325.16
1183.176	1330.85
1186.444	1337.24
1189.711	1350.95
1192.979	1363.18
1196.246	1338.81
1199.513	1348.32
1202.78	1349.47
1206.046	1354.81
1209.312	1372.21
1212.578	1374.57
1215.843	1351.19
1219.108	1341.57
1222.373	1350.21
1225.638	1335.08
1228.902	1327.1
1232.166	1308.02
1235.43	1298.23
1238.693	1316.46
1241.956	1314.65
1245.219	1340.36
1248.482	1334.02
1251.744	1337.46
1255.006	1400.49
1258.268	1371.69
1261.529	1352.23
1264.79	1350.9
1268.051	1404.25
1271.312	1411.81
1274.572	1389.15
1277.832	1382.58
1281.092	1369.77
1284.351	1368.2
1287.61	1359.99
1290.869	1326.17
1294.128	1326.14
1297.386	1347.79
1300.644	1346.57
1303.902	1350.3
1307.159	1275.87
1310.416	1304.39
1313.673	1317.1
1316.93	1320.7
1320.186	1333.4
1323.442	1350.49
1326.697	1348.19
1329.953	1335.09
1333.208	1354.31
1336.463	1341.16
1339.717	1323.95
1342.972	1386.41
1346.226	1374.38
1349.479	1353.83
1352.733	1338.09
1355.986	1348.72
1359.238	1336.71
1362.491	1338.49
1365.743	1339.03
1368.995	1336.4
1372.247	1347.43
1375.498	1353.28
1378.749	1374.19
1382	1350.81
1385.251	1366.71
1388.501	1344.74
1391.751	1340.16
1395	1328.7
1398.25	1345.16
1401.499	1359.09
1404.748	1333.35
1407.996	1323.33
1411.244	1323.58
1414.492	1315.69
1417.74	1305.3
1420.987	1313.14
1424.234	1345.4
1427.481	1325.28
1430.728	1353.35
1433.974	1343.67
1437.22	1343.82
1440.465	1338.37
1443.711	1340.34
1446.956	1348.8
1450.201	1334.02
1453.445	1360.1
1456.689	1347.77
1459.933	1355.9
1463.177	1379.64
1466.42	1367.33
1469.663	1353.57
1472.906	1360.69
1476.148	1391.56
1479.391	1365
1482.633	1355.8
1485.874	1368.02
1489.115	1371.88
1492.356	1363.58
1495.597	1349.37
1498.838	1342.23
1502.078	1335.53
1505.318	1323.49
1508.557	1338.77
1511.797	1334.48
1515.036	1364.49
1518.274	1340.12
1521.513	1311.2
1524.751	1314.78
1527.989	1326.78
1531.227	1336.38
1534.464	1339.23
1537.701	1333.44
1540.938	1337.63
1544.174	1309.08
1547.41	1300.95
1550.646	1322.85
1553.882	1348.04
1557.117	1382.38
1560.352	1385.19
1563.587	1360.61
1566.821	1345.26
1570.055	1357.35
1573.289	1341.16
1576.523	1369.34
1579.756	1377.92
1582.989	1389.61
1586.222	1364.03
1589.454	1383.42
1592.686	1373.92
1595.918	1388.24
1599.15	1386.48
1602.381	1412.33
1605.612	1401.89
1608.843	1451.5
1612.073	1410.82
1615.303	1404.25
1618.533	1399.98
1621.762	1401.03
1624.992	1386.86
1628.221	1384.75
1631.449	1377.88
1634.678	1393.32
1637.906	1372.49
1641.134	1383.32
1644.361	1365.39
1647.588	1360.73
1650.815	1374.54
1654.042	1356.09
1657.269	1371.76
1660.495	1360.35
1663.72	1354.85
1666.946	1335.54
1670.171	1325.45
1673.396	1308.03
1676.621	1301.54
1679.845	1299.61
1683.069	1300.76
1686.293	1315.77
1689.517	1308.81
1692.74	1284.27
1695.963	1295.03
1699.185	1313.14
1702.408	1301.94
1705.63	1316.69
1708.852	1325.38
1712.073	1309.5
1715.294	1321.87
1718.515	1349.25
1721.736	1324.13
1724.956	1319.55
1728.176	1331.6
1731.396	1341.2
1734.616	1339.53
1737.835	1364.8
1741.054	1346.06
1744.272	1346.36
1747.491	1366.97
1750.709	1377.3
1753.927	1351.93
1757.144	1366.91
1760.361	1396.39
1763.578	1382.1
1766.795	1355.09
1770.011	1345.87
1773.227	1357.15
1776.443	1382.56
1779.658	1402.31
1782.874	1372.84
1786.089	1367.96
1789.303	1368.47
1792.518	1368.78
1795.732	1363.2
1798.945	1367.83
1802.159	1395.36
1805.372	1363.35
1808.585	1357.57
1811.797	1355.97
1815.01	1375.62
1818.222	1391.64
1821.434	1370.61
1824.645	1392.87
1827.856	1396.76
1831.067	1410.8
1834.278	1382.45
1837.488	1370.76
1840.698	1439.64
1843.908	1415.17
1847.117	1398.02
1850.326	1355.38
1853.535	1388.58
1856.744	1407.57
1859.952	1365.55
1863.16	1366.09
1866.368	1382.22
1869.575	1445.16
1872.782	1383
1875.989	1348.64
1879.196	1377.2
1882.402	1373.56
1885.608	1391.51
1888.814	1359.18
1892.019	1310.46
1895.224	1343.96
1898.429	1329.71
1901.634	1315.78
1904.838	1303.78
1908.042	1336.25
1911.246	1347.92
1914.449	1326.05
1917.652	1316.88
1920.855	1306.02
1924.058	1319.89
1927.26	1350.7
1930.462	1359.95
1933.664	1382.06
1936.865	1352.3
1940.066	1359.92
1943.267	1329.89
1946.467	1334.69
1949.668	1340.74
1952.868	1383.29
1956.067	1383.15
1959.267	1349.55
1962.466	1362.72
1965.665	1350.11
1968.863	1350.39
1972.061	1348.07
1975.259	1345.04
1978.457	1387.95
1981.654	1365.59
1984.852	1366.28
1988.048	1343.5
1991.245	1332.84
1994.441	1380.1
1997.637	1352.22
2000.833	1344.25
2004.028	1359.22
2007.223	1402.06
2010.418	1390.78
2013.613	1363.71
2016.807	1360.15
2020.001	1358.21
2023.194	1367.64
2026.388	1355.72
2029.581	1329.62
2032.774	1364.47
2035.966	1370.82
2039.158	1340.85
2042.35	1352.36
2045.542	1309.27
2048.733	1357.62
2051.924	1350.07
2055.115	1356.92
2058.306	1340.6
2061.496	1370.4
2064.686	1396.13
2067.875	1342.14
2071.065	1342.45
2074.254	1351.54
2077.442	1325.26
2080.631	1373.41
2083.819	1335.88
2087.007	1329.65
2090.195	1324.75
2093.382	1327.03
2096.569	1323.81
2099.756	1301.29
2102.942	1334.85
2106.128	1340.67
2109.314	1336.09
2112.5	1327.36
2115.685	1310.22
2118.87	1313.63
2122.055	1353.98
2125.239	1338.96
2128.424	1335.13
2131.608	1364.77
2134.791	1353.81
2137.974	1373.43
2141.157	1367.87
2144.34	1353.12
2147.523	1344.59
2150.705	1362.79
2153.887	1341.9
2157.068	1325.79
2160.25	1314.47
2163.431	1328.41
2166.611	1311.2
2169.792	1325.9
2172.972	1269.63
2176.152	1304.58
2179.331	1315.74
2182.511	1316.25
2185.69	1324.78
2188.868	1326.82
2192.047	1348.62
2195.225	1364.88
2198.403	1333.1
2201.58	1325.88
2204.758	1315.82
2207.935	1360.66
2211.111	1310.54
2214.288	1305.5
2217.464	1323.01
2220.64	1302.06
2223.815	1328.51
2226.991	1287.91
2230.166	1293.75
2233.34	1316.35
2236.515	1324.95
2239.689	1366.69
2242.863	1337.16
2246.036	1365.06
2249.209	1356.53
2252.382	1372.06
2255.555	1374.12
2258.727	1350.83
2261.9	1367.49
2265.071	1363.43
2268.243	1365.79
2271.414	1335.49
2274.585	1323.42
2277.756	1358.72
2280.926	1337.46
2284.096	1354.84
2287.266	1313.83
2290.436	1344.27
2293.605	1350.83
2296.774	1370.92
2299.942	1376.6
2303.111	1385.72
2306.279	1415.82
2309.447	1407.28
2312.614	1395.91
2315.781	1404.15
2318.948	1394.03
2322.115	1417.04
2325.281	1354.41
2328.447	1360.51
2331.613	1342.89
2334.779	1339.04
2337.944	1333.67
2341.109	1335.27
2344.274	1330.12
2347.438	1308.25
2350.602	1323.21
2353.766	1325.56
2356.929	1321.03
2360.092	1345.32
2363.255	1324.39
2366.418	1311.21
2369.58	1332.02
2372.742	1316.09
2375.904	1303.2
2379.066	1297.97
2382.227	1312.45
2385.388	1287.77
2388.548	1261.75
2391.709	1278.9
2394.869	1276.85
2398.029	1309.07
2401.188	1297.96
2404.347	1289.29
2407.506	1284.09
2410.665	1319.76
2413.823	1306.41
2416.981	1297.7
2420.139	1309.29
2423.296	1331.95
2426.453	1318.37
2429.61	1329.72
2432.767	1313.79
2435.923	1337.32
2439.079	1305.73
2442.235	1326.33
2445.391	1290.34
2448.546	1315.94
2451.701	1335.02
2454.855	1332.45
2458.009	1347.57
2461.163	1340.12
2464.317	1322.7
2467.471	1336.35
2470.624	1358.16
2473.777	1351.97
2476.929	1360.94
2480.082	1371.89
2483.234	1362.76
2486.385	1329.59
2489.537	1324.57
2492.688	1319.97
2495.839	1333.49
2498.989	1339.48
2502.14	1332.4
2505.29	1323.72
2508.439	1338.96
2511.589	1307.81
2514.738	1308.31
2517.887	1316.84
2521.035	1358.72
2524.183	1334.36
2527.331	1327.85
2530.479	1321.66
2533.627	1324.91
