Data from N_1_DEC_ON_6N_Splice17_11-22-52-666.txt Node
Date: Sat Mar 14 11:22:52 EDT 2020
User: sa697716
Spectrometer: FLMS03696
Trigger mode: 0
Integration Time (sec): 3.180400E-1
Scans to average: 20
Electric dark correction enabled: true
Nonlinearity correction enabled: true
Boxcar width: 5
XAxis mode: Wavelengths
Number of Pixels in Spectrum: 2048
>>>>>Begin Spectral Data<<<<<
187.83	-55956.51
188.298	504.32
188.766	324.83
189.233	237.25
189.701	293.46
190.169	440.05
190.636	177.62
191.104	178.15
191.571	26.53
192.039	-30.41
192.506	-17.08
192.974	257.14
193.441	-456.79
193.908	40.61
194.375	-50.69
194.842	-26.92
195.31	-3.07
195.777	112.28
196.244	221.17
196.711	182.31
197.177	173.75
197.644	200.6
198.111	307.11
198.578	385.22
199.045	274.4
199.511	470.67
199.978	466.01
200.445	418.57
200.911	393.97
201.378	357.5
201.844	357.65
202.31	604.66
202.777	624.05
203.243	364.55
203.709	358.44
204.176	411.77
204.642	339.73
205.108	340.24
205.574	284.85
206.04	264.11
206.506	269.91
206.972	232.53
207.438	224.29
207.903	248.14
208.369	223.77
208.835	233.58
209.301	232.08
209.766	231.59
210.232	219.76
210.697	227.79
211.163	264.06
211.628	363.4
212.094	315.91
212.559	420.17
213.024	263.35
213.49	335.25
213.955	305.44
214.42	302.28
214.885	267.9
215.35	280.53
215.815	327.96
216.28	344.01
216.745	264.1
217.21	302.26
217.675	248.75
218.14	268.3
218.604	254.04
219.069	272.31
219.534	292.37
219.998	306
220.463	326.77
220.927	312.27
221.392	271
221.856	277.9
222.32	258.38
222.785	283.43
223.249	315.9
223.713	324.46
224.177	311.49
224.642	295.63
225.106	312.67
225.57	273.5
226.034	255.6
226.497	377.11
226.961	345.85
227.425	414.39
227.889	446.95
228.353	387.17
228.816	743.37
229.28	662.16
229.744	546.1
230.207	379.96
230.671	380.85
231.134	449.69
231.597	586.75
232.061	536.8
232.524	474.58
232.987	345.11
233.45	370.26
233.914	304.52
234.377	276.41
234.84	260.86
235.303	255.22
235.766	300.5
236.229	279.18
236.691	135.59
237.154	121.48
237.617	126.03
238.08	102.49
238.542	94.1
239.005	93.95
239.468	116.71
239.93	107.23
240.393	116.85
240.855	102.81
241.317	98.72
241.78	117.97
242.242	138.62
242.704	170.84
243.166	170.65
243.629	185.53
244.091	211.04
244.553	211.66
245.015	245.35
245.477	295.42
245.939	417.36
246.4	488.24
246.862	442.94
247.324	408.43
247.786	402.83
248.247	456.58
248.709	353.96
249.17	278.33
249.632	350.38
250.093	454.59
250.555	378.89
251.016	266.26
251.477	255.79
251.939	300.93
252.4	308.78
252.861	344
253.322	348.92
253.783	403.55
254.244	485.38
254.705	320.87
255.166	234.09
255.627	227.14
256.088	297.51
256.549	285
257.009	216.72
257.47	238.46
257.931	191.03
258.391	167.69
258.852	163.67
259.312	173.78
259.773	217.01
260.233	229.61
260.694	221.61
261.154	231.26
261.614	240.76
262.074	206.14
262.534	227.18
262.994	217.17
263.455	238.8
263.915	217.22
264.374	197.36
264.834	217.04
265.294	217.28
265.754	229.41
266.214	209.06
266.673	169.92
267.133	209.83
267.593	190.96
268.052	237.32
268.512	209.88
268.971	304.49
269.431	360.4
269.89	309.97
270.349	455.54
270.809	485.18
271.268	449.28
271.727	894.12
272.186	626.01
272.645	513.78
273.104	335.45
273.563	479.18
274.022	308.37
274.481	285.79
274.94	236.22
275.399	167.27
275.857	166.82
276.316	196.39
276.775	173
277.233	159.03
277.692	131.6
278.15	173.18
278.609	205.03
279.067	186.47
279.525	179.36
279.984	228.68
280.442	261.03
280.9	344.22
281.358	252.01
281.816	264.73
282.274	250.22
282.732	236.24
283.19	233.57
283.648	202.33
284.106	200.66
284.564	187.59
285.021	177.11
285.479	142.77
285.937	99.7
286.394	99.35
286.852	87.11
287.309	97.18
287.767	131.51
288.224	139.75
288.682	152.64
289.139	197.66
289.596	188.18
290.053	183.16
290.511	203.95
290.968	262.01
291.425	333.93
291.882	332.4
292.339	294.96
292.796	253.09
293.252	218.71
293.709	195.15
294.166	161.74
294.623	161
295.079	143.83
295.536	176.65
295.992	171.37
296.449	164.72
296.905	163.63
297.362	184.77
297.818	197.08
298.274	213.95
298.731	189.79
299.187	198.61
299.643	211.89
300.099	259.2
300.555	270.79
301.011	222.52
301.467	261.41
301.923	264.26
302.379	255.15
302.835	265.86
303.291	265.06
303.746	302.1
304.202	372.52
304.658	343.98
305.113	244.36
305.569	214.39
306.024	223.12
306.479	183.53
306.935	185.12
307.39	172.32
307.845	161.3
308.301	203.25
308.756	188.45
309.211	184.14
309.666	214.27
310.121	281.89
310.576	297.18
311.031	279.97
311.486	293.2
311.94	254.9
312.395	294.6
312.85	473.76
313.305	1014.05
313.759	10432.78
314.214	631.12
314.668	484.03
315.123	560.48
315.577	226.16
316.032	221.58
316.486	264.58
316.94	266.01
317.394	223.21
317.849	189.35
318.303	183.62
318.757	172.99
319.211	197.75
319.665	177.58
320.119	175.87
320.572	230.34
321.026	240.56
321.48	194.25
321.934	176.89
322.387	167.95
322.841	185.9
323.295	214.41
323.748	212.05
324.202	228.16
324.655	279.29
325.108	415.75
325.562	334.32
326.015	345.68
326.468	279.84
326.921	332.01
327.374	336.75
327.827	350.9
328.28	368.14
328.733	263.72
329.186	232.57
329.639	225.5
330.092	164.78
330.545	161.08
330.997	182.88
331.45	213.18
331.903	258.91
332.355	394.09
332.808	346.03
333.26	273.17
333.713	299.47
334.165	291.98
334.617	338.31
335.069	246.77
335.522	341.75
335.974	299.26
336.426	221.05
336.878	150.63
337.33	91.99
337.782	110.03
338.234	148.71
338.686	145.57
339.137	144.4
339.589	152.8
340.041	155.68
340.493	142.01
340.944	144.18
341.396	169.58
341.847	146.27
342.299	194.02
342.75	258.46
343.201	219.9
343.653	261.19
344.104	323.34
344.555	288.67
345.006	336.84
345.457	349.06
345.908	269.13
346.359	279.73
346.81	229.89
347.261	221.17
347.712	199.04
348.163	193.15
348.613	240.28
349.064	231.11
349.515	192.52
349.965	226.47
350.416	229.44
350.866	240.71
351.317	243.98
351.767	415.55
352.217	487.79
352.668	445.16
353.118	429.95
353.568	316.04
354.018	292.11
354.468	336.72
354.918	254.4
355.368	246.58
355.818	338.88
356.268	812.91
356.718	3432
357.168	1014.95
357.617	464.04
358.067	499.76
358.517	489.67
358.966	541.46
359.416	635.11
359.865	627.87
360.315	634.58
360.764	362.9
361.213	232.07
361.663	203.16
362.112	222.26
362.561	344.42
363.01	253.94
363.459	198.05
363.908	206.24
364.357	187.12
364.806	317.32
365.255	243.88
365.703	269.72
366.152	246.78
366.601	199.03
367.05	182.56
367.498	178.94
367.947	178.34
368.395	186.13
368.844	162.38
369.292	160.66
369.74	128.59
370.189	163.31
370.637	134.61
371.085	118.81
371.533	151.25
371.981	107.06
372.429	128.47
372.877	151.69
373.325	144.66
373.773	130.67
374.221	96.34
374.669	97.84
375.116	106.79
375.564	122.86
376.012	138.36
376.459	108.95
376.907	129.37
377.354	106.38
377.801	100.62
378.249	126.76
378.696	184.3
379.143	269.74
379.591	259.81
380.038	345.85
380.485	283.54
380.932	322.9
381.379	379.49
381.826	366.57
382.273	279.45
382.72	207.89
383.166	191.44
383.613	143.25
384.06	117.26
384.506	140.53
384.953	111.78
385.4	105.93
385.846	97.45
386.292	72.12
386.739	47.42
387.185	41.66
387.631	47.75
388.078	61.62
388.524	71.42
388.97	73.96
389.416	81.08
389.862	87.13
390.308	85.87
390.754	95.36
391.2	102.6
391.645	106.19
392.091	128.94
392.537	130.4
392.983	111.42
393.428	123.76
393.874	122.44
394.319	123.2
394.765	132.39
395.21	119.32
395.655	102.52
396.101	102.04
396.546	90.63
396.991	78.23
397.436	80.59
397.881	75.45
398.326	50.73
398.771	54.08
399.216	42.95
399.661	34.9
400.106	43.76
400.551	50.38
400.995	49.04
401.44	50.95
401.885	45.18
402.329	39.92
402.774	44.15
403.218	56.42
403.663	55.53
404.107	56.65
404.551	57.62
404.995	49.38
405.44	42.94
405.884	37.74
406.328	32.77
406.772	27.56
407.216	27.13
407.66	23.19
408.104	13.12
408.547	12.3
408.991	9.89
409.435	6.37
409.879	9.24
410.322	9.16
410.766	12.84
411.209	16.97
411.653	18.7
412.096	21.67
412.54	22.04
412.983	23.93
413.426	24.84
413.869	24.29
414.312	28.64
414.756	26.41
415.199	27.2
415.642	28.07
416.085	29.75
416.527	29.95
416.97	27.29
417.413	28.09
417.856	24.88
418.298	23.56
418.741	22.63
419.184	19.01
419.626	15.21
420.069	14.05
420.511	13.07
420.953	12.98
421.396	14.04
421.838	12.5
422.28	10.19
422.722	13.85
423.164	13.34
423.606	13.63
424.048	13.99
424.49	17.78
424.932	16.37
425.374	14.12
425.816	11.52
426.258	12.01
426.699	12.41
427.141	16.29
427.582	13.22
428.024	13.93
428.465	12.81
428.907	11.46
429.348	11.98
429.789	14.46
430.231	18.42
430.672	18.62
431.113	17.93
431.554	19.14
431.995	16.97
432.436	21.05
432.877	19.95
433.318	23.33
433.759	22.93
434.2	20.97
434.64	19.07
435.081	16.61
435.522	17.37
435.962	16.43
436.403	18.39
436.843	17.11
437.284	12.53
437.724	11.55
438.164	7.91
438.604	6.96
439.045	7.64
439.485	12.08
439.925	11.08
440.365	9.65
440.805	8.52
441.245	8.09
441.685	8.2
442.125	9.07
442.564	9.07
443.004	10.89
443.444	11.51
443.883	12.13
444.323	6.03
444.762	3.16
445.202	3.03
445.641	4.9
446.081	3.2
446.52	3.14
446.959	4.7
447.398	5.21
447.837	5.15
448.276	5.5
448.716	5.49
449.154	6.82
449.593	10.02
450.032	9.04
450.471	6.1
450.91	5.47
451.349	6.82
451.787	5.05
452.226	4.64
452.664	4.46
453.103	4
453.541	4.17
453.98	6.87
454.418	6.12
454.856	8.83
455.295	10.5
455.733	11.27
456.171	10.06
456.609	11.41
457.047	11.63
457.485	13.01
457.923	14.24
458.361	12.55
458.798	11.31
459.236	11.32
459.674	8.92
460.111	9.02
460.549	9.21
460.987	9.15
461.424	7.41
461.862	7.53
462.299	7
462.736	7.49
463.173	7.47
463.611	9.27
464.048	10.02
464.485	11.84
464.922	10.79
465.359	9.81
465.796	15.2
466.233	16.26
466.67	18.56
467.106	18.94
467.543	17.47
467.98	17.17
468.416	15.73
468.853	14.48
469.29	13.4
469.726	12.82
470.162	12.41
470.599	7.14
471.035	6.26
471.471	5.74
471.907	3.92
472.344	4.55
472.78	5.51
473.216	3.97
473.652	4.31
474.088	3.07
474.523	4.09
474.959	4.13
475.395	4.47
475.831	4.51
476.266	3.91
476.702	3.97
477.138	3.9
477.573	3.21
478.008	4.27
478.444	4.91
478.879	6.91
479.314	7.28
479.75	7.25
480.185	7.03
480.62	6.91
481.055	6.41
481.49	6.96
481.925	7.31
482.36	9.01
482.795	7.84
483.229	6.64
483.664	6.24
484.099	5.69
484.534	6.57
484.968	7.22
485.403	7.3
485.837	6.64
486.271	6.33
486.706	5.4
487.14	4.41
487.574	5.36
488.009	5.54
488.443	4.84
488.877	5.56
489.311	4.94
489.745	4.84
490.179	4.93
490.613	6.52
491.046	6.17
491.48	6.39
491.914	6.46
492.348	6.04
492.781	6.07
493.215	6.42
493.648	5.25
494.082	4.98
494.515	4.51
494.948	5.12
495.382	3.64
495.815	4.06
496.248	4.51
496.681	4.21
497.114	3.87
497.547	4.21
497.98	4.88
498.413	6.22
498.846	6.93
499.279	6.72
499.711	6.47
500.144	6.67
500.577	6.86
501.009	6.22
501.442	7.29
501.874	8.05
502.306	7.77
502.739	8.78
503.171	8.03
503.603	7.82
504.036	7.67
504.468	7.6
504.9	7.68
505.332	7.17
505.764	7.46
506.196	6.01
506.627	6.13
507.059	6.42
507.491	4.58
507.923	4.68
508.354	5.11
508.786	5.37
509.217	5.06
509.649	4.82
510.08	4.74
510.512	5.26
510.943	5.98
511.374	5.99
511.805	5.98
512.237	5.45
512.668	4.83
513.099	4.08
513.53	3.95
513.961	4.44
514.391	4.3
514.822	5.63
515.253	5.3
515.684	5.28
516.114	5.04
516.545	4.7
516.975	4.87
517.406	4.96
517.836	4.39
518.267	4.78
518.697	5.65
519.127	5.84
519.558	4.99
519.988	5.28
520.418	4.1
520.848	3.1
521.278	3.28
521.708	32.11
522.138	32.99
522.567	32.91
522.997	32.78
523.427	31.76
523.857	31.94
524.286	31.79
524.716	31.3
525.145	32.28
525.575	33.53
526.004	32.82
526.433	5.03
526.863	4.14
527.292	5.19
527.721	5.62
528.15	5.63
528.579	6.28
529.008	6.43
529.437	5.83
529.866	5.8
530.295	4.47
530.724	5.32
531.152	4.91
531.581	5.22
532.01	4.75
532.438	4.5
532.867	4.19
533.295	3.66
533.723	3.59
534.152	3.76
534.58	3.9
535.008	4.88
535.436	5.67
535.865	5.4
536.293	4.57
536.721	4.56
537.149	4.23
537.576	5.12
538.004	4.76
538.432	4.15
538.86	5.07
539.287	4.67
539.715	4.32
540.143	2.88
540.57	3.52
540.998	4.29
541.425	5.51
541.852	5.31
542.28	5.13
542.707	5.3
543.134	5.8
543.561	5.66
543.988	5.76
544.415	5.41
544.842	5.97
545.269	5.9
545.696	6.25
546.123	5.63
546.549	6.26
546.976	6.25
547.403	6.44
547.829	6.03
548.256	5.37
548.682	5.61
549.108	6.59
549.535	6.27
549.961	5.94
550.387	5.99
550.813	6.7
551.24	6.73
551.666	6.36
552.092	5.96
552.518	5.89
552.943	6.38
553.369	5.56
553.795	5.28
554.221	5.34
554.646	5.46
555.072	5.75
555.498	4.78
555.923	4.32
556.349	4.09
556.774	4.19
557.199	4.54
557.625	3.79
558.05	4.5
558.475	4.49
558.9	4.68
559.325	5.42
559.75	5.5
560.175	5.82
560.6	5.34
561.025	4.96
561.449	5.25
561.874	4.85
562.299	5.88
562.723	5.66
563.148	5.61
563.572	5.34
563.997	4.92
564.421	3.54
564.846	2.47
565.27	2.93
565.694	3.1
566.118	2.67
566.542	4.06
566.966	3.77
567.39	4.06
567.814	4.23
568.238	4.36
568.662	3.05
569.086	3.63
569.509	3.28
569.933	4.72
570.357	4.77
570.78	5.23
571.204	4.63
571.627	4.61
572.05	4.22
572.474	4.78
572.897	5.31
573.32	6.76
573.743	6.67
574.166	7.55
574.589	6.54
575.012	6.89
575.435	6.26
575.858	6.36
576.281	6.12
576.704	6.43
577.126	5.4
577.549	4.82
577.972	4.21
578.394	4.25
578.817	6.14
579.239	6.01
579.661	6.03
580.084	7.08
580.506	7.17
580.928	7.16
581.35	6.71
581.772	6.76
582.194	6.8
582.616	6.47
583.038	6.13
583.46	4.28
583.882	4.14
584.303	3.59
584.725	2.76
585.147	6.14
585.568	6.47
585.99	7.45
586.411	8.72
586.833	9.26
587.254	9.51
587.675	9.76
588.096	9.9
588.518	10.56
588.939	10.85
589.36	10.69
589.781	6.13
590.202	8.05
590.623	7.37
591.043	5.91
591.464	5.53
591.885	6.14
592.305	5.4
592.726	5.18
593.147	4.94
593.567	5.08
593.987	5.48
594.408	5.36
594.828	3.2
595.248	4.07
595.669	4.79
596.089	4.77
596.509	3.82
596.929	3.78
597.349	3.9
597.769	3.2
598.189	3.05
598.608	2.91
599.028	3.15
599.448	3.08
599.867	2.52
600.287	2.24
600.706	2.31
601.126	2.87
601.545	4.16
601.965	4.15
602.384	4.77
602.803	4.43
603.222	4.99
603.641	4.68
604.061	4.73
604.48	4.42
604.898	4.16
605.317	3.88
605.736	3.31
606.155	3.14
606.574	3.39
606.992	2.71
607.411	3.29
607.829	2.04
608.248	2.41
608.666	2.09
609.085	2.35
609.503	2.34
609.921	3.07
610.339	3.4
610.758	2.92
611.176	2.47
611.594	3.35
612.012	3.16
612.43	4.4
612.847	3.75
613.265	4.79
613.683	5
614.101	5.25
614.518	4.63
614.936	4.77
615.353	5.21
615.771	5.56
616.188	5.24
616.606	5.32
617.023	5.29
617.44	6
617.857	5.09
618.274	4.68
618.691	5.14
619.108	5.29
619.525	4.91
619.942	5.04
620.359	5.42
620.776	5.48
621.192	5.97
621.609	6.16
622.026	6.49
622.442	7.24
622.859	7.08
623.275	6.44
623.691	6.39
624.108	7.13
624.524	7.19
624.94	7.14
625.356	6.69
625.772	5.76
626.188	5.47
626.604	4.93
627.02	4.22
627.436	4.84
627.852	6.15
628.268	6.64
628.683	5.97
629.099	5.6
629.514	5.09
629.93	5.65
630.345	5.5
630.761	4.9
631.176	5.29
631.591	7.1
632.007	8
632.422	6.18
632.837	5.56
633.252	6.74
633.667	6.64
634.082	6.58
634.497	6.96
634.911	8.31
635.326	8.37
635.741	8.47
636.155	6.75
636.57	6.69
636.984	7.51
637.399	8.13
637.813	6.76
638.228	6.53
638.642	5.82
639.056	5.13
639.47	4.52
639.884	5.37
640.298	5.31
640.712	6.2
641.126	5.29
641.54	4.68
641.954	3.18
642.368	3.97
642.781	5.71
643.195	6.63
643.609	7.31
644.022	7.36
644.436	6.78
644.849	6.6
645.262	6.05
645.676	5.59
646.089	6.19
646.502	8.13
646.915	7.81
647.328	7.39
647.741	7.71
648.154	8.05
648.567	9.71
648.98	10.23
649.393	10.57
649.805	10.83
650.218	11.2
650.631	11.74
651.043	11.74
651.456	11.91
651.868	11.43
652.28	10.67
652.693	9.88
653.105	8.22
653.517	8.03
653.929	8.61
654.341	8.78
654.753	9.25
655.165	7.65
655.577	6.85
655.989	7.35
656.401	6.72
656.813	8.55
657.224	8.17
657.636	8.03
658.047	8.6
658.459	7.46
658.87	6.06
659.282	6.38
659.693	8.5
660.104	8.99
660.515	8.62
660.926	8.27
661.338	7.42
661.749	7
662.159	7.72
662.57	6.68
662.981	7.49
663.392	8.35
663.803	6.95
664.213	5.76
664.624	5.45
665.035	5.26
665.445	5.46
665.855	6.13
666.266	7.83
666.676	7.22
667.086	6.7
667.497	6.83
667.907	6.41
668.317	7.01
668.727	8.96
669.137	8.48
669.547	8.15
669.956	7.44
670.366	6.57
670.776	6.42
671.186	5.8
671.595	6.15
672.005	4.92
672.414	6.15
672.824	6.78
673.233	5.24
673.642	5.2
674.052	6.22
674.461	8.15
674.87	8.96
675.279	9.76
675.688	9.68
676.097	10.84
676.506	11.49
676.915	10.4
677.323	10.65
677.732	10.15
678.141	10.17
678.549	9.28
678.958	7.55
679.366	6.5
679.775	4.09
680.183	6.1
680.592	6
681	5.49
681.408	5.97
681.816	5.28
682.224	4.46
682.632	5.48
683.04	5.9
683.448	5.93
683.856	6.92
684.264	8.56
684.671	7.97
685.079	7.28
685.487	7.82
685.894	7.44
686.302	7.63
686.709	9.48
687.116	9.14
687.524	10.11
687.931	11.29
688.338	10.19
688.745	9.08
689.152	7.22
689.559	7.65
689.966	8.82
690.373	9.61
690.78	10.31
691.187	9.91
691.593	10.76
692	9.55
692.407	10.41
692.813	12.91
693.22	14.25
693.626	14.3
694.032	14.48
694.439	13.92
694.845	14.14
695.251	13.09
695.657	13.3
696.063	11
696.469	11.74
696.875	10.42
697.281	8.07
697.687	7.82
698.093	7.66
698.498	8.13
698.904	7.11
699.31	6.55
699.715	8.71
700.12	8.34
700.526	10.34
700.931	9.82
701.337	10.65
701.742	12.4
702.147	11.84
702.552	12.28
702.957	11.35
703.362	11.92
703.767	12.39
704.172	10.13
704.577	10.8
704.981	8.76
705.386	9.02
705.791	9.31
706.195	7.38
706.6	6.86
707.004	6.11
707.408	5.46
707.813	7.13
708.217	7.12
708.621	7.43
709.025	5.69
709.43	7.51
709.834	8.06
710.237	6.53
710.641	7.46
711.045	7.93
711.449	9.35
711.853	12.27
712.256	11.29
712.66	11.7
713.064	11.72
713.467	14.04
713.87	13.75
714.274	13.45
714.677	15.39
715.08	14.95
715.484	15.78
715.887	18.33
716.29	16.68
716.693	17.53
717.096	18.09
717.499	19.01
717.901	17.21
718.304	17.43
718.707	17.09
719.109	16.19
719.512	16.2
719.915	18.1
720.317	15.49
720.719	13.77
721.122	13.39
721.524	12.62
721.926	16.31
722.328	17.3
722.731	16.5
723.133	16.73
723.535	16.33
723.937	16.88
724.338	16.45
724.74	17.62
725.142	56.99
725.544	59.02
725.945	68.73
726.347	65.21
726.748	65.77
727.15	67.41
727.551	69.14
727.952	68.46
728.354	67.8
728.755	66.94
729.156	66.61
729.557	29.24
729.958	26.39
730.359	16.49
730.76	15.61
731.161	14.79
731.562	13.41
731.962	12.36
732.363	13.01
732.763	12.94
733.164	10.32
733.564	9.48
733.965	10.41
734.365	10.03
734.766	10.71
735.166	11.14
735.566	11.41
735.966	12.4
736.366	12.19
736.766	12
737.166	10.94
737.566	12.9
737.966	12.46
738.365	12.47
738.765	14.09
739.165	14.45
739.564	15.03
739.964	14.24
740.363	12.75
740.763	11.93
741.162	12.66
741.561	12.87
741.96	12.98
742.36	12.57
742.759	11.95
743.158	10.19
743.557	8.7
743.955	7.57
744.354	7.27
744.753	7.37
745.152	7.86
745.55	6.96
745.949	7.18
746.348	7.39
746.746	6.79
747.144	9.1
747.543	9.01
747.941	9.36
748.339	9.8
748.737	10.12
749.136	11.02
749.534	9.83
749.932	11.45
750.33	11.52
750.727	9.31
751.125	10.58
751.523	9.33
751.921	12.27
752.318	13.02
752.716	14.79
753.113	14.51
753.511	13.8
753.908	15.19
754.305	17.36
754.703	17.6
755.1	19.57
755.497	19.83
755.894	18.68
756.291	16.89
756.688	17.15
757.085	15.49
757.482	18.36
757.878	21.49
758.275	23.28
758.672	18.69
759.068	20.46
759.465	19.39
759.861	20.06
760.258	21.21
760.654	23.17
761.05	24.59
761.447	23.6
761.843	20.33
762.239	19.76
762.635	16.82
763.031	16.06
763.427	15.42
763.822	17.27
764.218	15.71
764.614	15.57
765.01	12.49
765.405	11.05
765.801	11.66
766.196	12.11
766.592	10.44
766.987	10.66
767.382	10.89
767.778	10.66
768.173	8.97
768.568	9.7
768.963	10.87
769.358	11.96
769.753	12.74
770.148	12.47
770.542	12.01
770.937	11.92
771.332	13.17
771.726	12.63
772.121	15.36
772.515	16.42
772.91	15.82
773.304	14.5
773.699	14.3
774.093	13.23
774.487	13.96
774.881	12.9
775.275	12.92
775.669	11.05
776.063	10.3
776.457	8.81
776.851	8.74
777.245	8.09
777.638	8.6
778.032	7.6
778.425	9.27
778.819	11.67
779.212	14.92
779.606	16.77
779.999	16.41
780.392	18.17
780.786	16.28
781.179	16.37
781.572	18.06
781.965	18.65
782.358	19.1
782.751	17.55
783.143	15
783.536	13.65
783.929	11.25
784.322	12.07
784.714	11.57
785.107	12.33
785.499	14.41
785.891	14.9
786.284	15.56
786.676	16.4
787.068	19.45
787.46	19.37
787.852	18.27
788.245	18.57
788.636	16.89
789.028	19.06
789.42	19.95
789.812	18.34
790.204	17.86
790.595	18.28
790.987	18.2
791.378	15.75
791.77	14.44
792.161	13.54
792.553	13.51
792.944	15.33
793.335	11.28
793.726	11.22
794.117	12.71
794.508	11.6
794.899	9.27
795.29	9.74
795.681	10.13
796.072	10.37
796.463	26.04
796.853	30.05
797.244	32.22
797.634	35.55
798.025	35.82
798.415	34.01
798.806	37.5
799.196	40.4
799.586	40.92
799.976	42.98
800.366	42.41
800.756	26.47
801.146	22.07
801.536	18.98
801.926	16.76
802.316	16.67
802.706	17.2
803.095	15.75
803.485	15.34
803.874	13.73
804.264	11.97
804.653	14.23
805.043	17.45
805.432	20.75
805.821	24.08
806.21	26.27
806.599	27.81
806.988	29.27
807.377	27.89
807.766	25.32
808.155	25.52
808.544	25.09
808.933	23.87
809.321	24.1
809.71	19.66
810.098	19.64
810.487	17.81
810.875	15.9
811.264	15.52
811.652	23.16
812.04	27.21
812.428	29.83
812.816	26.56
813.204	32.23
813.592	27.92
813.98	32.18
814.368	34.02
814.756	35.72
815.144	38.51
815.531	42.19
815.919	32.1
816.306	29.28
816.694	28.48
817.081	33.15
817.469	30.31
817.856	30.76
818.243	27.24
818.63	24.88
819.017	26.39
819.404	26.79
819.791	21.67
820.178	20.52
820.565	23.75
820.952	31.76
821.339	35.62
821.725	36.25
822.112	39.08
822.498	45.98
822.885	43.35
823.271	40.29
823.657	33.98
824.044	37.01
824.43	38.15
824.816	43.11
825.202	40.2
825.588	39.44
825.974	41.34
826.36	38.23
826.746	36.46
827.132	38.17
827.517	43.55
827.903	45.27
828.289	45.28
828.674	44.97
829.06	41.24
829.445	35.46
829.83	29.51
830.216	27.11
830.601	33.22
830.986	38.28
831.371	40.79
831.756	41.69
832.141	48.35
832.526	49.42
832.911	51.28
833.295	47.72
833.68	49.71
834.065	54.94
834.449	53.07
834.834	52.51
835.218	49.8
835.603	51.59
835.987	50.22
836.371	46.97
836.755	48.74
837.139	47.4
837.524	47.55
837.908	45.32
838.291	46.47
838.675	47.48
839.059	46.82
839.443	45.6
839.827	39.14
840.21	35.46
840.594	36.04
840.977	33.97
841.361	35.27
841.744	34.22
842.127	34.79
842.511	31.1
842.894	29.64
843.277	28.81
843.66	25.68
844.043	27.13
844.426	29.85
844.809	24.16
845.191	24.02
845.574	23.57
845.957	25.36
846.339	27.04
846.722	29.06
847.104	26.62
847.487	21.95
847.869	24.9
848.252	30.22
848.634	27.9
849.016	30.98
849.398	28.66
849.78	29.71
850.162	33.08
850.544	32.02
850.926	29.12
851.307	34.03
851.689	36.86
852.071	29.9
852.452	26.15
852.834	27.72
853.215	28.58
853.597	29.29
853.978	31.22
854.359	28.48
854.741	32.74
855.122	34.48
855.503	31.4
855.884	29.92
856.265	34.49
856.646	29.62
857.026	33.14
857.407	34.32
857.788	33.42
858.169	30.11
858.549	34.72
858.93	31.3
859.31	33.6
859.69	37.93
860.071	42.09
860.451	41.53
860.831	42.8
861.211	39.23
861.591	36.08
861.971	34.8
862.351	33.49
862.731	27.88
863.111	29.38
863.491	29.75
863.87	28.86
864.25	22.3
864.629	29.53
865.009	29.8
865.388	29.8
865.768	29.38
866.147	33.33
866.526	37.5
866.905	43.62
867.284	40.34
867.663	35.97
868.042	33.61
868.421	38.29
868.8	34.22
869.179	37.24
869.558	36.81
869.936	37.01
870.315	35.72
870.693	36.46
871.072	30.8
871.45	29.06
871.828	31.72
872.207	32.72
872.585	33.56
872.963	30.03
873.341	35.62
873.719	45.33
874.097	44.26
874.475	42.73
874.853	42.37
875.23	43.98
875.608	51.49
875.986	52.7
876.363	52.58
876.741	65.66
877.118	72.86
877.495	74.42
877.873	67
878.25	68.61
878.627	68.57
879.004	70.41
879.381	67.26
879.758	69.94
880.135	68.12
880.512	66.35
880.889	48.23
881.265	47.35
881.642	40.47
882.019	36.97
882.395	48.04
882.772	59.39
883.148	60.17
883.524	64.57
883.901	58.48
884.277	52.6
884.653	53.88
885.029	64.54
885.405	69.07
885.781	69.64
886.157	67.96
886.532	60.06
886.908	49.3
887.284	49.67
887.659	46.94
888.035	47.93
888.411	49.13
888.786	52.22
889.161	46.57
889.537	37.9
889.912	35.72
890.287	36.66
890.662	31.1
891.037	24.73
891.412	20.11
891.787	16.65
892.162	18.42
892.536	20.92
892.911	20.51
893.286	20.83
893.66	23.05
894.035	27.92
894.409	26.02
894.784	33.04
895.158	39.46
895.532	45.61
895.906	50.67
896.281	55.89
896.655	63.58
897.029	64.17
897.402	66.95
897.776	70.76
898.15	70.21
898.524	72.43
898.898	75.28
899.271	87.94
899.645	79.61
900.018	76.15
900.392	76.13
900.765	65.51
901.138	70.54
901.511	58.9
901.884	70.48
902.258	73.66
902.631	85.3
903.003	86.75
903.376	70.95
903.749	81.48
904.122	80.09
904.495	67.31
904.867	63.05
905.24	55.18
905.612	65.09
905.985	48.17
906.357	36.91
906.729	31.5
907.102	42.23
907.474	45.8
907.846	50.58
908.218	61.49
908.59	77.32
908.962	78.74
909.334	89.07
909.705	93.46
910.077	94.13
910.449	93.06
910.82	103.2
911.192	103.18
911.563	116.51
911.935	108.3
912.306	85.02
912.677	75.95
913.048	85.91
913.419	82.17
913.79	74.08
914.161	75.31
914.532	88.9
914.903	69.11
915.274	64.89
915.645	64.7
916.015	61.49
916.386	73.29
916.756	76.5
917.127	68.7
917.497	72.22
917.868	81.03
918.238	88.16
918.608	82.69
918.978	89.64
919.348	89.65
919.718	88.19
920.088	87.09
920.458	95.39
920.828	82.96
921.198	88.24
921.567	87.55
921.937	70.15
922.306	53
922.676	51.52
923.045	64.79
923.415	75.36
923.784	67.96
924.153	77.81
924.522	77.58
924.891	82.11
925.26	82.82
925.629	79.71
925.998	87.39
926.367	99.2
926.736	116.23
927.104	111.42
927.473	103.34
927.842	114.18
928.21	99.03
928.578	89.21
928.947	85.95
929.315	87.45
929.683	119.01
930.051	110.64
930.42	110.56
930.788	86.18
931.156	85.63
931.523	125.2
931.891	136.35
932.259	146.25
932.627	187.11
932.994	265.37
933.362	266.18
933.729	235.5
934.097	252.38
934.464	237.68
934.831	259.57
935.199	253.51
935.566	226.45
935.933	203.82
936.3	231.91
936.667	175.03
937.034	220.78
937.401	197.04
937.767	157.46
938.134	141.27
938.501	175.26
938.867	197.37
939.234	346.85
939.6	281.89
939.967	382.58
940.333	257.82
940.699	210.82
941.065	117.31
941.431	154.51
941.798	215.09
942.163	316.12
942.529	202.21
942.895	175.28
943.261	117.3
943.627	149.59
943.992	126.38
944.358	131.74
944.723	175.08
945.089	161.52
945.454	160.64
945.82	147.17
946.185	121.56
946.55	156.09
946.915	151.6
947.28	174.41
947.645	168.31
948.01	174.88
948.375	190.29
948.74	186.83
949.104	214.62
949.469	204.56
949.834	306
950.198	377.14
950.562	239.85
950.927	201.58
951.291	234.53
951.655	187.05
952.02	108.24
952.384	93.3
952.748	107.55
953.112	139.98
953.476	154.47
953.839	145.47
954.203	146.68
954.567	151.75
954.931	194.7
955.294	180.66
955.658	175.86
956.021	332.28
956.385	443.9
956.748	652.21
957.111	619.62
957.474	461.88
957.837	473.69
958.2	235.77
958.563	147.35
958.926	156.73
959.289	215.43
959.652	257.62
960.015	201.6
960.377	315.5
960.74	262.16
961.102	426.03
961.465	628.23
961.827	578.74
962.189	970.22
962.552	700.06
962.914	515.13
963.276	323.44
963.638	274.67
964	276.4
964.362	199.7
964.724	208.23
965.085	168.09
965.447	142.47
965.809	117.44
966.17	123.94
966.532	125.83
966.893	117.7
967.255	106.47
967.616	109.31
967.977	91.39
968.338	89.59
968.699	91.18
969.061	87.78
969.421	97.95
969.782	107.16
970.143	112.02
970.504	137.94
970.865	175.63
971.225	199.01
971.586	210.8
971.946	288.26
972.307	258.75
972.667	288.73
973.027	306
973.388	327.2
973.748	247.33
974.108	252.18
974.468	262.82
974.828	240.79
975.188	173.32
975.548	137.21
975.907	122.14
976.267	131
976.627	149.43
976.986	145.68
977.346	135.61
977.705	113.37
978.064	97.5
978.424	85.21
978.783	49.56
979.142	54.33
979.501	67.38
979.86	73.47
980.219	79.34
980.578	53.63
980.937	64.61
981.296	64.89
981.654	69.17
982.013	100.97
982.371	146.4
982.73	184.08
983.088	227.92
983.447	224.95
983.805	316.89
984.163	569.24
984.521	663.93
984.879	738.78
985.237	-1642.88
985.595	1979.75
985.953	445.96
986.311	248.51
986.669	135.94
987.026	93.96
987.384	77.42
987.741	63.67
988.099	119.29
988.456	111.72
988.814	133.54
989.171	106.81
989.528	65.94
989.885	64.6
990.242	53.84
990.599	54.78
990.956	62.93
991.313	60.89
991.67	60.6
992.027	95.46
992.383	90.42
992.74	81.34
993.096	85.88
993.453	101.17
993.809	113.89
994.165	149.06
994.522	177.26
994.878	186.7
995.234	236.54
995.59	228.48
995.946	137.7
996.302	162.08
996.658	170.2
997.013	190.14
997.369	246.76
997.725	313.15
998.08	209.32
998.436	173.19
998.791	210.57
999.147	227.97
999.502	250.02
999.857	190.44
1000.212	302.52
1000.567	510.46
1000.922	294.44
1001.277	162.66
1001.632	126.22
1001.987	138.33
1002.342	117.9
1002.696	126.46
1003.051	110.07
1003.406	126.03
1003.76	112.59
1004.114	102.78
1004.469	98.02
1004.823	89.62
1005.177	79.84
1005.531	57.54
1005.885	73.79
1006.239	99.95
1006.593	138.59
1006.947	193.17
1007.301	157.94
1007.655	167.16
1008.008	137.91
1008.362	140.55
1008.715	190.54
1009.069	204.52
1009.422	369.58
1009.776	669.32
1010.129	415.72
1010.482	324.68
1010.835	233.94
1011.188	425.4
1011.541	416
1011.894	-2014.31
1012.247	6898.89
1012.6	380.66
1012.952	221.52
1013.305	85.7
1013.657	81.53
1014.01	68.47
1014.362	32.41
1014.715	70.55
1015.067	77.74
1015.419	84.37
1015.771	96.09
1016.123	100.23
1016.475	111.41
1016.827	116.52
1017.179	137
1017.531	129.74
1017.883	131.51
1018.234	179.88
1018.586	205.89
1018.938	238.35
1019.289	328.74
1019.64	313.58
1019.992	275.15
1020.343	262.29
1020.694	254.63
1021.045	231.1
1021.396	263.4
1021.747	313.05
1022.098	299.3
1022.449	217.76
1022.8	215.17
1023.151	171.47
1023.501	179.51
1023.852	193.08
1024.202	203.45
1024.553	198.1
1024.903	219.99
1025.253	219.96
1025.604	207.15
1025.954	260.02
1026.304	284.39
1026.654	309.12
1027.004	390.06
1027.354	528.76
1027.703	509.2
1028.053	658.98
1028.403	1171.28
1028.753	1338.84
1029.102	988.38
1029.452	1624.59
1029.801	-27.44
1030.15	12.29
1030.499	-40.23
897.758	1392.83
901.051	1345.73
904.343	1372.42
907.636	1374.73
910.928	1411.19
914.22	1364.76
917.511	1370.72
920.803	1399.64
924.094	1393.09
927.384	1398.72
930.675	1375.68
933.965	1356.74
937.255	1378.89
940.544	1359.4
943.834	1357.54
947.123	1323.26
950.411	1376.61
953.7	1368.31
956.988	1359.25
960.276	1314.47
963.563	1339.01
966.851	1346.52
970.138	1367.96
973.424	1369.41
976.711	1337.08
979.997	1367.49
983.283	1391.69
986.568	1351.9
989.853	1341.19
993.138	1353.49
996.423	1413.03
999.708	1388.31
1002.992	1403.57
1006.275	1349.4
1009.559	1354.11
1012.842	1413.98
1016.125	1384.49
1019.408	1369.37
1022.69	1401.2
1025.972	1418.39
1029.254	1407.38
1032.536	1384.54
1035.817	1389
1039.098	1371.23
1042.379	1401.18
1045.659	1412.16
1048.939	1379.7
1052.219	1380.52
1055.498	1377.38
1058.778	1368.87
1062.057	1357.16
1065.335	1373.48
1068.614	1374.87
1071.892	1368.77
1075.17	1402.29
1078.447	1402.59
1081.724	1398.44
1085.001	1411.91
1088.278	1398.89
1091.554	1399.08
1094.83	1400.86
1098.106	1418.68
1101.382	1433.51
1104.657	1433.06
1107.932	1433.71
1111.206	1419.51
1114.481	1389.9
1117.755	1393.07
1121.029	1386.44
1124.302	1421.35
1127.575	1405.48
1130.848	1404.07
1134.121	1386.92
1137.393	1361.19
1140.665	1398.88
1143.937	1382.41
1147.208	1353.27
1150.48	1388.68
1153.75	1380.39
1157.021	1384.51
1160.291	1368.64
1163.561	1399.05
1166.831	1377.34
1170.101	1391.19
1173.37	1368.23
1176.639	1343.2
1179.907	1375.59
1183.176	1384.28
1186.444	1387.81
1189.711	1401.03
1192.979	1416.34
1196.246	1391.98
1199.513	1399.81
1202.78	1402.35
1206.046	1406.96
1209.312	1428.46
1212.578	1432.44
1215.843	1408.27
1219.108	1394.24
1222.373	1406.71
1225.638	1389.52
1228.902	1380.95
1232.166	1361.97
1235.43	1351.63
1238.693	1368.86
1241.956	1365.89
1245.219	1391.52
1248.482	1385.63
1251.744	1386.05
1255.006	1453.63
1258.268	1422.16
1261.529	1402.66
1264.79	1402.57
1268.051	1456.56
1271.312	1465.8
1274.572	1444.11
1277.832	1436.82
1281.092	1422.65
1284.351	1418.45
1287.61	1411.81
1290.869	1375.74
1294.128	1376.22
1297.386	1396.67
1300.644	1392.95
1303.902	1398.63
1307.159	1319.46
1310.416	1349.33
1313.673	1363.48
1316.93	1368.33
1320.186	1382.74
1323.442	1399.34
1326.697	1397.1
1329.953	1384.11
1333.208	1408.11
1336.463	1393.42
1339.717	1372.43
1342.972	1439.59
1346.226	1425.08
1349.479	1404.2
1352.733	1387.74
1355.986	1397.88
1359.238	1387.17
1362.491	1389.41
1365.743	1388.76
1368.995	1386
1372.247	1399.51
1375.498	1407.7
1378.749	1431.74
1382	1405.99
1385.251	1419.82
1388.501	1398.38
1391.751	1394.67
1395	1381.2
1398.25	1398.95
1401.499	1414.39
1404.748	1386.17
1407.996	1374.51
1411.244	1372.9
1414.492	1361.97
1417.74	1352.52
1420.987	1362.66
1424.234	1393.61
1427.481	1372.27
1430.728	1403.47
1433.974	1391.93
1437.22	1391.69
1440.465	1386.97
1443.711	1387.4
1446.956	1397.46
1450.201	1381.35
1453.445	1409.26
1456.689	1396.9
1459.933	1407.71
1463.177	1430.91
1466.42	1414.97
1469.663	1403.23
1472.906	1409.95
1476.148	1438.06
1479.391	1415.23
1482.633	1404.84
1485.874	1419.02
1489.115	1422.33
1492.356	1413.24
1495.597	1395.28
1498.838	1389.41
1502.078	1383.94
1505.318	1370.66
1508.557	1385.42
1511.797	1385.73
1515.036	1413.02
1518.274	1388.06
1521.513	1357.93
1524.751	1361.9
1527.989	1374.28
1531.227	1386.52
1534.464	1390.37
1537.701	1384.2
1540.938	1387.88
1544.174	1361.15
1547.41	1349.3
1550.646	1373.71
1553.882	1399.19
1557.117	1435.16
1560.352	1440.4
1563.587	1414.38
1566.821	1396.17
1570.055	1409.62
1573.289	1392.63
1576.523	1422.94
1579.756	1429.64
1582.989	1443.67
1586.222	1415.11
1589.454	1439.87
1592.686	1430.57
1595.918	1441.97
1599.15	1442.41
1602.381	1469.65
1605.612	1458.27
1608.843	1511.76
1612.073	1467.28
1615.303	1461.84
1618.533	1458.99
1621.762	1460.69
1624.992	1440.19
1628.221	1438.24
1631.449	1434.74
1634.678	1449.08
1637.906	1425.93
1641.134	1437.51
1644.361	1418.03
1647.588	1411.69
1650.815	1425.29
1654.042	1405.23
1657.269	1420.58
1660.495	1411.08
1663.72	1404.44
1666.946	1382.93
1670.171	1371.97
1673.396	1355.69
1676.621	1347.88
1679.845	1346.69
1683.069	1349.8
1686.293	1363.32
1689.517	1358.14
1692.74	1333.05
1695.963	1344.05
1699.185	1365.09
1702.408	1352.82
1705.63	1366.1
1708.852	1377.9
1712.073	1360.37
1715.294	1370.65
1718.515	1402.32
1721.736	1378.29
1724.956	1368.86
1728.176	1382.09
1731.396	1391.67
1734.616	1388.73
1737.835	1415.74
1741.054	1395.53
1744.272	1393.66
1747.491	1417.69
1750.709	1428.28
1753.927	1398.8
1757.144	1417.3
1760.361	1449.17
1763.578	1431.83
1766.795	1404.39
1770.011	1394.51
1773.227	1406.86
1776.443	1435.78
1779.658	1456.37
1782.874	1423.72
1786.089	1419.17
1789.303	1419.93
1792.518	1419.49
1795.732	1413.67
1798.945	1421.85
1802.159	1449.32
1805.372	1416.07
1808.585	1409.57
1811.797	1408.67
1815.01	1428.09
1818.222	1445.01
1821.434	1425.54
1824.645	1447.61
1827.856	1450.41
1831.067	1466.28
1834.278	1434.95
1837.488	1422.23
1840.698	1494.83
1843.908	1468.74
1847.117	1449.49
1850.326	1404.83
1853.535	1440.62
1856.744	1459.76
1859.952	1416.29
1863.16	1418.23
1866.368	1434.97
1869.575	1498.79
1872.782	1436.66
1875.989	1396.62
1879.196	1426.69
1882.402	1425.55
1885.608	1443.2
1888.814	1409.89
1892.019	1359.2
1895.224	1394.31
1898.429	1377.47
1901.634	1364.15
1904.838	1352.52
1908.042	1385.56
1911.246	1401.63
1914.449	1378.71
1917.652	1369.97
1920.855	1360
1924.058	1373.13
1927.26	1404.65
1930.462	1414.31
1933.664	1437
1936.865	1406.97
1940.066	1416.26
1943.267	1382.61
1946.467	1388.02
1949.668	1393.84
1952.868	1435.27
1956.067	1435
1959.267	1401.21
1962.466	1415.19
1965.665	1402.65
1968.863	1401.34
1972.061	1398.83
1975.259	1394.18
1978.457	1439.11
1981.654	1415.21
1984.852	1417.99
1988.048	1393.47
1991.245	1381.92
1994.441	1433.24
1997.637	1402.42
2000.833	1394.57
2004.028	1412.97
2007.223	1454.61
2010.418	1444.9
2013.613	1417.12
2016.807	1411.81
2020.001	1410.04
2023.194	1419.72
2026.388	1408.8
2029.581	1377.3
2032.774	1415.55
2035.966	1421.18
2039.158	1389.94
2042.35	1401.86
2045.542	1357.52
2048.733	1406.9
2051.924	1397.8
2055.115	1408.17
2058.306	1392.07
2061.496	1422.9
2064.686	1451.97
2067.875	1392.54
2071.065	1395.09
2074.254	1405.45
2077.442	1376.32
2080.631	1426.52
2083.819	1388.18
2087.007	1383.38
2090.195	1374.5
2093.382	1375.6
2096.569	1372.52
2099.756	1347.91
2102.942	1384.37
2106.128	1389.06
2109.314	1382.65
2112.5	1375.61
2115.685	1358.22
2118.87	1362.1
2122.055	1402.66
2125.239	1386.97
2128.424	1385.27
2131.608	1414.32
2134.791	1404.83
2137.974	1425.45
2141.157	1418.79
2144.34	1404.08
2147.523	1395.85
2150.705	1414.17
2153.887	1392.2
2157.068	1377.6
2160.25	1364.09
2163.431	1379.35
2166.611	1361.85
2169.792	1375.6
2172.972	1318.3
2176.152	1353.13
2179.331	1367.51
2182.511	1367.73
2185.69	1376.84
2188.868	1379.54
2192.047	1401.07
2195.225	1418.61
2198.403	1384.55
2201.58	1374.89
2204.758	1367
2207.935	1412.21
2211.111	1362.61
2214.288	1354.1
2217.464	1372.99
2220.64	1351.14
2223.815	1378.99
2226.991	1336.85
2230.166	1342.88
2233.34	1368.63
2236.515	1380.16
2239.689	1419.92
2242.863	1391.11
2246.036	1418.6
2249.209	1410.73
2252.382	1425.12
2255.555	1427.26
2258.727	1401.94
2261.9	1418.89
2265.071	1415.98
2268.243	1415.59
2271.414	1385.51
2274.585	1371.93
2277.756	1408.9
2280.926	1387.67
2284.096	1404.74
2287.266	1362.47
2290.436	1393.16
2293.605	1402.49
2296.774	1425.45
2299.942	1430.58
2303.111	1440.56
2306.279	1471.29
2309.447	1464.99
2312.614	1449.39
2315.781	1457.07
2318.948	1446.98
2322.115	1471.66
2325.281	1403.19
2328.447	1409.32
2331.613	1390.49
2334.779	1385.8
2337.944	1383.18
2341.109	1383.51
2344.274	1378.16
2347.438	1358.41
2350.602	1373.6
2353.766	1377.28
2356.929	1372.39
2360.092	1399.56
2363.255	1376.35
2366.418	1362.7
2369.58	1386.31
2372.742	1365.19
2375.904	1351.45
2379.066	1346.21
2382.227	1361.67
2385.388	1337.87
2388.548	1308.59
2391.709	1326.85
2394.869	1325.25
2398.029	1358.81
2401.188	1348.3
2404.347	1337.56
2407.506	1333.35
2410.665	1371.08
2413.823	1357
2416.981	1346.14
2420.139	1357.35
2423.296	1382.19
2426.453	1366.82
2429.61	1378.43
2432.767	1363.32
2435.923	1386.65
2439.079	1354.01
2442.235	1376.06
2445.391	1338.15
2448.546	1363.5
2451.701	1385.75
2454.855	1383.93
2458.009	1398.52
2461.163	1391.2
2464.317	1372.72
2467.471	1388.07
2470.624	1408.54
2473.777	1401.1
2476.929	1411.38
2480.082	1424.67
2483.234	1415.78
2486.385	1377.51
2489.537	1373.24
2492.688	1367.7
2495.839	1383.76
2498.989	1390.6
2502.14	1381.56
2505.29	1375.87
2508.439	1388.74
2511.589	1354.64
2514.738	1354.98
2517.887	1363.98
2521.035	1410.91
2524.183	1384.92
2527.331	1378.75
2530.479	1371.07
2533.627	1375.77
