Data from N_1_DIV_IL_4N_Splice17_11-16-32-737.txt Node
Date: Sat Mar 14 11:16:32 EDT 2020
User: sa697716
Spectrometer: FLMS03696
Trigger mode: 0
Integration Time (sec): 3.180400E-1
Scans to average: 20
Electric dark correction enabled: true
Nonlinearity correction enabled: true
Boxcar width: 5
XAxis mode: Wavelengths
Number of Pixels in Spectrum: 2048
>>>>>Begin Spectral Data<<<<<
187.83	-151774.8
188.298	1157.77
188.766	642.42
189.233	580.87
189.701	721.95
190.169	991.12
190.636	371.05
191.104	232.49
191.571	45.51
192.039	20.77
192.506	-24.92
192.974	305.53
193.441	-279.77
193.908	12.54
194.375	-3.63
194.842	9.02
195.31	91.95
195.777	133.82
196.244	215.29
196.711	186.72
197.177	193.1
197.644	190.8
198.111	336.17
198.578	400.65
199.045	298.39
199.511	464.23
199.978	486.87
200.445	388.55
200.911	400.21
201.378	377.13
201.844	357.62
202.31	576.11
202.777	634.16
203.243	341.95
203.709	311.76
204.176	397.03
204.642	325.27
205.108	303.64
205.574	247.49
206.04	212.1
206.506	211.07
206.972	194.89
207.438	183.13
207.903	189.63
208.369	185.1
208.835	193.53
209.301	176.38
209.766	173.3
210.232	170.44
210.697	193.72
211.163	229.86
211.628	309.43
212.094	263.77
212.559	379.23
213.024	254.98
213.49	305.23
213.955	283.53
214.42	258.84
214.885	241.85
215.35	222.78
215.815	271.58
216.28	278.04
216.745	216.43
217.21	233.46
217.675	176.93
218.14	188.49
218.604	173.42
219.069	191.04
219.534	216.06
219.998	225.32
220.463	264.09
220.927	239.89
221.392	202.95
221.856	205.13
222.32	194.58
222.785	227.66
223.249	271.69
223.713	285.34
224.177	279.35
224.642	303.63
225.106	335.63
225.57	290.26
226.034	236.93
226.497	379.58
226.961	353.61
227.425	440.41
227.889	434.78
228.353	403.01
228.816	739.49
229.28	669.41
229.744	512.97
230.207	371.52
230.671	380.78
231.134	520.76
231.597	577.15
232.061	535.6
232.524	494.54
232.987	358.57
233.45	313.4
233.914	280.83
234.377	234.58
234.84	210.63
235.303	199.05
235.766	221.9
236.229	258.45
236.691	162.25
237.154	160.71
237.617	138.54
238.08	126.44
238.542	151.3
239.005	117.8
239.468	128.51
239.93	126.69
240.393	125.56
240.855	110.76
241.317	94.82
241.78	94.55
242.242	118.12
242.704	161.39
243.166	160.08
243.629	153.93
244.091	175.41
244.553	196.4
245.015	226.63
245.477	272.59
245.939	366.12
246.4	393.53
246.862	367.19
247.324	325.92
247.786	296.49
248.247	288.29
248.709	255.77
249.17	214.34
249.632	288.69
250.093	345.7
250.555	292.24
251.016	230.05
251.477	223.78
251.939	247.99
252.4	248.96
252.861	282.07
253.322	293.33
253.783	304.38
254.244	380.09
254.705	242.39
255.166	178.32
255.627	167.2
256.088	194.56
256.549	189.65
257.009	170.89
257.47	183.65
257.931	118.13
258.391	89.85
258.852	105.98
259.312	96.93
259.773	94.61
260.233	151.31
260.694	164.98
261.154	186.67
261.614	195.66
262.074	176.23
262.534	189.43
262.994	200.65
263.455	242.52
263.915	213.47
264.374	188.72
264.834	207.83
265.294	203.23
265.754	213.16
266.214	199.8
266.673	177.93
267.133	199.56
267.593	200.45
268.052	237.22
268.512	211.63
268.971	295.6
269.431	357.02
269.89	307.62
270.349	455.62
270.809	478.85
271.268	440.01
271.727	892.52
272.186	607.63
272.645	437.92
273.104	280.02
273.563	394.02
274.022	234.84
274.481	214.21
274.94	180.62
275.399	110.63
275.857	108.1
276.316	109.34
276.775	92.23
277.233	99.1
277.692	110.7
278.15	156.93
278.609	212
279.067	210.18
279.525	206.21
279.984	255.54
280.442	347.13
280.9	385.69
281.358	259.04
281.816	254.13
282.274	244.51
282.732	236.71
283.19	207.23
283.648	161.96
284.106	148.22
284.564	144.98
285.021	174.97
285.479	120.01
285.937	77.23
286.394	90.78
286.852	75.37
287.309	73.81
287.767	100.21
288.224	117.63
288.682	117.64
289.139	161.2
289.596	166.04
290.053	130.72
290.511	136.15
290.968	203.98
291.425	237.48
291.882	236.26
292.339	214.13
292.796	175.53
293.252	140.06
293.709	153
294.166	127.42
294.623	105.06
295.079	112.48
295.536	140.37
295.992	132.37
296.449	127.71
296.905	149.89
297.362	159.75
297.818	168.51
298.274	181.79
298.731	153.1
299.187	143.31
299.643	152.54
300.099	180.53
300.555	211.14
301.011	179.53
301.467	217.71
301.923	200.68
302.379	212.6
302.835	218.63
303.291	223.46
303.746	262.29
304.202	321.64
304.658	330.09
305.113	233.97
305.569	223.74
306.024	229.74
306.479	159.49
306.935	156.71
307.39	135.95
307.845	116.57
308.301	145.17
308.756	120.34
309.211	144.93
309.666	156.65
310.121	230.97
310.576	193.06
311.031	165.85
311.486	194.92
311.94	171.76
312.395	181.58
312.85	246.66
313.305	311.29
313.759	6815.03
314.214	457.78
314.668	353.41
315.123	277.97
315.577	155.36
316.032	151.7
316.486	214.45
316.94	206.74
317.394	176.37
317.849	155.64
318.303	150.28
318.757	130.19
319.211	136.45
319.665	115.67
320.119	116.9
320.572	147.34
321.026	167.95
321.48	129.78
321.934	122.11
322.387	119.49
322.841	136.52
323.295	156.78
323.748	160.4
324.202	176.14
324.655	237.07
325.108	349.37
325.562	300.44
326.015	328.31
326.468	265.74
326.921	318.73
327.374	348.6
327.827	375.45
328.28	394.55
328.733	286.14
329.186	253.18
329.639	235.59
330.092	192.09
330.545	166.37
330.997	175.83
331.45	206.09
331.903	242.56
332.355	341.32
332.808	334.75
333.26	307.79
333.713	341.28
334.165	312.7
334.617	380.62
335.069	273.52
335.522	439.68
335.974	484.33
336.426	420.3
336.878	264.69
337.33	153.85
337.782	134.52
338.234	153.25
338.686	130.34
339.137	180.69
339.589	186.84
340.041	170.49
340.493	160.32
340.944	138.37
341.396	124.59
341.847	133.76
342.299	173.76
342.75	264.96
343.201	211.85
343.653	252.16
344.104	299.62
344.555	232.66
345.006	247.5
345.457	249.71
345.908	214.97
346.359	251.09
346.81	188.8
347.261	192.93
347.712	148.22
348.163	164.39
348.613	209.26
349.064	199.47
349.515	163.49
349.965	200.32
350.416	189.81
350.866	194.45
351.317	180.12
351.767	302.62
352.217	334.96
352.668	263.61
353.118	231.16
353.568	152.99
354.018	160.94
354.468	186.45
354.918	149.83
355.368	165.45
355.818	234.62
356.268	530.71
356.718	2267.73
357.168	649.31
357.617	414.83
358.067	446.36
358.517	420.79
358.966	444.78
359.416	667.07
359.865	738.93
360.315	746.65
360.764	359.76
361.213	228.94
361.663	205.42
362.112	210.72
362.561	266.55
363.01	204.68
363.459	174.29
363.908	161.3
364.357	138.74
364.806	158.07
365.255	132.58
365.703	154.72
366.152	151.11
366.601	115.92
367.05	124.03
367.498	132.01
367.947	127.26
368.395	117.37
368.844	136.45
369.292	105.44
369.74	96.12
370.189	129.97
370.637	110.15
371.085	99.69
371.533	141.64
371.981	94.88
372.429	116.9
372.877	136.1
373.325	130.78
373.773	104.86
374.221	94.6
374.669	100.13
375.116	103.14
375.564	133.42
376.012	128.85
376.459	120.17
376.907	152.66
377.354	136.86
377.801	120.09
378.249	180.72
378.696	204.88
379.143	285.78
379.591	304.77
380.038	375.42
380.485	252.53
380.932	259.87
381.379	235.29
381.826	285.56
382.273	231.71
382.72	209.08
383.166	204.06
383.613	158.37
384.06	150.86
384.506	165.28
384.953	136.46
385.4	126.11
385.846	131.88
386.292	107.17
386.739	79.7
387.185	68.09
387.631	64.25
388.078	68.53
388.524	54.98
388.97	56.58
389.416	60.21
389.862	72.67
390.308	79.5
390.754	70.93
391.2	81.34
391.645	76.83
392.091	104.99
392.537	108.29
392.983	96.31
393.428	121.8
393.874	118.24
394.319	122.62
394.765	128.05
395.21	118.33
395.655	113.18
396.101	105.53
396.546	102.05
396.991	78.4
397.436	76.43
397.881	67.17
398.326	47.67
398.771	49.91
399.216	39.36
399.661	27.98
400.106	33.53
400.551	40.06
400.995	38.81
401.44	38.47
401.885	34.83
402.329	33.92
402.774	39.65
403.218	48.27
403.663	42.12
404.107	43.91
404.551	46.07
404.995	40.56
405.44	33.96
405.884	32.29
406.328	25.76
406.772	23.66
407.216	22.48
407.66	15.05
408.104	6.06
408.547	7.76
408.991	8.69
409.435	8.92
409.879	11.81
410.322	12.7
410.766	14.32
411.209	19.09
411.653	20.63
412.096	21.14
412.54	20.4
412.983	22.4
413.426	24.67
413.869	21.19
414.312	20.89
414.756	17.39
415.199	17.6
415.642	18.57
416.085	19.29
416.527	18.91
416.97	17.52
417.413	20.3
417.856	19.78
418.298	19.28
418.741	20.14
419.184	18.52
419.626	16.43
420.069	15.91
420.511	16.37
420.953	17.55
421.396	16.77
421.838	16.24
422.28	15.8
422.722	18.22
423.164	16.2
423.606	16.16
424.048	15.88
424.49	20.07
424.932	18.25
425.374	17.34
425.816	14.08
426.258	16.04
426.699	17.14
427.141	21.22
427.582	17.74
428.024	15.52
428.465	13.46
428.907	13.4
429.348	11.19
429.789	12.76
430.231	13.74
430.672	14.2
431.113	13.9
431.554	13.76
431.995	9.01
432.436	10.83
432.877	13.18
433.318	14.96
433.759	12.57
434.2	10.88
434.64	10.05
435.081	9.92
435.522	10.65
435.962	10.3
436.403	10.77
436.843	10.12
437.284	8.19
437.724	7.25
438.164	6.15
438.604	9.06
439.045	11.29
439.485	12.71
439.925	11.84
440.365	11.78
440.805	12.53
441.245	13.77
441.685	14.82
442.125	13.69
442.564	13.49
443.004	13.52
443.444	13.16
443.883	13.41
444.323	11.4
444.762	10.27
445.202	7.49
445.641	6.63
446.081	2.91
446.52	2.83
446.959	5.66
447.398	6.77
447.837	6.61
448.276	6.43
448.716	6.15
449.154	4.36
449.593	6.31
450.032	7.42
450.471	6.16
450.91	6.18
451.349	6.86
451.787	5.47
452.226	5.14
452.664	4.52
453.103	3.89
453.541	2.64
453.98	5.59
454.418	4.07
454.856	5.11
455.295	5.65
455.733	6.56
456.171	5.75
456.609	7.64
457.047	7.2
457.485	8.92
457.923	9.47
458.361	8.98
458.798	8.31
459.236	7.69
459.674	7.37
460.111	7.7
460.549	7.64
460.987	7.9
461.424	6.53
461.862	6.42
462.299	6.19
462.736	7.54
463.173	7.83
463.611	9.5
464.048	10.57
464.485	10.45
464.922	10.08
465.359	10.09
465.796	15.02
466.233	15.75
466.67	17.86
467.106	18.51
467.543	16.02
467.98	16.22
468.416	14.83
468.853	13.84
469.29	12.48
469.726	11.39
470.162	10.66
470.599	6.3
471.035	4.81
471.471	3.11
471.907	2.17
472.344	2.2
472.78	1.91
473.216	1.39
473.652	2.59
474.088	3.06
474.523	3.77
474.959	3.59
475.395	3.27
475.831	3.93
476.266	4.48
476.702	3.6
477.138	4.61
477.573	4.96
478.008	4.96
478.444	5.28
478.879	6.3
479.314	6.39
479.75	6.22
480.185	5.66
480.62	4.93
481.055	4.74
481.49	5.28
481.925	5.32
482.36	6.5
482.795	5.68
483.229	4.48
483.664	3.76
484.099	4.02
484.534	4.9
484.968	5.17
485.403	4.87
485.837	3.8
486.271	3.18
486.706	2.33
487.14	1.06
487.574	2.03
488.009	1.85
488.443	1.93
488.877	2.21
489.311	1.1
489.745	1.71
490.179	2.44
490.613	4.05
491.046	4.12
491.48	4.59
491.914	5.64
492.348	4.97
492.781	5.22
493.215	5.14
493.648	4.47
494.082	4.55
494.515	4.38
494.948	5.21
495.382	4.06
495.815	4.46
496.248	4.62
496.681	3.58
497.114	3.51
497.547	3.72
497.98	4.33
498.413	5.65
498.846	6.72
499.279	6.15
499.711	4.97
500.144	4.98
500.577	5.41
501.009	4.87
501.442	5.53
501.874	6.16
502.306	6.12
502.739	7.36
503.171	6.77
503.603	6.62
504.036	6.65
504.468	7.26
504.9	7.48
505.332	6.85
505.764	7.12
506.196	7.15
506.627	6.88
507.059	6.49
507.491	4.39
507.923	3.75
508.354	3.76
508.786	3.46
509.217	3.4
509.649	3.43
510.08	3.04
510.512	3.34
510.943	3.45
511.374	3.88
511.805	4.16
512.237	4.06
512.668	4.37
513.099	3.76
513.53	4.35
513.961	4.92
514.391	4.59
514.822	6.1
515.253	6.22
515.684	5.98
516.114	5.93
516.545	5.97
516.975	6.26
517.406	5.7
517.836	5.13
518.267	5.47
518.697	5.54
519.127	5.71
519.558	4.45
519.988	3.86
520.418	3.36
520.848	2.47
521.278	1.83
521.708	17.79
522.138	17.99
522.567	17.75
522.997	17.18
523.427	16.37
523.857	16
524.286	16.68
524.716	16.97
525.145	17.72
525.575	18.51
526.004	18.57
526.433	2.85
526.863	2.91
527.292	4.74
527.721	5.18
528.15	4.87
528.579	5.21
529.008	4.98
529.437	4.25
529.866	3.76
530.295	3.06
530.724	3.65
531.152	3.89
531.581	5.03
532.01	4.31
532.438	4.07
532.867	4.3
533.295	4.55
533.723	4.71
534.152	5.14
534.58	5.43
535.008	6.29
535.436	6.44
535.865	6.45
536.293	5.04
536.721	4.35
537.149	4.4
537.576	5.05
538.004	5.07
538.432	4.51
538.86	4.8
539.287	4.35
539.715	3.79
540.143	3.38
540.57	3.58
540.998	3.96
541.425	5.93
541.852	5.81
542.28	5.06
542.707	5.22
543.134	5.5
543.561	5.39
543.988	5.64
544.415	5.09
544.842	4.91
545.269	4.54
545.696	4.49
546.123	3.79
546.549	4
546.976	4.28
547.403	4.1
547.829	3.29
548.256	2.9
548.682	2.7
549.108	3.45
549.535	3.79
549.961	3.83
550.387	3.98
550.813	4.58
551.24	4.64
551.666	4.31
552.092	4.15
552.518	4.55
552.943	5.78
553.369	5.68
553.795	5.76
554.221	5.94
554.646	6.28
555.072	7.11
555.498	5.85
555.923	5.48
556.349	5.78
556.774	5.75
557.199	5.35
557.625	4.3
558.05	4.62
558.475	4.38
558.9	4.28
559.325	4.28
559.75	3.79
560.175	4.22
560.6	4.02
561.025	3.43
561.449	3.51
561.874	3.8
562.299	4.44
562.723	4.02
563.148	4.5
563.572	3.95
563.997	3.35
564.421	2.43
564.846	1.52
565.27	1.61
565.694	2.45
566.118	2.36
566.542	3.22
566.966	3.1
567.39	3.38
567.814	3.64
568.238	4.44
568.662	4.15
569.086	4.8
569.509	4.95
569.933	5.87
570.357	5.59
570.78	5.2
571.204	5.54
571.627	5.48
572.05	5.36
572.474	5.98
572.897	5.58
573.32	6.51
573.743	6.11
574.166	6.89
574.589	6.26
575.012	5.91
575.435	5.74
575.858	5.17
576.281	5.1
576.704	4.97
577.126	3.51
577.549	3.12
577.972	2.42
578.394	2.08
578.817	3.31
579.239	3.14
579.661	3.44
580.084	5.35
580.506	5.4
580.928	5.09
581.35	5.24
581.772	5.22
582.194	5.61
582.616	5.28
583.038	5.44
583.46	3.6
583.882	3.96
584.303	3.15
584.725	1.67
585.147	4.48
585.568	4.75
585.99	5.23
586.411	6.21
586.833	6.64
587.254	7.15
587.675	7.19
588.096	6.87
588.518	6.81
588.939	7.49
589.36	8.4
589.781	4.74
590.202	6.66
590.623	6.27
591.043	5.15
591.464	4.91
591.885	5.46
592.305	5.35
592.726	5.14
593.147	4.82
593.567	4.6
593.987	3.99
594.408	3.82
594.828	1.82
595.248	2.23
595.669	3.03
596.089	2.56
596.509	1.89
596.929	1.91
597.349	2.54
597.769	2.66
598.189	2.52
598.608	2.77
599.028	3.22
599.448	3.1
599.867	3.12
600.287	2.86
600.706	3.33
601.126	3.68
601.545	4.39
601.965	4.05
602.384	3.87
602.803	3.95
603.222	3.73
603.641	3.46
604.061	3.84
604.48	3.37
604.898	3.04
605.317	2.59
605.736	2.6
606.155	2.75
606.574	2.84
606.992	2.9
607.411	2.94
607.829	2.52
608.248	2.77
608.666	1.68
609.085	1.77
609.503	1.9
609.921	2.59
610.339	2.38
610.758	1.54
611.176	1.51
611.594	2.21
612.012	2.54
612.43	3.39
612.847	2.89
613.265	4.68
613.683	4.82
614.101	5.18
614.518	4.64
614.936	4.72
615.353	5.61
615.771	6.28
616.188	5.61
616.606	5.61
617.023	5.78
617.44	6.04
617.857	5.23
618.274	5.42
618.691	5.41
619.108	5.54
619.525	5.5
619.942	5.33
620.359	4.88
620.776	5.56
621.192	6.13
621.609	6.16
622.026	7.01
622.442	6.06
622.859	5.13
623.275	4.82
623.691	4.6
624.108	4.67
624.524	4.44
624.94	4.58
625.356	4.03
625.772	3
626.188	2.54
626.604	2.39
627.02	3.06
627.436	3.91
627.852	5.17
628.268	5.93
628.683	5.69
629.099	5.67
629.514	5.14
629.93	4.95
630.345	5.11
630.761	4.76
631.176	4.21
631.591	5.93
632.007	6.04
632.422	4.6
632.837	3.78
633.252	5.46
633.667	5.91
634.082	6.69
634.497	7.22
634.911	8.52
635.326	8.96
635.741	8.88
636.155	7.8
636.57	8.36
636.984	8.52
637.399	8.78
637.813	7.24
638.228	6.97
638.642	6.12
639.056	5.31
639.47	4.25
639.884	4.01
640.298	4.43
640.712	4.5
641.126	4.24
641.54	4.33
641.954	3.27
642.368	3.98
642.781	5.27
643.195	5.88
643.609	6.99
644.022	6.84
644.436	6.62
644.849	6.06
645.262	5.66
645.676	4.61
646.089	4.21
646.502	5.62
646.915	4.94
647.328	3.86
647.741	3.9
648.154	3.93
648.567	5.94
648.98	6.64
649.393	6.94
649.805	7.42
650.218	7.59
650.631	8.42
651.043	8.31
651.456	8.82
651.868	8.82
652.28	8.58
652.693	7.15
653.105	5.46
653.517	4.84
653.929	4.9
654.341	4.06
654.753	5.21
655.165	5.09
655.577	5.11
655.989	4.75
656.401	4.45
656.813	5.46
657.224	6.31
657.636	6.26
658.047	6.91
658.459	7.54
658.87	7.27
659.282	6.75
659.693	7.09
660.104	7.62
660.515	7.31
660.926	6.79
661.338	6.2
661.749	5.24
662.159	5.67
662.57	4.94
662.981	4.58
663.392	4.84
663.803	4.39
664.213	3.9
664.624	2.74
665.035	2.02
665.445	2.03
665.855	2.82
666.266	4.12
666.676	3.59
667.086	3.27
667.497	3.68
667.907	3.89
668.317	3.84
668.727	6.2
669.137	6.36
669.547	7.13
669.956	6.84
670.366	6.46
670.776	6.22
671.186	6.24
671.595	6.34
672.005	5.38
672.414	5.59
672.824	6.51
673.233	4.29
673.642	4.14
674.052	4.54
674.461	5.69
674.87	5.75
675.279	6.65
675.688	5.75
676.097	6.77
676.506	7.21
676.915	6.77
677.323	5.87
677.732	6.59
678.141	7.1
678.549	7.2
678.958	5.55
679.366	4.92
679.775	3.7
680.183	5.88
680.592	5.8
681	5.57
681.408	6.55
681.816	7.02
682.224	5.66
682.632	6.92
683.04	6.67
683.448	7.34
683.856	8.65
684.264	9.8
684.671	8.56
685.079	7.65
685.487	8.48
685.894	7.14
686.302	6.66
686.709	7.58
687.116	6.31
687.524	7.42
687.931	9.41
688.338	8.63
688.745	6.57
689.152	6.72
689.559	7.8
689.966	9.02
690.373	9.43
690.78	11.02
691.187	12.01
691.593	13.59
692	12.26
692.407	12.24
692.813	13.96
693.22	15.54
693.626	14.69
694.032	14.36
694.439	13.04
694.845	13.27
695.251	12.48
695.657	11.67
696.063	9.68
696.469	10.04
696.875	8.98
697.281	7.71
697.687	7.52
698.093	8.9
698.498	9.29
698.904	8.64
699.31	8.98
699.715	10.22
700.12	10
700.526	10.65
700.931	9.8
701.337	10.85
701.742	11.2
702.147	10.99
702.552	10.15
702.957	9
703.362	10.09
703.767	9.58
704.172	7.98
704.577	8.35
704.981	7.09
705.386	8.35
705.791	7.96
706.195	6.69
706.6	5.7
707.004	5.07
707.408	5.42
707.813	5.13
708.217	5.86
708.621	6.2
709.025	4.92
709.43	7.14
709.834	7.04
710.237	6.41
710.641	7.12
711.045	8.78
711.449	9.83
711.853	13.26
712.256	12.76
712.66	11.74
713.064	11.66
713.467	13.1
713.87	12.57
714.274	12.56
714.677	13.92
715.08	14.59
715.484	14.63
715.887	17.39
716.29	13.69
716.693	14.56
717.096	16.44
717.499	16.62
717.901	15.78
718.304	15.84
718.707	15.41
719.109	13.9
719.512	12.68
719.915	15.03
720.317	13
720.719	12.84
721.122	12.89
721.524	12.9
721.926	16.78
722.328	16.95
722.731	15.42
723.133	16.05
723.535	16.33
723.937	17.01
724.338	16.86
724.74	17.44
725.142	54.13
725.544	55.57
725.945	63.33
726.347	59.36
726.748	59.38
727.15	60.82
727.551	63.02
727.952	62.31
728.354	60.44
728.755	58.76
729.156	57.15
729.557	21.5
729.958	19.51
730.359	11.56
730.76	11.12
731.161	10.81
731.562	9.48
731.962	7.41
732.363	8.07
732.763	8.81
733.164	7.52
733.564	7.59
733.965	8.21
734.365	8.72
734.766	9.58
735.166	10.41
735.566	12.28
735.966	13.74
736.366	14.25
736.766	14.49
737.166	13.88
737.566	13.89
737.966	13.51
738.365	14.13
738.765	14.75
739.165	13.74
739.564	12.7
739.964	10.59
740.363	9.18
740.763	8.06
741.162	8.62
741.561	9.3
741.96	9.59
742.36	9.91
742.759	9.56
743.158	7.72
743.557	8.23
743.955	9.08
744.354	9.16
744.753	9.93
745.152	10.68
745.55	8.63
745.949	8.77
746.348	9.46
746.746	7.97
747.144	9.48
747.543	9.66
747.941	7.73
748.339	6.78
748.737	8.06
749.136	7.62
749.534	5.78
749.932	8.58
750.33	7.55
750.727	6.22
751.125	7.82
751.523	6.54
751.921	9.64
752.318	11.81
752.716	14.26
753.113	13.57
753.511	13.26
753.908	15.36
754.305	17
754.703	18.28
755.1	19.76
755.497	19.66
755.894	19.59
756.291	17.9
756.688	18.05
757.085	16
757.482	17.79
757.878	20.02
758.275	20.86
758.672	16.6
759.068	16.85
759.465	16.3
759.861	15.83
760.258	13.26
760.654	10.25
761.05	12.15
761.447	12.39
761.843	11.28
762.239	11.49
762.635	8.82
763.031	8.18
763.427	7.86
763.822	9.41
764.218	9.48
764.614	10.54
765.01	10.56
765.405	7.4
765.801	8.1
766.196	7.46
766.592	7
766.987	7.02
767.382	6.55
767.778	5.78
768.173	4.54
768.568	4.97
768.963	6.13
769.358	6.03
769.753	8.83
770.148	8.85
770.542	8.8
770.937	8.47
771.332	9.37
771.726	9.79
772.121	13.58
772.515	13.88
772.91	13.64
773.304	12.43
773.699	12.88
774.093	10.5
774.487	10.63
774.881	11.52
775.275	11.63
775.669	10.49
776.063	8.92
776.457	6.05
776.851	6.11
777.245	7.34
777.638	8.36
778.032	7.79
778.425	9.12
778.819	11.52
779.212	12.17
779.606	13.87
779.999	14.7
780.392	17.71
780.786	17.96
781.179	18.79
781.572	18.88
781.965	19.06
782.358	19.34
782.751	19.24
783.143	16.77
783.536	16.06
783.929	14.45
784.322	14.04
784.714	12.87
785.107	12.42
785.499	12.75
785.891	13.15
786.284	13.16
786.676	12.89
787.068	14.14
787.46	15.73
787.852	14.59
788.245	15.82
788.636	13.41
789.028	15.24
789.42	17.3
789.812	17.6
790.204	17.85
790.595	20.51
790.987	21.09
791.378	21.64
791.77	20.95
792.161	20.72
792.553	18.92
792.944	21.91
793.335	19.67
793.726	18.89
794.117	20.33
794.508	16.84
794.899	12.57
795.29	12.7
795.681	11.02
796.072	11.43
796.463	24.91
796.853	30
797.244	29.71
797.634	30.47
798.025	31.03
798.415	26.19
798.806	29.3
799.196	31.32
799.586	33.2
799.976	34.94
800.366	33.76
800.756	19.88
801.146	16.04
801.536	16.14
801.926	15.76
802.316	15.78
802.706	17.05
803.095	16.88
803.485	15.15
803.874	12.74
804.264	11.17
804.653	12.56
805.043	15.46
805.432	16.72
805.821	18.34
806.21	20.59
806.599	19.86
806.988	22.87
807.377	20.64
807.766	22.27
808.155	24.16
808.544	23.95
808.933	22.8
809.321	24.74
809.71	23.12
810.098	22.95
810.487	19.75
810.875	21.49
811.264	22.61
811.652	32.02
812.04	33.67
812.428	35.13
812.816	33.74
813.204	35
813.592	30.18
813.98	31.98
814.368	35.99
814.756	37.37
815.144	35.19
815.531	36.24
815.919	27.9
816.306	23.95
816.694	21.47
817.081	24
817.469	26.57
817.856	23.28
818.243	18.98
818.63	12.98
819.017	16.39
819.404	18
819.791	15.41
820.178	12.87
820.565	19.37
820.952	25.07
821.339	28.44
821.725	32.09
822.112	37.03
822.498	41.53
822.885	42.9
823.271	39.3
823.657	35.29
824.044	36.33
824.43	38
824.816	39.88
825.202	39.29
825.588	38.35
825.974	34.69
826.36	33.87
826.746	30.81
827.132	29.35
827.517	35.69
827.903	36.86
828.289	36.58
828.674	35.26
829.06	32.23
829.445	29
829.83	25.13
830.216	25.53
830.601	26.99
830.986	35.16
831.371	38.01
831.756	35.74
832.141	43.53
832.526	49.25
832.911	50.01
833.295	48.29
833.68	48.88
834.065	49.99
834.449	48.8
834.834	49.79
835.218	47.57
835.603	46.68
835.987	45.74
836.371	39.57
836.755	35.71
837.139	34.72
837.524	33.53
837.908	29.85
838.291	34.09
838.675	32.47
839.059	32.56
839.443	27.26
839.827	24.93
840.21	20.41
840.594	22.9
840.977	23.09
841.361	27.73
841.744	26.9
842.127	30.42
842.511	25.08
842.894	20.23
843.277	17.77
843.66	18.44
844.043	18.66
844.426	24.84
844.809	21.22
845.191	20.35
845.574	19
845.957	19.84
846.339	19.85
846.722	24.62
847.104	27.5
847.487	24.48
847.869	26.44
848.252	28.28
848.634	29.25
849.016	30.26
849.398	28.89
849.78	25.03
850.162	26.51
850.544	25.59
850.926	23.57
851.307	23.54
851.689	28.83
852.071	22.97
852.452	26.37
852.834	24.68
853.215	27.29
853.597	26.56
853.978	31.07
854.359	30.87
854.741	32.51
855.122	30.6
855.503	30.52
855.884	25.71
856.265	30.51
856.646	24.04
857.026	25.49
857.407	28.6
857.788	28.04
858.169	26.84
858.549	33.47
858.93	31.5
859.31	35.38
859.69	40.32
860.071	43.96
860.451	43.77
860.831	44.08
861.211	41.65
861.591	34.24
861.971	33.77
862.351	32.91
862.731	24.45
863.111	24.44
863.491	24
863.87	21.14
864.25	15.67
864.629	19.93
865.009	20.66
865.388	21.57
865.768	23.32
866.147	29.18
866.526	30.48
866.905	34.14
867.284	34.44
867.663	30.15
868.042	22.38
868.421	23.23
868.8	15.46
869.179	19.92
869.558	18.98
869.936	22.95
870.315	18.69
870.693	20.79
871.072	15.17
871.45	13.84
871.828	14.95
872.207	22.87
872.585	25.05
872.963	29.35
873.341	31.34
873.719	35.71
874.097	31.82
874.475	32.18
874.853	30.78
875.23	33.96
875.608	36.37
875.986	41.59
876.363	39.6
876.741	49.83
877.118	58.38
877.495	57.9
877.873	60.63
878.25	66.01
878.627	65.43
879.004	62.24
879.381	64.03
879.758	65.52
880.135	63.23
880.512	63.41
880.889	53.88
881.265	44.28
881.642	37.86
882.019	33.71
882.395	35.97
882.772	36.02
883.148	35.57
883.524	34.43
883.901	32.52
884.277	27.74
884.653	28.14
885.029	33.38
885.405	39.6
885.781	42.67
886.157	45.11
886.532	39.2
886.908	39.51
887.284	41.59
887.659	43.85
888.035	46.63
888.411	42.45
888.786	38.78
889.161	34.51
889.537	27.48
889.912	26.77
890.287	28.2
890.662	27.04
891.037	18.52
891.412	15.78
891.787	12.18
892.162	16.53
892.536	20.51
892.911	25.15
893.286	21.39
893.66	23.49
894.035	23.59
894.409	14.55
894.784	18.87
895.158	22.13
895.532	32.17
895.906	37.99
896.281	34.69
896.655	36.91
897.029	33.84
897.402	42.65
897.776	40.02
898.15	43.38
898.524	46.19
898.898	47.68
899.271	60.63
899.645	49.06
900.018	36.51
900.392	39.94
900.765	40.38
901.138	50.53
901.511	41.29
901.884	51.78
902.258	51.88
902.631	60.2
903.003	58.5
903.376	49.76
903.749	49.7
904.122	52.74
904.495	39.33
904.867	35.73
905.24	31.97
905.612	28.74
905.985	15.92
906.357	5.63
906.729	3.74
907.102	17.03
907.474	19.39
907.846	27.32
908.218	37.41
908.59	46.38
908.962	39.86
909.334	41.13
909.705	55.06
910.077	59.73
910.449	65.7
910.82	65.14
911.192	63.43
911.563	74.13
911.935	68.17
912.306	55.72
912.677	65.74
913.048	78.04
913.419	87.77
913.79	83.55
914.161	81.14
914.532	96.28
914.903	88.85
915.274	79.53
915.645	81.64
916.015	70.53
916.386	77.02
916.756	68.97
917.127	60.52
917.497	53.43
917.868	51.09
918.238	54.42
918.608	41.78
918.978	52.94
919.348	62.36
919.718	50.45
920.088	64.21
920.458	77.78
920.828	64.08
921.198	75.13
921.567	79.57
921.937	63.47
922.306	59.15
922.676	61.05
923.045	70.54
923.415	70.01
923.784	74.1
924.153	76.89
924.522	73.89
924.891	76.55
925.26	77.21
925.629	66.79
925.998	76.02
926.367	78.55
926.736	96.63
927.104	79.28
927.473	81.12
927.842	72.78
928.21	65.99
928.578	47.76
928.947	62.36
929.315	71.07
929.683	102.07
930.051	107.62
930.42	116
930.788	80.24
931.156	83.31
931.523	124.57
931.891	126.79
932.259	134.39
932.627	171.94
932.994	230.4
933.362	210.29
933.729	188.48
934.097	192.23
934.464	179.36
934.831	192.11
935.199	208.48
935.566	177.77
935.933	223.19
936.3	270.98
936.667	222.51
937.034	250.41
937.401	239.24
937.767	207.7
938.134	181.6
938.501	223.62
938.867	253.86
939.234	362.96
939.6	275.5
939.967	242.27
940.333	158.97
940.699	123.49
941.065	46.76
941.431	43.72
941.798	63.08
942.163	113.5
942.529	75.69
942.895	76.64
943.261	76.62
943.627	99.18
943.992	91.35
944.358	77.46
944.723	102.63
945.089	100.61
945.454	114.28
945.82	126.64
946.185	100.18
946.55	129.27
946.915	110.28
947.28	115.77
947.645	111.42
948.01	109.81
948.375	125.27
948.74	126.59
949.104	143.72
949.469	142.88
949.834	197.98
950.198	325.77
950.562	239.96
950.927	188.76
951.291	200.83
951.655	165.47
952.02	123.64
952.384	106.61
952.748	114.52
953.112	147.1
953.476	141.23
953.839	131.53
954.203	139.01
954.567	145.01
954.931	195.65
955.294	200.2
955.658	206.87
956.021	356.64
956.385	566.12
956.748	764.26
957.111	932.13
957.474	961.73
957.837	977.67
958.2	518.7
958.563	251.74
958.926	240
959.289	350.7
959.652	382.53
960.015	280.61
960.377	402.97
960.74	430.19
961.102	637.54
961.465	785.73
961.827	735.76
962.189	1310.76
962.552	864.65
962.914	639.5
963.276	367.11
963.638	312.9
964	306.78
964.362	213.32
964.724	196.62
965.085	155.49
965.447	138.49
965.809	95.83
966.17	74.51
966.532	67.15
966.893	61.6
967.255	77.25
967.616	61.24
967.977	54.05
968.338	54.16
968.699	63.09
969.061	55.95
969.421	61.03
969.782	54.81
970.143	76.73
970.504	106.17
970.865	122.74
971.225	127.86
971.586	149.21
971.946	197.76
972.307	155.05
972.667	162.95
973.027	186.29
973.388	170.41
973.748	122.07
974.108	144.92
974.468	129.91
974.828	152.9
975.188	106.94
975.548	102.07
975.907	97.99
976.267	124.89
976.627	124.73
976.986	140.19
977.346	125.07
977.705	122.74
978.064	103.62
978.424	101
978.783	81.73
979.142	97.05
979.501	90.12
979.86	99.24
980.219	90.47
980.578	115.01
980.937	108.38
981.296	103.49
981.654	120.77
982.013	161.63
982.371	217.11
982.73	207.32
983.088	197.03
983.447	207.12
983.805	288.41
984.163	591.13
984.521	525.98
984.879	486.26
985.237	-1330.21
985.595	1465.52
985.953	353.72
986.311	106.69
986.669	49.55
987.026	51.5
987.384	29.72
987.741	-23.39
988.099	21.7
988.456	39.53
988.814	77.75
989.171	62.79
989.528	33.84
989.885	24.15
990.242	50.52
990.599	63.28
990.956	56.34
991.313	57.8
991.67	54.84
992.027	90.8
992.383	81.13
992.74	66.26
993.096	77.57
993.453	78.66
993.809	77.83
994.165	89.78
994.522	114.93
994.878	117.07
995.234	138.45
995.59	136.13
995.946	71.71
996.302	73.78
996.658	97.1
997.013	65.24
997.369	104.05
997.725	144.73
998.08	89.28
998.436	29.27
998.791	37.17
999.147	44.67
999.502	133.7
999.857	65.98
1000.212	93.09
1000.567	58.43
1000.922	120.73
1001.277	84.59
1001.632	89.91
1001.987	90.5
1002.342	88.88
1002.696	100.56
1003.051	95.62
1003.406	115.65
1003.76	116.93
1004.114	144.27
1004.469	152.06
1004.823	124.93
1005.177	124.23
1005.531	113.66
1005.885	130.4
1006.239	143.98
1006.593	171.42
1006.947	213.05
1007.301	141.74
1007.655	165.12
1008.008	118.73
1008.362	117.18
1008.715	149.11
1009.069	156.17
1009.422	258.65
1009.776	419.4
1010.129	264.73
1010.482	210.27
1010.835	128.99
1011.188	255.56
1011.541	157.47
1011.894	-697.34
1012.247	1921.86
1012.6	201.72
1012.952	142.84
1013.305	8.61
1013.657	29.98
1014.01	30.57
1014.362	10.82
1014.715	69.66
1015.067	73.27
1015.419	95.23
1015.771	97.89
1016.123	100.84
1016.475	105.22
1016.827	93.79
1017.179	125.07
1017.531	111.12
1017.883	110.62
1018.234	170.56
1018.586	188.37
1018.938	230.03
1019.289	305.9
1019.64	298.31
1019.992	232.78
1020.343	166.48
1020.694	198.02
1021.045	174.38
1021.396	192.39
1021.747	230.26
1022.098	166.91
1022.449	128.61
1022.8	104.48
1023.151	98.28
1023.501	110.42
1023.852	123.43
1024.202	167.34
1024.553	136.02
1024.903	162.85
1025.253	171.66
1025.604	162.13
1025.954	209.56
1026.304	214.02
1026.654	244.44
1027.004	295.33
1027.354	352.25
1027.703	422.15
1028.053	422.52
1028.403	926.43
1028.753	961.16
1029.102	728.28
1029.452	1158.41
1029.801	-5.49
1030.15	39.13
1030.499	3.82
897.758	1272.59
901.051	1230.57
904.343	1253.69
907.636	1254.82
910.928	1288.85
914.22	1244.48
917.511	1252.28
920.803	1277.57
924.094	1272.33
927.384	1275.96
930.675	1256.73
933.965	1238.37
937.255	1256.23
940.544	1239.45
943.834	1240.72
947.123	1208.21
950.411	1258.72
953.7	1248.22
956.988	1242.08
960.276	1199.81
963.563	1223.64
966.851	1227.9
970.138	1246.93
973.424	1250.66
976.711	1220.49
979.997	1246.82
983.283	1268.26
986.568	1232
989.853	1223.78
993.138	1232.44
996.423	1286.97
999.708	1264.16
1002.992	1279.55
1006.275	1234.94
1009.559	1233.5
1012.842	1288.29
1016.125	1261.21
1019.408	1247.71
1022.69	1278.93
1025.972	1293
1029.254	1281.66
1032.536	1261.58
1035.817	1264.29
1039.098	1248.7
1042.379	1271.29
1045.659	1287.17
1048.939	1256.97
1052.219	1257.61
1055.498	1254.57
1058.778	1244.64
1062.057	1237.35
1065.335	1254.55
1068.614	1255.2
1071.892	1250.25
1075.17	1280.89
1078.447	1282.29
1081.724	1276.97
1085.001	1288.63
1088.278	1274.67
1091.554	1277.85
1094.83	1278.75
1098.106	1292.4
1101.382	1304.46
1104.657	1305.29
1107.932	1306.22
1111.206	1290.97
1114.481	1267.07
1117.755	1270.43
1121.029	1265.34
1124.302	1296.65
1127.575	1280.16
1130.848	1279.16
1134.121	1264.12
1137.393	1241.85
1140.665	1273.02
1143.937	1256.6
1147.208	1237.13
1150.48	1264.8
1153.75	1256.06
1157.021	1261.04
1160.291	1248.38
1163.561	1273.89
1166.831	1253.98
1170.101	1265.75
1173.37	1246.01
1176.639	1225.49
1179.907	1255.64
1183.176	1258.42
1186.444	1260.58
1189.711	1272.29
1192.979	1284.07
1196.246	1261.6
1199.513	1272.8
1202.78	1274.16
1206.046	1279.8
1209.312	1294.38
1212.578	1297.87
1215.843	1274.15
1219.108	1265.5
1222.373	1276.23
1225.638	1262.76
1228.902	1254.66
1232.166	1237.01
1235.43	1225.5
1238.693	1243.75
1241.956	1241.18
1245.219	1266.9
1248.482	1261.28
1251.744	1263.76
1255.006	1325.02
1258.268	1298.23
1261.529	1280.31
1264.79	1280.26
1268.051	1331.98
1271.312	1339.4
1274.572	1317.07
1277.832	1312.14
1281.092	1301.45
1284.351	1298.62
1287.61	1291.85
1290.869	1255.13
1294.128	1255.93
1297.386	1276.05
1300.644	1272.33
1303.902	1275.29
1307.159	1205.72
1310.416	1234.2
1313.673	1244.18
1316.93	1247.96
1320.186	1260.79
1323.442	1276.92
1326.697	1275.56
1329.953	1262.62
1333.208	1281.28
1336.463	1269.31
1339.717	1252.49
1342.972	1313.47
1346.226	1299.28
1349.479	1280.58
1352.733	1264.4
1355.986	1275.17
1359.238	1264.28
1362.491	1268.03
1365.743	1265.94
1368.995	1267.36
1372.247	1279.27
1375.498	1284.22
1378.749	1302.38
1382	1281.33
1385.251	1294.55
1388.501	1275.35
1391.751	1270
1395	1257.67
1398.25	1272.49
1401.499	1290.46
1404.748	1262.6
1407.996	1252.72
1411.244	1253.92
1414.492	1245.38
1417.74	1234.64
1420.987	1244.2
1424.234	1271.69
1427.481	1256.11
1430.728	1281.36
1433.974	1270.85
1437.22	1270.97
1440.465	1263.54
1443.711	1264.68
1446.956	1271.63
1450.201	1259.57
1453.445	1287.47
1456.689	1272.89
1459.933	1284.19
1463.177	1301.51
1466.42	1291.54
1469.663	1279.13
1472.906	1283.74
1476.148	1311.39
1479.391	1291.22
1482.633	1282.63
1485.874	1293.74
1489.115	1295.18
1492.356	1289.41
1495.597	1271.84
1498.838	1267.31
1502.078	1261.93
1505.318	1252.26
1508.557	1264.73
1511.797	1264.09
1515.036	1287.35
1518.274	1265.27
1521.513	1237.33
1524.751	1241.69
1527.989	1252.02
1531.227	1263.14
1534.464	1265.55
1537.701	1258.88
1540.938	1262.48
1544.174	1237.18
1547.41	1232.29
1550.646	1252.25
1553.882	1275.2
1557.117	1307.61
1560.352	1310.34
1563.587	1289.05
1566.821	1274.05
1570.055	1285.15
1573.289	1269.88
1576.523	1297.05
1579.756	1305.65
1582.989	1315.38
1586.222	1291.29
1589.454	1312.25
1592.686	1303.89
1595.918	1315.36
1599.15	1313.36
1602.381	1337.17
1605.612	1327.49
1608.843	1375.74
1612.073	1336.55
1615.303	1330.18
1618.533	1325.38
1621.762	1324.75
1624.992	1310.2
1628.221	1307.16
1631.449	1302.95
1634.678	1318
1637.906	1299.63
1641.134	1309.72
1644.361	1292.71
1647.588	1287.63
1650.815	1301.51
1654.042	1283.49
1657.269	1298.85
1660.495	1287.62
1663.72	1282.12
1666.946	1264.43
1670.171	1254.26
1673.396	1239.15
1676.621	1231.28
1679.845	1230.44
1683.069	1232.32
1686.293	1245.19
1689.517	1238.82
1692.74	1217.68
1695.963	1225.53
1699.185	1244.97
1702.408	1233.26
1705.63	1246.11
1708.852	1253.97
1712.073	1239.43
1715.294	1248.61
1718.515	1273.77
1721.736	1251.64
1724.956	1246.86
1728.176	1259.03
1731.396	1268.68
1734.616	1262.78
1737.835	1286.7
1741.054	1268.07
1744.272	1269.31
1747.491	1288.92
1750.709	1300.39
1753.927	1276.77
1757.144	1291.39
1760.361	1318.33
1763.578	1300.22
1766.795	1276
1770.011	1275.22
1773.227	1284.47
1776.443	1309.2
1779.658	1325.76
1782.874	1298.75
1786.089	1293.14
1789.303	1293.29
1792.518	1293.27
1795.732	1288.65
1798.945	1296.91
1802.159	1323.01
1805.372	1288.74
1808.585	1283.59
1811.797	1283.51
1815.01	1300.72
1818.222	1316.45
1821.434	1296.79
1824.645	1316.18
1827.856	1318.71
1831.067	1331.6
1834.278	1307.26
1837.488	1296.06
1840.698	1359.29
1843.908	1336.79
1847.117	1320.06
1850.326	1281.23
1853.535	1313.28
1856.744	1333.39
1859.952	1294.02
1863.16	1295.71
1866.368	1310.22
1869.575	1365.81
1872.782	1308.32
1875.989	1273.19
1879.196	1300.88
1882.402	1298.95
1885.608	1314.66
1888.814	1283.36
1892.019	1237.39
1895.224	1270.12
1898.429	1253.82
1901.634	1242.73
1904.838	1232.98
1908.042	1261.65
1911.246	1277.4
1914.449	1255.95
1917.652	1247.74
1920.855	1238.02
1924.058	1251.77
1927.26	1281.04
1930.462	1288.53
1933.664	1311.19
1936.865	1283.23
1940.066	1288.4
1943.267	1261.66
1946.467	1265.55
1949.668	1270.34
1952.868	1308.58
1956.067	1308.44
1959.267	1276.21
1962.466	1287.74
1965.665	1276.83
1968.863	1274.42
1972.061	1275.02
1975.259	1273.99
1978.457	1312.95
1981.654	1291.6
1984.852	1292.93
1988.048	1271.47
1991.245	1260.77
1994.441	1306.62
1997.637	1278.36
2000.833	1271.89
2004.028	1288.53
2007.223	1321.66
2010.418	1311.25
2013.613	1286.45
2016.807	1282.05
2020.001	1282.92
2023.194	1291.27
2026.388	1281.11
2029.581	1252.8
2032.774	1288.34
2035.966	1292.65
2039.158	1264.81
2042.35	1277.29
2045.542	1236.78
2048.733	1279.59
2051.924	1271.36
2055.115	1277.99
2058.306	1263.96
2061.496	1288.95
2064.686	1317.23
2067.875	1263.21
2071.065	1266.99
2074.254	1274.81
2077.442	1249.41
2080.631	1295.16
2083.819	1263.02
2087.007	1257.33
2090.195	1252.78
2093.382	1253.27
2096.569	1253.1
2099.756	1229.62
2102.942	1263.93
2106.128	1265.33
2109.314	1262.39
2112.5	1256.51
2115.685	1238.8
2118.87	1241.3
2122.055	1282.01
2125.239	1265.33
2128.424	1262.33
2131.608	1290.61
2134.791	1281.38
2137.974	1297.85
2141.157	1292.32
2144.34	1280.02
2147.523	1270.02
2150.705	1288.18
2153.887	1265.33
2157.068	1249.97
2160.25	1239.82
2163.431	1255.31
2166.611	1237
2169.792	1248.64
2172.972	1198.16
2176.152	1232.95
2179.331	1242.93
2182.511	1244.2
2185.69	1252.66
2188.868	1257.68
2192.047	1274.29
2195.225	1289.8
2198.403	1257.51
2201.58	1250.68
2204.758	1242.4
2207.935	1282.88
2211.111	1235.18
2214.288	1227.67
2217.464	1244.63
2220.64	1227.08
2223.815	1252.13
2226.991	1218.27
2230.166	1223.5
2233.34	1245.16
2236.515	1253.46
2239.689	1293.79
2242.863	1267.54
2246.036	1293.06
2249.209	1287.82
2252.382	1299.6
2255.555	1299.03
2258.727	1277.34
2261.9	1292.68
2265.071	1289.41
2268.243	1290.72
2271.414	1265.82
2274.585	1251.13
2277.756	1283.53
2280.926	1262.76
2284.096	1280.1
2287.266	1242.88
2290.436	1272.2
2293.605	1276.44
2296.774	1295.18
2299.942	1298.71
2303.111	1309.91
2306.279	1335.25
2309.447	1330.53
2312.614	1318.53
2315.781	1326.96
2318.948	1312.95
2322.115	1335.73
2325.281	1274.87
2328.447	1283.03
2331.613	1265.75
2334.779	1263.53
2337.944	1259.54
2341.109	1259.66
2344.274	1253.84
2347.438	1234.71
2350.602	1247.26
2353.766	1253.03
2356.929	1248.64
2360.092	1272.89
2363.255	1251.51
2366.418	1239.28
2369.58	1258.47
2372.742	1241.33
2375.904	1230.2
2379.066	1226.97
2382.227	1241.28
2385.388	1219.82
2388.548	1193.96
2391.709	1211.62
2394.869	1209.17
2398.029	1240.45
2401.188	1231.66
2404.347	1222.37
2407.506	1217.85
2410.665	1253.14
2413.823	1238.48
2416.981	1229.52
2420.139	1241.1
2423.296	1262.23
2426.453	1248.97
2429.61	1259.19
2432.767	1245.02
2435.923	1263.58
2439.079	1238.29
2442.235	1257.51
2445.391	1220.26
2448.546	1245.25
2451.701	1262.14
2454.855	1260.14
2458.009	1273.91
2461.163	1266.45
2464.317	1249.67
2467.471	1264.67
2470.624	1284.54
2473.777	1275.12
2476.929	1283.06
2480.082	1296.32
2483.234	1286.92
2486.385	1255.59
2489.537	1250.97
2492.688	1246.5
2495.839	1259.48
2498.989	1265.85
2502.14	1257.04
2505.29	1249.92
2508.439	1262.55
2511.589	1233.86
2514.738	1234.58
2517.887	1243.35
2521.035	1286.62
2524.183	1262.07
2527.331	1256.42
2530.479	1249.62
2533.627	1253.87
