Data from N_1_DIV_IL_4N_Splice17_11-16-14-067.txt Node
Date: Sat Mar 14 11:16:14 EDT 2020
User: sa697716
Spectrometer: FLMS03696
Trigger mode: 0
Integration Time (sec): 3.180400E-1
Scans to average: 20
Electric dark correction enabled: true
Nonlinearity correction enabled: true
Boxcar width: 5
XAxis mode: Wavelengths
Number of Pixels in Spectrum: 2048
>>>>>Begin Spectral Data<<<<<
187.83	-114610.59
188.298	931.89
188.766	454.28
189.233	405.74
189.701	557.44
190.169	688.12
190.636	291.49
191.104	309.16
191.571	83.96
192.039	18.54
192.506	27.17
192.974	82.2
193.441	-142.47
193.908	-6.9
194.375	38.75
194.842	72.28
195.31	87.43
195.777	101.35
196.244	209.54
196.711	170.69
197.177	175.88
197.644	167.58
198.111	239.79
198.578	348.87
199.045	249.75
199.511	346.06
199.978	380.32
200.445	315.64
200.911	360.59
201.378	346.1
201.844	325.01
202.31	512.5
202.777	552.28
203.243	331.8
203.709	306.21
204.176	363.87
204.642	323.93
205.108	289.06
205.574	243.72
206.04	192.7
206.506	183.21
206.972	143.37
207.438	130.9
207.903	146.01
208.369	142.82
208.835	143.32
209.301	149.14
209.766	129.76
210.232	124.81
210.697	137.26
211.163	173.6
211.628	248.32
212.094	262.08
212.559	379.64
213.024	243.27
213.49	297.64
213.955	293.46
214.42	274.84
214.885	276.31
215.35	283.56
215.815	321.34
216.28	345.39
216.745	274.85
217.21	296.08
217.675	226.58
218.14	242.14
218.604	232.32
219.069	238.3
219.534	255.21
219.998	249.97
220.463	253.8
220.927	212.88
221.392	175.98
221.856	165.2
222.32	152.68
222.785	207.67
223.249	234.88
223.713	248.9
224.177	229.26
224.642	226.68
225.106	223.31
225.57	217.56
226.034	214.35
226.497	300.53
226.961	289.43
227.425	331.78
227.889	310.03
228.353	248.19
228.816	396.27
229.28	444.69
229.744	348.5
230.207	333.4
230.671	374.57
231.134	483.19
231.597	555.68
232.061	470.76
232.524	416.56
232.987	307.16
233.45	313.8
233.914	262.17
234.377	216.84
234.84	200.31
235.303	209.95
235.766	196.91
236.229	206.97
236.691	139.61
237.154	151.18
237.617	141.16
238.08	126.44
238.542	133.16
239.005	115.96
239.468	129.06
239.93	117.37
240.393	98.99
240.855	86.87
241.317	76.1
241.78	62.47
242.242	89.34
242.704	122.99
243.166	115.42
243.629	127.87
244.091	152.65
244.553	148.57
245.015	163.61
245.477	190.82
245.939	297.15
246.4	332.54
246.862	333.23
247.324	301.19
247.786	250.88
248.247	297.14
248.709	189.66
249.17	155.57
249.632	222.4
250.093	321.54
250.555	300.85
251.016	196.03
251.477	201.15
251.939	237.87
252.4	246.49
252.861	298.19
253.322	295.83
253.783	351.14
254.244	408.44
254.705	280.68
255.166	207.05
255.627	176.13
256.088	247.29
256.549	278.91
257.009	183.04
257.47	197.73
257.931	140.31
258.391	105.35
258.852	106.87
259.312	127.48
259.773	168.45
260.233	189.82
260.694	184.98
261.154	200.76
261.614	177.12
262.074	169.61
262.534	186.27
262.994	185.29
263.455	222.5
263.915	196.21
264.374	179.56
264.834	189.92
265.294	175.19
265.754	179.36
266.214	162.12
266.673	136.51
267.133	159.26
267.593	136.99
268.052	172.97
268.512	159.29
268.971	231.11
269.431	243.97
269.89	210.83
270.349	316.38
270.809	358.27
271.268	322.12
271.727	648.19
272.186	467.17
272.645	388.52
273.104	243.23
273.563	307.01
274.022	172.27
274.481	168.67
274.94	150.26
275.399	113.66
275.857	111.96
276.316	137.57
276.775	108.11
277.233	105.4
277.692	85.45
278.15	123.49
278.609	188.44
279.067	197.77
279.525	203.73
279.984	212.52
280.442	230.08
280.9	279.94
281.358	187.76
281.816	213.98
282.274	204.28
282.732	195.69
283.19	166.79
283.648	131.71
284.106	125.4
284.564	121.37
285.021	155.83
285.479	125.55
285.937	86.13
286.394	95.12
286.852	78.16
287.309	79.81
287.767	108.83
288.224	123.37
288.682	113.76
289.139	130.36
289.596	123.51
290.053	104.78
290.511	122.01
290.968	165.61
291.425	195.2
291.882	216.38
292.339	206.74
292.796	171.62
293.252	161.27
293.709	150.91
294.166	147.52
294.623	140.64
295.079	129.22
295.536	149.72
295.992	151.25
296.449	146.53
296.905	159.33
297.362	163.19
297.818	172.55
298.274	189.1
298.731	189.56
299.187	178.17
299.643	199.31
300.099	249.46
300.555	259.56
301.011	223.94
301.467	249.75
301.923	234.88
302.379	220.13
302.835	206.82
303.291	184.34
303.746	190.25
304.202	230.71
304.658	218.22
305.113	166.2
305.569	157.99
306.024	132.43
306.479	78.74
306.935	105.17
307.39	92.81
307.845	98.12
308.301	120.73
308.756	107.24
309.211	121.65
309.666	130.71
310.121	154.3
310.576	152.92
311.031	132.04
311.486	143.41
311.94	96.38
312.395	133.89
312.85	124.34
313.305	-243.36
313.759	2933.2
314.214	103.12
314.668	93.13
315.123	180.69
315.577	82.82
316.032	125.84
316.486	177.29
316.94	165.35
317.394	136.54
317.849	127.77
318.303	130.98
318.757	132.81
319.211	149.23
319.665	133.11
320.119	126.21
320.572	175.2
321.026	200.92
321.48	156.49
321.934	141.36
322.387	138.28
322.841	172.16
323.295	187.8
323.748	185.74
324.202	200.55
324.655	248.06
325.108	381.25
325.562	297.76
326.015	286.56
326.468	240.68
326.921	292.27
327.374	295.3
327.827	313.3
328.28	344.86
328.733	244.59
329.186	214.5
329.639	185.4
330.092	141.62
330.545	132.23
330.997	142.55
331.45	161
331.903	213.01
332.355	286.73
332.808	272.87
333.26	205.38
333.713	213.08
334.165	196.65
334.617	260.35
335.069	158.29
335.522	214.92
335.974	231.94
336.426	188.26
336.878	26.6
337.33	71.07
337.782	33.66
338.234	80.37
338.686	86.06
339.137	115.32
339.589	101.11
340.041	139.86
340.493	100.34
340.944	94.62
341.396	102.92
341.847	131.23
342.299	152.81
342.75	229.05
343.201	148.5
343.653	167.49
344.104	164.4
344.555	148.02
345.006	132.05
345.457	194.97
345.908	139.36
346.359	148.39
346.81	132.86
347.261	123.92
347.712	115.51
348.163	135.84
348.613	191.1
349.064	194.5
349.515	169.54
349.965	194.23
350.416	216.41
350.866	247.69
351.317	238.82
351.767	384.93
352.217	454.46
352.668	371.56
353.118	311.5
353.568	193.99
354.018	197.82
354.468	241.4
354.918	187.75
355.368	165.88
355.818	194.21
356.268	494.7
356.718	1952.94
357.168	584.4
357.617	283.51
358.067	343.38
358.517	318.99
358.966	401.81
359.416	548.57
359.865	587.24
360.315	557.94
360.764	325.1
361.213	226.77
361.663	188.87
362.112	182.74
362.561	301.83
363.01	233.56
363.459	219.13
363.908	172.9
364.357	133.73
364.806	183.61
365.255	159.93
365.703	177.75
366.152	165.12
366.601	160.85
367.05	165.97
367.498	161.24
367.947	140.84
368.395	123.9
368.844	128.79
369.292	104.5
369.74	105.69
370.189	127.42
370.637	96.13
371.085	61.05
371.533	74.3
371.981	44.77
372.429	72.36
372.877	102.64
373.325	125.29
373.773	93.5
374.221	87.55
374.669	72.77
375.116	85.82
375.564	109.23
376.012	120.82
376.459	95.16
376.907	107.12
377.354	69.98
377.801	74.61
378.249	78.29
378.696	99.25
379.143	176.21
379.591	194.53
380.038	228.3
380.485	129.63
380.932	155.02
381.379	179.5
381.826	201.51
382.273	177.87
382.72	131.75
383.166	133.5
383.613	108.54
384.06	94.65
384.506	101.64
384.953	89.01
385.4	85.48
385.846	79.15
386.292	59.87
386.739	45.71
387.185	31.24
387.631	33.44
388.078	52.07
388.524	58.28
388.97	59.35
389.416	55.94
389.862	61.26
390.308	68.9
390.754	70.53
391.2	74.63
391.645	70.78
392.091	99.26
392.537	101.07
392.983	79.84
393.428	90.29
393.874	74.96
394.319	83.05
394.765	91.27
395.21	89.41
395.655	86.59
396.101	84.64
396.546	82.81
396.991	59.17
397.436	55.2
397.881	54.16
398.326	41.68
398.771	57.7
399.216	50.92
399.661	43.05
400.106	47.89
400.551	55.23
400.995	51.94
401.44	48.75
401.885	50.8
402.329	52.74
402.774	51.3
403.218	60.9
403.663	54.95
404.107	55.98
404.551	57.95
404.995	51.36
405.44	42.32
405.884	41.37
406.328	35.48
406.772	32.29
407.216	31.13
407.66	27.01
408.104	17.04
408.547	14.02
408.991	11.82
409.435	9
409.879	11.89
410.322	12.92
410.766	12.51
411.209	17.04
411.653	17.67
412.096	17.81
412.54	17.79
412.983	18.42
413.426	20.38
413.869	19.79
414.312	22.16
414.756	19.52
415.199	20.24
415.642	21.94
416.085	20.87
416.527	18.65
416.97	17.74
417.413	18.49
417.856	18.22
418.298	17.65
418.741	16.1
419.184	13.78
419.626	8.79
420.069	8.48
420.511	8.44
420.953	10.65
421.396	12.19
421.838	10.52
422.28	11
422.722	10.16
423.164	10.08
423.606	12.41
424.048	13.15
424.49	17.88
424.932	16.71
425.374	14.15
425.816	11.81
426.258	10.65
426.699	12.34
427.141	14.45
427.582	14.72
428.024	12.16
428.465	9
428.907	6.02
429.348	5.69
429.789	6.73
430.231	10.48
430.672	10.92
431.113	11.88
431.554	11.13
431.995	8.32
432.436	10.03
432.877	12.02
433.318	13.38
433.759	13.82
434.2	12.09
434.64	10.54
435.081	8.48
435.522	7.84
435.962	8.33
436.403	10.06
436.843	9.07
437.284	6.71
437.724	4.66
438.164	0.6
438.604	0.81
439.045	3.51
439.485	5.54
439.925	5.2
440.365	5.13
440.805	4.08
441.245	4.02
441.685	4.51
442.125	4.26
442.564	4.66
443.004	7.72
443.444	8.15
443.883	6.8
444.323	4.48
444.762	1.74
445.202	0.23
445.641	1.62
446.081	0.36
446.52	2.37
446.959	3.81
447.398	5.71
447.837	5.4
448.276	4.79
448.716	6.28
449.154	6.12
449.593	8.66
450.032	9.66
450.471	7.1
450.91	6.97
451.349	6.01
451.787	4.88
452.226	3.21
452.664	3.04
453.103	1.77
453.541	-0.57
453.98	2.02
454.418	1.09
454.856	3.81
455.295	4.76
455.733	5.27
456.171	4.76
456.609	5.82
457.047	6.58
457.485	8.11
457.923	10.43
458.361	10.5
458.798	9.38
459.236	10.54
459.674	8.16
460.111	8.95
460.549	9.08
460.987	8.19
461.424	7.16
461.862	8.04
462.299	7.4
462.736	7.93
463.173	7.78
463.611	9.8
464.048	9.67
464.485	10.58
464.922	9.57
465.359	7.8
465.796	13.18
466.233	15.03
466.67	15.29
467.106	16.95
467.543	16.44
467.98	16.16
468.416	14.25
468.853	13
469.29	12.15
469.726	12.11
470.162	12.84
470.599	8.14
471.035	7.54
471.471	6.04
471.907	3.42
472.344	3.22
472.78	3.21
473.216	2.26
473.652	2.69
474.088	2.02
474.523	1.97
474.959	1.47
475.395	2.44
475.831	1.78
476.266	2.53
476.702	2.77
477.138	2.21
477.573	1.99
478.008	2.72
478.444	4.03
478.879	5.61
479.314	5.48
479.75	5.78
480.185	4.95
480.62	4.7
481.055	4.18
481.49	4.64
481.925	4.7
482.36	6.41
482.795	5.29
483.229	4.28
483.664	3.61
484.099	4.28
484.534	4.66
484.968	5.78
485.403	6.09
485.837	5.64
486.271	4.96
486.706	4.53
487.14	3.64
487.574	4.33
488.009	3.92
488.443	3.8
488.877	4.15
489.311	3.45
489.745	2.85
490.179	2.74
490.613	4
491.046	3.63
491.48	3.6
491.914	3.1
492.348	2.9
492.781	3.16
493.215	3.35
493.648	2.02
494.082	2.1
494.515	2.52
494.948	2.56
495.382	1.15
495.815	1.75
496.248	1.99
496.681	1.69
497.114	0.9
497.547	0.74
497.98	1.27
498.413	2.93
498.846	3.42
499.279	2.12
499.711	1.9
500.144	2.45
500.577	3.11
501.009	3.22
501.442	4.19
501.874	5.27
502.306	5.47
502.739	6.95
503.171	6.36
503.603	5.95
504.036	6.6
504.468	7.35
504.9	7.33
505.332	6.82
505.764	7.1
506.196	6.94
506.627	6.73
507.059	6.77
507.491	4.51
507.923	4.56
508.354	4.94
508.786	4.73
509.217	3.46
509.649	3.34
510.08	2.94
510.512	3.35
510.943	3.3
511.374	3.96
511.805	4.02
512.237	4
512.668	3.53
513.099	2.64
513.53	2.86
513.961	4.4
514.391	4.1
514.822	5.36
515.253	5.58
515.684	5.82
516.114	5.21
516.545	4.99
516.975	5.1
517.406	5.15
517.836	5.24
518.267	4.99
518.697	4.87
519.127	5.24
519.558	4.34
519.988	3.36
520.418	2.08
520.848	1.3
521.278	1.17
521.708	16.6
522.138	16.62
522.567	16.2
522.997	16.13
523.427	15.27
523.857	15
524.286	14.77
524.716	15.03
525.145	16.39
525.575	17.54
526.004	16.73
526.433	1.44
526.863	1.09
527.292	2.05
527.721	2.84
528.15	2.66
528.579	3.14
529.008	3.21
529.437	2.74
529.866	2.18
530.295	1.6
530.724	2.39
531.152	2.58
531.581	3.49
532.01	3.85
532.438	2.94
532.867	2.86
533.295	2.87
533.723	2.89
534.152	2.95
534.58	3.11
535.008	3.01
535.436	4.12
535.865	3.88
536.293	2.99
536.721	1.89
537.149	1.99
537.576	2.6
538.004	2.81
538.432	2.17
538.86	2.75
539.287	2.35
539.715	2.65
540.143	1.62
540.57	1.93
540.998	1.76
541.425	3.43
541.852	3.64
542.28	3.6
542.707	2.9
543.134	3.95
543.561	4.21
543.988	4.59
544.415	3.87
544.842	3.98
545.269	3.72
545.696	4.48
546.123	4.06
546.549	4.12
546.976	3.97
547.403	3.98
547.829	3.02
548.256	2.24
548.682	1.97
549.108	3
549.535	2.88
549.961	2.65
550.387	2.07
550.813	2.44
551.24	2.51
551.666	2.75
552.092	3.07
552.518	3.7
552.943	4.54
553.369	4.59
553.795	4.36
554.221	4.51
554.646	4.7
555.072	5.95
555.498	4.74
555.923	3.89
556.349	3.71
556.774	3.22
557.199	2.44
557.625	1.84
558.05	1.78
558.475	1.88
558.9	1.98
559.325	2.42
559.75	1.77
560.175	1.94
560.6	2.47
561.025	1.97
561.449	2.37
561.874	2.38
562.299	2.66
562.723	2.93
563.148	2.55
563.572	1.85
563.997	1.54
564.421	0.98
564.846	0.92
565.27	1.05
565.694	1.03
566.118	0.86
566.542	1.67
566.966	2.06
567.39	1.82
567.814	2.29
568.238	2.9
568.662	2.54
569.086	2.75
569.509	2.1
569.933	3.16
570.357	3.45
570.78	3.66
571.204	4.33
571.627	4.11
572.05	4.36
572.474	4.98
572.897	4.78
573.32	5.53
573.743	5.47
574.166	6.31
574.589	5.07
575.012	4.8
575.435	3.91
575.858	2.95
576.281	2.71
576.704	2.36
577.126	1.47
577.549	1.27
577.972	0.53
578.394	0.48
578.817	1.5
579.239	1.91
579.661	2.16
580.084	3.7
580.506	4.49
580.928	4.08
581.35	4.62
581.772	4.76
582.194	5.21
582.616	4.73
583.038	4.52
583.46	3.44
583.882	3.42
584.303	3.25
584.725	2.33
585.147	4.44
585.568	4.59
585.99	4.53
586.411	4.49
586.833	4.91
587.254	5.67
587.675	5.55
588.096	5.45
588.518	5.4
588.939	5.37
589.36	5.86
589.781	2.82
590.202	4.37
590.623	4.37
591.043	3.61
591.464	3.08
591.885	3.15
592.305	2.58
592.726	2.43
593.147	2.53
593.567	2.95
593.987	2.95
594.408	2.51
594.828	0.93
595.248	0.98
595.669	2.43
596.089	2.29
596.509	2
596.929	2.29
597.349	2.5
597.769	2.45
598.189	2.42
598.608	2.48
599.028	2.68
599.448	2.44
599.867	2.53
600.287	1.16
600.706	1.52
601.126	1.83
601.545	2.75
601.965	2.74
602.384	2.75
602.803	2.34
603.222	2.39
603.641	2.26
604.061	2.9
604.48	2.47
604.898	3.24
605.317	2.89
605.736	3.01
606.155	3.09
606.574	3.03
606.992	2.96
607.411	3.58
607.829	2.82
608.248	2.76
608.666	2.19
609.085	2.67
609.503	2.07
609.921	2.42
610.339	2.27
610.758	1.51
611.176	1.36
611.594	1.91
612.012	1.56
612.43	2.65
612.847	2.85
613.265	3.79
613.683	3.6
614.101	4.01
614.518	3.45
614.936	3.28
615.353	4.01
615.771	4.85
616.188	4.84
616.606	5.24
617.023	5.07
617.44	5.54
617.857	4.62
618.274	3.8
618.691	3.92
619.108	4.04
619.525	3.98
619.942	4.04
620.359	3.55
620.776	3.26
621.192	3.64
621.609	3.69
622.026	3.71
622.442	3.8
622.859	3.89
623.275	4.01
623.691	4.22
624.108	4.74
624.524	4.41
624.94	4.72
625.356	4.56
625.772	4.08
626.188	3.63
626.604	3.27
627.02	3.47
627.436	4.07
627.852	4.26
628.268	4.86
628.683	4.23
629.099	3.86
629.514	3.04
629.93	3.01
630.345	2.63
630.761	1.31
631.176	1.07
631.591	2.63
632.007	2.9
632.422	2.11
632.837	0.99
633.252	1.75
633.667	2.19
634.082	2.67
634.497	3.22
634.911	4.93
635.326	6.2
635.741	6.68
636.155	5.79
636.57	6.01
636.984	6.12
637.399	7
637.813	6.71
638.228	5.97
638.642	5.9
639.056	5.19
639.47	3.94
639.884	4.07
640.298	3.78
640.712	3.88
641.126	3.64
641.54	3.24
641.954	2.09
642.368	2.17
642.781	4.97
643.195	5.52
643.609	6.09
644.022	6.32
644.436	6.41
644.849	6.87
645.262	6.26
645.676	5.67
646.089	6.52
646.502	7.62
646.915	7.09
647.328	5.82
647.741	5.52
648.154	5.91
648.567	7.17
648.98	7.39
649.393	7.1
649.805	7.43
650.218	7.68
650.631	8.21
651.043	8.58
651.456	8.86
651.868	7.93
652.28	7.13
652.693	6.13
653.105	4.75
653.517	3.71
653.929	3.54
654.341	3.67
654.753	4.55
655.165	3.24
655.577	2.84
655.989	3.1
656.401	3.13
656.813	4.62
657.224	4.69
657.636	4.34
658.047	5.61
658.459	5.43
658.87	3.96
659.282	3.8
659.693	4.96
660.104	5.31
660.515	5.28
660.926	5.14
661.338	4.86
661.749	4.27
662.159	5.22
662.57	4.06
662.981	4.56
663.392	5.09
663.803	4.32
664.213	4.56
664.624	4.3
665.035	3.67
665.445	3.48
665.855	3.9
666.266	4.82
666.676	3.92
667.086	4.15
667.497	4.42
667.907	5.52
668.317	6.21
668.727	8.01
669.137	7.35
669.547	7.85
669.956	6.89
670.366	5.84
670.776	5.66
671.186	5.49
671.595	5.72
672.005	4.26
672.414	4.14
672.824	4.49
673.233	1.65
673.642	1.97
674.052	1.66
674.461	3.52
674.87	3.71
675.279	4.53
675.688	3.98
676.097	4.64
676.506	5.56
676.915	4.26
677.323	3.99
677.732	4.1
678.141	4.24
678.549	4.73
678.958	3.67
679.366	3.42
679.775	2.65
680.183	4.37
680.592	4.19
681	4.41
681.408	5.33
681.816	5.47
682.224	5.52
682.632	6.76
683.04	6.66
683.448	6.77
683.856	7.34
684.264	7.94
684.671	6.7
685.079	5.76
685.487	5.75
685.894	5.39
686.302	4.47
686.709	5.67
687.116	4.62
687.524	5.78
687.931	7.48
688.338	7.82
688.745	7.51
689.152	7.62
689.559	8.22
689.966	9.64
690.373	10.07
690.78	10.98
691.187	10.52
691.593	11.07
692	9.8
692.407	9.4
692.813	10.52
693.22	10.88
693.626	10.32
694.032	10.9
694.439	10.21
694.845	9.8
695.251	8.35
695.657	8.43
696.063	6.36
696.469	6.92
696.875	7.55
697.281	6.34
697.687	5.47
698.093	4.99
698.498	5.28
698.904	4.19
699.31	3.9
699.715	5.42
700.12	5.2
700.526	6.7
700.931	5.81
701.337	5.46
701.742	6.52
702.147	7.15
702.552	8.74
702.957	7.11
703.362	7.67
703.767	7.96
704.172	7.19
704.577	6.14
704.981	4.97
705.386	5.02
705.791	4.57
706.195	3.16
706.6	2.72
707.004	1.41
707.408	1.47
707.813	2.17
708.217	3.01
708.621	3.25
709.025	3.03
709.43	5.04
709.834	5.57
710.237	5.32
710.641	6.44
711.045	7.44
711.449	9.41
711.853	12.57
712.256	11.68
712.66	12.06
713.064	12.04
713.467	13.09
713.87	12.3
714.274	12.54
714.677	13.69
715.08	13.48
715.484	13.13
715.887	14.66
716.29	12.77
716.693	13.5
717.096	13.44
717.499	13.35
717.901	13.25
718.304	13.29
718.707	12.74
719.109	11.62
719.512	9.78
719.915	10.84
720.317	9.68
720.719	7.36
721.122	7.08
721.524	7.41
721.926	11.81
722.328	12.52
722.731	11.97
723.133	12.34
723.535	11.83
723.937	13.12
724.338	13.85
724.74	12.82
725.142	47.85
725.544	50.75
725.945	57.47
726.347	54.09
726.748	53.81
727.15	54.95
727.551	58.06
727.952	57.1
728.354	56.07
728.755	55.06
729.156	54.47
729.557	21.31
729.958	18.21
730.359	10.48
730.76	9.41
731.161	8.43
731.562	7.35
731.962	4.36
732.363	5.54
732.763	6.42
733.164	4.89
733.564	5.37
733.965	7.14
734.365	7.39
734.766	8.34
735.166	8.88
735.566	10.62
735.966	11.03
736.366	11.31
736.766	10.97
737.166	9.98
737.566	10.19
737.966	9.76
738.365	8.62
738.765	10.49
739.165	9.83
739.564	10.2
739.964	8.73
740.363	8.62
740.763	7.65
741.162	9.07
741.561	9.92
741.96	10.67
742.36	10.06
742.759	10.09
743.158	7.89
743.557	7.73
743.955	7.24
744.354	7.37
744.753	6.17
745.152	7.52
745.55	5.75
745.949	5.55
746.348	5.65
746.746	4.96
747.144	7.15
747.543	6.5
747.941	5.15
748.339	5.22
748.737	5.59
749.136	6.41
749.534	4.31
749.932	5.65
750.33	5.67
750.727	5.06
751.125	6.36
751.523	4.77
751.921	7.28
752.318	8.99
752.716	10.14
753.113	10.46
753.511	10.11
753.908	12.01
754.305	14.54
754.703	15.06
755.1	15.82
755.497	15.53
755.894	15.53
756.291	14.54
756.688	15.36
757.085	14.65
757.482	15.83
757.878	19.15
758.275	20.27
758.672	17.58
759.068	16.77
759.465	16.39
759.861	19.14
760.258	19.19
760.654	17.53
761.05	17.02
761.447	16.64
761.843	15.12
762.239	14.15
762.635	10.13
763.031	6.7
763.427	8.32
763.822	8.7
764.218	5.98
764.614	6.85
765.01	6.83
765.405	6.33
765.801	6.43
766.196	5.46
766.592	4.27
766.987	5.86
767.382	7.21
767.778	6.74
768.173	6.69
768.568	6.99
768.963	7.56
769.358	7.59
769.753	8.03
770.148	8.02
770.542	7.98
770.937	8.66
771.332	8.59
771.726	8.13
772.121	10.22
772.515	9.81
772.91	9.98
773.304	9.87
773.699	10.11
774.093	8.27
774.487	10.36
774.881	11.26
775.275	10.83
775.669	9.65
776.063	9.46
776.457	9.44
776.851	9.66
777.245	10.15
777.638	9.32
778.032	8.48
778.425	10.42
778.819	10.17
779.212	11.41
779.606	12.4
779.999	12.78
780.392	14.6
780.786	11.87
781.179	12.96
781.572	14.67
781.965	15.99
782.358	16.95
782.751	16.53
783.143	14.59
783.536	12.95
783.929	11.49
784.322	11.72
784.714	9.25
785.107	9.64
785.499	10.24
785.891	10.73
786.284	10.07
786.676	9.48
787.068	11.94
787.46	12.52
787.852	12.65
788.245	11.27
788.636	10.82
789.028	13.18
789.42	15.8
789.812	15.16
790.204	13.22
790.595	15.07
790.987	16.95
791.378	15.19
791.77	14.06
792.161	12.5
792.553	14.14
792.944	16.37
793.335	14.19
793.726	14.72
794.117	16.9
794.508	15.98
794.899	12.79
795.29	11.27
795.681	11
796.072	10.49
796.463	25.34
796.853	28.52
797.244	28.06
797.634	29.04
798.025	26.94
798.415	20.95
798.806	22.73
799.196	24.68
799.586	26.47
799.976	26.85
800.366	26.8
800.756	11.65
801.146	10.49
801.536	9.2
801.926	8.65
802.316	10.53
802.706	12.13
803.095	11.52
803.485	11.46
803.874	10.24
804.264	11.19
804.653	14.38
805.043	15.62
805.432	16.2
805.821	17.93
806.21	19.23
806.599	18.87
806.988	21.84
807.377	20.44
807.766	19.49
808.155	18.73
808.544	18.06
808.933	18.07
809.321	22.01
809.71	18.16
810.098	18.87
810.487	16.7
810.875	15.28
811.264	14.51
811.652	23.1
812.04	24.49
812.428	28.2
812.816	25.1
813.204	24.76
813.592	19.34
813.98	22.16
814.368	27.93
814.756	31.04
815.144	32.15
815.531	37.63
815.919	29.9
816.306	31.1
816.694	30.56
817.081	34.81
817.469	34.66
817.856	33.95
818.243	31.51
818.63	24.52
819.017	22.29
819.404	20.49
819.791	17.82
820.178	14.23
820.565	17.17
820.952	17.23
821.339	17.43
821.725	20.56
822.112	25.82
822.498	28.19
822.885	26.27
823.271	25.34
823.657	23.39
824.044	23.53
824.43	26.52
824.816	31.58
825.202	32.84
825.588	32.47
825.974	33.34
826.36	27.83
826.746	27.83
827.132	28.73
827.517	34.95
827.903	36.47
828.289	38.98
828.674	39.89
829.06	34.35
829.445	32.72
829.83	29.84
830.216	26.58
830.601	32.85
830.986	40.88
831.371	40.28
831.756	41.4
832.141	46.73
832.526	45.59
832.911	42.9
833.295	41.02
833.68	38.94
834.065	44.98
834.449	45.46
834.834	46.32
835.218	42.29
835.603	43.36
835.987	38.66
836.371	34.44
836.755	33.37
837.139	29.75
837.524	28.41
837.908	27.86
838.291	25.39
838.675	21.98
839.059	18.32
839.443	16.34
839.827	13.97
840.21	13.91
840.594	16.58
840.977	16.46
841.361	20.22
841.744	18.27
842.127	21.01
842.511	21.55
842.894	19.75
843.277	20.44
843.66	18.02
844.043	21.45
844.426	25.94
844.809	20.22
845.191	20.83
845.574	22.93
845.957	26.13
846.339	24.71
846.722	23.9
847.104	22.79
847.487	17.86
847.869	21.01
848.252	21.77
848.634	21.34
849.016	22.05
849.398	21.61
849.78	17.78
850.162	19.65
850.544	18.12
850.926	16.56
851.307	20.48
851.689	26.24
852.071	20.93
852.452	20.7
852.834	16.6
853.215	21.69
853.597	20.22
853.978	27.77
854.359	26.49
854.741	28.82
855.122	27.09
855.503	24.92
855.884	24.18
856.265	26.34
856.646	21.33
857.026	25.67
857.407	22.86
857.788	21.9
858.169	14.28
858.549	17.77
858.93	19.05
859.31	22.74
859.69	26.06
860.071	28.36
860.451	31.35
860.831	36.55
861.211	33.99
861.591	31.64
861.971	27.7
862.351	31.16
862.731	25.45
863.111	25.26
863.491	28.31
863.87	30.13
864.25	22.31
864.629	25.01
865.009	21.61
865.388	24.72
865.768	26.16
866.147	35.12
866.526	34.93
866.905	39.68
867.284	33.48
867.663	26.58
868.042	19.83
868.421	22.15
868.8	16.3
869.179	18.17
869.558	13.93
869.936	16.43
870.315	12.01
870.693	14.52
871.072	10.88
871.45	15.64
871.828	21.81
872.207	25.59
872.585	26.03
872.963	23.17
873.341	28.56
873.719	35.07
874.097	38.9
874.475	37.79
874.853	36.54
875.23	38.02
875.608	39.8
875.986	35.84
876.363	39.1
876.741	48.51
877.118	55.53
877.495	52.61
877.873	44.76
878.25	39.33
878.627	41.15
879.004	41.2
879.381	38.96
879.758	43.87
880.135	45.67
880.512	41.55
880.889	33.12
881.265	26.71
881.642	24.01
882.019	27.23
882.395	35.39
882.772	41.45
883.148	40.77
883.524	41.59
883.901	37
884.277	32.47
884.653	36.04
885.029	42
885.405	51.15
885.781	51.77
886.157	51.45
886.532	43.48
886.908	40.69
887.284	40.82
887.659	44.4
888.035	42.82
888.411	40.14
888.786	33.88
889.161	26.82
889.537	19.01
889.912	19.61
890.287	21.43
890.662	17.81
891.037	15.99
891.412	11.69
891.787	6.25
892.162	11.74
892.536	16.71
892.911	21.18
893.286	19.57
893.66	23.37
894.035	26.17
894.409	17.4
894.784	22.42
895.158	19.26
895.532	28.3
895.906	32.95
896.281	31.15
896.655	35.44
897.029	35.58
897.402	38.99
897.776	38.52
898.15	37.26
898.524	43.12
898.898	38.72
899.271	54.71
899.645	50.06
900.018	44.58
900.392	46.28
900.765	35.74
901.138	37.18
901.511	38.61
901.884	44.84
902.258	45.47
902.631	49.51
903.003	61.06
903.376	50.24
903.749	51.13
904.122	51.19
904.495	41
904.867	42.48
905.24	39.81
905.612	34.06
905.985	24.33
906.357	14.57
906.729	23.55
907.102	24.04
907.474	23.37
907.846	29.51
908.218	32.49
908.59	45.26
908.962	47.42
909.334	52.16
909.705	60.94
910.077	58.24
910.449	58.97
910.82	60.92
911.192	67.28
911.563	87.25
911.935	76.74
912.306	63.34
912.677	58.57
913.048	65.85
913.419	63.85
913.79	54.77
914.161	57.45
914.532	67.73
914.903	54.5
915.274	48.03
915.645	37.88
916.015	30.5
916.386	43.81
916.756	50.33
917.127	45.41
917.497	50.78
917.868	59.09
918.238	69.45
918.608	71.69
918.978	65.99
919.348	60.53
919.718	56.66
920.088	66.42
920.458	71.01
920.828	55.3
921.198	57.83
921.567	50.49
921.937	49.35
922.306	31.05
922.676	18.43
923.045	34.23
923.415	30.32
923.784	22.09
924.153	28.28
924.522	24.94
924.891	28.19
925.26	21.84
925.629	22.96
925.998	15.25
926.367	21.69
926.736	41.92
927.104	30.19
927.473	39.9
927.842	44.29
928.21	25.73
928.578	3.73
928.947	21.82
929.315	32.93
929.683	42.46
930.051	24.66
930.42	29.64
930.788	26.95
931.156	37.69
931.523	68.92
931.891	82.96
932.259	104.87
932.627	161.62
932.994	195.66
933.362	183.05
933.729	179.62
934.097	201.84
934.464	190.61
934.831	199.89
935.199	199.11
935.566	178.75
935.933	224.2
936.3	274.5
936.667	208.57
937.034	243.27
937.401	236.34
937.767	193.02
938.134	170.91
938.501	232.54
938.867	271.84
939.234	418.96
939.6	358.13
939.967	318.31
940.333	206.66
940.699	158.91
941.065	77.4
941.431	93.29
941.798	118.92
942.163	184.97
942.529	116.66
942.895	99.33
943.261	88.31
943.627	114.03
943.992	98.34
944.358	83.51
944.723	117.8
945.089	114.56
945.454	100.86
945.82	90.12
946.185	66.69
946.55	71.51
946.915	62.33
947.28	78.66
947.645	81.68
948.01	93.09
948.375	128.09
948.74	117.43
949.104	130.99
949.469	153.92
949.834	290.58
950.198	388.26
950.562	251.21
950.927	216.53
951.291	222.11
951.655	169.1
952.02	125.02
952.384	103.35
952.748	115.52
953.112	140.63
953.476	150.94
953.839	139.45
954.203	142.87
954.567	165.08
954.931	224.8
955.294	206.26
955.658	197.09
956.021	320.92
956.385	421.44
956.748	510.52
957.111	537
957.474	396.11
957.837	152.54
958.2	-22.13
958.563	26.91
958.926	40.69
959.289	60.6
959.652	132.05
960.015	162.01
960.377	223.14
960.74	248.88
961.102	337.67
961.465	504.85
961.827	655.82
962.189	1181.89
962.552	830.81
962.914	737.09
963.276	474.76
963.638	357.62
964	281.51
964.362	204.53
964.724	197.05
965.085	164.82
965.447	138.92
965.809	77.25
966.17	74.12
966.532	79.67
966.893	65.62
967.255	55.26
967.616	46.78
967.977	58
968.338	54.37
968.699	60.81
969.061	60.99
969.421	52.09
969.782	62.02
970.143	59.58
970.504	78.14
970.865	80.26
971.225	105.35
971.586	110.83
971.946	145.14
972.307	130.26
972.667	146.68
973.027	148.39
973.388	178.41
973.748	141.52
974.108	170.19
974.468	160.68
974.828	180.32
975.188	124.52
975.548	126.37
975.907	103.74
976.267	122.98
976.627	123.3
976.986	116.83
977.346	81.48
977.705	80.9
978.064	65.53
978.424	58.11
978.783	35.52
979.142	28.15
979.501	23.3
979.86	32.44
980.219	11.95
980.578	-0.79
980.937	-6.36
981.296	37.97
981.654	26.31
982.013	15.31
982.371	30.79
982.73	51.07
983.088	43.03
983.447	47.23
983.805	24.62
984.163	185.35
984.521	97.22
984.879	-4.55
985.237	106.85
985.595	128.38
985.953	79.04
986.311	18.85
986.669	7.28
987.026	34.72
987.384	17.86
987.741	-13.95
988.099	45.89
988.456	54.38
988.814	79.44
989.171	79.3
989.528	58.76
989.885	48.58
990.242	57.18
990.599	38.51
990.956	29.51
991.313	32.63
991.67	44.73
992.027	76.35
992.383	73.18
992.74	67.2
993.096	73.46
993.453	83.56
993.809	85.91
994.165	99.58
994.522	147.6
994.878	153.11
995.234	198.94
995.59	181.76
995.946	109.98
996.302	113.23
996.658	115.23
997.013	94.79
997.369	124.66
997.725	167.17
998.08	130.8
998.436	41.52
998.791	107.66
999.147	110.45
999.502	144.16
999.857	95.53
1000.212	106.32
1000.567	144.03
1000.922	99.94
1001.277	14.6
1001.632	19.18
1001.987	25.5
1002.342	37.01
1002.696	43.92
1003.051	54.87
1003.406	75.02
1003.76	80.21
1004.114	80.41
1004.469	96.37
1004.823	96.14
1005.177	99.88
1005.531	85.08
1005.885	85.59
1006.239	97.98
1006.593	118.04
1006.947	131.86
1007.301	92.33
1007.655	104.74
1008.008	99.2
1008.362	98.65
1008.715	127.29
1009.069	135.5
1009.422	241.8
1009.776	419.88
1010.129	285.18
1010.482	237.67
1010.835	138.3
1011.188	222.04
1011.541	197.27
1011.894	-833.92
1012.247	2677.55
1012.6	187.72
1012.952	172.38
1013.305	48.28
1013.657	38.9
1014.01	36.79
1014.362	21.35
1014.715	82.92
1015.067	107.1
1015.419	94.87
1015.771	89.39
1016.123	100.91
1016.475	96.98
1016.827	89.57
1017.179	120.58
1017.531	104.05
1017.883	94.12
1018.234	129.26
1018.586	139.88
1018.938	146.62
1019.289	220.39
1019.64	248.21
1019.992	185.52
1020.343	183.4
1020.694	197.91
1021.045	160.68
1021.396	210.46
1021.747	281.63
1022.098	300.2
1022.449	187.96
1022.8	182.94
1023.151	136.7
1023.501	144.15
1023.852	153.87
1024.202	182.13
1024.553	165.93
1024.903	179.5
1025.253	192.76
1025.604	181.46
1025.954	197.85
1026.304	249.66
1026.654	290.88
1027.004	388.16
1027.354	518.17
1027.703	613.39
1028.053	654.45
1028.403	1113.08
1028.753	1285.05
1029.102	1047.48
1029.452	2690.17
1029.801	132.87
1030.15	99.91
1030.499	30.49
897.758	1267.4
901.051	1226.11
904.343	1248.3
907.636	1249.6
910.928	1283.72
914.22	1240.21
917.511	1248.15
920.803	1270.62
924.094	1265.56
927.384	1271.48
930.675	1251.46
933.965	1234.32
937.255	1252.41
940.544	1235.89
943.834	1237.14
947.123	1204.54
950.411	1254.66
953.7	1245.37
956.988	1238.71
960.276	1197.33
963.563	1221.89
966.851	1225.85
970.138	1243.88
973.424	1246.41
976.711	1217.77
979.997	1243.23
983.283	1264.54
986.568	1228.4
989.853	1219.75
993.138	1229.74
996.423	1283.64
999.708	1259.59
1002.992	1273.76
1006.275	1228.92
1009.559	1228.83
1012.842	1281.21
1016.125	1257.02
1019.408	1244.61
1022.69	1272.85
1025.972	1287.02
1029.254	1277.92
1032.536	1257.56
1035.817	1259.35
1039.098	1244.12
1042.379	1267.95
1045.659	1282.44
1048.939	1254.3
1052.219	1253.97
1055.498	1251.02
1058.778	1244.28
1062.057	1235.33
1065.335	1250.95
1068.614	1251.55
1071.892	1248.13
1075.17	1278.19
1078.447	1278.83
1081.724	1273.71
1085.001	1285.09
1088.278	1271.52
1091.554	1271.38
1094.83	1270.83
1098.106	1285.95
1101.382	1299.45
1104.657	1299.54
1107.932	1300.65
1111.206	1286.56
1114.481	1263.43
1117.755	1266.5
1121.029	1260.76
1124.302	1292.54
1127.575	1277.37
1130.848	1278.07
1134.121	1261.62
1137.393	1238.56
1140.665	1269.34
1143.937	1253.37
1147.208	1231.89
1150.48	1258.86
1153.75	1252.09
1157.021	1257.91
1160.291	1242.32
1163.561	1269.52
1166.831	1250.9
1170.101	1262.77
1173.37	1242.5
1176.639	1223.49
1179.907	1251.03
1183.176	1254.09
1186.444	1258.16
1189.711	1269.23
1192.979	1281.54
1196.246	1260.24
1199.513	1269.01
1202.78	1269.19
1206.046	1275.26
1209.312	1290.84
1212.578	1294.11
1215.843	1273.08
1219.108	1265.12
1222.373	1274.24
1225.638	1260.25
1228.902	1249.68
1232.166	1234.24
1235.43	1225.23
1238.693	1241.52
1241.956	1239.81
1245.219	1265.28
1248.482	1259.24
1251.744	1261.7
1255.006	1322.84
1258.268	1296.42
1261.529	1278.39
1264.79	1279.67
1268.051	1330.36
1271.312	1337.57
1274.572	1317.36
1277.832	1311.48
1281.092	1299.03
1284.351	1296.58
1287.61	1288.7
1290.869	1252.92
1294.128	1253.91
1297.386	1272.96
1300.644	1271.05
1303.902	1270.59
1307.159	1199.93
1310.416	1227.72
1313.673	1238.46
1316.93	1242.3
1320.186	1254.75
1323.442	1271.64
1326.697	1271.07
1329.953	1258.26
1333.208	1278.22
1336.463	1263.9
1339.717	1248.94
1342.972	1310.46
1346.226	1297.19
1349.479	1277.63
1352.733	1262.68
1355.986	1272.98
1359.238	1262.25
1362.491	1264.38
1365.743	1262.54
1368.995	1262.04
1372.247	1271.06
1375.498	1276.97
1378.749	1295.17
1382	1274.47
1385.251	1286.39
1388.501	1268.84
1391.751	1263.17
1395	1251.93
1398.25	1265.6
1401.499	1281.52
1404.748	1256.1
1407.996	1250.43
1411.244	1251.32
1414.492	1242.38
1417.74	1229.71
1420.987	1240.82
1424.234	1266.79
1427.481	1250.49
1430.728	1274.71
1433.974	1266.18
1437.22	1266.55
1440.465	1258.41
1443.711	1259.32
1446.956	1265.91
1450.201	1253.72
1453.445	1283.1
1456.689	1270.56
1459.933	1280.85
1463.177	1300.05
1466.42	1287.89
1469.663	1276.47
1472.906	1282.46
1476.148	1309.32
1479.391	1288.35
1482.633	1280.08
1485.874	1291.76
1489.115	1292.22
1492.356	1284.44
1495.597	1268.53
1498.838	1263.18
1502.078	1260.54
1505.318	1249.78
1508.557	1262.88
1511.797	1263.33
1515.036	1286.2
1518.274	1264.74
1521.513	1236.87
1524.751	1241.42
1527.989	1250.94
1531.227	1260.9
1534.464	1263.79
1537.701	1257.64
1540.938	1260.99
1544.174	1234.23
1547.41	1227.63
1550.646	1249.05
1553.882	1271
1557.117	1303.75
1560.352	1305.95
1563.587	1283.47
1566.821	1269.45
1570.055	1281.21
1573.289	1264.71
1576.523	1291.15
1579.756	1299.22
1582.989	1310.27
1586.222	1284.51
1589.454	1307.13
1592.686	1298.25
1595.918	1310.99
1599.15	1311.99
1602.381	1333.83
1605.612	1324.6
1608.843	1370.76
1612.073	1331.99
1615.303	1327.65
1618.533	1321.84
1621.762	1324.65
1624.992	1307.58
1628.221	1304.99
1631.449	1299.58
1634.678	1313.68
1637.906	1295.48
1641.134	1304.46
1644.361	1289.75
1647.588	1284.37
1650.815	1297.11
1654.042	1279.59
1657.269	1293.17
1660.495	1282.07
1663.72	1277.73
1666.946	1259.51
1670.171	1249.84
1673.396	1234.38
1676.621	1226.57
1679.845	1224.64
1683.069	1227.44
1686.293	1241.03
1689.517	1235.5
1692.74	1213.16
1695.963	1222.7
1699.185	1240.48
1702.408	1228.17
1705.63	1240.17
1708.852	1249.63
1712.073	1236.23
1715.294	1246.66
1718.515	1272.71
1721.736	1249.1
1724.956	1243.37
1728.176	1255.38
1731.396	1264.13
1734.616	1260.05
1737.835	1284.9
1741.054	1269.05
1744.272	1268.74
1747.491	1287.47
1750.709	1297.81
1753.927	1273.17
1757.144	1289.67
1760.361	1317.48
1763.578	1299.73
1766.795	1274.9
1770.011	1270.45
1773.227	1281.89
1776.443	1303.8
1779.658	1321.7
1782.874	1294.33
1786.089	1289.09
1789.303	1289.37
1792.518	1289.77
1795.732	1283.83
1798.945	1291.4
1802.159	1317.48
1805.372	1285.06
1808.585	1277.99
1811.797	1278.72
1815.01	1296.75
1818.222	1312.45
1821.434	1294.16
1824.645	1312.58
1827.856	1313.85
1831.067	1329.6
1834.278	1304.84
1837.488	1294.38
1840.698	1357.5
1843.908	1334.94
1847.117	1319.94
1850.326	1279.44
1853.535	1312.02
1856.744	1330.34
1859.952	1291.74
1863.16	1293.26
1866.368	1307.58
1869.575	1363.68
1872.782	1305.96
1875.989	1272.66
1879.196	1299.53
1882.402	1296.41
1885.608	1311.71
1888.814	1280.25
1892.019	1234.05
1895.224	1266.46
1898.429	1251.88
1901.634	1239.51
1904.838	1229.38
1908.042	1259.87
1911.246	1271.43
1914.449	1251.19
1917.652	1242.14
1920.855	1233.67
1924.058	1246.37
1927.26	1275.02
1930.462	1283.4
1933.664	1302.88
1936.865	1275.52
1940.066	1283.15
1943.267	1254.48
1946.467	1261.17
1949.668	1266.16
1952.868	1304.03
1956.067	1304.19
1959.267	1271.42
1962.466	1284.25
1965.665	1272.46
1968.863	1270.81
1972.061	1272.97
1975.259	1267.56
1978.457	1305.88
1981.654	1284.9
1984.852	1286.23
1988.048	1264.93
1991.245	1253.64
1994.441	1301.04
1997.637	1271.98
2000.833	1265.3
2004.028	1281.6
2007.223	1315.53
2010.418	1306.46
2013.613	1281.86
2016.807	1277.3
2020.001	1276.14
2023.194	1287.86
2026.388	1278.72
2029.581	1249.95
2032.774	1285.43
2035.966	1290.46
2039.158	1263.03
2042.35	1272.76
2045.542	1234.64
2048.733	1279.18
2051.924	1269.84
2055.115	1278.1
2058.306	1261.18
2061.496	1284.98
2064.686	1315.3
2067.875	1261.21
2071.065	1264.43
2074.254	1272.49
2077.442	1247.74
2080.631	1291.16
2083.819	1257.55
2087.007	1253.74
2090.195	1247.21
2093.382	1248.12
2096.569	1248.71
2099.756	1224.06
2102.942	1258.78
2106.128	1261.17
2109.314	1257.27
2112.5	1250.55
2115.685	1235.39
2118.87	1237.8
2122.055	1276.7
2125.239	1261.57
2128.424	1257.75
2131.608	1286.26
2134.791	1277.98
2137.974	1294.8
2141.157	1288.54
2144.34	1276.19
2147.523	1268.3
2150.705	1285.68
2153.887	1264.32
2157.068	1249.47
2160.25	1238.53
2163.431	1254.03
2166.611	1237.01
2169.792	1247.46
2172.972	1196.54
2176.152	1231.62
2179.331	1242.18
2182.511	1241.6
2185.69	1249.83
2188.868	1254.13
2192.047	1272.51
2195.225	1289.36
2198.403	1257.47
2201.58	1247.19
2204.758	1240.11
2207.935	1281.21
2211.111	1234.16
2214.288	1226.7
2217.464	1244.99
2220.64	1225.31
2223.815	1250.47
2226.991	1213.14
2230.166	1217.78
2233.34	1239.52
2236.515	1250.28
2239.689	1288.99
2242.863	1261.04
2246.036	1285.62
2249.209	1281.54
2252.382	1293.01
2255.555	1294.34
2258.727	1272.37
2261.9	1288.8
2265.071	1285.86
2268.243	1287.35
2271.414	1260.7
2274.585	1247.38
2277.756	1280.25
2280.926	1259.22
2284.096	1275.24
2287.266	1237.03
2290.436	1266.93
2293.605	1272.56
2296.774	1290.68
2299.942	1294.26
2303.111	1303.93
2306.279	1329.92
2309.447	1324.42
2312.614	1313.87
2315.781	1321.84
2318.948	1308.11
2322.115	1331.54
2325.281	1270.25
2328.447	1278.06
2331.613	1262.02
2334.779	1260.18
2337.944	1257.37
2341.109	1258.22
2344.274	1252.2
2347.438	1232.81
2350.602	1247.75
2353.766	1251.09
2356.929	1246.4
2360.092	1271.79
2363.255	1249.08
2366.418	1236.66
2369.58	1256.01
2372.742	1238.67
2375.904	1227.72
2379.066	1223.96
2382.227	1237.19
2385.388	1215.45
2388.548	1192.13
2391.709	1210.62
2394.869	1205.4
2398.029	1237.55
2401.188	1227.61
2404.347	1218.71
2407.506	1214.55
2410.665	1246.68
2413.823	1235.42
2416.981	1227.42
2420.139	1235.79
2423.296	1257.44
2426.453	1242.41
2429.61	1255.44
2432.767	1239.23
2435.923	1259.38
2439.079	1233.73
2442.235	1251.74
2445.391	1217.03
2448.546	1239.07
2451.701	1255.17
2454.855	1253.83
2458.009	1268.58
2461.163	1261.8
2464.317	1244.27
2467.471	1260.44
2470.624	1279.32
2473.777	1271.24
2476.929	1280.42
2480.082	1293.02
2483.234	1283.26
2486.385	1253
2489.537	1248.31
2492.688	1241.6
2495.839	1256.37
2498.989	1262.4
2502.14	1252.6
2505.29	1247.17
2508.439	1258.86
2511.589	1230.14
2514.738	1230.74
2517.887	1238.88
2521.035	1282.82
2524.183	1259.12
2527.331	1253.62
2530.479	1245.64
2533.627	1249.29
