Data from N_1_DIV_OH_2N_Splice17_11-29-48-215.txt Node
Date: Sat Mar 14 11:29:48 EDT 2020
User: sa697716
Spectrometer: FLMS03696
Trigger mode: 0
Integration Time (sec): 3.180400E-1
Scans to average: 20
Electric dark correction enabled: true
Nonlinearity correction enabled: true
Boxcar width: 5
XAxis mode: Wavelengths
Number of Pixels in Spectrum: 2048
>>>>>Begin Spectral Data<<<<<
187.83	-104884.8
188.298	967.23
188.766	506.36
189.233	441.1
189.701	594.62
190.169	899.32
190.636	281.03
191.104	261.71
191.571	36.04
192.039	2.5
192.506	69.85
192.974	471.88
193.441	-528.07
193.908	-234.69
194.375	-67.08
194.842	-12.87
195.31	37.85
195.777	84.54
196.244	204.45
196.711	178.5
197.177	194.8
197.644	236.41
198.111	367.71
198.578	465.28
199.045	330.01
199.511	498.2
199.978	538.85
200.445	469.2
200.911	498.42
201.378	498.25
201.844	487.67
202.31	799.62
202.777	799.96
203.243	445.88
203.709	438.13
204.176	554.49
204.642	475.5
205.108	437.31
205.574	344.1
206.04	295.39
206.506	281.47
206.972	235.65
207.438	225.1
207.903	241.6
208.369	231.7
208.835	230.86
209.301	226.18
209.766	226.46
210.232	233.34
210.697	275.26
211.163	341.36
211.628	489.71
212.094	446.07
212.559	624.51
213.024	391.58
213.49	456.35
213.955	441.92
214.42	412.21
214.885	373.9
215.35	343.26
215.815	381.52
216.28	389.88
216.745	300.35
217.21	327.51
217.675	246.92
218.14	269.53
218.604	269.66
219.069	271.31
219.534	302.24
219.998	301.94
220.463	327.85
220.927	327.68
221.392	278.49
221.856	275.69
222.32	260.09
222.785	310.34
223.249	352.39
223.713	358.24
224.177	351.44
224.642	349.13
225.106	384.48
225.57	393.73
226.034	315.4
226.497	473.94
226.961	460.54
227.425	577.4
227.889	581.81
228.353	550.14
228.816	1142.22
229.28	1135.24
229.744	985.32
230.207	697.51
230.671	678.39
231.134	998.59
231.597	1182.11
232.061	1071.71
232.524	932.04
232.987	669.04
233.45	614.75
233.914	509.85
234.377	467.29
234.84	386.51
235.303	385.64
235.766	441.65
236.229	444.01
236.691	259.69
237.154	282.21
237.617	238.38
238.08	236.06
238.542	256.04
239.005	195.26
239.468	198.14
239.93	205.69
240.393	196.32
240.855	157.14
241.317	144.65
241.78	148.29
242.242	152.88
242.704	198.64
243.166	179.95
243.629	190.89
244.091	230.43
244.553	254.04
245.015	270.58
245.477	314.89
245.939	438.82
246.4	485.37
246.862	481
247.324	498.77
247.786	499.81
248.247	571.09
248.709	440.24
249.17	312.18
249.632	358.96
250.093	459
250.555	421.69
251.016	322.86
251.477	302.15
251.939	335.28
252.4	328.19
252.861	344.52
253.322	369.82
253.783	445.38
254.244	553.58
254.705	367.98
255.166	303.45
255.627	283.66
256.088	344.04
256.549	374.26
257.009	302.01
257.47	340.35
257.931	264.47
258.391	187.43
258.852	191.76
259.312	192.9
259.773	238.8
260.233	245.31
260.694	239.65
261.154	265.2
261.614	255.78
262.074	214.35
262.534	226.34
262.994	240.12
263.455	289.56
263.915	268.31
264.374	241.37
264.834	267.94
265.294	270.25
265.754	277.84
266.214	261.27
266.673	248.54
267.133	305.76
267.593	292.69
268.052	341.29
268.512	289.12
268.971	382.44
269.431	444.02
269.89	402.04
270.349	585.57
270.809	663.23
271.268	606.08
271.727	1097.28
272.186	751.41
272.645	603.1
273.104	401.07
273.563	588.22
274.022	381.88
274.481	358.44
274.94	272.25
275.399	188.82
275.857	181.7
276.316	208.72
276.775	192.69
277.233	190.21
277.692	187.9
278.15	255.51
278.609	300.22
279.067	277.48
279.525	256.14
279.984	313.57
280.442	371.52
280.9	445.39
281.358	304.6
281.816	307.69
282.274	308.24
282.732	296.51
283.19	287.86
283.648	237.9
284.106	243.76
284.564	225.45
285.021	225.76
285.479	186.43
285.937	143.16
286.394	153.03
286.852	153.53
287.309	159.19
287.767	181.91
288.224	184.01
288.682	196.04
289.139	244.6
289.596	238.21
290.053	229.15
290.511	254.96
290.968	323.62
291.425	381.61
291.882	351.5
292.339	330.43
292.796	281.73
293.252	251.47
293.709	241.73
294.166	213.78
294.623	221.01
295.079	195.34
295.536	223.93
295.992	212.93
296.449	215.35
296.905	224.45
297.362	232.46
297.818	242.69
298.274	254.47
298.731	229.89
299.187	221.62
299.643	239.47
300.099	316.37
300.555	330.21
301.011	281.61
301.467	332.91
301.923	322.02
302.379	304.26
302.835	314.98
303.291	313.81
303.746	358.48
304.202	442.97
304.658	454.37
305.113	323.89
305.569	335.87
306.024	313.69
306.479	229.73
306.935	257.49
307.39	275.48
307.845	260.84
308.301	297.44
308.756	275.44
309.211	287.13
309.666	288.87
310.121	383.97
310.576	349.96
311.031	352.65
311.486	393.02
311.94	317.21
312.395	378.1
312.85	642.44
313.305	2072.94
313.759	15316.29
314.214	965.72
314.668	798.99
315.123	626.68
315.577	268.34
316.032	279.35
316.486	325.4
316.94	330.84
317.394	272.65
317.849	224.87
318.303	212.28
318.757	191.92
319.211	214.28
319.665	183.86
320.119	186.85
320.572	247.29
321.026	226.38
321.48	192.29
321.934	175.37
322.387	168.78
322.841	183.05
323.295	216.3
323.748	220.77
324.202	228.87
324.655	309.48
325.108	488.4
325.562	390.33
326.015	460.8
326.468	370.98
326.921	412.12
327.374	397.31
327.827	424.31
328.28	432.15
328.733	306.97
329.186	281.79
329.639	257.2
330.092	199.93
330.545	185.15
330.997	182.11
331.45	224.39
331.903	288.92
332.355	443.8
332.808	412.44
333.26	351.47
333.713	377.47
334.165	362.69
334.617	479.22
335.069	346.4
335.522	532.1
335.974	622.27
336.426	485.28
336.878	322.64
337.33	163.56
337.782	154.39
338.234	210.93
338.686	264.44
339.137	323.86
339.589	291.59
340.041	258.99
340.493	220.6
340.944	234.66
341.396	256.79
341.847	231.17
342.299	319.77
342.75	422.21
343.201	331.29
343.653	349.58
344.104	402.81
344.555	307.45
345.006	363.34
345.457	369.98
345.908	256.99
346.359	242.65
346.81	181.58
347.261	153.56
347.712	143.22
348.163	144.84
348.613	206.44
349.064	197.85
349.515	186.81
349.965	218.19
350.416	241.13
350.866	269.54
351.317	277.07
351.767	435.82
352.217	546.23
352.668	508.45
353.118	480.77
353.568	337.88
354.018	297.73
354.468	337.85
354.918	271.61
355.368	229.52
355.818	314.64
356.268	843.49
356.718	4456.04
357.168	1261.08
357.617	589.84
358.067	648.36
358.517	633.46
358.966	759.8
359.416	916.95
359.865	945.03
360.315	1180.38
360.764	562.35
361.213	343.67
361.663	252.7
362.112	253.46
362.561	378.5
363.01	302.81
363.459	265.96
363.908	264.48
364.357	234.69
364.806	351.6
365.255	205.77
365.703	231.64
366.152	215.4
366.601	211
367.05	219.17
367.498	207.8
367.947	206.43
368.395	220.77
368.844	210.78
369.292	198.21
369.74	167.91
370.189	242.67
370.637	269.29
371.085	227.89
371.533	250.73
371.981	181.59
372.429	220.07
372.877	228.99
373.325	168.96
373.773	146.88
374.221	131.15
374.669	126.11
375.116	109.65
375.564	106.94
376.012	100.04
376.459	97.49
376.907	102.76
377.354	79.82
377.801	114.64
378.249	157.3
378.696	210.52
379.143	270.57
379.591	320.24
380.038	492.85
380.485	423.96
380.932	503.47
381.379	599.31
381.826	527.04
382.273	348.97
382.72	266.86
383.166	268.86
383.613	179.95
384.06	179.5
384.506	200.02
384.953	158
385.4	147.58
385.846	137.81
386.292	107.8
386.739	92.57
387.185	84.93
387.631	85.05
388.078	97.61
388.524	100.32
388.97	90.07
389.416	79.01
389.862	92.54
390.308	94.01
390.754	99.39
391.2	104.39
391.645	98.89
392.091	129.65
392.537	135.82
392.983	122.36
393.428	148.54
393.874	150.21
394.319	164.79
394.765	173.37
395.21	162.17
395.655	149.87
396.101	135.2
396.546	132.33
396.991	116.55
397.436	106.77
397.881	100.73
398.326	79.98
398.771	82.12
399.216	67.61
399.661	58.45
400.106	63.64
400.551	72.54
400.995	70.99
401.44	74.46
401.885	67.92
402.329	69.49
402.774	69.15
403.218	77.32
403.663	73.51
404.107	80.39
404.551	81.55
404.995	75.52
405.44	65.33
405.884	63.45
406.328	55.73
406.772	54.51
407.216	50.61
407.66	47.22
408.104	39.03
408.547	34.89
408.991	33.33
409.435	30.63
409.879	32.46
410.322	36.99
410.766	39
411.209	42.08
411.653	43.41
412.096	45.84
412.54	44.11
412.983	43.92
413.426	47.63
413.869	44.77
414.312	46.84
414.756	44.54
415.199	42.03
415.642	43.5
416.085	43
416.527	38.82
416.97	36.07
417.413	36.84
417.856	34.49
418.298	33.77
418.741	32.08
419.184	28.16
419.626	24.49
420.069	24.46
420.511	23.38
420.953	26.96
421.396	30.63
421.838	28.68
422.28	29.65
422.722	31.88
423.164	30.78
423.606	32.84
424.048	32.14
424.49	34.59
424.932	32.73
425.374	29.91
425.816	26.4
426.258	27.82
426.699	30.9
427.141	32.72
427.582	31.43
428.024	30.78
428.465	27.32
428.907	28.62
429.348	27.34
429.789	30.46
430.231	33.65
430.672	34.69
431.113	32.44
431.554	30.47
431.995	28.78
432.436	30.29
432.877	31.8
433.318	35.83
433.759	33.64
434.2	33.92
434.64	31.89
435.081	31.97
435.522	31.41
435.962	30.25
436.403	34.19
436.843	32.86
437.284	30.04
437.724	26.65
438.164	23.25
438.604	24.21
439.045	25.4
439.485	27.36
439.925	27.07
440.365	26.1
440.805	26.17
441.245	26.19
441.685	25.35
442.125	25.71
442.564	26.37
443.004	26.11
443.444	25.68
443.883	25.48
444.323	22.41
444.762	18.52
445.202	16.46
445.641	18.4
446.081	13.83
446.52	15.23
446.959	16.95
447.398	19
447.837	20.01
448.276	19.75
448.716	21.29
449.154	20.15
449.593	22.06
450.032	23.98
450.471	21.27
450.91	22.47
451.349	23.53
451.787	22.35
452.226	20.72
452.664	19.89
453.103	20.8
453.541	18.76
453.98	22.1
454.418	21.77
454.856	22.78
455.295	23.44
455.733	23.42
456.171	23.02
456.609	24.64
457.047	25.73
457.485	26.62
457.923	28.17
458.361	26.91
458.798	24.38
459.236	25.16
459.674	23.88
460.111	24.13
460.549	24.23
460.987	23.23
461.424	21.48
461.862	21.53
462.299	22.35
462.736	22.35
463.173	22.88
463.611	26.25
464.048	27.09
464.485	27.89
464.922	27.61
465.359	28.32
465.796	35.94
466.233	37.55
466.67	39.16
467.106	40.32
467.543	37.91
467.98	36.77
468.416	33.89
468.853	33.45
469.29	32.39
469.726	31.44
470.162	29.81
470.599	23.27
471.035	21.32
471.471	19.21
471.907	17.04
472.344	17.21
472.78	18.62
473.216	18.63
473.652	17.87
474.088	16.91
474.523	17.23
474.959	16.9
475.395	16.45
475.831	16.76
476.266	16.89
476.702	16.93
477.138	18.2
477.573	17.39
478.008	17.42
478.444	18.19
478.879	19.87
479.314	20.28
479.75	20.25
480.185	20.35
480.62	19.61
481.055	19.52
481.49	20.31
481.925	19.83
482.36	21.6
482.795	20.89
483.229	20.31
483.664	19.33
484.099	18.99
484.534	19.75
484.968	20.31
485.403	20.75
485.837	19.93
486.271	19.24
486.706	18.9
487.14	18.04
487.574	18.72
488.009	18.09
488.443	17.81
488.877	18.52
489.311	17.72
489.745	17.95
490.179	18.31
490.613	20.29
491.046	19.99
491.48	19.74
491.914	19.61
492.348	19.38
492.781	20.11
493.215	20.03
493.648	19.17
494.082	19.6
494.515	19.64
494.948	19.95
495.382	18.09
495.815	18.11
496.248	18.36
496.681	18.04
497.114	17.32
497.547	17.92
497.98	19.4
498.413	20.41
498.846	20.95
499.279	20.38
499.711	20.39
500.144	20.49
500.577	21.24
501.009	21.27
501.442	22.51
501.874	23.19
502.306	22.54
502.739	24.29
503.171	23.9
503.603	23.37
504.036	23.02
504.468	23
504.9	23.22
505.332	22.39
505.764	22.9
506.196	21.94
506.627	22.26
507.059	22.02
507.491	18.73
507.923	19.21
508.354	19.85
508.786	20.1
509.217	20.27
509.649	20.87
510.08	21.05
510.512	21.12
510.943	21.31
511.374	21.16
511.805	20.71
512.237	21.02
512.668	20.19
513.099	19.64
513.53	19.84
513.961	19.92
514.391	19.57
514.822	20.54
515.253	20.82
515.684	20.99
516.114	21.58
516.545	22.27
516.975	22.88
517.406	22.66
517.836	22.15
518.267	22.68
518.697	23.11
519.127	23.22
519.558	22.54
519.988	22.1
520.418	21.68
520.848	21.21
521.278	20.91
521.708	39.7
522.138	40.47
522.567	40.25
522.997	40.05
523.427	39.05
523.857	38.95
524.286	39.2
524.716	39.02
525.145	39.4
525.575	40.31
526.004	40.14
526.433	21.04
526.863	20.88
527.292	22.17
527.721	22.58
528.15	22.91
528.579	23.05
529.008	23.31
529.437	22.97
529.866	22.84
530.295	21.57
530.724	22.57
531.152	23.52
531.581	23.95
532.01	23.65
532.438	23.19
532.867	23.27
533.295	24.23
533.723	23.88
534.152	24.78
534.58	25.37
535.008	25.7
535.436	26.41
535.865	26.04
536.293	24.87
536.721	24.42
537.149	24.53
537.576	25.1
538.004	24.52
538.432	24.41
538.86	24.26
539.287	23.8
539.715	24.21
540.143	22.98
540.57	23.33
540.998	24.18
541.425	25.9
541.852	25.99
542.28	25.58
542.707	25.4
543.134	25.84
543.561	25.74
543.988	25.85
544.415	25.49
544.842	25.28
545.269	25.08
545.696	25.41
546.123	25.08
546.549	24.87
546.976	24.63
547.403	24.41
547.829	23.61
548.256	23.51
548.682	23.96
549.108	24.79
549.535	25.09
549.961	24.41
550.387	24.27
550.813	24.52
551.24	24.41
551.666	24.44
552.092	24.73
552.518	25.21
552.943	25.57
553.369	24.59
553.795	24.45
554.221	24.81
554.646	25.39
555.072	26.24
555.498	25.16
555.923	25.42
556.349	25.59
556.774	25.3
557.199	24.86
557.625	23.98
558.05	24.97
558.475	24.76
558.9	24.67
559.325	25.25
559.75	25.28
560.175	25.58
560.6	24.85
561.025	24.38
561.449	24.7
561.874	24.95
562.299	25.81
562.723	25.71
563.148	25.38
563.572	25.29
563.997	24.77
564.421	23.16
564.846	22.43
565.27	22.91
565.694	23.19
566.118	22.7
566.542	23.51
566.966	23.56
567.39	23.04
567.814	23.05
568.238	22.7
568.662	22.34
569.086	22.82
569.509	22.69
569.933	23.48
570.357	23.7
570.78	23.9
571.204	24.02
571.627	23.57
572.05	24.13
572.474	25.38
572.897	25.62
573.32	26.7
573.743	26.33
574.166	26.96
574.589	25.93
575.012	25.74
575.435	25.73
575.858	25.37
576.281	25.54
576.704	24.98
577.126	23.83
577.549	23.1
577.972	21.73
578.394	22.04
578.817	23.77
579.239	23.98
579.661	24.27
580.084	25.06
580.506	25.24
580.928	24.74
581.35	24.96
581.772	25.13
582.194	25.57
582.616	25.41
583.038	24.56
583.46	22.68
583.882	22.99
584.303	22.26
584.725	21.42
585.147	24.76
585.568	25.51
585.99	25.29
586.411	25.79
586.833	26.69
587.254	27.64
587.675	28.56
588.096	28.78
588.518	28.62
588.939	28.47
589.36	29.23
589.781	24.49
590.202	26.19
590.623	26.72
591.043	25.62
591.464	24.81
591.885	25
592.305	24.32
592.726	24.27
593.147	24.63
593.567	25.34
593.987	24.23
594.408	24.02
594.828	21.43
595.248	21.93
595.669	23.01
596.089	22.73
596.509	22
596.929	21.69
597.349	21.51
597.769	20.59
598.189	20.25
598.608	20.31
599.028	21.15
599.448	20.63
599.867	19.51
600.287	18.66
600.706	19.11
601.126	19.27
601.545	19.87
601.965	19.77
602.384	20.06
602.803	19.54
603.222	20.04
603.641	19.17
604.061	20.46
604.48	20.47
604.898	20.28
605.317	19.79
605.736	19.43
606.155	19.75
606.574	19.75
606.992	19.71
607.411	20.15
607.829	19.24
608.248	18.87
608.666	17.92
609.085	17.72
609.503	17.54
609.921	18.29
610.339	18.67
610.758	18.25
611.176	17.98
611.594	18.23
612.012	17.94
612.43	18.87
612.847	19.64
613.265	20.44
613.683	20.51
614.101	21.34
614.518	19.96
614.936	19.36
615.353	19.81
615.771	20.47
616.188	20.33
616.606	20.4
617.023	20.49
617.44	20.56
617.857	19.42
618.274	19.09
618.691	18.71
619.108	18.89
619.525	18.79
619.942	18.52
620.359	17.94
620.776	17.44
621.192	18.11
621.609	18.52
622.026	18.75
622.442	19.45
622.859	18.89
623.275	18.36
623.691	18.28
624.108	19.02
624.524	19.16
624.94	19.64
625.356	20.08
625.772	19.39
626.188	18.01
626.604	17.02
627.02	16.58
627.436	17.87
627.852	19.13
628.268	19.59
628.683	18.61
629.099	18.12
629.514	17.22
629.93	16.89
630.345	16.67
630.761	16.38
631.176	16.83
631.591	18.43
632.007	18.46
632.422	17.06
632.837	16.52
633.252	17.37
633.667	16.9
634.082	16.86
634.497	17.36
634.911	19.28
635.326	20.09
635.741	20.11
636.155	18.79
636.57	19.74
636.984	20.56
637.399	22.39
637.813	21.44
638.228	22.09
638.642	22.15
639.056	21.85
639.47	20.65
639.884	20.07
640.298	19.95
640.712	20.92
641.126	19.73
641.54	19.1
641.954	16.43
642.368	17.19
642.781	20.25
643.195	20.26
643.609	20.49
644.022	20.39
644.436	20.25
644.849	20.46
645.262	19.07
645.676	18.63
646.089	17.97
646.502	19.53
646.915	18.85
647.328	16.07
647.741	16.52
648.154	16.04
648.567	18.2
648.98	18.64
649.393	18.25
649.805	18.78
650.218	19.24
650.631	20.52
651.043	20.83
651.456	21.32
651.868	21.41
652.28	20.48
652.693	20.66
653.105	18.51
653.517	18.18
653.929	18.36
654.341	18.72
654.753	18.59
655.165	18.1
655.577	18.21
655.989	18.52
656.401	17.85
656.813	19.48
657.224	18.93
657.636	18.31
658.047	19.85
658.459	19.92
658.87	18.69
659.282	17.99
659.693	18.44
660.104	17.97
660.515	17.28
660.926	17.24
661.338	16.36
661.749	16.28
662.159	17.11
662.57	15.2
662.981	15.13
663.392	15.72
663.803	16.22
664.213	16.3
664.624	15.98
665.035	15.59
665.445	14.82
665.855	15.89
666.266	17.16
666.676	16.52
667.086	16.41
667.497	16.42
667.907	16.04
668.317	15.25
668.727	16.98
669.137	16.76
669.547	17.79
669.956	17.59
670.366	16.56
670.776	16.04
671.186	16.45
671.595	17
672.005	15.65
672.414	16.16
672.824	17.38
673.233	14.6
673.642	14.46
674.052	14.07
674.461	15.67
674.87	16.05
675.279	16.82
675.688	15.45
676.097	16.63
676.506	17.44
676.915	18.22
677.323	17.71
677.732	18.08
678.141	18.02
678.549	17.79
678.958	16.13
679.366	15.08
679.775	13.67
680.183	15.43
680.592	14.94
681	15.5
681.408	15.05
681.816	14.27
682.224	14.16
682.632	15.64
683.04	16.35
683.448	16.84
683.856	18.44
684.264	19.79
684.671	19.09
685.079	18.23
685.487	18.31
685.894	18.6
686.302	19.27
686.709	19.82
687.116	19.17
687.524	20.42
687.931	21.67
688.338	20.94
688.745	19.34
689.152	19.02
689.559	19.97
689.966	20.91
690.373	20.51
690.78	21.53
691.187	21.43
691.593	20.99
692	19.34
692.407	19.47
692.813	22.07
693.22	23.33
693.626	22.15
694.032	22.58
694.439	22.89
694.845	23.43
695.251	23.59
695.657	24.44
696.063	24.22
696.469	24.55
696.875	24.51
697.281	22.85
697.687	21.88
698.093	23.03
698.498	24.2
698.904	22.97
699.31	23.34
699.715	24.54
700.12	23.81
700.526	25
700.931	24.93
701.337	25.2
701.742	25.59
702.147	26.18
702.552	26.88
702.957	24.47
703.362	25.04
703.767	23.77
704.172	22.4
704.577	22.37
704.981	20.98
705.386	21.53
705.791	22.34
706.195	20.7
706.6	21.12
707.004	19.85
707.408	19.89
707.813	20.21
708.217	20.7
708.621	20.4
709.025	20
709.43	22.43
709.834	22.31
710.237	21.34
710.641	22.35
711.045	22.81
711.449	24.49
711.853	29.04
712.256	28.45
712.66	29.12
713.064	29.53
713.467	31.01
713.87	30.2
714.274	31.16
714.677	32.11
715.08	32.25
715.484	33.19
715.887	35.53
716.29	31.14
716.693	32.55
717.096	34.03
717.499	34.99
717.901	33.64
718.304	33.29
718.707	31.73
719.109	31.25
719.512	30.65
719.915	32.13
720.317	30.6
720.719	30.71
721.122	30.26
721.524	29.46
721.926	32.77
722.328	33.46
722.731	33.33
723.133	34.55
723.535	35.25
723.937	37.28
724.338	36.87
724.74	37.08
725.142	81.39
725.544	85.36
725.945	95.17
726.347	91.62
726.748	92.39
727.15	93.32
727.551	96.31
727.952	94.33
728.354	90.67
728.755	89.59
729.156	88.66
729.557	45.65
729.958	41.54
730.359	30.8
730.76	30.12
731.161	30.26
731.562	29.13
731.962	26.49
732.363	26.45
732.763	28.44
733.164	25.96
733.564	26.32
733.965	27.69
734.365	27.73
734.766	29.18
735.166	29.4
735.566	29.52
735.966	30.42
736.366	30.13
736.766	30.33
737.166	28.76
737.566	30.18
737.966	29.11
738.365	28.49
738.765	29.44
739.165	28.92
739.564	28.39
739.964	26.82
740.363	25.24
740.763	24.51
741.162	25.66
741.561	26.6
741.96	26.25
742.36	25.78
742.759	26.21
743.158	24.85
743.557	24.37
743.955	23.86
744.354	23.96
744.753	23.28
745.152	23.55
745.55	23.13
745.949	22.57
746.348	22.58
746.746	21.99
747.144	23.54
747.543	23.79
747.941	22.84
748.339	23.8
748.737	24.82
749.136	26.6
749.534	25.6
749.932	26.51
750.33	27.06
750.727	26.29
751.125	27.97
751.523	26.46
751.921	29.46
752.318	31.23
752.716	32.77
753.113	32.59
753.511	32.3
753.908	33.72
754.305	36.73
754.703	36.48
755.1	37.44
755.497	37.03
755.894	36.38
756.291	34.23
756.688	34.87
757.085	34.84
757.482	36.76
757.878	41.49
758.275	44.02
758.672	38.66
759.068	40.64
759.465	42.73
759.861	48.47
760.258	51.97
760.654	55.36
761.05	54.82
761.447	50.86
761.843	47.29
762.239	40.27
762.635	36.31
763.031	36.96
763.427	35.76
763.822	37.54
764.218	32.84
764.614	31.55
765.01	27.64
765.405	26.51
765.801	27.91
766.196	26.48
766.592	26.18
766.987	26.8
767.382	26.58
767.778	27.66
768.173	25.64
768.568	25.96
768.963	26.43
769.358	27.61
769.753	28.61
770.148	28.86
770.542	31.02
770.937	30.99
771.332	32.7
771.726	31.66
772.121	33.41
772.515	34.69
772.91	34.89
773.304	35.33
773.699	34.36
774.093	33.7
774.487	33.37
774.881	32.23
775.275	32.83
775.669	30.65
776.063	31.31
776.457	30.47
776.851	30.37
777.245	30.61
777.638	31.32
778.032	31.64
778.425	33.19
778.819	36.19
779.212	38.79
779.606	40.06
779.999	40.41
780.392	41.72
780.786	39.8
781.179	40.22
781.572	41.04
781.965	42.16
782.358	43.8
782.751	43.07
783.143	40.68
783.536	40.16
783.929	38.76
784.322	39.86
784.714	38.36
785.107	40.71
785.499	41.92
785.891	42.96
786.284	41.64
786.676	40.41
787.068	42.44
787.46	42.92
787.852	41.34
788.245	40.94
788.636	40.14
789.028	42.77
789.42	43.1
789.812	43.18
790.204	42.91
790.595	44.3
790.987	45.15
791.378	43.35
791.77	42
792.161	41.59
792.553	42.22
792.944	42.05
793.335	39.33
793.726	38.48
794.117	37.76
794.508	35.95
794.899	33.2
795.29	33.74
795.681	33.59
796.072	34.77
796.463	51.89
796.853	56.09
797.244	57.35
797.634	58.65
798.025	60.17
798.415	57.92
798.806	60.64
799.196	63.3
799.586	62.99
799.976	63.49
800.366	61.42
800.756	42.64
801.146	37.67
801.536	36.32
801.926	36.62
802.316	36.43
802.706	38.65
803.095	39.5
803.485	38.74
803.874	37.95
804.264	37.92
804.653	39.71
805.043	42.82
805.432	48.25
805.821	52.26
806.21	52.3
806.599	49.41
806.988	48.72
807.377	44.52
807.766	43.87
808.155	44.86
808.544	44.25
808.933	44.75
809.321	44.77
809.71	39.77
810.098	38.13
810.487	38.31
810.875	37.94
811.264	38.7
811.652	50.97
812.04	53.67
812.428	55.57
812.816	55.66
813.204	57.52
813.592	54.03
813.98	55.26
814.368	59.95
814.756	59.61
815.144	64.6
815.531	69.75
815.919	57.84
816.306	58.03
816.694	54.45
817.081	57.65
817.469	60.14
817.856	58.84
818.243	59.54
818.63	52.04
819.017	54.11
819.404	52.11
819.791	47.77
820.178	44.26
820.565	45.96
820.952	55.05
821.339	54.16
821.725	53.56
822.112	55.41
822.498	57.63
822.885	58.21
823.271	56.43
823.657	56.63
824.044	58.38
824.43	60.46
824.816	66.49
825.202	63.75
825.588	63.2
825.974	65.21
826.36	66.98
826.746	65.96
827.132	63.77
827.517	67.01
827.903	64.39
828.289	67.57
828.674	69.22
829.06	60.17
829.445	56.56
829.83	56.67
830.216	52.91
830.601	55.74
830.986	60.64
831.371	64.92
831.756	68.68
832.141	71.54
832.526	71.42
832.911	70.55
833.295	71.11
833.68	74.25
834.065	77.25
834.449	74.6
834.834	75.69
835.218	75.16
835.603	75.22
835.987	67.07
836.371	68.64
836.755	66.57
837.139	63.39
837.524	62.88
837.908	59.25
838.291	59.44
838.675	60.37
839.059	56.31
839.443	51.29
839.827	48.66
840.21	48.75
840.594	48.66
840.977	47.54
841.361	48.55
841.744	45.96
842.127	46.23
842.511	43.46
842.894	41.92
843.277	45.32
843.66	44.86
844.043	45.05
844.426	48.78
844.809	45
845.191	47.67
845.574	49.76
845.957	54.16
846.339	58.17
846.722	56.9
847.104	57.04
847.487	51.37
847.869	53.84
848.252	57.99
848.634	55.87
849.016	55.66
849.398	52.34
849.78	50.9
850.162	50.51
850.544	45.35
850.926	43.83
851.307	42.51
851.689	47.4
852.071	41.43
852.452	39.4
852.834	40.77
853.215	43.67
853.597	43.01
853.978	50.12
854.359	52.18
854.741	56.19
855.122	55.42
855.503	53.2
855.884	53.37
856.265	54.91
856.646	49.12
857.026	51.74
857.407	53.7
857.788	55.4
858.169	49.91
858.549	53.43
858.93	53.99
859.31	57.16
859.69	65.94
860.071	65.6
860.451	68.75
860.831	71.89
861.211	67.07
861.591	60.16
861.971	58.83
862.351	60.57
862.731	51.83
863.111	51.27
863.491	52.28
863.87	47.23
864.25	42.17
864.629	46.32
865.009	44.85
865.388	50.89
865.768	55.55
866.147	60.54
866.526	58.47
866.905	64.3
867.284	61.28
867.663	55.73
868.042	53.86
868.421	54.36
868.8	47.46
869.179	52.71
869.558	48.07
869.936	48.66
870.315	48.6
870.693	51.26
871.072	47.63
871.45	49
871.828	54.84
872.207	57.39
872.585	61.42
872.963	62.97
873.341	64.82
873.719	74.49
874.097	74.93
874.475	69.75
874.853	65.72
875.23	65.69
875.608	65.12
875.986	67.18
876.363	69.17
876.741	79.97
877.118	86.21
877.495	90.5
877.873	82.51
878.25	83.35
878.627	82.53
879.004	88.73
879.381	85.69
879.758	89.18
880.135	81.55
880.512	84.14
880.889	69.67
881.265	63.8
881.642	54.71
882.019	58.72
882.395	66.5
882.772	76.14
883.148	78.02
883.524	82.31
883.901	79.4
884.277	77.53
884.653	72.83
885.029	79.9
885.405	92.01
885.781	93.82
886.157	85.9
886.532	78.8
886.908	68.93
887.284	65.48
887.659	65.78
888.035	65.92
888.411	63.53
888.786	65.59
889.161	67.37
889.537	60.43
889.912	60.3
890.287	66.21
890.662	61.28
891.037	58.83
891.412	58.14
891.787	56.23
892.162	57.31
892.536	64.33
892.911	64.53
893.286	56.81
893.66	56.37
894.035	59.17
894.409	54.99
894.784	57.87
895.158	63.19
895.532	66.98
895.906	68.69
896.281	68.51
896.655	69.66
897.029	74.57
897.402	81.4
897.776	76.78
898.15	76.15
898.524	76.44
898.898	78.81
899.271	88.3
899.645	77.65
900.018	74.11
900.392	79.77
900.765	73.2
901.138	70.54
901.511	66.64
901.884	78.55
902.258	80
902.631	88.39
903.003	93.62
903.376	81.92
903.749	92.69
904.122	88.08
904.495	89.93
904.867	82.81
905.24	74.96
905.612	64.38
905.985	49.94
906.357	42.5
906.729	47.66
907.102	51.93
907.474	49.07
907.846	57.3
908.218	68.72
908.59	73.18
908.962	82.11
909.334	92.22
909.705	107.19
910.077	110.53
910.449	116.13
910.82	117.35
911.192	132.79
911.563	143.7
911.935	130.37
912.306	114.54
912.677	105.58
913.048	103.7
913.419	103.77
913.79	96.94
914.161	98.03
914.532	101.03
914.903	81.7
915.274	67.53
915.645	73.62
916.015	60.55
916.386	70.74
916.756	72.35
917.127	67.16
917.497	69.56
917.868	77.6
918.238	70.75
918.608	58.35
918.978	58.05
919.348	63.14
919.718	55.98
920.088	71.6
920.458	76.22
920.828	76.84
921.198	87.29
921.567	78.67
921.937	69.47
922.306	67.93
922.676	67.23
923.045	76.68
923.415	76.91
923.784	72.53
924.153	80.79
924.522	80.77
924.891	76.94
925.26	72.23
925.629	69.35
925.998	70.52
926.367	81.3
926.736	109.07
927.104	121.5
927.473	121.02
927.842	139.93
928.21	122.37
928.578	101.58
928.947	109.71
929.315	118.78
929.683	165.12
930.051	155.97
930.42	163.95
930.788	125.37
931.156	108.11
931.523	142.33
931.891	131.21
932.259	133.26
932.627	183.45
932.994	255.77
933.362	256.38
933.729	226.96
934.097	239.53
934.464	215.55
934.831	226.19
935.199	221.42
935.566	193.58
935.933	161.59
936.3	204.44
936.667	154.85
937.034	210.04
937.401	165.97
937.767	137.51
938.134	114.17
938.501	140.71
938.867	163.4
939.234	307.9
939.6	224.94
939.967	369.63
940.333	276.48
940.699	246.48
941.065	101.53
941.431	145.65
941.798	199.74
942.163	320.07
942.529	203.73
942.895	174.85
943.261	115.45
943.627	157.34
943.992	137.78
944.358	136.52
944.723	160.2
945.089	172.04
945.454	170.5
945.82	150.05
946.185	127.1
946.55	156.66
946.915	148.2
947.28	173.44
947.645	154.87
948.01	158.55
948.375	178.9
948.74	189.23
949.104	200.08
949.469	216.63
949.834	377.76
950.198	493.44
950.562	349.13
950.927	288.02
951.291	328.29
951.655	284.74
952.02	201.13
952.384	142.77
952.748	147.12
953.112	189.53
953.476	185.7
953.839	163.12
954.203	164.11
954.567	177.04
954.931	234.57
955.294	227.25
955.658	219.49
956.021	412.7
956.385	546.77
956.748	713.53
957.111	800.97
957.474	724.71
957.837	690.52
958.2	167.57
958.563	49.49
958.926	79.59
959.289	85.73
959.652	126.41
960.015	99.36
960.377	171.57
960.74	194.72
961.102	217.46
961.465	415.37
961.827	660.84
962.189	1361.42
962.552	1007.82
962.914	775.43
963.276	463.88
963.638	361.87
964	364.35
964.362	269.44
964.724	237.42
965.085	198.6
965.447	160.24
965.809	90.11
966.17	70.67
966.532	59.17
966.893	73.98
967.255	77.94
967.616	76.86
967.977	65.56
968.338	75.25
968.699	89.66
969.061	73.75
969.421	85.11
969.782	100.58
970.143	114.55
970.504	154.64
970.865	176.91
971.225	193.35
971.586	198.37
971.946	254.54
972.307	208.89
972.667	218.01
973.027	239.39
973.388	235.28
973.748	176.18
974.108	192.28
974.468	177.91
974.828	189.65
975.188	131.53
975.548	128.95
975.907	123.82
976.267	131.09
976.627	140.78
976.986	145.3
977.346	151.64
977.705	126.37
978.064	87.8
978.424	85.07
978.783	61.43
979.142	75.46
979.501	78.68
979.86	88.47
980.219	87.14
980.578	69.8
980.937	51.48
981.296	43.58
981.654	57.46
982.013	103.63
982.371	151.04
982.73	147.67
983.088	150.74
983.447	196.06
983.805	262.24
984.163	617.92
984.521	761.21
984.879	1130.42
985.237	-2244.87
985.595	2748.67
985.953	631.35
986.311	278.04
986.669	176.67
987.026	148.8
987.384	171.61
987.741	164.17
988.099	177.4
988.456	173.63
988.814	191.44
989.171	146.46
989.528	102.52
989.885	119.51
990.242	118.2
990.599	122.24
990.956	100.04
991.313	75.08
991.67	59.83
992.027	86.16
992.383	77.07
992.74	74.07
993.096	88.09
993.453	89.97
993.809	89
994.165	108.73
994.522	151.4
994.878	160.2
995.234	203.09
995.59	208.22
995.946	129.3
996.302	154.69
996.658	159.93
997.013	163.05
997.369	238.62
997.725	302.86
998.08	220.55
998.436	144.57
998.791	217.62
999.147	184.56
999.502	211.42
999.857	199.01
1000.212	295.22
1000.567	458.45
1000.922	306.76
1001.277	183.51
1001.632	155.89
1001.987	140.27
1002.342	148.6
1002.696	143.16
1003.051	141.14
1003.406	183.29
1003.76	178.04
1004.114	194.7
1004.469	197.05
1004.823	162.47
1005.177	171.84
1005.531	140.48
1005.885	164.74
1006.239	209.88
1006.593	273.54
1006.947	357.85
1007.301	260.68
1007.655	281.41
1008.008	195.69
1008.362	182.16
1008.715	237.04
1009.069	232.28
1009.422	406.6
1009.776	649.49
1010.129	362.72
1010.482	230.65
1010.835	145.66
1011.188	285.97
1011.541	208.44
1011.894	-1505.44
1012.247	5718.24
1012.6	420.39
1012.952	330.1
1013.305	110.52
1013.657	105.22
1014.01	100.46
1014.362	92.75
1014.715	129.38
1015.067	143.29
1015.419	156.28
1015.771	142.83
1016.123	140.9
1016.475	150.2
1016.827	140.15
1017.179	174.24
1017.531	160.17
1017.883	152.52
1018.234	191.03
1018.586	211.39
1018.938	222.99
1019.289	295.87
1019.64	287.59
1019.992	253.16
1020.343	192.01
1020.694	206.33
1021.045	180.55
1021.396	217.42
1021.747	283.79
1022.098	270.47
1022.449	213.41
1022.8	197.93
1023.151	159.85
1023.501	175.87
1023.852	185.51
1024.202	239.26
1024.553	238.07
1024.903	261.79
1025.253	253.25
1025.604	237.33
1025.954	297.25
1026.304	337.97
1026.654	409.13
1027.004	558.21
1027.354	779.81
1027.703	777.03
1028.053	886.65
1028.403	1297.01
1028.753	1276.51
1029.102	1166.6
1029.452	2574.89
1029.801	74.2
1030.15	55.74
1030.499	-31.12
897.758	1549.83
901.051	1494.1
904.343	1520.79
907.636	1523.54
910.928	1568.57
914.22	1511.75
917.511	1516.86
920.803	1551.09
924.094	1542.96
927.384	1548.63
930.675	1521.03
933.965	1497.61
937.255	1522.84
940.544	1502.89
943.834	1498.24
947.123	1457.07
950.411	1519.92
953.7	1508.56
956.988	1498.67
960.276	1448.22
963.563	1475.93
966.851	1484.21
970.138	1509.91
973.424	1511.08
976.711	1475.18
979.997	1508.72
983.283	1536.77
986.568	1492.31
989.853	1480.2
993.138	1495.92
996.423	1560.88
999.708	1534.22
1002.992	1553.54
1006.275	1491.62
1009.559	1492.2
1012.842	1559.18
1016.125	1530.64
1019.408	1512.18
1022.69	1549.03
1025.972	1570.91
1029.254	1554.07
1032.536	1531.26
1035.817	1534.59
1039.098	1513.55
1042.379	1544.36
1045.659	1563.49
1048.939	1525.86
1052.219	1524.67
1055.498	1519.19
1058.778	1509.14
1062.057	1493.57
1065.335	1511.61
1068.614	1515.65
1071.892	1509.17
1075.17	1545.37
1078.447	1549.3
1081.724	1544.38
1085.001	1559.9
1088.278	1544.26
1091.554	1545.4
1094.83	1546.06
1098.106	1567.7
1101.382	1585.79
1104.657	1582.77
1107.932	1585.4
1111.206	1568.39
1114.481	1534.48
1117.755	1537.35
1121.029	1531.62
1124.302	1572.74
1127.575	1553.36
1130.848	1551.76
1134.121	1534.17
1137.393	1504.78
1140.665	1545.75
1143.937	1528.05
1147.208	1494.09
1150.48	1534.18
1153.75	1525.58
1157.021	1526.42
1160.291	1511.16
1163.561	1545.58
1166.831	1520.28
1170.101	1534.36
1173.37	1507.85
1176.639	1481.1
1179.907	1513.66
1183.176	1526.33
1186.444	1529.23
1189.711	1543.77
1192.979	1562.38
1196.246	1533.22
1199.513	1543.81
1202.78	1545.91
1206.046	1552.92
1209.312	1574.59
1212.578	1581.03
1215.843	1556.53
1219.108	1540
1222.373	1553.3
1225.638	1536.65
1228.902	1526.82
1232.166	1500.92
1235.43	1491.89
1238.693	1513.64
1241.956	1509.52
1245.219	1543.19
1248.482	1533.39
1251.744	1534.37
1255.006	1610.32
1258.268	1575.07
1261.529	1550.03
1264.79	1548.96
1268.051	1611.73
1271.312	1618.44
1274.572	1595.6
1277.832	1587.54
1281.092	1570.99
1284.351	1567.49
1287.61	1557.73
1290.869	1518.36
1294.128	1518.74
1297.386	1543.02
1300.644	1540.07
1303.902	1546.99
1307.159	1458.35
1310.416	1491.95
1313.673	1508.57
1316.93	1511.69
1320.186	1527.98
1323.442	1548.76
1326.697	1550.07
1329.953	1534.49
1333.208	1559.57
1336.463	1544.39
1339.717	1521.93
1342.972	1596.47
1346.226	1576.86
1349.479	1550.96
1352.733	1536.22
1355.986	1543.81
1359.238	1530.63
1362.491	1533.93
1365.743	1532.24
1368.995	1530.32
1372.247	1540.11
1375.498	1550.94
1378.749	1578.67
1382	1551.1
1385.251	1568.68
1388.501	1540.53
1391.751	1540.2
1395	1525.15
1398.25	1540.88
1401.499	1561.59
1404.748	1529.6
1407.996	1517.97
1411.244	1515.25
1414.492	1506.27
1417.74	1495.58
1420.987	1502.56
1424.234	1542.92
1427.481	1516.82
1430.728	1550.76
1433.974	1538.98
1437.22	1535.29
1440.465	1528.15
1443.711	1532.5
1446.956	1544
1450.201	1525.19
1453.445	1554.15
1456.689	1544.77
1459.933	1552.68
1463.177	1579.44
1466.42	1562.27
1469.663	1548.6
1472.906	1560.5
1476.148	1593.34
1479.391	1562.78
1482.633	1549.96
1485.874	1565.44
1489.115	1571.05
1492.356	1559.27
1495.597	1542.16
1498.838	1535.15
1502.078	1529.06
1505.318	1514.51
1508.557	1532.33
1511.797	1531.89
1515.036	1567.78
1518.274	1540.46
1521.513	1501.87
1524.751	1508.34
1527.989	1522.67
1531.227	1534.8
1534.464	1540.26
1537.701	1533.06
1540.938	1536.67
1544.174	1501.05
1547.41	1489.91
1550.646	1514.81
1553.882	1543.68
1557.117	1588.16
1560.352	1589.82
1563.587	1561.38
1566.821	1542.21
1570.055	1554.89
1573.289	1535.93
1576.523	1572.52
1579.756	1580.41
1582.989	1595.84
1586.222	1566.85
1589.454	1590.13
1592.686	1579.03
1595.918	1596.58
1599.15	1594.65
1602.381	1624.04
1605.612	1613.42
1608.843	1674.42
1612.073	1622.64
1615.303	1616.18
1618.533	1613.24
1621.762	1611.83
1624.992	1591.59
1628.221	1589.98
1631.449	1584.05
1634.678	1600.01
1637.906	1575.01
1641.134	1588.67
1644.361	1566.97
1647.588	1561.19
1650.815	1579.21
1654.042	1553.63
1657.269	1571.75
1660.495	1561.02
1663.72	1549.44
1666.946	1528.45
1670.171	1517.13
1673.396	1499.16
1676.621	1488.32
1679.845	1484.29
1683.069	1485.95
1686.293	1503.81
1689.517	1499.4
1692.74	1470.94
1695.963	1485.45
1699.185	1511.9
1702.408	1494.17
1705.63	1511.77
1708.852	1525.57
1712.073	1503.78
1715.294	1517.19
1718.515	1549.25
1721.736	1520.02
1724.956	1509.74
1728.176	1525.79
1731.396	1537.53
1734.616	1533.67
1737.835	1562.59
1741.054	1541.07
1744.272	1537.23
1747.491	1568.35
1750.709	1578.79
1753.927	1549.76
1757.144	1568.34
1760.361	1606.49
1763.578	1587.91
1766.795	1555.77
1770.011	1545.79
1773.227	1559.37
1776.443	1589.08
1779.658	1614.83
1782.874	1576.76
1786.089	1575.12
1789.303	1575.2
1792.518	1572.44
1795.732	1567.03
1798.945	1575.22
1802.159	1604.35
1805.372	1568.34
1808.585	1565.3
1811.797	1565.05
1815.01	1581.15
1818.222	1601.03
1821.434	1570.74
1824.645	1598
1827.856	1605.49
1831.067	1621.35
1834.278	1583.11
1837.488	1571.98
1840.698	1652.68
1843.908	1620.13
1847.117	1602.87
1850.326	1557.48
1853.535	1593.16
1856.744	1622.73
1859.952	1569.98
1863.16	1573.3
1866.368	1591.3
1869.575	1669.18
1872.782	1591.27
1875.989	1550.05
1879.196	1580.56
1882.402	1576.58
1885.608	1597.1
1888.814	1564.19
1892.019	1504.73
1895.224	1546.49
1898.429	1520.91
1901.634	1507.03
1904.838	1494.3
1908.042	1535.73
1911.246	1547.03
1914.449	1525.44
1917.652	1511.94
1920.855	1498.47
1924.058	1512.76
1927.26	1547.26
1930.462	1559.14
1933.664	1589.48
1936.865	1553.93
1940.066	1563.75
1943.267	1524.87
1946.467	1534.14
1949.668	1542.57
1952.868	1591.19
1956.067	1591.78
1959.267	1549.18
1962.466	1565.43
1965.665	1550.36
1968.863	1548.28
1972.061	1544.32
1975.259	1539.18
1978.457	1592.71
1981.654	1559.04
1984.852	1561.22
1988.048	1534.75
1991.245	1522.03
1994.441	1585.26
1997.637	1549.07
2000.833	1541.39
2004.028	1563.04
2007.223	1611.31
2010.418	1599.6
2013.613	1564.42
2016.807	1565.82
2020.001	1562.22
2023.194	1572.73
2026.388	1562.75
2029.581	1524.5
2032.774	1572.26
2035.966	1577.72
2039.158	1541.85
2042.35	1554.23
2045.542	1502.69
2048.733	1555.66
2051.924	1544.79
2055.115	1554.52
2058.306	1534.09
2061.496	1569.2
2064.686	1600.93
2067.875	1533.63
2071.065	1533.42
2074.254	1545.53
2077.442	1514.15
2080.631	1572.81
2083.819	1534.14
2087.007	1528.56
2090.195	1519.43
2093.382	1523.96
2096.569	1517.91
2099.756	1492.79
2102.942	1532.6
2106.128	1541.04
2109.314	1534.55
2112.5	1527.66
2115.685	1503.37
2118.87	1508.51
2122.055	1552.61
2125.239	1538.1
2128.424	1533.09
2131.608	1567.49
2134.791	1556.65
2137.974	1579.18
2141.157	1571.18
2144.34	1555.36
2147.523	1542.3
2150.705	1564.99
2153.887	1539.78
2157.068	1525.09
2160.25	1509.28
2163.431	1524.04
2166.611	1504.91
2169.792	1520.89
2172.972	1458.71
2176.152	1496.73
2179.331	1511.29
2182.511	1515.18
2185.69	1527.82
2188.868	1528.79
2192.047	1553.61
2195.225	1572.12
2198.403	1532.16
2201.58	1523.51
2204.758	1508.9
2207.935	1560.06
2211.111	1504.62
2214.288	1496.59
2217.464	1520.09
2220.64	1489.01
2223.815	1524.51
2226.991	1473.44
2230.166	1481.35
2233.34	1515.71
2236.515	1522.45
2239.689	1571.19
2242.863	1536.5
2246.036	1571.38
2249.209	1558.82
2252.382	1572.79
2255.555	1581.31
2258.727	1550.32
2261.9	1570.51
2265.071	1568.33
2268.243	1567.08
2271.414	1533.45
2274.585	1522
2277.756	1565.46
2280.926	1537.29
2284.096	1557.16
2287.266	1510.85
2290.436	1544.54
2293.605	1553.76
2296.774	1582.76
2299.942	1585.59
2303.111	1594.98
2306.279	1632.99
2309.447	1624.66
2312.614	1605.5
2315.781	1619.89
2318.948	1604.63
2322.115	1630.13
2325.281	1555.61
2328.447	1560.49
2331.613	1538.01
2334.779	1533.4
2337.944	1531.66
2341.109	1531.73
2344.274	1525.02
2347.438	1502.46
2350.602	1517.28
2353.766	1523.19
2356.929	1517.36
2360.092	1542.31
2363.255	1522.15
2366.418	1506.75
2369.58	1534.16
2372.742	1507.39
2375.904	1491.87
2379.066	1485.51
2382.227	1502.55
2385.388	1475.22
2388.548	1444.83
2391.709	1468.38
2394.869	1468.02
2398.029	1500.36
2401.188	1490.26
2404.347	1477.86
2407.506	1476.74
2410.665	1516.37
2413.823	1499.21
2416.981	1487.67
2420.139	1498.87
2423.296	1526.11
2426.453	1507.51
2429.61	1520.77
2432.767	1506.24
2435.923	1533.76
2439.079	1493.31
2442.235	1518.46
2445.391	1477.58
2448.546	1511.78
2451.701	1534.22
2454.855	1533.33
2458.009	1547.11
2461.163	1539.15
2464.317	1521.28
2467.471	1537.38
2470.624	1559.6
2473.777	1557.02
2476.929	1566.87
2480.082	1583.26
2483.234	1568.33
2486.385	1525.78
2489.537	1521
2492.688	1520.83
2495.839	1534.97
2498.989	1542.92
2502.14	1534.76
2505.29	1527.46
2508.439	1543.28
2511.589	1506.02
2514.738	1505.78
2517.887	1516.92
2521.035	1573.38
2524.183	1540.01
2527.331	1532.76
2530.479	1528.56
2533.627	1531.92
