Data from N_1_DEC_ON_6N_Splice17_11-22-42-059.txt Node
Date: Sat Mar 14 11:22:42 EDT 2020
User: sa697716
Spectrometer: FLMS03696
Trigger mode: 0
Integration Time (sec): 3.180400E-1
Scans to average: 20
Electric dark correction enabled: true
Nonlinearity correction enabled: true
Boxcar width: 5
XAxis mode: Wavelengths
Number of Pixels in Spectrum: 2048
>>>>>Begin Spectral Data<<<<<
187.83	-60400.11
188.298	577.99
188.766	368.62
189.233	326.45
189.701	463.12
190.169	697.83
190.636	246.88
191.104	234.93
191.571	51.46
192.039	17.01
192.506	-3.46
192.974	361.71
193.441	-279.98
193.908	-73.87
194.375	-40.75
194.842	32.23
195.31	66.07
195.777	109.76
196.244	182.01
196.711	129.21
197.177	151.51
197.644	152.13
198.111	252.42
198.578	303.92
199.045	239.67
199.511	405.24
199.978	404.18
200.445	360.94
200.911	377.12
201.378	396.85
201.844	406.93
202.31	654.26
202.777	680.64
203.243	392.4
203.709	385.96
204.176	466.89
204.642	379.22
205.108	367.86
205.574	309.89
206.04	268.13
206.506	244.9
206.972	203.26
207.438	182.34
207.903	208.85
208.369	197.53
208.835	198.28
209.301	202.92
209.766	202.26
210.232	192.73
210.697	208.69
211.163	237.89
211.628	350.09
212.094	337.57
212.559	489.7
213.024	322.45
213.49	393.44
213.955	371.53
214.42	341.12
214.885	325.82
215.35	324.95
215.815	358.93
216.28	376.1
216.745	306.2
217.21	334.48
217.675	267.87
218.14	263.48
218.604	240.64
219.069	248.04
219.534	269.5
219.998	263.06
220.463	270.58
220.927	249.85
221.392	228.44
221.856	229.09
222.32	205.76
222.785	253.62
223.249	314.25
223.713	345.87
224.177	332.09
224.642	341.16
225.106	375.53
225.57	419.01
226.034	343.62
226.497	470.22
226.961	412.41
227.425	524.55
227.889	517.28
228.353	477.43
228.816	892.71
229.28	906.72
229.744	758.79
230.207	539.06
230.671	502.1
231.134	683.78
231.597	866.89
232.061	808.11
232.524	731.17
232.987	512.32
233.45	478.72
233.914	425.09
234.377	376.93
234.84	371.16
235.303	400.8
235.766	418.25
236.229	434.68
236.691	245.58
237.154	250.94
237.617	220.12
238.08	208.25
238.542	219.22
239.005	170.97
239.468	177.26
239.93	156.91
240.393	142.47
240.855	136.76
241.317	123.98
241.78	121.63
242.242	141
242.704	158.76
243.166	150.01
243.629	157.68
244.091	173.64
244.553	186.54
245.015	208.81
245.477	235.82
245.939	317.29
246.4	385.54
246.862	385.86
247.324	362.54
247.786	343.83
248.247	431.47
248.709	388.6
249.17	304.46
249.632	348.06
250.093	438.51
250.555	408.97
251.016	268.7
251.477	251.08
251.939	284.88
252.4	290.03
252.861	333.13
253.322	324.63
253.783	336.03
254.244	454.52
254.705	334.97
255.166	256.54
255.627	251.9
256.088	351.33
256.549	380.61
257.009	331.61
257.47	382.57
257.931	314.71
258.391	242.42
258.852	274.01
259.312	272.33
259.773	301.42
260.233	311.18
260.694	283.12
261.154	318.45
261.614	278.87
262.074	234.92
262.534	252.15
262.994	252.46
263.455	300.04
263.915	256.86
264.374	218.88
264.834	240.31
265.294	231.14
265.754	241.01
266.214	219.51
266.673	199.49
267.133	253.36
267.593	233.07
268.052	266.63
268.512	210.18
268.971	296.74
269.431	352.56
269.89	318.36
270.349	462.26
270.809	518.09
271.268	473.28
271.727	947.61
272.186	586.01
272.645	424.52
273.104	254.8
273.563	392.94
274.022	260.09
274.481	221.17
274.94	188.02
275.399	146.45
275.857	136.89
276.316	149.82
276.775	140.31
277.233	144.22
277.692	166.46
278.15	235.4
278.609	293.59
279.067	257.92
279.525	280.31
279.984	317.28
280.442	341.23
280.9	423.48
281.358	302.86
281.816	279.53
282.274	267.74
282.732	243.17
283.19	236.95
283.648	176.22
284.106	192.71
284.564	168.48
285.021	186.46
285.479	142.36
285.937	89.24
286.394	87.47
286.852	88.11
287.309	89.89
287.767	131.23
288.224	138.23
288.682	160.66
289.139	190
289.596	177.68
290.053	168.6
290.511	209.27
290.968	289.34
291.425	385.83
291.882	384.33
292.339	357.45
292.796	300.71
293.252	276.9
293.709	240.38
294.166	216.85
294.623	237.08
295.079	215.03
295.536	227.98
295.992	202.2
296.449	204.34
296.905	205.26
297.362	220.03
297.818	224.66
298.274	228.03
298.731	212.99
299.187	205.03
299.643	225.43
300.099	281.38
300.555	297.5
301.011	254.97
301.467	282.11
301.923	293.69
302.379	271.24
302.835	283.57
303.291	286.99
303.746	315.49
304.202	385.23
304.658	350.5
305.113	243.14
305.569	265.74
306.024	272.39
306.479	214.94
306.935	190.81
307.39	184.63
307.845	170.93
308.301	200.89
308.756	198.23
309.211	201.07
309.666	200.78
310.121	296.1
310.576	261.17
311.031	236.28
311.486	251.03
311.94	228.02
312.395	309.23
312.85	510.36
313.305	1530.84
313.759	11078.18
314.214	842.05
314.668	734.15
315.123	514.08
315.577	243.47
316.032	239.24
316.486	290.97
316.94	275.82
317.394	213.72
317.849	184.73
318.303	177.96
318.757	170.36
319.211	181.96
319.665	162.64
320.119	172.38
320.572	232.51
321.026	228.96
321.48	195.46
321.934	190.14
322.387	173.66
322.841	192.19
323.295	214.71
323.748	206.88
324.202	208.88
324.655	273.63
325.108	426.22
325.562	317.43
326.015	378.31
326.468	289.4
326.921	348.81
327.374	360.2
327.827	401.98
328.28	408.25
328.733	308.26
329.186	270.64
329.639	254.98
330.092	197.64
330.545	194.36
330.997	200.75
331.45	253.71
331.903	298.39
332.355	442.04
332.808	385.98
333.26	343.23
333.713	361.56
334.165	380.01
334.617	468.64
335.069	338.25
335.522	533.05
335.974	582.71
336.426	427.82
336.878	232.93
337.33	160.17
337.782	155.68
338.234	190.18
338.686	204.35
339.137	228.96
339.589	198.02
340.041	192.09
340.493	167.72
340.944	154.76
341.396	185.9
341.847	205.29
342.299	283.51
342.75	368.41
343.201	307.69
343.653	349.71
344.104	418.92
344.555	347.77
345.006	469.73
345.457	429.72
345.908	355.08
346.359	359.53
346.81	280.59
347.261	251.38
347.712	230.47
348.163	234.42
348.613	292.53
349.064	263.71
349.515	234.56
349.965	250.92
350.416	265.06
350.866	276.25
351.317	290.81
351.767	477.24
352.217	557.59
352.668	535.33
353.118	493.1
353.568	354.79
354.018	308.99
354.468	342.89
354.918	263.15
355.368	244.66
355.818	349
356.268	829.01
356.718	3534.84
357.168	1034.38
357.617	454.75
358.067	507.92
358.517	531.73
358.966	656.97
359.416	867.81
359.865	930.96
360.315	958.07
360.764	489.31
361.213	279.51
361.663	234.55
362.112	259.6
362.561	392
363.01	313.01
363.459	233.27
363.908	224.31
364.357	184.31
364.806	251.78
365.255	191.37
365.703	175.76
366.152	200.07
366.601	179.26
367.05	189.18
367.498	182.72
367.947	169.32
368.395	176.96
368.844	166.06
369.292	160.09
369.74	148.91
370.189	208.67
370.637	217.73
371.085	189.09
371.533	206.21
371.981	131.12
372.429	173.91
372.877	207.28
373.325	187.1
373.773	171.87
374.221	147.27
374.669	154.57
375.116	132.03
375.564	131.93
376.012	148.03
376.459	144.06
376.907	176.68
377.354	165.65
377.801	155.82
378.249	202.08
378.696	262.55
379.143	327.78
379.591	320.21
380.038	569.67
380.485	456.78
380.932	389.95
381.379	441.1
381.826	409.24
382.273	290.57
382.72	257.59
383.166	243.62
383.613	166.83
384.06	151.6
384.506	175.1
384.953	129.82
385.4	130.74
385.846	133.95
386.292	108.31
386.739	84.8
387.185	86.5
387.631	84.32
388.078	93.13
388.524	103.18
388.97	96.69
389.416	84.84
389.862	92.41
390.308	87.72
390.754	90.82
391.2	99.95
391.645	100.9
392.091	118.71
392.537	128.88
392.983	104.25
393.428	119.02
393.874	124.95
394.319	138.14
394.765	147.57
395.21	140.38
395.655	126.42
396.101	119.88
396.546	106.32
396.991	82.49
397.436	69.54
397.881	72.95
398.326	56.34
398.771	60.77
399.216	47.42
399.661	35.6
400.106	43.79
400.551	51.55
400.995	45.14
401.44	47.91
401.885	48.54
402.329	44.97
402.774	49.42
403.218	58.61
403.663	52.67
404.107	55.19
404.551	60.35
404.995	50.8
405.44	43.02
405.884	45.67
406.328	39.51
406.772	38.7
407.216	38.72
407.66	31.64
408.104	20.4
408.547	19.7
408.991	18.43
409.435	15.74
409.879	19.37
410.322	20.68
410.766	20.7
411.209	25.08
411.653	24.38
412.096	26.36
412.54	25.46
412.983	29.28
413.426	30.99
413.869	29.33
414.312	29.56
414.756	26.66
415.199	26.99
415.642	29.37
416.085	28.66
416.527	28.63
416.97	25.78
417.413	28.05
417.856	25.33
418.298	24.63
418.741	23.6
419.184	22.77
419.626	18.91
420.069	16.83
420.511	15.69
420.953	16.08
421.396	16.54
421.838	16.3
422.28	15.74
422.722	18.39
423.164	17.29
423.606	19.09
424.048	17.47
424.49	21.31
424.932	20.43
425.374	19.31
425.816	17.56
426.258	17.02
426.699	19.87
427.141	22.78
427.582	19.77
428.024	18.96
428.465	16.08
428.907	16.6
429.348	14.12
429.789	16.44
430.231	17.27
430.672	16.95
431.113	16.84
431.554	14.45
431.995	10.57
432.436	13.88
432.877	15.6
433.318	18.87
433.759	18.68
434.2	19.91
434.64	19.5
435.081	19.2
435.522	21.47
435.962	20.66
436.403	22.96
436.843	22.1
437.284	19
437.724	15.94
438.164	11.21
438.604	10.76
439.045	12.75
439.485	14.05
439.925	12.92
440.365	10.91
440.805	10.33
441.245	8.58
441.685	9.33
442.125	9.34
442.564	9.5
443.004	12.18
443.444	13.03
443.883	12.11
444.323	8.12
444.762	5.01
445.202	3.92
445.641	4.89
446.081	3.4
446.52	4.08
446.959	4.95
447.398	6.4
447.837	5.23
448.276	3.17
448.716	3.99
449.154	4.2
449.593	7.28
450.032	8.99
450.471	6.63
450.91	5.87
451.349	6.93
451.787	6.24
452.226	5.9
452.664	7.48
453.103	7.74
453.541	6.31
453.98	8.7
454.418	8.25
454.856	9.31
455.295	11.13
455.733	13.13
456.171	11.96
456.609	12.78
457.047	12.5
457.485	13.76
457.923	15.23
458.361	14.17
458.798	13.95
459.236	13.57
459.674	10.96
460.111	10.63
460.549	10.96
460.987	10.01
461.424	8.37
461.862	8.68
462.299	7.25
462.736	7.97
463.173	8.2
463.611	9.39
464.048	9.83
464.485	11.14
464.922	10.84
465.359	8.17
465.796	15.23
466.233	17.43
466.67	19.62
467.106	20.79
467.543	18.77
467.98	18.99
468.416	17.15
468.853	16.31
469.29	15.86
469.726	16
470.162	17.23
470.599	12.58
471.035	10.65
471.471	9.48
471.907	7.03
472.344	6.56
472.78	6.04
473.216	5.31
473.652	6.03
474.088	5.83
474.523	5.55
474.959	4.48
475.395	4.09
475.831	4.54
476.266	3.33
476.702	3.47
477.138	4.59
477.573	4.76
478.008	5.18
478.444	6.03
478.879	6.66
479.314	6.74
479.75	7.39
480.185	6.52
480.62	6.63
481.055	6.75
481.49	7.98
481.925	8.31
482.36	10.13
482.795	9.31
483.229	7.87
483.664	7.35
484.099	7.64
484.534	7.78
484.968	8.87
485.403	8.02
485.837	7.03
486.271	6.07
486.706	5.11
487.14	3.83
487.574	4.26
488.009	3.87
488.443	3.97
488.877	4.49
489.311	3.9
489.745	3.69
490.179	3.99
490.613	6.2
491.046	5.85
491.48	5.71
491.914	5.54
492.348	5.58
492.781	5.86
493.215	6.06
493.648	5.18
494.082	4.79
494.515	4.72
494.948	5.62
495.382	4.1
495.815	4.52
496.248	5.09
496.681	5.39
497.114	4.79
497.547	5.73
497.98	6.3
498.413	7.45
498.846	8.31
499.279	8.1
499.711	6.98
500.144	7.01
500.577	7.2
501.009	6.82
501.442	7.54
501.874	8.46
502.306	7.51
502.739	8.9
503.171	8.34
503.603	8.08
504.036	7.93
504.468	8.49
504.9	8.37
505.332	8.23
505.764	8.87
506.196	8.08
506.627	8.16
507.059	8.44
507.491	6.13
507.923	6.15
508.354	6.64
508.786	6.57
509.217	6.36
509.649	6.3
510.08	6.09
510.512	6.36
510.943	6.11
511.374	5.83
511.805	5.55
512.237	5.36
512.668	4.74
513.099	3.84
513.53	4.01
513.961	4.47
514.391	4.86
514.822	6.13
515.253	6.23
515.684	6.61
516.114	6.67
516.545	7.15
516.975	7.05
517.406	6.58
517.836	6.51
518.267	6.6
518.697	6.7
519.127	6.85
519.558	6.12
519.988	5.35
520.418	4.42
520.848	3.47
521.278	3.1
521.708	31.84
522.138	33.02
522.567	32.83
522.997	32.61
523.427	31.87
523.857	31.8
524.286	31.44
524.716	31.87
525.145	32.87
525.575	33.93
526.004	33.62
526.433	5.31
526.863	4.01
527.292	4.98
527.721	5.62
528.15	5.89
528.579	5.61
529.008	5.61
529.437	4.46
529.866	3.51
530.295	3.07
530.724	3.93
531.152	4.23
531.581	5.32
532.01	5.4
532.438	4.61
532.867	4.41
533.295	4.75
533.723	4.88
534.152	5.49
534.58	6.44
535.008	6.34
535.436	6.43
535.865	6.13
536.293	4.84
536.721	4.19
537.149	4.59
537.576	5.14
538.004	5.71
538.432	5.31
538.86	5.68
539.287	5.27
539.715	5.57
540.143	4.86
540.57	5.19
540.998	5.67
541.425	7.25
541.852	6.63
542.28	6.39
542.707	5.81
543.134	6.4
543.561	6.25
543.988	6.35
544.415	5.56
544.842	5.65
545.269	5.38
545.696	6.22
546.123	5.74
546.549	6.43
546.976	6.46
547.403	6.29
547.829	5.47
548.256	4.83
548.682	4.91
549.108	6.32
549.535	6.28
549.961	6.25
550.387	6
550.813	6.04
551.24	5.88
551.666	5.43
552.092	5.13
552.518	5.32
552.943	6.69
553.369	6.17
553.795	5.32
554.221	5.78
554.646	5.71
555.072	6.13
555.498	5.24
555.923	4.56
556.349	4.84
556.774	5.04
557.199	4.69
557.625	3.32
558.05	3.97
558.475	4.2
558.9	4.13
559.325	5.13
559.75	5.03
560.175	5.32
560.6	5.44
561.025	4.37
561.449	4.41
561.874	4.45
562.299	4.93
562.723	4.29
563.148	4.22
563.572	3.64
563.997	2.96
564.421	1.61
564.846	1.17
565.27	1.09
565.694	2.12
566.118	1.85
566.542	3.19
566.966	3.32
567.39	3.53
567.814	3.3
568.238	3.63
568.662	2.9
569.086	3.81
569.509	3.35
569.933	4.82
570.357	4.7
570.78	4.82
571.204	4.34
571.627	4.15
572.05	4.89
572.474	6.2
572.897	6.15
573.32	6.86
573.743	6.28
574.166	7.07
574.589	5.75
575.012	5.7
575.435	5.38
575.858	5.59
576.281	5.82
576.704	4.82
577.126	3.57
577.549	2.97
577.972	2.53
578.394	3.07
578.817	4.65
579.239	5.09
579.661	5.12
580.084	6.42
580.506	6.01
580.928	5.81
581.35	5.84
581.772	5.86
582.194	6.44
582.616	6.62
583.038	6.12
583.46	4.61
583.882	4.71
584.303	3.95
584.725	3
585.147	6.64
585.568	6.88
585.99	7.75
586.411	8.39
586.833	8.99
587.254	8.79
587.675	8.71
588.096	9.01
588.518	8.68
588.939	9.61
589.36	10.5
589.781	6.75
590.202	8.72
590.623	8.33
591.043	7.43
591.464	7.26
591.885	8
592.305	7.82
592.726	7.31
593.147	7.5
593.567	7.55
593.987	7.03
594.408	6.36
594.828	3.63
595.248	4.19
595.669	5.14
596.089	5
596.509	4.21
596.929	4.02
597.349	4.07
597.769	4.15
598.189	4.3
598.608	4.47
599.028	4.92
599.448	4.62
599.867	4.19
600.287	3.93
600.706	4
601.126	4.76
601.545	5.54
601.965	5.29
602.384	5.16
602.803	4.91
603.222	5.09
603.641	4.83
604.061	5.88
604.48	5.43
604.898	4.99
605.317	4.62
605.736	4.24
606.155	4.79
606.574	5.2
606.992	5.06
607.411	5.09
607.829	4.26
608.248	4.11
608.666	3.57
609.085	4.24
609.503	4.45
609.921	5.39
610.339	5.12
610.758	4.38
611.176	4.09
611.594	5.02
612.012	5.52
612.43	6
612.847	6.03
613.265	6.93
613.683	6.95
614.101	7.49
614.518	6.51
614.936	6.83
615.353	7.36
615.771	7.89
616.188	7.35
616.606	6.51
617.023	6.83
617.44	6.84
617.857	5.7
618.274	4.97
618.691	5.05
619.108	5.04
619.525	4.45
619.942	4.21
620.359	4.04
620.776	3.76
621.192	4.66
621.609	5.08
622.026	5.5
622.442	6.14
622.859	6.4
623.275	5.49
623.691	5.7
624.108	6.95
624.524	6.96
624.94	6.9
625.356	6.55
625.772	5.65
626.188	4.46
626.604	4.66
627.02	4.6
627.436	4.99
627.852	6.19
628.268	6.55
628.683	5.68
629.099	5.31
629.514	4.98
629.93	5.51
630.345	5.87
630.761	6.04
631.176	5.96
631.591	7.42
632.007	7.58
632.422	6.36
632.837	5.85
633.252	6.57
633.667	6.84
634.082	6.95
634.497	7.28
634.911	8.63
635.326	8.86
635.741	8.19
636.155	6.88
636.57	7.1
636.984	7.17
637.399	7.91
637.813	7.29
638.228	7.58
638.642	7.6
639.056	7
639.47	6.03
639.884	6.73
640.298	7.56
640.712	8.71
641.126	8.77
641.54	8.89
641.954	7.19
642.368	7.45
642.781	8.77
643.195	8.56
643.609	9.23
644.022	9.74
644.436	8.28
644.849	7.99
645.262	6.78
645.676	5.71
646.089	6.11
646.502	7.88
646.915	7.66
647.328	6.84
647.741	7.65
648.154	7.38
648.567	8.06
648.98	9.88
649.393	10.05
649.805	10.54
650.218	10.7
650.631	11.11
651.043	10.86
651.456	10.96
651.868	10.3
652.28	9.24
652.693	8.54
653.105	7.96
653.517	6.85
653.929	6.96
654.341	7.89
654.753	8.71
655.165	8.37
655.577	8.53
655.989	8.26
656.401	7.39
656.813	8.63
657.224	9.37
657.636	9
658.047	9.91
658.459	9.81
658.87	8.47
659.282	8.71
659.693	9.17
660.104	9.1
660.515	8.86
660.926	8.77
661.338	9.25
661.749	8.49
662.159	8.81
662.57	7.69
662.981	7.65
663.392	7.58
663.803	6.65
664.213	5.79
664.624	5.57
665.035	5.57
665.445	5.65
665.855	4.76
666.266	6.11
666.676	5.93
667.086	5.84
667.497	5.99
667.907	6.41
668.317	7.18
668.727	10.05
669.137	8.83
669.547	9.19
669.956	8.86
670.366	9.44
670.776	9.02
671.186	8.44
671.595	9.04
672.005	8.22
672.414	8.01
672.824	7.67
673.233	4.8
673.642	6.09
674.052	6.05
674.461	7.61
674.87	7.31
675.279	8.46
675.688	7.24
676.097	7.84
676.506	8.06
676.915	7.5
677.323	7.98
677.732	8.23
678.141	7.4
678.549	7.78
678.958	6.3
679.366	5.25
679.775	4.07
680.183	6.5
680.592	6.08
681	6.62
681.408	7.01
681.816	6.54
682.224	5.88
682.632	7.46
683.04	6.83
683.448	7.62
683.856	9.07
684.264	9.88
684.671	7.79
685.079	6.96
685.487	6.95
685.894	6.72
686.302	5.46
686.709	6.28
687.116	5.18
687.524	5.56
687.931	6.34
688.338	6.61
688.745	5.48
689.152	6.31
689.559	7.7
689.966	9.63
690.373	10.22
690.78	12.21
691.187	12.81
691.593	14.47
692	14.31
692.407	14.84
692.813	16.1
693.22	16.38
693.626	14.84
694.032	14.12
694.439	13.82
694.845	13.51
695.251	12.39
695.657	12.07
696.063	9.77
696.469	10.38
696.875	9.2
697.281	8.73
697.687	8.3
698.093	9.46
698.498	11.04
698.904	8.89
699.31	8.5
699.715	10.71
700.12	10.32
700.526	11.36
700.931	10.51
701.337	12.08
701.742	11.81
702.147	12.23
702.552	13.3
702.957	11.31
703.362	12.04
703.767	12.02
704.172	10.24
704.577	10.27
704.981	9.44
705.386	10.07
705.791	8.45
706.195	7.03
706.6	7.65
707.004	5.53
707.408	4.87
707.813	5.76
708.217	7.02
708.621	7.21
709.025	7.22
709.43	8.96
709.834	8.98
710.237	9.58
710.641	10.08
711.045	9.84
711.449	11.4
711.853	14.75
712.256	13.68
712.66	12.93
713.064	13.13
713.467	14.15
713.87	13.31
714.274	14.5
714.677	14.63
715.08	14.79
715.484	14.5
715.887	17.19
716.29	15.5
716.693	17.22
717.096	18.91
717.499	19.26
717.901	17.49
718.304	17
718.707	15.26
719.109	14.88
719.512	14.9
719.915	16.81
720.317	14.89
720.719	13.61
721.122	12.81
721.524	12.04
721.926	15.85
722.328	17.13
722.731	17.45
723.133	17.87
723.535	17.24
723.937	17.36
724.338	17.84
724.74	18.35
725.142	56.54
725.544	59.29
725.945	69.61
726.347	65.09
726.748	65.04
727.15	65.62
727.551	68.64
727.952	68.79
728.354	67.48
728.755	66.81
729.156	65.45
729.557	28.18
729.958	25.05
730.359	15.12
730.76	15.72
731.161	15.91
731.562	14.88
731.962	11.98
732.363	11.84
732.763	12.87
733.164	10.73
733.564	10.95
733.965	11.72
734.365	12.54
734.766	12.46
735.166	12.18
735.566	13.05
735.966	14.32
736.366	15.5
736.766	16.08
737.166	15.05
737.566	15.86
737.966	16.04
738.365	16.6
738.765	16.77
739.165	16.78
739.564	16.23
739.964	14.1
740.363	12.66
740.763	10.6
741.162	11.75
741.561	11.76
741.96	11.49
742.36	9.84
742.759	9.73
743.158	8.55
743.557	7.51
743.955	7.6
744.354	8.01
744.753	7.52
745.152	8.56
745.55	6.15
745.949	6.35
746.348	6.51
746.746	6.56
747.144	7.94
747.543	7.72
747.941	7.78
748.339	7.43
748.737	8.18
749.136	9.03
749.534	7.1
749.932	9.2
750.33	9.07
750.727	8.43
751.125	9.45
751.523	7.68
751.921	10.31
752.318	10.83
752.716	12.36
753.113	12.17
753.511	11.53
753.908	14.19
754.305	16.81
754.703	17.59
755.1	18.35
755.497	18.14
755.894	18.27
756.291	16.18
756.688	17.01
757.085	15.36
757.482	17.28
757.878	20.65
758.275	21.03
758.672	15.55
759.068	14.58
759.465	16.5
759.861	16.69
760.258	16.95
760.654	18.7
761.05	19.94
761.447	20.92
761.843	18.89
762.239	18.11
762.635	14.59
763.031	14.15
763.427	13.88
763.822	13.96
764.218	15.55
764.614	16.19
765.01	13.42
765.405	11.82
765.801	13.48
766.196	12.5
766.592	10.57
766.987	11.11
767.382	11.53
767.778	11.51
768.173	10.28
768.568	9.13
768.963	8.47
769.358	8.85
769.753	10.46
770.148	10.66
770.542	9.32
770.937	9.62
771.332	10.04
771.726	8.79
772.121	12.23
772.515	11.82
772.91	11.96
773.304	12.62
773.699	13.41
774.093	11.94
774.487	11.41
774.881	11.95
775.275	12.45
775.669	10.97
776.063	12.17
776.457	10.27
776.851	11.51
777.245	11.88
777.638	11.27
778.032	10.77
778.425	12.72
778.819	15.32
779.212	18.39
779.606	20.15
779.999	21.66
780.392	22.42
780.786	21.44
781.179	22.55
781.572	23.95
781.965	24
782.358	24.02
782.751	22.01
783.143	18.16
783.536	15.59
783.929	13.42
784.322	13.02
784.714	12.07
785.107	13.62
785.499	12.76
785.891	13.78
786.284	14.81
786.676	16.05
787.068	18.72
787.46	20.68
787.852	21.61
788.245	21.26
788.636	20.83
789.028	22.77
789.42	24.27
789.812	25.41
790.204	24.21
790.595	25.79
790.987	24.87
791.378	24.33
791.77	23.69
792.161	21.84
792.553	21.77
792.944	22.13
793.335	20.61
793.726	19.56
794.117	18.94
794.508	17.47
794.899	15.6
795.29	14.64
795.681	13.45
796.072	14.07
796.463	29.99
796.853	34.42
797.244	34.87
797.634	36.14
798.025	34.27
798.415	32.54
798.806	34.11
799.196	35.92
799.586	38.44
799.976	40.21
800.366	38.97
800.756	21.35
801.146	19.17
801.536	19.66
801.926	19.32
802.316	20.11
802.706	20.67
803.095	22.27
803.485	20.54
803.874	18.67
804.264	17.02
804.653	18.39
805.043	23.16
805.432	23.37
805.821	24.05
806.21	23.01
806.599	23.38
806.988	23.88
807.377	19.87
807.766	19.44
808.155	22.63
808.544	23.38
808.933	22.77
809.321	24.29
809.71	23.29
810.098	22.86
810.487	22.3
810.875	21
811.264	21.45
811.652	32.16
812.04	35
812.428	34.33
812.816	33.44
813.204	35.14
813.592	31.58
813.98	31.18
814.368	35.11
814.756	37.04
815.144	37.79
815.531	42.56
815.919	32.98
816.306	33.23
816.694	32.17
817.081	35.66
817.469	35.62
817.856	32.68
818.243	32.19
818.63	28.32
819.017	30.27
819.404	32.25
819.791	29.88
820.178	27.66
820.565	29.08
820.952	35.62
821.339	34.54
821.725	37.41
822.112	42.35
822.498	45.44
822.885	44.54
823.271	42.89
823.657	40.07
824.044	37.53
824.43	37.45
824.816	44.12
825.202	39.34
825.588	39.05
825.974	40.37
826.36	38.79
826.746	38.89
827.132	41.13
827.517	41.65
827.903	43.04
828.289	47.97
828.674	48.86
829.06	42.73
829.445	39.59
829.83	36.91
830.216	33.98
830.601	38.77
830.986	43.96
831.371	44.1
831.756	49.5
832.141	52.68
832.526	52.08
832.911	55.84
833.295	53.6
833.68	55.29
834.065	57.64
834.449	56.89
834.834	55.03
835.218	52.49
835.603	51.55
835.987	46.82
836.371	43.4
836.755	44.14
837.139	38.43
837.524	37.2
837.908	34.97
838.291	36.54
838.675	34.42
839.059	34.28
839.443	27.93
839.827	27.22
840.21	23.02
840.594	27.28
840.977	26.88
841.361	30.33
841.744	25.63
842.127	29.32
842.511	29.5
842.894	26.8
843.277	23.4
843.66	23.95
844.043	24.51
844.426	29.52
844.809	24.98
845.191	23.31
845.574	22.03
845.957	27.74
846.339	25.74
846.722	25.15
847.104	27.3
847.487	25.49
847.869	29.08
848.252	33.4
848.634	34.5
849.016	32.53
849.398	30.65
849.78	29.08
850.162	29.36
850.544	30.12
850.926	28.59
851.307	28.83
851.689	29.49
852.071	26.31
852.452	23.73
852.834	22.51
853.215	28.78
853.597	29.18
853.978	32.97
854.359	33.41
854.741	35.58
855.122	34.38
855.503	33.06
855.884	34.17
856.265	36.83
856.646	30.93
857.026	33.5
857.407	33.35
857.788	31.57
858.169	30.23
858.549	35.74
858.93	35.96
859.31	34.8
859.69	41.75
860.071	41.96
860.451	38.51
860.831	42.43
861.211	39.16
861.591	35.63
861.971	37.89
862.351	35.54
862.731	25.77
863.111	23.77
863.491	29.88
863.87	23.58
864.25	20.74
864.629	26.78
865.009	25.48
865.388	32.8
865.768	31.35
866.147	32.83
866.526	35.19
866.905	40.92
867.284	36.06
867.663	28.59
868.042	28.05
868.421	30.15
868.8	25.84
869.179	30.5
869.558	24.64
869.936	27.98
870.315	23.56
870.693	26.46
871.072	23.98
871.45	26.5
871.828	33.64
872.207	35.03
872.585	38.6
872.963	40.03
873.341	44.3
873.719	51.05
874.097	49.51
874.475	53.2
874.853	54.07
875.23	55.07
875.608	60.82
875.986	62.72
876.363	65.76
876.741	72.41
877.118	78.01
877.495	75.66
877.873	67.93
878.25	72.31
878.627	69.32
879.004	65.61
879.381	66.04
879.758	66.13
880.135	61.77
880.512	57.25
880.889	47.81
881.265	41.77
881.642	33.52
882.019	34.53
882.395	40.21
882.772	49.27
883.148	53.53
883.524	53.48
883.901	50.57
884.277	46.6
884.653	46.44
885.029	55.62
885.405	70.47
885.781	76.97
886.157	74.79
886.532	67.44
886.908	59.6
887.284	56.34
887.659	52.97
888.035	56.85
888.411	56.25
888.786	56.17
889.161	51.39
889.537	34.46
889.912	35.85
890.287	35.64
890.662	36.22
891.037	28.29
891.412	25.87
891.787	25.38
892.162	26.37
892.536	31.27
892.911	38.32
893.286	32.55
893.66	40.79
894.035	43.1
894.409	37.15
894.784	41.16
895.158	46.68
895.532	53.04
895.906	53.71
896.281	52.28
896.655	53.72
897.029	53.35
897.402	61.48
897.776	57.88
898.15	51.87
898.524	65.44
898.898	63.66
899.271	87.41
899.645	87.76
900.018	87.14
900.392	96.65
900.765	89.51
901.138	92.12
901.511	87.21
901.884	86.99
902.258	88.77
902.631	92.53
903.003	94.27
903.376	74.24
903.749	70.91
904.122	72.31
904.495	66.3
904.867	64.39
905.24	55.29
905.612	55.66
905.985	43.14
906.357	38.17
906.729	38.21
907.102	45.64
907.474	50.7
907.846	59.46
908.218	65.15
908.59	67.06
908.962	72.7
909.334	76.52
909.705	83.34
910.077	84.61
910.449	91.18
910.82	94.13
911.192	98.33
911.563	107.08
911.935	95.5
912.306	84.72
912.677	89.47
913.048	92.68
913.419	96.01
913.79	85.15
914.161	88.14
914.532	86.67
914.903	82.08
915.274	85.66
915.645	84.78
916.015	77.68
916.386	81.07
916.756	82.79
917.127	69.27
917.497	67.64
917.868	83.03
918.238	83.82
918.608	79.17
918.978	80.76
919.348	78.68
919.718	58.97
920.088	69.43
920.458	83.63
920.828	72.54
921.198	82.72
921.567	91.79
921.937	74.75
922.306	76.22
922.676	76.54
923.045	72.19
923.415	72.03
923.784	77.14
924.153	86.79
924.522	82.19
924.891	82.51
925.26	87.05
925.629	74.79
925.998	73.33
926.367	79.72
926.736	102.08
927.104	102.8
927.473	103.45
927.842	121.35
928.21	95.01
928.578	83.28
928.947	98.47
929.315	102.36
929.683	136.46
930.051	148.8
930.42	137.34
930.788	105.18
931.156	127.89
931.523	154.66
931.891	151.89
932.259	167.57
932.627	218.17
932.994	286.6
933.362	268.55
933.729	242.56
934.097	225.05
934.464	222.69
934.831	233.94
935.199	217
935.566	202.54
935.933	170.11
936.3	205.41
936.667	153.36
937.034	201.78
937.401	181.39
937.767	158.28
938.134	152.63
938.501	189.27
938.867	233.04
939.234	403.29
939.6	300.69
939.967	428.92
940.333	296.94
940.699	256.66
941.065	147.55
941.431	198.38
941.798	247.66
942.163	359.65
942.529	208.08
942.895	171.78
943.261	107.32
943.627	141.31
943.992	130.46
944.358	127.54
944.723	166.08
945.089	165.3
945.454	158.97
945.82	144.47
946.185	123.61
946.55	181.79
946.915	165.26
947.28	197.76
947.645	187.23
948.01	184.39
948.375	204.16
948.74	207.03
949.104	220.17
949.469	244.18
949.834	373.48
950.198	404.67
950.562	255.04
950.927	213.65
951.291	240.94
951.655	211.33
952.02	150.29
952.384	122.8
952.748	134.4
953.112	155.58
953.476	153.06
953.839	146.01
954.203	154.98
954.567	180.45
954.931	240.07
955.294	234.07
955.658	212.72
956.021	343.97
956.385	485.64
956.748	653.79
957.111	859.35
957.474	924.41
957.837	1051.55
958.2	599.53
958.563	191.11
958.926	169
959.289	230.31
959.652	320.4
960.015	256.38
960.377	355.09
960.74	374.35
961.102	580.5
961.465	722.33
961.827	715.83
962.189	1342.84
962.552	1022.44
962.914	890.28
963.276	564.84
963.638	451.19
964	457.99
964.362	337.73
964.724	307.67
965.085	237.14
965.447	202.57
965.809	148.79
966.17	130
966.532	128.07
966.893	105.43
967.255	91.13
967.616	103.4
967.977	92.84
968.338	90.99
968.699	95.5
969.061	78.28
969.421	75.17
969.782	92.73
970.143	110.61
970.504	145.71
970.865	180.28
971.225	200.11
971.586	192.6
971.946	239.72
972.307	205.83
972.667	233.04
973.027	274.24
973.388	325.18
973.748	235.3
974.108	253.88
974.468	232.01
974.828	213.5
975.188	170.64
975.548	160.47
975.907	151.22
976.267	181.91
976.627	171.48
976.986	166.58
977.346	142.21
977.705	128.21
978.064	119.57
978.424	117.03
978.783	91.28
979.142	94.95
979.501	95.75
979.86	95.98
980.219	73.09
980.578	58.54
980.937	48.92
981.296	79.93
981.654	71.19
982.013	67.53
982.371	118.75
982.73	106.88
983.088	141.13
983.447	164.76
983.805	283.38
984.163	678.28
984.521	847.41
984.879	1435.54
985.237	-2140.89
985.595	2413.34
985.953	602.75
986.311	254.9
986.669	191.42
987.026	144.54
987.384	146.94
987.741	97.47
988.099	120.98
988.456	111.04
988.814	105.54
989.171	98.21
989.528	68.42
989.885	78.38
990.242	87.66
990.599	79.66
990.956	64.03
991.313	59.39
991.67	68.21
992.027	99.76
992.383	93.78
992.74	90.81
993.096	93.83
993.453	102.85
993.809	94.9
994.165	115.44
994.522	154.88
994.878	178.43
995.234	218.01
995.59	213.05
995.946	141.33
996.302	162.83
996.658	173.37
997.013	173.86
997.369	244.71
997.725	313.99
998.08	212.01
998.436	177
998.791	236.38
999.147	309.65
999.502	329.03
999.857	252.57
1000.212	346.32
1000.567	462.28
1000.922	330.15
1001.277	158.4
1001.632	178.07
1001.987	208.4
1002.342	166.56
1002.696	152.12
1003.051	128.35
1003.406	154.78
1003.76	123.81
1004.114	155.95
1004.469	166.11
1004.823	146.04
1005.177	177.38
1005.531	135.38
1005.885	137.29
1006.239	164.8
1006.593	206.98
1006.947	262.07
1007.301	202.3
1007.655	254.34
1008.008	196.09
1008.362	206.61
1008.715	287.79
1009.069	247.74
1009.422	427.29
1009.776	800.02
1010.129	500.19
1010.482	391.46
1010.835	319.38
1011.188	687.67
1011.541	607.32
1011.894	-3359.49
1012.247	10815.14
1012.6	663.83
1012.952	459.28
1013.305	191.41
1013.657	152.35
1014.01	157.98
1014.362	133.56
1014.715	154.43
1015.067	153.47
1015.419	157.96
1015.771	139.21
1016.123	131.1
1016.475	155.13
1016.827	160.52
1017.179	203.27
1017.531	211.69
1017.883	202.93
1018.234	244
1018.586	279.39
1018.938	301.36
1019.289	410.34
1019.64	476.15
1019.992	416.38
1020.343	358.63
1020.694	335.14
1021.045	270.18
1021.396	292.63
1021.747	345.14
1022.098	334.86
1022.449	246.54
1022.8	221.78
1023.151	171.26
1023.501	167.54
1023.852	178.63
1024.202	206.6
1024.553	193.67
1024.903	218.37
1025.253	214.37
1025.604	216.75
1025.954	272.82
1026.304	331.64
1026.654	362.51
1027.004	497.31
1027.354	726.84
1027.703	777.8
1028.053	875.03
1028.403	1464.24
1028.753	1820.68
1029.102	1924.74
1029.452	6492.61
1029.801	236.49
1030.15	151.17
1030.499	111.58
897.758	1384.8
901.051	1340.92
904.343	1368.04
907.636	1368.96
910.928	1407.27
914.22	1359.14
917.511	1367.05
920.803	1391.32
924.094	1387.56
927.384	1394.33
930.675	1370.69
933.965	1352.25
937.255	1372.95
940.544	1353.18
943.834	1352.77
947.123	1317.73
950.411	1372.75
953.7	1363.89
956.988	1357.47
960.276	1310.82
963.563	1335.08
966.851	1342.52
970.138	1364.06
973.424	1365.09
976.711	1333.1
979.997	1361.67
983.283	1386.31
986.568	1346.23
989.853	1335.88
993.138	1347.48
996.423	1406.85
999.708	1383.02
1002.992	1398.21
1006.275	1343.71
1009.559	1347.96
1012.842	1405.72
1016.125	1378.46
1019.408	1363.23
1022.69	1394.89
1025.972	1412.63
1029.254	1401.1
1032.536	1377.98
1035.817	1381.99
1039.098	1364.27
1042.379	1394.57
1045.659	1406.71
1048.939	1375.91
1052.219	1377.74
1055.498	1372.64
1058.778	1364.97
1062.057	1351.78
1065.335	1369.46
1068.614	1370.67
1071.892	1364.68
1075.17	1398.18
1078.447	1399.13
1081.724	1394.95
1085.001	1408.51
1088.278	1392.52
1091.554	1394
1094.83	1394.98
1098.106	1413.44
1101.382	1428.34
1104.657	1428.16
1107.932	1428.24
1111.206	1413.92
1114.481	1384.64
1117.755	1386.45
1121.029	1379.5
1124.302	1417.46
1127.575	1398.54
1130.848	1397.25
1134.121	1379.27
1137.393	1353.91
1140.665	1390.92
1143.937	1376.01
1147.208	1345.44
1150.48	1379.41
1153.75	1372.18
1157.021	1376.95
1160.291	1358.95
1163.561	1391.28
1166.831	1370.01
1170.101	1385.27
1173.37	1362.27
1176.639	1337.32
1179.907	1369.38
1183.176	1380.11
1186.444	1382.41
1189.711	1395.64
1192.979	1409.8
1196.246	1385.77
1199.513	1393.94
1202.78	1396.57
1206.046	1402.21
1209.312	1421.37
1212.578	1425.35
1215.843	1401.39
1219.108	1387.33
1222.373	1400.14
1225.638	1383.4
1228.902	1374.52
1232.166	1355.93
1235.43	1346.17
1238.693	1364.23
1241.956	1359.21
1245.219	1387
1248.482	1380.74
1251.744	1381.56
1255.006	1448.76
1258.268	1418.06
1261.529	1398.26
1264.79	1398.53
1268.051	1452.57
1271.312	1459.62
1274.572	1437.97
1277.832	1431.7
1281.092	1417.12
1284.351	1413.4
1287.61	1405.92
1290.869	1370.05
1294.128	1369.95
1297.386	1391.47
1300.644	1388.83
1303.902	1392.59
1307.159	1316.23
1310.416	1344.39
1313.673	1358.86
1316.93	1362.89
1320.186	1377.13
1323.442	1393.6
1326.697	1392.08
1329.953	1380.12
1333.208	1401.64
1336.463	1386.86
1339.717	1368.11
1342.972	1434.12
1346.226	1419.33
1349.479	1397.72
1352.733	1382.01
1355.986	1393.57
1359.238	1382.58
1362.491	1384.51
1365.743	1382.31
1368.995	1379.97
1372.247	1392.46
1375.498	1400.77
1378.749	1423.15
1382	1399.89
1385.251	1414.13
1388.501	1391.59
1391.751	1386.05
1395	1372.21
1398.25	1389.99
1401.499	1407.18
1404.748	1380.82
1407.996	1368.09
1411.244	1366.24
1414.492	1356.59
1417.74	1346.66
1420.987	1355.43
1424.234	1388.37
1427.481	1367.42
1430.728	1398.76
1433.974	1386.83
1437.22	1386.46
1440.465	1381.1
1443.711	1383.25
1446.956	1393.03
1450.201	1377.71
1453.445	1404.48
1456.689	1392.97
1459.933	1402.03
1463.177	1426.41
1466.42	1411.2
1469.663	1398.37
1472.906	1404.77
1476.148	1433.24
1479.391	1410.72
1482.633	1399.49
1485.874	1413.37
1489.115	1417.51
1492.356	1408.1
1495.597	1391.05
1498.838	1383.56
1502.078	1378.24
1505.318	1366.62
1508.557	1380.8
1511.797	1380.6
1515.036	1408.69
1518.274	1384.96
1521.513	1354
1524.751	1357.45
1527.989	1369.49
1531.227	1381.18
1534.464	1386.03
1537.701	1379.15
1540.938	1383.59
1544.174	1355.7
1547.41	1343.92
1550.646	1367.12
1553.882	1392.26
1557.117	1427.18
1560.352	1433.43
1563.587	1408.69
1566.821	1390.74
1570.055	1404.13
1573.289	1388.11
1576.523	1418.21
1579.756	1425.5
1582.989	1438.98
1586.222	1410.04
1589.454	1435.16
1592.686	1425.41
1595.918	1437.91
1599.15	1437.34
1602.381	1464.47
1605.612	1453.08
1608.843	1504.29
1612.073	1460.08
1615.303	1456.58
1618.533	1454.19
1621.762	1455.34
1624.992	1435.38
1628.221	1435.1
1631.449	1430.15
1634.678	1444.95
1637.906	1423.01
1641.134	1432.84
1644.361	1415.98
1647.588	1408.13
1650.815	1420.89
1654.042	1400.77
1657.269	1416.62
1660.495	1406.11
1663.72	1398.71
1666.946	1376.6
1670.171	1366.25
1673.396	1348.74
1676.621	1344.83
1679.845	1341.85
1683.069	1345.84
1686.293	1359.68
1689.517	1355.61
1692.74	1331.24
1695.963	1341.84
1699.185	1363.41
1702.408	1351.66
1705.63	1364.94
1708.852	1377.47
1712.073	1356.21
1715.294	1367.11
1718.515	1396.85
1721.736	1372.14
1724.956	1363.29
1728.176	1375.7
1731.396	1385.66
1734.616	1382.65
1737.835	1408.98
1741.054	1389.22
1744.272	1387.19
1747.491	1411.54
1750.709	1421.37
1753.927	1393.42
1757.144	1411.34
1760.361	1441.92
1763.578	1426.54
1766.795	1398.51
1770.011	1388.94
1773.227	1401.03
1776.443	1428.2
1779.658	1448.77
1782.874	1418.07
1786.089	1414.65
1789.303	1415.13
1792.518	1414.58
1795.732	1407.74
1798.945	1416.75
1802.159	1444.66
1805.372	1412.01
1808.585	1406.13
1811.797	1404.87
1815.01	1424.77
1818.222	1441.12
1821.434	1419.3
1824.645	1440.89
1827.856	1444.89
1831.067	1462.19
1834.278	1429.28
1837.488	1416.74
1840.698	1487.25
1843.908	1461.11
1847.117	1444.06
1850.326	1398.99
1853.535	1434.06
1856.744	1455.74
1859.952	1413.87
1863.16	1415.33
1866.368	1430.76
1869.575	1494.42
1872.782	1430.82
1875.989	1393.12
1879.196	1423.62
1882.402	1421.98
1885.608	1439.34
1888.814	1405.78
1892.019	1354.67
1895.224	1388.92
1898.429	1371.35
1901.634	1357.9
1904.838	1347.63
1908.042	1381.48
1911.246	1394.79
1914.449	1371.51
1917.652	1361.78
1920.855	1352.64
1924.058	1365.02
1927.26	1396.39
1930.462	1406.17
1933.664	1429.71
1936.865	1400.07
1940.066	1406.9
1943.267	1374.29
1946.467	1380.2
1949.668	1385.87
1952.868	1428.29
1956.067	1427.27
1959.267	1393.98
1962.466	1407.35
1965.665	1394.82
1968.863	1394.82
1972.061	1391.11
1975.259	1389.22
1978.457	1433.35
1981.654	1409.89
1984.852	1413.16
1988.048	1388.55
1991.245	1378.52
1994.441	1430.93
1997.637	1399.18
2000.833	1389.69
2004.028	1406.22
2007.223	1450.85
2010.418	1438.11
2013.613	1410.7
2016.807	1406.92
2020.001	1405.42
2023.194	1414.16
2026.388	1403.82
2029.581	1371.7
2032.774	1410.36
2035.966	1419.87
2039.158	1388.84
2042.35	1398.3
2045.542	1354.34
2048.733	1404.3
2051.924	1394.44
2055.115	1402.86
2058.306	1387.57
2061.496	1416.23
2064.686	1447.54
2067.875	1389.08
2071.065	1388.34
2074.254	1398.37
2077.442	1370
2080.631	1420.78
2083.819	1382.3
2087.007	1376.94
2090.195	1369.38
2093.382	1370.05
2096.569	1366.89
2099.756	1341.34
2102.942	1376.7
2106.128	1382.61
2109.314	1377.14
2112.5	1370.7
2115.685	1353.94
2118.87	1357.81
2122.055	1399.53
2125.239	1383.78
2128.424	1381.96
2131.608	1410.4
2134.791	1400.28
2137.974	1423.05
2141.157	1414.83
2144.34	1400.52
2147.523	1390.74
2150.705	1408.48
2153.887	1384.96
2157.068	1370.5
2160.25	1357.06
2163.431	1371.81
2166.611	1356.18
2169.792	1368.55
2172.972	1310.99
2176.152	1347.14
2179.331	1360.5
2182.511	1360.86
2185.69	1369.49
2188.868	1374.2
2192.047	1395.67
2195.225	1413.13
2198.403	1378.48
2201.58	1367.77
2204.758	1360.39
2207.935	1405.66
2211.111	1355.8
2214.288	1347.53
2217.464	1367.66
2220.64	1345.91
2223.815	1373.2
2226.991	1330.35
2230.166	1336.62
2233.34	1363.82
2236.515	1373.29
2239.689	1416.22
2242.863	1384.54
2246.036	1412.31
2249.209	1406.05
2252.382	1420.12
2255.555	1421.77
2258.727	1396.94
2261.9	1413.07
2265.071	1410
2268.243	1409.93
2271.414	1381.59
2274.585	1366.6
2277.756	1404.74
2280.926	1383.04
2284.096	1399.39
2287.266	1356.99
2290.436	1388.08
2293.605	1394.96
2296.774	1420.67
2299.942	1424.44
2303.111	1435.26
2306.279	1465.51
2309.447	1458.88
2312.614	1443.88
2315.781	1451.55
2318.948	1440.78
2322.115	1465.72
2325.281	1397.08
2328.447	1405.02
2331.613	1382.94
2334.779	1379.03
2337.944	1375.59
2341.109	1376.52
2344.274	1371.91
2347.438	1350.53
2350.602	1366.58
2353.766	1369.46
2356.929	1364.56
2360.092	1393.51
2363.255	1369.94
2366.418	1357.6
2369.58	1381
2372.742	1360.38
2375.904	1347.29
2379.066	1341.54
2382.227	1357.97
2385.388	1333.48
2388.548	1305.32
2391.709	1324.22
2394.869	1320.51
2398.029	1353.47
2401.188	1343.5
2404.347	1333.99
2407.506	1329.94
2410.665	1365.82
2413.823	1351.79
2416.981	1341.45
2420.139	1353.22
2423.296	1377.7
2426.453	1361.94
2429.61	1372.86
2432.767	1359.16
2435.923	1382.11
2439.079	1348.25
2442.235	1369.85
2445.391	1331.03
2448.546	1357.81
2451.701	1378.68
2454.855	1376.45
2458.009	1392.35
2461.163	1384.19
2464.317	1367.77
2467.471	1381.78
2470.624	1402.46
2473.777	1396.7
2476.929	1406.84
2480.082	1420.9
2483.234	1409.94
2486.385	1373.34
2489.537	1368.76
2492.688	1361.43
2495.839	1378.68
2498.989	1384.79
2502.14	1376.24
2505.29	1370.74
2508.439	1384.24
2511.589	1349.98
2514.738	1351.76
2517.887	1361.4
2521.035	1407.4
2524.183	1381.03
2527.331	1376.04
2530.479	1367.56
2533.627	1372.4
