Data from N_1_DIV_WI_4N_Splice17_11-32-25-490.txt Node
Date: Sat Mar 14 11:32:25 EDT 2020
User: sa697716
Spectrometer: FLMS03696
Trigger mode: 0
Integration Time (sec): 3.180400E-1
Scans to average: 20
Electric dark correction enabled: true
Nonlinearity correction enabled: true
Boxcar width: 5
XAxis mode: Wavelengths
Number of Pixels in Spectrum: 2048
>>>>>Begin Spectral Data<<<<<
187.83	-196861.18
188.298	1386.53
188.766	827.15
189.233	722.03
189.701	971.44
190.169	1233.42
190.636	433.14
191.104	316.94
191.571	11.56
192.039	-73.96
192.506	-75.65
192.974	191.23
193.441	-406.7
193.908	124.2
194.375	42.2
194.842	46.29
195.31	39.05
195.777	81.94
196.244	148.78
196.711	57.82
197.177	74.46
197.644	19.91
198.111	31.94
198.578	58.01
199.045	37.14
199.511	28.01
199.978	-31
200.445	-5.54
200.911	-19.3
201.378	-64.17
201.844	-19.01
202.31	-119.27
202.777	-100.79
203.243	-58.16
203.709	-74.64
204.176	-112.35
204.642	-77.23
205.108	-27.77
205.574	-33.74
206.04	-61.51
206.506	-52.76
206.972	-63.64
207.438	-59.25
207.903	-57.09
208.369	-15.5
208.835	-6.35
209.301	11.07
209.766	-0.44
210.232	3.59
210.697	-9.06
211.163	-33.42
211.628	-94.45
212.094	-17.43
212.559	35.63
213.024	30.26
213.49	26
213.955	21.26
214.42	-28.35
214.885	-10.77
215.35	-32.23
215.815	47.73
216.28	86.27
216.745	75.68
217.21	70.75
217.675	38.22
218.14	31.05
218.604	14.8
219.069	28.43
219.534	63.18
219.998	45.59
220.463	44.37
220.927	-21.83
221.392	-34.35
221.856	-23.57
222.32	-73.39
222.785	-61.67
223.249	-55.72
223.713	-69.31
224.177	-72.05
224.642	-167.25
225.106	-199.85
225.57	-206.51
226.034	-106.37
226.497	-135.7
226.961	-72.82
227.425	-41.16
227.889	-66.25
228.353	-87.71
228.816	-235.55
229.28	-229.49
229.744	-138.52
230.207	-26.58
230.671	-49.04
231.134	-181.38
231.597	-163.46
232.061	-224.8
232.524	-258.45
232.987	-181.54
233.45	-132.81
233.914	-82.62
234.377	-105.23
234.84	-94.86
235.303	-150.53
235.766	-123.39
236.229	-117.33
236.691	-89.47
237.154	-113.79
237.617	-63.42
238.08	-89.45
238.542	-106.48
239.005	-73.43
239.468	-60.01
239.93	-59.62
240.393	-58.56
240.855	-61.3
241.317	-73.9
241.78	-100.69
242.242	-98.3
242.704	-85.39
243.166	-48.1
243.629	-27.79
244.091	-36.52
244.553	-42.95
245.015	-32.76
245.477	-45.96
245.939	-87.48
246.4	-92.06
246.862	-128.29
247.324	-96.05
247.786	-132.91
248.247	-225.59
248.709	-360.33
249.17	-236.51
249.632	-159.59
250.093	-117.88
250.555	-105.4
251.016	-20.1
251.477	-13.37
251.939	16.14
252.4	-13.6
252.861	-29.18
253.322	5.45
253.783	7.09
254.244	-34.55
254.705	-79.67
255.166	-132.13
255.627	-118.28
256.088	-182.07
256.549	-199.9
257.009	-199.24
257.47	-248.39
257.931	-211.36
258.391	-147.93
258.852	-150.11
259.312	-169.01
259.773	-223.38
260.233	-133.29
260.694	-88.89
261.154	-91.7
261.614	-22.9
262.074	-20.04
262.534	7.53
262.994	14.01
263.455	-22.31
263.915	8.12
264.374	20.27
264.834	20.71
265.294	-3.74
265.754	2.91
266.214	-3.48
266.673	-4.66
267.133	-18.14
267.593	-46.78
268.052	-54.17
268.512	-62.19
268.971	-35.29
269.431	-29.01
269.89	-31.08
270.349	-17.23
270.809	-14.5
271.268	-8.05
271.727	-128.46
272.186	-30.46
272.645	-12.21
273.104	-43.33
273.563	-45.54
274.022	-138.03
274.481	-111.71
274.94	-51.99
275.399	-54.28
275.857	-96.91
276.316	-160.64
276.775	-162.59
277.233	-185.69
277.692	-143.06
278.15	-143.57
278.609	-83.28
279.067	-58.02
279.525	-34.39
279.984	-84.79
280.442	-112.73
280.9	-7.16
281.358	1.01
281.816	16.45
282.274	29.25
282.732	-36.79
283.19	-54.63
283.648	-82.22
284.106	-107.22
284.564	-118.36
285.021	-90.3
285.479	-65.41
285.937	-113.8
286.394	-82.91
286.852	-102.41
287.309	-110.58
287.767	-57.64
288.224	-34.15
288.682	-56.69
289.139	-37.73
289.596	-20.15
290.053	-28.33
290.511	-47.63
290.968	-26.82
291.425	-88.72
291.882	-6.57
292.339	13.47
292.796	-23.17
293.252	-24.35
293.709	21.79
294.166	12.07
294.623	-14.76
295.079	-20.41
295.536	-9.43
295.992	-3.57
296.449	7.89
296.905	11.87
297.362	18.69
297.818	24.44
298.274	26.56
298.731	10.16
299.187	15.11
299.643	15.39
300.099	16.13
300.555	46.3
301.011	66.06
301.467	104.74
301.923	57.94
302.379	72.92
302.835	63.6
303.291	60.74
303.746	51.64
304.202	34.72
304.658	28.84
305.113	23.78
305.569	3.07
306.024	-47.93
306.479	-103
306.935	-59.79
307.39	-106.25
307.845	-91.01
308.301	-82.49
308.756	-81.95
309.211	-66.75
309.666	-67.6
310.121	-54.2
310.576	-77.72
311.031	-94.25
311.486	-111.12
311.94	-141.15
312.395	-161.32
312.85	-368.94
313.305	-2767.51
313.759	-9886.89
314.214	-683.77
314.668	-519.45
315.123	-458.77
315.577	-117.99
316.032	-78.35
316.486	-132.87
316.94	-53.93
317.394	-27.69
317.849	-10.99
318.303	-1.47
318.757	-2.08
319.211	-0.66
319.665	20.48
320.119	27.24
320.572	1.71
321.026	19.48
321.48	31.58
321.934	12.76
322.387	10.34
322.841	11.5
323.295	54.36
323.748	9.74
324.202	25.58
324.655	12.82
325.108	48.04
325.562	66.53
326.015	46.4
326.468	41.38
326.921	40.23
327.374	57.04
327.827	100.36
328.28	95.91
328.733	92.27
329.186	65.14
329.639	66.15
330.092	41.88
330.545	44.49
330.997	62.84
331.45	81.49
331.903	121.47
332.355	138.78
332.808	77
333.26	54.02
333.713	61.12
334.165	72.72
334.617	74.01
335.069	11.72
335.522	-83.16
335.974	-187.43
336.426	-227.96
336.878	-252
337.33	-102.54
337.782	-74.38
338.234	-80.48
338.686	-132.07
339.137	-179.54
339.589	-235.08
340.041	-140.32
340.493	-109.3
340.944	-93.75
341.396	-101.55
341.847	-37.45
342.299	-2.22
342.75	-14.67
343.201	-54.63
343.653	-54.66
344.104	-72.31
344.555	-4.08
345.006	-115.21
345.457	3.61
345.908	-21.09
346.359	26.73
346.81	8.59
347.261	-36.4
347.712	-66.46
348.163	-80.57
348.613	-31.83
349.064	-40.93
349.515	-29.11
349.965	-1.74
350.416	-49.87
350.866	-54.31
351.317	-94.95
351.767	-158.29
352.217	-183.13
352.668	-105.19
353.118	-45.47
353.568	-132.5
354.018	-59.17
354.468	-53.75
354.918	-18.83
355.368	2.82
355.818	-10.28
356.268	-288.46
356.718	-1034.59
357.168	-216.65
357.617	-102.89
358.067	-167.97
358.517	-130.38
358.966	-134.62
359.416	-158.61
359.865	-229.32
360.315	-367.29
360.764	-139.56
361.213	-49.6
361.663	-69.28
362.112	-120.88
362.561	-249.83
363.01	-198.72
363.459	-176.21
363.908	-222.26
364.357	-158.87
364.806	-349.56
365.255	-218.73
365.703	-165.93
366.152	-123.74
366.601	-88.34
367.05	-40.68
367.498	-15.04
367.947	-30.57
368.395	-34.4
368.844	-27.38
369.292	-84.83
369.74	-24.02
370.189	-74.68
370.637	-117.18
371.085	-127.39
371.533	-168.57
371.981	-207.87
372.429	-182.16
372.877	-160.38
373.325	-133.5
373.773	-143.14
374.221	-121.15
374.669	-173.65
375.116	-149.37
375.564	-133.2
376.012	-146.05
376.459	-104.6
376.907	-112.33
377.354	-153.82
377.801	-121.64
378.249	-137.52
378.696	-188.48
379.143	-169.5
379.591	-168.72
380.038	-331.64
380.485	-232.86
380.932	-258.52
381.379	-157.03
381.826	-24.08
382.273	-41.18
382.72	-55.71
383.166	-10.38
383.613	16.79
384.06	7.82
384.506	-6.24
384.953	20.33
385.4	16.68
385.846	13.65
386.292	-21.38
386.739	-47.54
387.185	-48.57
387.631	-55.28
388.078	-48.11
388.524	-58.02
388.97	-60.88
389.416	-45.12
389.862	-51.2
390.308	-50.29
390.754	-45.92
391.2	-38.71
391.645	-40.97
392.091	-8.38
392.537	1.04
392.983	-3.84
393.428	26.43
393.874	32.31
394.319	54.64
394.765	72.85
395.21	71.18
395.655	63.6
396.101	60.88
396.546	67.99
396.991	48.78
397.436	48.53
397.881	37.86
398.326	18.39
398.771	21
399.216	14.2
399.661	3.45
400.106	7.1
400.551	14.39
400.995	11.09
401.44	10.98
401.885	12.31
402.329	11.91
402.774	12.37
403.218	22.18
403.663	19
404.107	17.63
404.551	21.32
404.995	19.65
405.44	10.8
405.884	10.3
406.328	1.82
406.772	0.5
407.216	1.04
407.66	-0.29
408.104	-10.98
408.547	-10.09
408.991	-8.87
409.435	-9.93
409.879	-8.58
410.322	-3.95
410.766	-2.13
411.209	3.13
411.653	2.98
412.096	5.75
412.54	3.76
412.983	5.47
413.426	6.83
413.869	3.66
414.312	6.11
414.756	4.46
415.199	1.57
415.642	3.79
416.085	4.65
416.527	4.4
416.97	1.14
417.413	3.14
417.856	1.77
418.298	1.66
418.741	-1.28
419.184	-4.49
419.626	-10.82
420.069	-9.88
420.511	-9.5
420.953	-9.18
421.396	-9.03
421.838	-10.21
422.28	-11.33
422.722	-8
423.164	-10.58
423.606	-6.07
424.048	-8.17
424.49	-2.54
424.932	-2.8
425.374	-5.11
425.816	-9.41
426.258	-10.81
426.699	-10.23
427.141	-5.61
427.582	-9.15
428.024	-9.91
428.465	-13.32
428.907	-11.69
429.348	-12.97
429.789	-12.02
430.231	-8.91
430.672	-5.94
431.113	-5.61
431.554	-5.47
431.995	-9.97
432.436	-5.77
432.877	-2.24
433.318	2.86
433.759	1.53
434.2	2.18
434.64	0.93
435.081	-0.74
435.522	-1.74
435.962	-2.83
436.403	-0.3
436.843	-0.34
437.284	-2.51
437.724	-6.85
438.164	-12.36
438.604	-11.45
439.045	-8.97
439.485	-3.47
439.925	-3.88
440.365	-3.24
440.805	-1.61
441.245	-2.34
441.685	-1.24
442.125	-1.56
442.564	-1.06
443.004	0.78
443.444	2.82
443.883	2.77
444.323	-1.71
444.762	-4.87
445.202	-6.57
445.641	-5.64
446.081	-7.39
446.52	-6.94
446.959	-6.1
447.398	-3.4
447.837	-2.82
448.276	-5.72
448.716	-5.14
449.154	-6.8
449.593	-3.65
450.032	-2.43
450.471	-4.42
450.91	-4.37
451.349	-3.57
451.787	-5.37
452.226	-7.16
452.664	-8.33
453.103	-7.59
453.541	-9.66
453.98	-4.98
454.418	-4.6
454.856	-2.65
455.295	-1.66
455.733	-0.68
456.171	-1.74
456.609	0.82
457.047	1.75
457.485	4.18
457.923	5.63
458.361	5.91
458.798	3.27
459.236	2.5
459.674	0.77
460.111	0.73
460.549	1.11
460.987	-0.06
461.424	-2.62
461.862	-3.22
462.299	-3.53
462.736	-3.25
463.173	-3.67
463.611	0.19
464.048	1.12
464.485	1.89
464.922	1.66
465.359	0.28
465.796	8.42
466.233	10.23
466.67	13.37
467.106	14.99
467.543	13.79
467.98	13.8
468.416	11.43
468.853	10.15
469.29	9.73
469.726	9.35
470.162	9.72
470.599	4.02
471.035	2.85
471.471	0.9
471.907	-2.03
472.344	-1.81
472.78	-1.96
473.216	-2.97
473.652	-2.57
474.088	-3.68
474.523	-3.14
474.959	-4.34
475.395	-4.02
475.831	-3.12
476.266	-2.67
476.702	-2.78
477.138	-2.64
477.573	-2.49
478.008	-2.18
478.444	-2.03
478.879	-0.28
479.314	0.25
479.75	1.27
480.185	0.24
480.62	-0.73
481.055	-1.15
481.49	-0.03
481.925	0.63
482.36	3.04
482.795	2.93
483.229	2.8
483.664	2.07
484.099	1.33
484.534	1.68
484.968	2.89
485.403	3.17
485.837	2.31
486.271	1.68
486.706	0.78
487.14	-0.9
487.574	-0.48
488.009	-0.49
488.443	-0.58
488.877	0.69
489.311	-0.12
489.745	-0.24
490.179	-0.06
490.613	1.62
491.046	1.25
491.48	1.67
491.914	2.08
492.348	1.69
492.781	1.86
493.215	1.69
493.648	-0.19
494.082	0.31
494.515	0.55
494.948	1.03
495.382	-0.4
495.815	-0.05
496.248	0.28
496.681	-0.55
497.114	-0.88
497.547	-0.89
497.98	0.47
498.413	2.93
498.846	3.02
499.279	2.11
499.711	1.3
500.144	1.65
500.577	2.51
501.009	1.51
501.442	2.67
501.874	3.7
502.306	3.41
502.739	4.89
503.171	3.78
503.603	3.71
504.036	4.1
504.468	4.44
504.9	4.77
505.332	4.41
505.764	5.91
506.196	5.18
506.627	4.69
507.059	4.87
507.491	2.21
507.923	2.5
508.354	3.29
508.786	3.02
509.217	3.39
509.649	3.34
510.08	2.65
510.512	2.44
510.943	2.57
511.374	2.6
511.805	2.26
512.237	2.35
512.668	1.09
513.099	-0.14
513.53	-0.11
513.961	0.22
514.391	-0.13
514.822	0.9
515.253	0.68
515.684	0.81
516.114	0.9
516.545	2.03
516.975	1.8
517.406	2.21
517.836	1.34
518.267	1.48
518.697	1.54
519.127	1.31
519.558	0.57
519.988	0.45
520.418	-0.4
520.848	-1.76
521.278	-2.68
521.708	16.72
522.138	17.3
522.567	17.63
522.997	17.49
523.427	16.58
523.857	17.24
524.286	17.44
524.716	17.21
525.145	17.98
525.575	19.51
526.004	19.18
526.433	0.62
526.863	0.17
527.292	1.61
527.721	2.27
528.15	2.57
528.579	2.72
529.008	2.78
529.437	2.09
529.866	1.34
530.295	0.42
530.724	1.42
531.152	1.06
531.581	1.4
532.01	0.86
532.438	-0.16
532.867	-1.04
533.295	-1.12
533.723	-1.16
534.152	-0.74
534.58	0.02
535.008	0.74
535.436	1.61
535.865	1.63
536.293	0.99
536.721	0.75
537.149	1.22
537.576	2.53
538.004	2.61
538.432	1.86
538.86	2.52
539.287	1.82
539.715	1.65
540.143	-0.01
540.57	-0.04
540.998	0.13
541.425	1.56
541.852	1.58
542.28	1.36
542.707	1.19
543.134	1.75
543.561	1.48
543.988	2.11
544.415	1.73
544.842	1.89
545.269	2.15
545.696	2.51
546.123	1.76
546.549	1.85
546.976	1.56
547.403	1.13
547.829	0.83
548.256	0.46
548.682	0.35
549.108	1.33
549.535	1.49
549.961	1.08
550.387	1.01
550.813	1.66
551.24	1.4
551.666	1.04
552.092	1.27
552.518	1.74
552.943	2.54
553.369	2.37
553.795	2.05
554.221	1.96
554.646	1.98
555.072	2.97
555.498	1.79
555.923	1.47
556.349	1.73
556.774	1.27
557.199	0.47
557.625	-0.88
558.05	-0.38
558.475	-0.89
558.9	-0.76
559.325	0.03
559.75	-0.21
560.175	-0.35
560.6	-0.26
561.025	-0.98
561.449	-0.86
561.874	-0.38
562.299	0.78
562.723	-0.14
563.148	-0.65
563.572	-1.44
563.997	-1.82
564.421	-3.34
564.846	-3.56
565.27	-3.72
565.694	-3.27
566.118	-3.62
566.542	-3.18
566.966	-3.33
567.39	-2.9
567.814	-2.34
568.238	-1.42
568.662	-1.59
569.086	-0.87
569.509	-1.1
569.933	0.49
570.357	0.5
570.78	1.06
571.204	1.65
571.627	1.3
572.05	1.5
572.474	2.82
572.897	2.73
573.32	2.85
573.743	2.35
574.166	3.56
574.589	2.71
575.012	2.89
575.435	2.25
575.858	1.79
576.281	1.97
576.704	1.21
577.126	-0.27
577.549	-0.74
577.972	-1.75
578.394	-1.61
578.817	-0.39
579.239	-0.33
579.661	-0.12
580.084	1.58
580.506	1.76
580.928	1.32
581.35	1.67
581.772	2.34
582.194	2.74
582.616	2.47
583.038	2.06
583.46	0.65
583.882	-0.18
584.303	-0.72
584.725	-1.86
585.147	1.63
585.568	2
585.99	2.68
586.411	2.61
586.833	3.11
587.254	4.12
587.675	4.65
588.096	4.37
588.518	5.33
588.939	5.41
589.36	5.53
589.781	0.63
590.202	3.62
590.623	3.32
591.043	2.34
591.464	1.78
591.885	2.11
592.305	1.68
592.726	1.42
593.147	1.08
593.567	1.08
593.987	1.51
594.408	1.73
594.828	-1.28
595.248	-0.75
595.669	0.32
596.089	-0.01
596.509	-0.96
596.929	-0.91
597.349	-0.23
597.769	-0.71
598.189	-0.66
598.608	-1.52
599.028	-1.42
599.448	-1.74
599.867	-1.99
600.287	-2.43
600.706	-1.25
601.126	-0.37
601.545	0.34
601.965	-0.24
602.384	0.3
602.803	0.32
603.222	0.83
603.641	0.55
604.061	1.29
604.48	0.97
604.898	0.67
605.317	0.24
605.736	-0.04
606.155	0.16
606.574	0.07
606.992	-0.13
607.411	0.45
607.829	-0.33
608.248	-0.33
608.666	-0.85
609.085	-0.52
609.503	-0.29
609.921	0.04
610.339	0.07
610.758	-0.57
611.176	-0.63
611.594	-0.06
612.012	-0.17
612.43	0.58
612.847	1.02
613.265	2.03
613.683	1.59
614.101	1.7
614.518	0.46
614.936	0.8
615.353	1.74
615.771	2.22
616.188	2.17
616.606	1.97
617.023	2.22
617.44	2.59
617.857	1.47
618.274	1.56
618.691	2.37
619.108	2.58
619.525	1.83
619.942	1.6
620.359	1.83
620.776	1.37
621.192	2.19
621.609	2.66
622.026	2.91
622.442	2.92
622.859	2.37
623.275	1.45
623.691	2.03
624.108	2.54
624.524	2.55
624.94	2.04
625.356	1.79
625.772	0.57
626.188	-0.05
626.604	-0.96
627.02	-0.55
627.436	0.66
627.852	1.75
628.268	2.24
628.683	1.47
629.099	0.43
629.514	0.25
629.93	0.69
630.345	0.66
630.761	0.08
631.176	-0.15
631.591	1.31
632.007	1.03
632.422	-0.8
632.837	-2.45
633.252	-1.08
633.667	-0.46
634.082	-0.48
634.497	-0.15
634.911	2.02
635.326	2.04
635.741	3.04
636.155	2.23
636.57	2.6
636.984	3.27
637.399	4.5
637.813	3.58
638.228	3.46
638.642	2.85
639.056	2.3
639.47	1.02
639.884	1.54
640.298	0.62
640.712	0.53
641.126	0.07
641.54	-0.34
641.954	-2.8
642.368	-2.75
642.781	0.01
643.195	0.65
643.609	0.8
644.022	0.47
644.436	-0.01
644.849	0.41
645.262	-0.27
645.676	-0.95
646.089	-0.41
646.502	2.65
646.915	2.36
647.328	-0
647.741	0.18
648.154	0.11
648.567	2.02
648.98	3.07
649.393	3.25
649.805	3.32
650.218	3.38
650.631	3.77
651.043	2.61
651.456	3.31
651.868	3.68
652.28	3.25
652.693	2.63
653.105	0.71
653.517	0.02
653.929	-0.78
654.341	-0.53
654.753	0.22
655.165	-0.51
655.577	-0.72
655.989	-0.84
656.401	-2.68
656.813	-1.58
657.224	-0.86
657.636	-1.09
658.047	0.1
658.459	1.13
658.87	0.32
659.282	0.04
659.693	1.09
660.104	1.91
660.515	1.65
660.926	1.97
661.338	1.96
661.749	0.94
662.159	2.17
662.57	0.29
662.981	0.22
663.392	-0.11
663.803	-0.82
664.213	-1.84
664.624	-1.59
665.035	-1.81
665.445	-2.05
665.855	-1.53
666.266	0.15
666.676	-0.71
667.086	-1.03
667.497	-0.64
667.907	0.05
668.317	0.41
668.727	2.97
669.137	1.81
669.547	1.93
669.956	1.39
670.366	0.82
670.776	0.42
671.186	0.58
671.595	0.96
672.005	-0.51
672.414	-0.07
672.824	0.9
673.233	-1.63
673.642	-1.54
674.052	-1.6
674.461	0.16
674.87	-0.48
675.279	0.33
675.688	-1.36
676.097	-0.15
676.506	0.23
676.915	-1
677.323	-1.37
677.732	-1.49
678.141	-1.08
678.549	-0.5
678.958	-1.79
679.366	-2.41
679.775	-3.72
680.183	-1.18
680.592	-1.14
681	-0.97
681.408	-0.13
681.816	-0.91
682.224	-0.59
682.632	0.54
683.04	0.21
683.448	0.39
683.856	2.1
684.264	3.92
684.671	3.14
685.079	2.22
685.487	1.78
685.894	1.32
686.302	1.32
686.709	1.65
687.116	0.43
687.524	1.8
687.931	2.68
688.338	2.2
688.745	0.02
689.152	-1.71
689.559	-2.27
689.966	-0.15
690.373	0.56
690.78	1.73
691.187	2
691.593	2.7
692	1.38
692.407	2.19
692.813	3.74
693.22	4.8
693.626	4.26
694.032	5.13
694.439	3.8
694.845	3.65
695.251	2.6
695.657	2.7
696.063	1.58
696.469	1.66
696.875	0.87
697.281	-0.6
697.687	-1.49
698.093	-0.47
698.498	-0.79
698.904	-2.4
699.31	-2.29
699.715	0.14
700.12	-1.05
700.526	-0.44
700.931	-1.25
701.337	-0.79
701.742	0.03
702.147	-0.2
702.552	0.25
702.957	-0.76
703.362	0.74
703.767	-0.39
704.172	-2.31
704.577	-1.69
704.981	-2.48
705.386	-1.28
705.791	-1.11
706.195	-2.78
706.6	-2.98
707.004	-4.29
707.408	-3.69
707.813	-2.49
708.217	-1.4
708.621	-1.34
709.025	-1.51
709.43	0.73
709.834	0.54
710.237	-0.33
710.641	0.52
711.045	1.44
711.449	3.15
711.853	5.62
712.256	4.33
712.66	3.59
713.064	3.59
713.467	4.29
713.87	3.13
714.274	3.21
714.677	4.38
715.08	5.13
715.484	5.27
715.887	7.56
716.29	6.03
716.693	7.09
717.096	7.89
717.499	7.78
717.901	5.71
718.304	4.54
718.707	4.12
719.109	2.79
719.512	0.46
719.915	2.58
720.317	0.88
720.719	0.11
721.122	-0.17
721.524	-0.96
721.926	3.56
722.328	3.78
722.731	3.96
723.133	3.52
723.535	3.62
723.937	5.62
724.338	5.84
724.74	6.57
725.142	50.79
725.544	53.52
725.945	65.55
726.347	61.54
726.748	63.26
727.15	64.03
727.551	66.8
727.952	66.14
728.354	63.88
728.755	63.33
729.156	61.57
729.557	17.95
729.958	14.9
730.359	4.33
730.76	4.48
731.161	3.47
731.562	2.34
731.962	0.15
732.363	0.08
732.763	0.26
733.164	-2.75
733.564	-2.91
733.965	-1.36
734.365	-0.59
734.766	-0.64
735.166	-0.3
735.566	1.39
735.966	2.14
736.366	2.04
736.766	2.96
737.166	3.24
737.566	4.91
737.966	5.45
738.365	5.93
738.765	6.12
739.165	6.68
739.564	6.25
739.964	4.89
740.363	3.73
740.763	2.63
741.162	2.81
741.561	2.27
741.96	1.73
742.36	1.14
742.759	0.19
743.158	-1.85
743.557	-2.06
743.955	-2.79
744.354	-3.59
744.753	-3.61
745.152	-1.71
745.55	-2.53
745.949	-2.72
746.348	-3.31
746.746	-4.17
747.144	-1.89
747.543	-1.68
747.941	-2.46
748.339	-2.18
748.737	-0.05
749.136	1.19
749.534	-0.97
749.932	0.71
750.33	1.2
750.727	0.93
751.125	2.11
751.523	1.11
751.921	4.24
752.318	4.5
752.716	5.79
753.113	4.38
753.511	4.04
753.908	5.08
754.305	7.16
754.703	7.79
755.1	9.68
755.497	8.73
755.894	7.41
756.291	4.59
756.688	5.79
757.085	4.37
757.482	5.05
757.878	6.64
758.275	8.36
758.672	3.35
759.068	2.06
759.465	-2.01
759.861	-3
760.258	-4.63
760.654	-5.31
761.05	-4.63
761.447	-6.3
761.843	-7.39
762.239	-8.31
762.635	-10.13
763.031	-10.4
763.427	-8.48
763.822	-6.08
764.218	-6.02
764.614	-4.51
765.01	-4.85
765.405	-6.8
765.801	-5.67
766.196	-3.7
766.592	-4.97
766.987	-4.67
767.382	-4.64
767.778	-5.01
768.173	-4.87
768.568	-4.4
768.963	-3.71
769.358	-2.31
769.753	-0.87
770.148	0.28
770.542	-0.57
770.937	-0.52
771.332	-0.1
771.726	-0.7
772.121	1.95
772.515	1.33
772.91	1.84
773.304	2.24
773.699	1.52
774.093	0.25
774.487	0.16
774.881	-0.9
775.275	-0.13
775.669	0.02
776.063	-0.12
776.457	-0.96
776.851	-0.08
777.245	0.02
777.638	-1.04
778.032	-2.56
778.425	-1.41
778.819	1.53
779.212	5.3
779.606	7.77
779.999	7.35
780.392	10.26
780.786	7.85
781.179	8.41
781.572	8.63
781.965	9.23
782.358	10.35
782.751	8.83
783.143	6.04
783.536	4.83
783.929	2.34
784.322	2.51
784.714	-0.76
785.107	0.67
785.499	1.07
785.891	2.55
786.284	2.54
786.676	1.92
787.068	4.97
787.46	4.91
787.852	2.6
788.245	2.83
788.636	1.79
789.028	5.13
789.42	5.84
789.812	6.23
790.204	5.78
790.595	7.99
790.987	8.57
791.378	7.5
791.77	7.08
792.161	6.36
792.553	5.01
792.944	4.97
793.335	2.5
793.726	2.93
794.117	3.79
794.508	0.7
794.899	-2.22
795.29	-2.37
795.681	-4.16
796.072	-3.15
796.463	14.52
796.853	19.85
797.244	22.36
797.634	23.49
798.025	23.52
798.415	20.33
798.806	21.86
799.196	24.63
799.586	27.43
799.976	30.58
800.366	28.22
800.756	6.34
801.146	4.04
801.536	2.15
801.926	1.7
802.316	0.27
802.706	2.85
803.095	3.74
803.485	2.19
803.874	-0.36
804.264	-3.93
804.653	-2.45
805.043	4.88
805.432	4.9
805.821	8.44
806.21	9.89
806.599	10.02
806.988	8.67
807.377	4.8
807.766	2.13
808.155	1.23
808.544	3.44
808.933	2.01
809.321	3.1
809.71	-0.79
810.098	-2.02
810.487	-7.9
810.875	-9.47
811.264	-9.87
811.652	0.26
812.04	3.94
812.428	7.07
812.816	1.64
813.204	4.48
813.592	-2.21
813.98	1.05
814.368	5.21
814.756	9.54
815.144	11.62
815.531	15.22
815.919	9.26
816.306	10.41
816.694	9.12
817.081	14.3
817.469	14.39
817.856	13.7
818.243	9.92
818.63	1.71
819.017	2.89
819.404	2.85
819.791	-2.02
820.178	-5.4
820.565	-5.57
820.952	0.83
821.339	3.2
821.725	5
822.112	12.66
822.498	15.07
822.885	14.9
823.271	12.44
823.657	6.44
824.044	9.31
824.43	7.72
824.816	12.77
825.202	11.8
825.588	8.6
825.974	6.3
826.36	1.87
826.746	1.89
827.132	1.98
827.517	8.17
827.903	10.12
828.289	12
828.674	16.18
829.06	9.39
829.445	2.06
829.83	0.2
830.216	0.74
830.601	5.13
830.986	11.16
831.371	11.41
831.756	11.46
832.141	21.83
832.526	23.29
832.911	22.72
833.295	24.16
833.68	26.87
834.065	29.64
834.449	29.08
834.834	28.83
835.218	27.8
835.603	29.85
835.987	24.36
836.371	17.2
836.755	16.95
837.139	12.8
837.524	11.76
837.908	8.79
838.291	9.48
838.675	7.59
839.059	4.11
839.443	2.09
839.827	-0.92
840.21	-6.43
840.594	-3.82
840.977	-4.53
841.361	-1.6
841.744	-7.07
842.127	-4.54
842.511	-7.97
842.894	-10.41
843.277	-11.37
843.66	-14.19
844.043	-12.01
844.426	-2.38
844.809	-5.44
845.191	-4.45
845.574	-3.08
845.957	1.41
846.339	0.92
846.722	3.8
847.104	3.67
847.487	1.37
847.869	3.06
848.252	4.96
848.634	5.35
849.016	5.49
849.398	3.61
849.78	-0.01
850.162	0.39
850.544	-0.17
850.926	-1.77
851.307	0.73
851.689	3.04
852.071	-1.73
852.452	-2.62
852.834	-4.5
853.215	0.93
853.597	0.03
853.978	5.53
854.359	5.93
854.741	14.93
855.122	12.84
855.503	12.1
855.884	9.76
856.265	12.84
856.646	6.6
857.026	8.98
857.407	7.93
857.788	5.69
858.169	-1.61
858.549	6.32
858.93	0.34
859.31	2.43
859.69	9.54
860.071	10.49
860.451	11.47
860.831	15.9
861.211	13.43
861.591	6.55
861.971	2.15
862.351	5.12
862.731	-5.02
863.111	-2.78
863.491	-2.25
863.87	-10.07
864.25	-10.13
864.629	-2.43
865.009	-3.95
865.388	-4.96
865.768	-1.95
866.147	8.73
866.526	12.12
866.905	16.29
867.284	6.71
867.663	5.6
868.042	3.95
868.421	3
868.8	-5.08
869.179	-0.51
869.558	-2.37
869.936	-1.09
870.315	-5.69
870.693	-1.13
871.072	-6.38
871.45	-5.68
871.828	-2.76
872.207	0.24
872.585	6.88
872.963	4.94
873.341	8.9
873.719	24.46
874.097	22.89
874.475	19.88
874.853	13.59
875.23	17.48
875.608	20.59
875.986	21.89
876.363	20.7
876.741	28.93
877.118	37.31
877.495	34.03
877.873	23.05
878.25	25.01
878.627	28.75
879.004	25.26
879.381	24.59
879.758	30.69
880.135	25.81
880.512	30.15
880.889	13.4
881.265	4.49
881.642	-1.63
882.019	-2.6
882.395	4.81
882.772	11.53
883.148	15.11
883.524	17.66
883.901	16.38
884.277	13.55
884.653	6.84
885.029	16.18
885.405	28.64
885.781	29.44
886.157	26.11
886.532	18.89
886.908	11.11
887.284	6.47
887.659	2.79
888.035	2.38
888.411	5.6
888.786	8.99
889.161	5.89
889.537	-6.65
889.912	-4.41
890.287	3.16
890.662	7.51
891.037	3.82
891.412	5.08
891.787	2.43
892.162	2.97
892.536	4.63
892.911	6.39
893.286	0.69
893.66	6.67
894.035	12.79
894.409	-0.74
894.784	2.15
895.158	3.66
895.532	4.54
895.906	10.68
896.281	11.43
896.655	16.71
897.029	19.06
897.402	23.7
897.776	17.59
898.15	10.61
898.524	22.18
898.898	21.05
899.271	28.6
899.645	29.13
900.018	20.38
900.392	22.05
900.765	11.86
901.138	6.56
901.511	3.33
901.884	14.99
902.258	21.31
902.631	23.35
903.003	12.66
903.376	5.6
903.749	11.57
904.122	10.19
904.495	-1.95
904.867	-1.39
905.24	4.6
905.612	5.28
905.985	-2.58
906.357	-12.71
906.729	-6.64
907.102	6.66
907.474	15.57
907.846	13.25
908.218	12.74
908.59	23.82
908.962	23.07
909.334	28.61
909.705	40.5
910.077	36.32
910.449	35.65
910.82	37.06
911.192	40.86
911.563	52.92
911.935	45.54
912.306	37.58
912.677	29.1
913.048	30.75
913.419	29.85
913.79	18.2
914.161	21.93
914.532	38.86
914.903	29.89
915.274	20.93
915.645	7.13
916.015	7.03
916.386	25.11
916.756	22.12
917.127	11.58
917.497	18.03
917.868	17.92
918.238	15.37
918.608	-0.61
918.978	-2.11
919.348	-20.69
919.718	-21.91
920.088	-11.34
920.458	-10.53
920.828	-18.19
921.198	-3.67
921.567	-15.35
921.937	-5.73
922.306	-21.68
922.676	-17.07
923.045	7.35
923.415	23.27
923.784	23.03
924.153	25.14
924.522	23.64
924.891	25.52
925.26	21.14
925.629	15.05
925.998	8.31
926.367	19.87
926.736	33.13
927.104	17.74
927.473	14.69
927.842	11.76
928.21	-7.71
928.578	-24.79
928.947	-6.2
929.315	8.67
929.683	41.2
930.051	43.82
930.42	58.93
930.788	34.15
931.156	20.85
931.523	52.52
931.891	54.46
932.259	67.68
932.627	99.11
932.994	103.21
933.362	117.87
933.729	87.54
934.097	76.31
934.464	74.38
934.831	59.55
935.199	68.72
935.566	47.24
935.933	9.02
936.3	19.84
936.667	-15.61
937.034	59.67
937.401	24.83
937.767	10.97
938.134	14.91
938.501	-29.74
938.867	23.22
939.234	21.4
939.6	-26.25
939.967	39.52
940.333	38.35
940.699	27.07
941.065	-46.9
941.431	-61.11
941.798	-6.6
942.163	33.65
942.529	30.09
942.895	-5.3
943.261	8.03
943.627	27.05
943.992	31.61
944.358	21.81
944.723	72.23
945.089	72.46
945.454	73.96
945.82	53.54
946.185	28.48
946.55	57.58
946.915	60.13
947.28	71.51
947.645	80.05
948.01	101.8
948.375	115.66
948.74	94.39
949.104	88.74
949.469	77.34
949.834	147.19
950.198	302.64
950.562	216.12
950.927	167.74
951.291	214.21
951.655	152.82
952.02	89.55
952.384	77.05
952.748	100.25
953.112	135.75
953.476	131.85
953.839	121.45
954.203	123.13
954.567	140.2
954.931	170.21
955.294	134.2
955.658	118.89
956.021	179.44
956.385	230.03
956.748	287.14
957.111	175.86
957.474	193.21
957.837	28.93
958.2	-294.88
958.563	-131.18
958.926	-24.19
959.289	-91.93
959.652	-80.4
960.015	-38.65
960.377	-103.08
960.74	-140.95
961.102	-353.41
961.465	-278.39
961.827	274.05
962.189	563.1
962.552	406.22
962.914	336.96
963.276	232.87
963.638	235.57
964	210.3
964.362	190.94
964.724	156.23
965.085	137.02
965.447	117.6
965.809	46.71
966.17	37.7
966.532	38.19
966.893	32.9
967.255	39.91
967.616	20.49
967.977	33.37
968.338	8.4
968.699	40.81
969.061	35.7
969.421	19.06
969.782	19.79
970.143	24.84
970.504	54.4
970.865	66.45
971.225	96.82
971.586	98.73
971.946	130.28
972.307	112.59
972.667	98.33
973.027	95.24
973.388	120.27
973.748	84.56
974.108	113.88
974.468	32.74
974.828	72.74
975.188	17.31
975.548	14.35
975.907	12.51
976.267	21.72
976.627	38.25
976.986	36.25
977.346	34.87
977.705	46.04
978.064	38.88
978.424	57.33
978.783	29.09
979.142	38.44
979.501	45.88
979.86	54
980.219	43.3
980.578	29.73
980.937	26.99
981.296	23.08
981.654	4.47
982.013	-41.04
982.371	-51.84
982.73	-47.77
983.088	-93.2
983.447	-143.24
983.805	-249.96
984.163	-415.55
984.521	-469.4
984.879	-626.65
985.237	845.43
985.595	-396.44
985.953	-118.84
986.311	-153.85
986.669	-54.92
987.026	-37.89
987.384	-53.6
987.741	-42.96
988.099	19.95
988.456	13.2
988.814	26.2
989.171	11.98
989.528	-32.84
989.885	-37.49
990.242	10.55
990.599	-23.41
990.956	-29.64
991.313	-12.61
991.67	-11.46
992.027	23.11
992.383	32.17
992.74	32.57
993.096	43.33
993.453	50.69
993.809	55.86
994.165	60.75
994.522	103.17
994.878	126.81
995.234	158.23
995.59	158.98
995.946	85.49
996.302	90.37
996.658	67.58
997.013	66.64
997.369	133.39
997.725	179.15
998.08	98.76
998.436	-24.52
998.791	-96.71
999.147	-85.48
999.502	-104.2
999.857	-110.53
1000.212	-222.05
1000.567	-229.76
1000.922	-144.99
1001.277	-141.42
1001.632	-96.07
1001.987	-102.17
1002.342	-38.93
1002.696	6.9
1003.051	7.41
1003.406	22.91
1003.76	19.69
1004.114	26.02
1004.469	36.65
1004.823	33.69
1005.177	29.5
1005.531	27.63
1005.885	30.84
1006.239	35.72
1006.593	42.65
1006.947	78.1
1007.301	52.21
1007.655	43.12
1008.008	45.58
1008.362	64.44
1008.715	114.61
1009.069	119.24
1009.422	254.03
1009.776	445.76
1010.129	311.32
1010.482	230.39
1010.835	121.6
1011.188	182.47
1011.541	202
1011.894	-763.92
1012.247	1586.6
1012.6	-28.08
1012.952	2.99
1013.305	-80.86
1013.657	-57.89
1014.01	-62.61
1014.362	-61.15
1014.715	4.93
1015.067	20.12
1015.419	21.3
1015.771	32.17
1016.123	45.87
1016.475	49.68
1016.827	39.82
1017.179	63.85
1017.531	63.07
1017.883	58.74
1018.234	112.26
1018.586	112.56
1018.938	169.04
1019.289	240.42
1019.64	213.3
1019.992	142.38
1020.343	129.54
1020.694	142.19
1021.045	101.12
1021.396	117.53
1021.747	171.09
1022.098	99.19
1022.449	77.71
1022.8	65.05
1023.151	62.22
1023.501	85.43
1023.852	94.44
1024.202	115.14
1024.553	97.73
1024.903	133.76
1025.253	136.27
1025.604	128
1025.954	173.07
1026.304	181.44
1026.654	172.33
1027.004	212.69
1027.354	217.7
1027.703	295.74
1028.053	289.51
1028.403	638.62
1028.753	531.77
1029.102	189.73
1029.452	-2224.37
1029.801	-165.33
1030.15	-88.65
1030.499	-106.4
897.758	1608.03
901.051	1549.9
904.343	1578.46
907.636	1582.23
910.928	1627.37
914.22	1569.44
917.511	1573.82
920.803	1607.19
924.094	1599.31
927.384	1606.65
930.675	1576.88
933.965	1553.97
937.255	1580.9
940.544	1559.64
943.834	1556.03
947.123	1513.38
950.411	1577.88
953.7	1565.56
956.988	1558.03
960.276	1504.52
963.563	1533.35
966.851	1543.31
970.138	1569.01
973.424	1570.65
976.711	1531.28
979.997	1565.23
983.283	1595.24
986.568	1548.76
989.853	1535.63
993.138	1551.07
996.423	1619.48
999.708	1590.72
1002.992	1610.4
1006.275	1545.18
1009.559	1546.04
1012.842	1616.74
1016.125	1585.51
1019.408	1568.76
1022.69	1603.02
1025.972	1628.27
1029.254	1611.12
1032.536	1586.31
1035.817	1590.63
1039.098	1568.87
1042.379	1601.64
1045.659	1620.43
1048.939	1583.01
1052.219	1582.6
1055.498	1576.06
1058.778	1569.59
1062.057	1552.89
1065.335	1571.4
1068.614	1576.53
1071.892	1570.52
1075.17	1606.1
1078.447	1612.68
1081.724	1607.46
1085.001	1622.52
1088.278	1606.39
1091.554	1606.8
1094.83	1607.18
1098.106	1629.24
1101.382	1648.03
1104.657	1644.84
1107.932	1646.29
1111.206	1631.85
1114.481	1592.28
1117.755	1597.13
1121.029	1591.36
1124.302	1633.39
1127.575	1613.12
1130.848	1611.36
1134.121	1591.74
1137.393	1562.04
1140.665	1602.83
1143.937	1586.77
1147.208	1551.38
1150.48	1595.64
1153.75	1583.1
1157.021	1585.45
1160.291	1570.34
1163.561	1606.49
1166.831	1580.13
1170.101	1596.22
1173.37	1568.58
1176.639	1541.59
1179.907	1572.38
1183.176	1586.57
1186.444	1589.74
1189.711	1605.12
1192.979	1622.25
1196.246	1591.88
1199.513	1601.65
1202.78	1605.84
1206.046	1611.96
1209.312	1631.21
1212.578	1638.92
1215.843	1613.98
1219.108	1593.83
1222.373	1609.83
1225.638	1592.16
1228.902	1586.08
1232.166	1556.8
1235.43	1550.9
1238.693	1572.09
1241.956	1567.22
1245.219	1603.85
1248.482	1594.23
1251.744	1596.42
1255.006	1677.95
1258.268	1637.69
1261.529	1613.24
1264.79	1611.35
1268.051	1678.21
1271.312	1680.8
1274.572	1656.9
1277.832	1647.08
1281.092	1631.51
1284.351	1626.78
1287.61	1616.57
1290.869	1575.18
1294.128	1576.77
1297.386	1602.77
1300.644	1598.37
1303.902	1605.7
1307.159	1515.36
1310.416	1549.75
1313.673	1569.44
1316.93	1571.43
1320.186	1588.92
1323.442	1610.58
1326.697	1612.57
1329.953	1591.67
1333.208	1619.44
1336.463	1601.27
1339.717	1577.65
1342.972	1651.28
1346.226	1634.28
1349.479	1607.3
1352.733	1592.84
1355.986	1599.25
1359.238	1586.86
1362.491	1587.08
1365.743	1588.67
1368.995	1586.22
1372.247	1598.19
1375.498	1609.63
1378.749	1643.33
1382	1611.98
1385.251	1629.74
1388.501	1599.64
1391.751	1601.44
1395	1581.9
1398.25	1603.23
1401.499	1625.64
1404.748	1590.4
1407.996	1577.94
1411.244	1575.63
1414.492	1565.1
1417.74	1552.68
1420.987	1560.3
1424.234	1603.1
1427.481	1574.75
1430.728	1612.62
1433.974	1598.63
1437.22	1593.65
1440.465	1589.13
1443.711	1592.73
1446.956	1604.95
1450.201	1582.97
1453.445	1616.53
1456.689	1606.22
1459.933	1613.76
1463.177	1643.1
1466.42	1625.79
1469.663	1608.59
1472.906	1621.81
1476.148	1655.88
1479.391	1622.43
1482.633	1608.36
1485.874	1626.68
1489.115	1630.84
1492.356	1617.73
1495.597	1600.71
1498.838	1593.09
1502.078	1585.37
1505.318	1571.45
1508.557	1589.13
1511.797	1586.29
1515.036	1627.52
1518.274	1598.17
1521.513	1557.68
1524.751	1564.45
1527.989	1579.71
1531.227	1592.69
1534.464	1598.51
1537.701	1588.27
1540.938	1593.51
1544.174	1557.2
1547.41	1546.35
1550.646	1570.81
1553.882	1604.74
1557.117	1649.93
1560.352	1651.36
1563.587	1622.14
1566.821	1600.89
1570.055	1613.07
1573.289	1594.7
1576.523	1631.8
1579.756	1641.56
1582.989	1656.96
1586.222	1623.91
1589.454	1647.74
1592.686	1637.54
1595.918	1655.19
1599.15	1655.03
1602.381	1683.46
1605.612	1672.06
1608.843	1738.62
1612.073	1684.27
1615.303	1677.29
1618.533	1675.98
1621.762	1676.86
1624.992	1653.93
1628.221	1652.4
1631.449	1647.03
1634.678	1663.45
1637.906	1640.21
1641.134	1654.78
1644.361	1631.67
1647.588	1624.24
1650.815	1643.14
1654.042	1612.79
1657.269	1633.01
1660.495	1621.72
1663.72	1608.2
1666.946	1584.45
1670.171	1572.24
1673.396	1552.48
1676.621	1540.57
1679.845	1536.3
1683.069	1538.77
1686.293	1556.86
1689.517	1555.77
1692.74	1525.67
1695.963	1538.9
1699.185	1569.98
1702.408	1551.82
1705.63	1570.77
1708.852	1584.65
1712.073	1561.59
1715.294	1575.89
1718.515	1610.66
1721.736	1580.59
1724.956	1568.31
1728.176	1583.73
1731.396	1599.45
1734.616	1591.56
1737.835	1623.6
1741.054	1598.39
1744.272	1594.05
1747.491	1628.39
1750.709	1640.42
1753.927	1608.94
1757.144	1628.44
1760.361	1666.37
1763.578	1645.95
1766.795	1610.73
1770.011	1600.8
1773.227	1615.11
1776.443	1647.26
1779.658	1677.29
1782.874	1635.25
1786.089	1630.75
1789.303	1631.29
1792.518	1629.09
1795.732	1622.53
1798.945	1633.21
1802.159	1665.26
1805.372	1628.58
1808.585	1625.86
1811.797	1626.22
1815.01	1641.67
1818.222	1663.4
1821.434	1631.49
1824.645	1659.03
1827.856	1667.51
1831.067	1688.27
1834.278	1646.13
1837.488	1632.86
1840.698	1717.84
1843.908	1683.42
1847.117	1665.01
1850.326	1616.84
1853.535	1654.39
1856.744	1685.63
1859.952	1633.29
1863.16	1635.43
1866.368	1650.16
1869.575	1733.05
1872.782	1652.34
1875.989	1608.25
1879.196	1639.61
1882.402	1635.9
1885.608	1658.82
1888.814	1623.92
1892.019	1563.61
1895.224	1605.2
1898.429	1580.39
1901.634	1568.55
1904.838	1552.83
1908.042	1595.56
1911.246	1610.08
1914.449	1587.82
1917.652	1570.08
1920.855	1558.89
1924.058	1574.23
1927.26	1609.98
1930.462	1623.49
1933.664	1653.01
1936.865	1614.93
1940.066	1625.75
1943.267	1586.98
1946.467	1592.41
1949.668	1601.11
1952.868	1655.03
1956.067	1651.6
1959.267	1606.98
1962.466	1623.81
1965.665	1609.69
1968.863	1608.3
1972.061	1603.88
1975.259	1597.57
1978.457	1652.7
1981.654	1621.6
1984.852	1624.42
1988.048	1594.9
1991.245	1581.77
1994.441	1646.69
1997.637	1610.06
2000.833	1597.33
2004.028	1620.94
2007.223	1672.09
2010.418	1663.21
2013.613	1625.7
2016.807	1625.91
2020.001	1621.78
2023.194	1633.73
2026.388	1624.14
2029.581	1583.58
2032.774	1630.66
2035.966	1639.05
2039.158	1600.87
2042.35	1613.06
2045.542	1561.52
2048.733	1618.18
2051.924	1604.67
2055.115	1614.68
2058.306	1593.35
2061.496	1629.53
2064.686	1664.54
2067.875	1594.94
2071.065	1594.25
2074.254	1606.36
2077.442	1573.94
2080.631	1631.78
2083.819	1588.86
2087.007	1584.66
2090.195	1574.71
2093.382	1582.64
2096.569	1575.82
2099.756	1547.53
2102.942	1589.13
2106.128	1597.65
2109.314	1590.66
2112.5	1582.16
2115.685	1557.18
2118.87	1562.77
2122.055	1610.62
2125.239	1597.34
2128.424	1587.64
2131.608	1622.17
2134.791	1611.1
2137.974	1635.77
2141.157	1629.23
2144.34	1611.67
2147.523	1600.2
2150.705	1625.26
2153.887	1596.85
2157.068	1580.22
2160.25	1560.75
2163.431	1579.66
2166.611	1561.41
2169.792	1578.97
2172.972	1513.01
2176.152	1550.15
2179.331	1568
2182.511	1571.67
2185.69	1583.77
2188.868	1588.37
2192.047	1610.4
2195.225	1632.38
2198.403	1589.55
2201.58	1577.2
2204.758	1564.63
2207.935	1618.25
2211.111	1562.75
2214.288	1552.25
2217.464	1576.2
2220.64	1545.89
2223.815	1581.79
2226.991	1533.36
2230.166	1541.7
2233.34	1575.16
2236.515	1586.68
2239.689	1634.67
2242.863	1598.85
2246.036	1633.86
2249.209	1622.58
2252.382	1636.19
2255.555	1643.01
2258.727	1612.03
2261.9	1630.65
2265.071	1626.27
2268.243	1626.25
2271.414	1590.73
2274.585	1580.12
2277.756	1624.03
2280.926	1594.05
2284.096	1610.99
2287.266	1563.53
2290.436	1599.62
2293.605	1609.14
2296.774	1638.86
2299.942	1642.02
2303.111	1652.55
2306.279	1690.76
2309.447	1681.16
2312.614	1664.13
2315.781	1679.11
2318.948	1663.91
2322.115	1691.44
2325.281	1611.49
2328.447	1617.18
2331.613	1594.62
2334.779	1590.48
2337.944	1587.62
2341.109	1588.33
2344.274	1580.37
2347.438	1555.93
2350.602	1572.43
2353.766	1578.23
2356.929	1571.72
2360.092	1601.79
2363.255	1580.31
2366.418	1563.05
2369.58	1593.96
2372.742	1565.34
2375.904	1549.02
2379.066	1544.03
2382.227	1559.51
2385.388	1532.78
2388.548	1504.3
2391.709	1528.18
2394.869	1525.65
2398.029	1556.95
2401.188	1547.18
2404.347	1534.05
2407.506	1535.27
2410.665	1577.29
2413.823	1559.31
2416.981	1548.77
2420.139	1559.38
2423.296	1586.47
2426.453	1566.74
2429.61	1584.06
2432.767	1571.78
2435.923	1600.11
2439.079	1556.31
2442.235	1580.21
2445.391	1537.23
2448.546	1572.82
2451.701	1596.35
2454.855	1594.27
2458.009	1610.23
2461.163	1600.99
2464.317	1577.23
2467.471	1595.65
2470.624	1617.21
2473.777	1612.28
2476.929	1624.97
2480.082	1640.87
2483.234	1626.61
2486.385	1581.11
2489.537	1576.55
2492.688	1574.57
2495.839	1590.69
2498.989	1601.28
2502.14	1590.47
2505.29	1584.91
2508.439	1604.65
2511.589	1564.25
2514.738	1562.19
2517.887	1572.32
2521.035	1630.85
2524.183	1597.1
2527.331	1589.95
2530.479	1585.01
2533.627	1587.4
