Data from N_1_DEC_CT_2N_Splice17_11-34-21-246.txt Node
Date: Sat Mar 14 11:34:21 EDT 2020
User: sa697716
Spectrometer: FLMS03696
Trigger mode: 0
Integration Time (sec): 3.180400E-1
Scans to average: 20
Electric dark correction enabled: true
Nonlinearity correction enabled: true
Boxcar width: 5
XAxis mode: Wavelengths
Number of Pixels in Spectrum: 2048
>>>>>Begin Spectral Data<<<<<
187.83	-151017.69
188.298	1177.68
188.766	642.44
189.233	575.08
189.701	741.75
190.169	1044.72
190.636	384.81
191.104	274.7
191.571	-28.92
192.039	-96.31
192.506	-184.29
192.974	209.6
193.441	-331.31
193.908	-266.33
194.375	-64.26
194.842	-53.74
195.31	-25.81
195.777	64.69
196.244	278.93
196.711	530.36
197.177	749.93
197.644	1162.06
198.111	2061.48
198.578	2913.89
199.045	2389.06
199.511	3906.81
199.978	4550.85
200.445	3846.19
200.911	4271.12
201.378	4812.36
201.844	4268.31
202.31	7275.67
202.777	7459.2
203.243	4113.2
203.709	3892.28
204.176	4580.14
204.642	3757.32
205.108	3493.68
205.574	2836.22
206.04	2616.96
206.506	2443
206.972	2315.56
207.438	2216.02
207.903	2524.2
208.369	2184.5
208.835	2156.79
209.301	2231.84
209.766	2265.37
210.232	2220.78
210.697	2719.35
211.163	3309.24
211.628	4941.62
212.094	4086.68
212.559	4895.15
213.024	2972.43
213.49	3571.29
213.955	3444.42
214.42	3372.12
214.885	3086.34
215.35	2892.6
215.815	2692.01
216.28	2772.34
216.745	2180.69
217.21	2251.21
217.675	1958.87
218.14	2055.78
218.604	2118.59
219.069	2217.9
219.534	2120.29
219.998	2259.09
220.463	2516.11
220.927	2812.03
221.392	2421.71
221.856	2267.88
222.32	2625.14
222.785	3034.23
223.249	3576.54
223.713	3754.12
224.177	3542.6
224.642	4305.66
225.106	5047.41
225.57	5266.18
226.034	3807.18
226.497	5593.38
226.961	4894.2
227.425	5575.36
227.889	5970.8
228.353	5773.21
228.816	11579.21
229.28	10852.8
229.744	8855.46
230.207	5279.9
230.671	5060.28
231.134	8069.23
231.597	9101.43
232.061	8842.9
232.524	8342.88
232.987	5645.95
233.45	4979.1
233.914	4376.54
234.377	4350.23
234.84	3907
235.303	4491.49
235.766	4939.04
236.229	5055.92
236.691	3131.86
237.154	3466.45
237.617	2605.6
238.08	2630.99
238.542	3074.56
239.005	2193.88
239.468	2190.84
239.93	2061.62
240.393	1886.95
240.855	1662.35
241.317	1676.28
241.78	2034.35
242.242	2094.75
242.704	2257.41
243.166	1963.57
243.629	1796.45
244.091	2057.09
244.553	2227.74
245.015	2383.9
245.477	3049.31
245.939	4393.82
246.4	4647.77
246.862	4492.04
247.324	4221.84
247.786	4670.61
248.247	6069.06
248.709	6110.33
249.17	4579.23
249.632	4355.39
250.093	5073.6
250.555	4359.38
251.016	2683.58
251.477	2545.7
251.939	2742.67
252.4	2857.6
252.861	3369.21
253.322	3176.25
253.783	3775.45
254.244	4863.84
254.705	3801.04
255.166	3343.43
255.627	3282.34
256.088	4637.81
256.549	4934.5
257.009	4214.74
257.47	5159.62
257.931	4183.48
258.391	3117.24
258.852	3214.43
259.312	3348.4
259.773	4051.39
260.233	3429.73
260.694	2871.95
261.154	3197.32
261.614	2574.26
262.074	2270.03
262.534	2323.36
262.994	2183.32
263.455	2842.14
263.915	2359.32
264.374	2179.72
264.834	2366.98
265.294	2564.73
265.754	2652.85
266.214	2485.64
266.673	2275.38
267.133	2847.31
267.593	2786.45
268.052	3355.21
268.512	2885.75
268.971	3511.22
269.431	3841.21
269.89	3434.04
270.349	5144.97
270.809	5706.97
271.268	5105.58
271.727	11334.07
272.186	7321.57
272.645	5487.51
273.104	3934.61
273.563	5680.09
274.022	4401.5
274.481	3794.63
274.94	2943.6
275.399	2189.02
275.857	2523.61
276.316	3419.71
276.775	3072.01
277.233	3068.82
277.692	2919.64
278.15	3368.17
278.609	3547.75
279.067	3314.78
279.525	3113.94
279.984	4041.15
280.442	4947.21
280.9	5001.66
281.358	3358.73
281.816	3179.83
282.274	3125.61
282.732	3249.13
283.19	3281.91
283.648	2861.24
284.106	3083.74
284.564	3147.65
285.021	2965.11
285.479	2231.82
285.937	2034.68
286.394	1821
286.852	1874.56
287.309	2008.91
287.767	1985.63
288.224	1924.19
288.682	2101.77
289.139	2324.36
289.596	2151.75
290.053	2219.81
290.511	2750
290.968	3339.08
291.425	4456.94
291.882	3749.99
292.339	3235.68
292.796	3133.29
293.252	2916.9
293.709	2339.01
294.166	2087.46
294.623	2275.33
295.079	2168.26
295.536	2204.98
295.992	1991.43
296.449	1954.66
296.905	2030.35
297.362	1959.66
297.818	2060.97
298.274	2139.3
298.731	2153.53
299.187	2132.62
299.643	2287.7
300.099	2787.88
300.555	3055.54
301.011	2595.92
301.467	2567.42
301.923	2980.73
302.379	2931.69
302.835	2921.27
303.291	2941.92
303.746	3376.79
304.202	4289.98
304.658	4359.35
305.113	2956.4
305.569	2928.25
306.024	3089.8
306.479	2922.82
306.935	2513.75
307.39	2756.59
307.845	2556.74
308.301	2607.85
308.756	2560.87
309.211	2496.83
309.666	2566.75
310.121	3242.77
310.576	3310.29
311.031	3328.27
311.486	3853.23
311.94	3842.5
312.395	5150.09
312.85	9737.43
313.305	47993.73
313.759	254455.02
314.214	18660.25
314.668	15022.64
315.123	12806.71
315.577	4670.85
316.032	4192.27
316.486	5234.65
316.94	4180.99
317.394	2933.41
317.849	2296.15
318.303	2170.51
318.757	2051.63
319.211	2250.44
319.665	1969.86
320.119	1975.58
320.572	2803.68
321.026	2630.14
321.48	2200.16
321.934	2387.16
322.387	2388.09
322.841	2584.83
323.295	2347.94
323.748	2670.46
324.202	2714.83
324.655	3266.79
325.108	4618.07
325.562	3273.26
326.015	3867.37
326.468	2946.85
326.921	3316.99
327.374	3134.96
327.827	3308.41
328.28	3748.4
328.733	2551.91
329.186	2269.67
329.639	2177.94
330.092	1839.51
330.545	1780.7
330.997	1829.68
331.45	2022.24
331.903	2414.47
332.355	4149.02
332.808	4004.76
333.26	3349.51
333.713	3665.75
334.165	3729.3
334.617	4998.07
335.069	4033.24
335.522	7305.97
335.974	8080.11
336.426	7445.13
336.878	5128.8
337.33	2629.14
337.782	2583.5
338.234	3278.81
338.686	3912.56
339.137	4614.19
339.589	4337.95
340.041	3439.92
340.493	2952.18
340.944	3033.92
341.396	3257.14
341.847	2767.76
342.299	3287.28
342.75	4064.42
343.201	3517.03
343.653	4026.9
344.104	4950.97
344.555	3911.33
345.006	5955.92
345.457	4609.98
345.908	3635.72
346.359	3425.36
346.81	2756.43
347.261	2887.11
347.712	2811.1
348.163	3005.45
348.613	3075.49
349.064	2892.04
349.515	2527.26
349.965	2633.07
350.416	3157.49
350.866	3472.54
351.317	3894.34
351.767	6476.47
352.217	8125.11
352.668	6763.09
353.118	6173.22
353.568	5925.73
354.018	4681.88
354.468	4990.76
354.918	3587.46
355.368	3151.88
355.818	4446.71
356.268	12735.83
356.718	54011.96
357.168	13727.73
357.617	6945.26
358.067	7791.66
358.517	7320.23
358.966	8693.27
359.416	9822.75
359.865	10675.69
360.315	12689.64
360.764	5988.91
361.213	3400.65
361.663	3224.15
362.112	3959.63
362.561	6371.76
363.01	4816.9
363.459	4097.31
363.908	4412.61
364.357	3787.85
364.806	6376.54
365.255	4393.6
365.703	4084.88
366.152	4150.88
366.601	3366.8
367.05	2758.9
367.498	2543.5
367.947	2653.6
368.395	2759.53
368.844	2473.22
369.292	2966.47
369.74	2091.52
370.189	3198.32
370.637	3754.09
371.085	3230.92
371.533	3963.34
371.981	3822.17
372.429	3672.81
372.877	3848.03
373.325	3225.99
373.773	3270.76
374.221	2916.24
374.669	3578.64
375.116	3119.95
375.564	3135.58
376.012	3513.51
376.459	2896.74
376.907	3448.75
377.354	4148.46
377.801	3920.02
378.249	4569.88
378.696	5884.05
379.143	7168.42
379.591	7763.99
380.038	13129.29
380.485	9603.56
380.932	10507.63
381.379	9820.28
381.826	7442.37
382.273	5395.11
382.72	4793.64
383.166	4753.55
383.613	3179.53
384.06	2954.36
384.506	3535.49
384.953	2721.01
385.4	2862.27
385.846	2645.08
386.292	2739.52
386.739	2862.73
387.185	3057.07
387.631	3331.04
388.078	3554.81
388.524	4124.74
388.97	4115.53
389.416	3639.69
389.862	4061.71
390.308	4037.34
390.754	4346.78
391.2	5089.59
391.645	5688.98
392.091	5948.34
392.537	6222.12
392.983	6641.21
393.428	6874.98
393.874	7794.98
394.319	8494.07
394.765	8944.66
395.21	10322.43
395.655	10814.74
396.101	11194.85
396.546	11081.06
396.991	12255.12
397.436	12446.18
397.881	13181.8
398.326	13766.45
398.771	14216.46
399.216	13503.63
399.661	13055.04
400.106	13785.43
400.551	14860
400.995	13966.16
401.44	14375.91
401.885	13969.95
402.329	14538.02
402.774	14293.65
403.218	14100.29
403.663	13943.16
404.107	14693.7
404.551	15201.6
404.995	14395.66
405.44	14365.19
405.884	15068.72
406.328	15043.94
406.772	15406.83
407.216	14417.87
407.66	14399.25
408.104	14252.15
408.547	13818.42
408.991	13787.22
409.435	13638.42
409.879	13724.17
410.322	13803.51
410.766	13590.1
411.209	13203.6
411.653	13025.72
412.096	13072.99
412.54	13395.72
412.983	13547.77
413.426	13787.9
413.869	14028.94
414.312	13971.39
414.756	13713.94
415.199	13317.06
415.642	13127.5
416.085	13327.58
416.527	13406.12
416.97	13794.72
417.413	13197.7
417.856	13197.01
418.298	13155.43
418.741	13118.53
419.184	13144.42
419.626	13757.52
420.069	13796.65
420.511	13921.41
420.953	13689.96
421.396	13652.76
421.838	13423.45
422.28	13831.2
422.722	13988.19
423.164	14386.64
423.606	14325.9
424.048	14533.58
424.49	13957.46
424.932	14065.99
425.374	14044.29
425.816	14380.8
426.258	14589.93
426.699	14552.56
427.141	14015.32
427.582	13991.92
428.024	13764.79
428.465	13734.28
428.907	13543.67
429.348	13643.38
429.789	13842.33
430.231	13682.39
430.672	14042.47
431.113	13987.3
431.554	14240.51
431.995	14534.06
432.436	14582.4
432.877	14764.75
433.318	14850.12
433.759	15090.45
434.2	15299.11
434.64	15339.76
435.081	15609.41
435.522	15033.27
435.962	14783.92
436.403	14682.97
436.843	15146.01
437.284	15065.53
437.724	14867.51
438.164	15137.62
438.604	14954.95
439.045	14520.3
439.485	14089.46
439.925	14042.83
440.365	13938.97
440.805	13951.89
441.245	13931.2
441.685	13515.98
442.125	13529.55
442.564	13686.06
443.004	13402.48
443.444	13440.51
443.883	13547.97
444.323	13622.29
444.762	13829.37
445.202	14141.22
445.641	14446.43
446.081	14526.64
446.52	14762.63
446.959	14738.57
447.398	14517.62
447.837	14538.13
448.276	14454.25
448.716	14711.92
449.154	14912.68
449.593	14505.21
450.032	14424.27
450.471	14215.43
450.91	14230.5
451.349	14138.56
451.787	14062.64
452.226	14235.1
452.664	14174.99
453.103	14140.53
453.541	14117.36
453.98	14006.01
454.418	14123.41
454.856	13857.38
455.295	13790.47
455.733	13821.95
456.171	13873.88
456.609	13810.73
457.047	13768.57
457.485	13881.39
457.923	13846.12
458.361	13639.95
458.798	13703.86
459.236	13679.72
459.674	13850.22
460.111	13957.19
460.549	13868.28
460.987	13895.41
461.424	13933.35
461.862	13916.05
462.299	13776.24
462.736	13798.96
463.173	13892.61
463.611	13703.94
464.048	13689.65
464.485	13844.61
464.922	13815.39
465.359	13873.7
465.796	13589.28
466.233	13587.52
466.67	13521.72
467.106	13569.91
467.543	13589.79
467.98	13565.15
468.416	13446.26
468.853	13549.7
469.29	13318.27
469.726	13310.19
470.162	13077.11
470.599	13224.1
471.035	13259.22
471.471	13102.06
471.907	13206.38
472.344	13232.33
472.78	13311.01
473.216	13541.2
473.652	13389.07
474.088	13395.29
474.523	13364.6
474.959	13518.17
475.395	13408.02
475.831	13301.97
476.266	13371.8
476.702	13328.85
477.138	13159.12
477.573	13108.61
478.008	13028.19
478.444	13036.35
478.879	13069.24
479.314	13060.32
479.75	12980.64
480.185	12977.81
480.62	13016.79
481.055	12981.92
481.49	12938.19
481.925	12970.48
482.36	12930.75
482.795	13049.37
483.229	13140.37
483.664	13155.29
484.099	12992.03
484.534	12987.1
484.968	12932.14
485.403	12830.07
485.837	12707.85
486.271	12588.67
486.706	12549.2
487.14	12448.22
487.574	12274.88
488.009	12203.42
488.443	12115.49
488.877	12185.15
489.311	12184
489.745	12263.36
490.179	12303.67
490.613	12418.99
491.046	12463.49
491.48	12486.09
491.914	12426.58
492.348	12451.75
492.781	12462.63
493.215	12457.3
493.648	12480.33
494.082	12545.21
494.515	12501.99
494.948	12565.35
495.382	12612.52
495.815	12611.91
496.248	12615.42
496.681	12752.66
497.114	12863.66
497.547	12921.82
497.98	12995.28
498.413	12933.05
498.846	12951.28
499.279	12984.53
499.711	12967.12
500.144	12905.7
500.577	12938.89
501.009	13004.37
501.442	13024.76
501.874	12926.74
502.306	12892.8
502.739	12899.83
503.171	13084.9
503.603	13060.98
504.036	13110.8
504.468	13082.64
504.9	13135.9
505.332	13141.2
505.764	13095.32
506.196	13099.68
506.627	13189.26
507.059	13239.62
507.491	13273.45
507.923	13086.4
508.354	13149.79
508.786	13158.78
509.217	13262.34
509.649	13316.1
510.08	13418.73
510.512	13458.04
510.943	13480.87
511.374	13454.81
511.805	13540.61
512.237	13618.79
512.668	13853.19
513.099	13987.84
513.53	14074.97
513.961	14058.25
514.391	14175.59
514.822	14279.75
515.253	14448.5
515.684	14505.74
516.114	14620.3
516.545	14639.94
516.975	14719.03
517.406	14708.98
517.836	14572.13
518.267	14497.64
518.697	14546.76
519.127	14465.15
519.558	14412.7
519.988	14312.36
520.418	14274.52
520.848	14284.83
521.278	14202.87
521.708	13798.25
522.138	13755.75
522.567	13874.86
522.997	13933.44
523.427	13909.8
523.857	13888.31
524.286	13829.86
524.716	13816.66
525.145	13830
525.575	13792.71
526.004	13796.66
526.433	13969.86
526.863	13863.29
527.292	13666.59
527.721	13619.96
528.15	13596.85
528.579	13531.14
529.008	13549.93
529.437	13665.94
529.866	13705.96
530.295	13768.73
530.724	13779.29
531.152	13913.61
531.581	13942.75
532.01	14020.69
532.438	14026.34
532.867	14083.22
533.295	14170.74
533.723	14165.61
534.152	14098.57
534.58	14049.8
535.008	13890.91
535.436	13866.26
535.865	13895.18
536.293	13980.52
536.721	14069.56
537.149	14224.14
537.576	14208.84
538.004	14287.34
538.432	14336.44
538.86	14311.9
539.287	14363.55
539.715	14459.97
540.143	14498.97
540.57	14483.08
540.998	14477.23
541.425	14303.63
541.852	14182.94
542.28	14204.97
542.707	14119.21
543.134	14040.96
543.561	14037.66
543.988	14009.9
544.415	14044.25
544.842	14035.67
545.269	14006.03
545.696	14039.73
546.123	14190.6
546.549	14137.63
546.976	14060.99
547.403	14079.58
547.829	14128.05
548.256	14182.92
548.682	14182.88
549.108	14148.61
549.535	14177.85
549.961	14224.34
550.387	14150.11
550.813	14120.53
551.24	14199.18
551.666	14236.99
552.092	14184.84
552.518	14163
552.943	14126.02
553.369	14217.76
553.795	14290.54
554.221	14309.32
554.646	14303.48
555.072	14383.3
555.498	14444.68
555.923	14526.71
556.349	14651.8
556.774	14729.87
557.199	14743.88
557.625	14822.4
558.05	14774.26
558.475	14864.47
558.9	14863.28
559.325	14800.08
559.75	14770.51
560.175	14731.89
560.6	14698.77
561.025	14691.9
561.449	14710.17
561.874	14757.93
562.299	14774.94
562.723	14836.54
563.148	14745.23
563.572	14772.64
563.997	14849.58
564.421	14887.26
564.846	14880.54
565.27	14882.27
565.694	14848.78
566.118	14910.16
566.542	14940.12
566.966	14865.02
567.39	14792.98
567.814	14680.86
568.238	14661.17
568.662	14689.83
569.086	14702.03
569.509	14772.55
569.933	14658.39
570.357	14634.15
570.78	14507.59
571.204	14439.51
571.627	14418.49
572.05	14481.9
572.474	14557.93
572.897	14553.68
573.32	14585.75
573.743	14625.66
574.166	14569.76
574.589	14697.35
575.012	14744.62
575.435	14869.05
575.858	14924.28
576.281	14963.77
576.704	14963.3
577.126	15003.02
577.549	15033.29
577.972	15087.49
578.394	15113.67
578.817	15154.76
579.239	15110.15
579.661	15105.46
580.084	15052.9
580.506	15046.89
580.928	15119.96
581.35	15117.9
581.772	15161.74
582.194	15109.49
582.616	15050.37
583.038	14983.2
583.46	14961.56
583.882	14980.08
584.303	15078.15
584.725	15091.75
585.147	15066.34
585.568	15142.93
585.99	15203.23
586.411	15201.17
586.833	15292.28
587.254	15272.48
587.675	15393.1
588.096	15501.55
588.518	15433.99
588.939	15251.6
589.36	15221.69
589.781	15207.6
590.202	14942.47
590.623	14932.36
591.043	14993.01
591.464	14918.99
591.885	14910
592.305	14872.48
592.726	14749.94
593.147	14767.59
593.567	14721.08
593.987	14645.07
594.408	14583.84
594.828	14585.71
595.248	14491.42
595.669	14269.67
596.089	14182.27
596.509	14109.48
596.929	13944.06
597.349	13911.54
597.769	13772.2
598.189	13658.08
598.608	13619.47
599.028	13581.4
599.448	13538.56
599.867	13386.22
600.287	13326.54
600.706	13251.73
601.126	13122.06
601.545	13082.13
601.965	13055.51
602.384	12995.42
602.803	13018.08
603.222	12964.34
603.641	12908.69
604.061	12865.67
604.48	12833.04
604.898	12907.47
605.317	12960.47
605.736	12986.65
606.155	12956.78
606.574	12874.47
606.992	12928.62
607.411	12887.54
607.829	12835.49
608.248	12821.06
608.666	12825.64
609.085	12833.76
609.503	12771.2
609.921	12726.03
610.339	12764.61
610.758	12790.8
611.176	12770.67
611.594	12707.73
612.012	12706.57
612.43	12746.55
612.847	12826.29
613.265	12829.39
613.683	12885.61
614.101	12916.74
614.518	12916.1
614.936	12852.41
615.353	12738.7
615.771	12740.87
616.188	12775.73
616.606	12774.45
617.023	12749.74
617.44	12653.04
617.857	12655.2
618.274	12620.9
618.691	12589.74
619.108	12521.92
619.525	12481.54
619.942	12553.86
620.359	12579.13
620.776	12529.17
621.192	12470.29
621.609	12424.48
622.026	12455.01
622.442	12472.05
622.859	12479.93
623.275	12395.3
623.691	12431.07
624.108	12516.71
624.524	12633.58
624.94	12599.93
625.356	12665.52
625.772	12776.56
626.188	12874.29
626.604	12868.23
627.02	12808.52
627.436	12761.18
627.852	12789.66
628.268	12872.68
628.683	12766.62
629.099	12673.29
629.514	12641.38
629.93	12681.66
630.345	12727.07
630.761	12704.03
631.176	12754.26
631.591	12700.16
632.007	12661.22
632.422	12681.71
632.837	12605.6
633.252	12601.64
633.667	12535.98
634.082	12478.22
634.497	12385.68
634.911	12218.03
635.326	12226.45
635.741	12101.66
636.155	12062.25
636.57	12103.21
636.984	12135.56
637.399	12173.05
637.813	12223.13
638.228	12253.48
638.642	12339.76
639.056	12287.33
639.47	12349.59
639.884	12309.03
640.298	12297.44
640.712	12333.31
641.126	12275.54
641.54	12258.46
641.954	12305.59
642.368	12233.74
642.781	12178.08
643.195	12041.65
643.609	12081.69
644.022	12055.52
644.436	12039.26
644.849	11937.94
645.262	11843.08
645.676	11884.25
646.089	11835.08
646.502	11652.84
646.915	11618.93
647.328	11490.07
647.741	11501.76
648.154	11399.36
648.567	11369.61
648.98	11257.92
649.393	11306.56
649.805	11308.24
650.218	11272.44
650.631	11143.28
651.043	11127.23
651.456	11085.86
651.868	11109.68
652.28	11292.73
652.693	11393.04
653.105	11400.77
653.517	11404.71
653.929	11315.23
654.341	11306.03
654.753	11125.28
655.165	11182.17
655.577	11163.14
655.989	11144.74
656.401	11114.4
656.813	10778.43
657.224	10684.13
657.636	10547.35
658.047	10514.35
658.459	10459.42
658.87	10517.01
659.282	10513.33
659.693	10354.74
660.104	10258.58
660.515	10169.72
660.926	10207.74
661.338	10249.13
661.749	10238.33
662.159	10161.98
662.57	10175.78
662.981	10161.76
663.392	10098.69
663.803	10177.41
664.213	10189.9
664.624	10173.44
665.035	10245.63
665.445	10108.09
665.855	10029.12
666.266	9929.11
666.676	9920.96
667.086	9820.2
667.497	9806.05
667.907	9727.41
668.317	9606.94
668.727	9503.66
669.137	9510.27
669.547	9456
669.956	9475.41
670.366	9478.35
670.776	9474.93
671.186	9497.26
671.595	9498.98
672.005	9523.29
672.414	9471.12
672.824	9408.68
673.233	9480.62
673.642	9466.93
674.052	9458.68
674.461	9424.86
674.87	9446.07
675.279	9359.89
675.688	9355.44
676.097	9313.96
676.506	9225.17
676.915	9363.4
677.323	9352.73
677.732	9286.85
678.141	9239.9
678.549	9083.45
678.958	9048.19
679.366	9002.91
679.775	9040.14
680.183	9067.82
680.592	9096.76
681	9104.16
681.408	8964.19
681.816	8989.75
682.224	9023.93
682.632	9031.94
683.04	9248.13
683.448	9352.92
683.856	9449.34
684.264	9540.35
684.671	9616.36
685.079	9733.73
685.487	9885.1
685.894	10171.61
686.302	10337.21
686.709	10379.48
687.116	10488.07
687.524	10514.7
687.931	10533.86
688.338	10571.9
688.745	10615.63
689.152	10667.97
689.559	10772.26
689.966	10826.13
690.373	10709.94
690.78	10708.35
691.187	10859.62
691.593	10879.8
692	10860.7
692.407	10961.23
692.813	11121.93
693.22	11203.02
693.626	11324.09
694.032	11372.81
694.439	11587.56
694.845	11714.98
695.251	11934.66
695.657	12094.7
696.063	12430.97
696.469	12613.58
696.875	12753.01
697.281	12742.41
697.687	12751.43
698.093	12700.44
698.498	12827.39
698.904	12869.73
699.31	13057.88
699.715	13118.64
700.12	13356.6
700.526	13284.94
700.931	13465.31
701.337	13578.39
701.742	13629.37
702.147	13913.63
702.552	13968.54
702.957	14161.43
703.362	14187.95
703.767	14257.79
704.172	14397.94
704.577	14146.8
704.981	14293.04
705.386	14293.68
705.791	14197.76
706.195	14451.8
706.6	14429.44
707.004	14715.89
707.408	14541.87
707.813	14604.09
708.217	14505.08
708.621	14462.35
709.025	14806.39
709.43	14751.18
709.834	14949.56
710.237	15187.97
710.641	15076.51
711.045	15111.6
711.449	15022.7
711.853	15050.22
712.256	15146.66
712.66	15213.05
713.064	15391.16
713.467	15375.62
713.87	15565.68
714.274	15426.48
714.677	15468.88
715.08	15635.62
715.484	15776.27
715.887	15969.17
716.29	16140.71
716.693	16281.12
717.096	16504.4
717.499	16461.58
717.901	16265.75
718.304	16264.3
718.707	16424.06
719.109	16320.35
719.512	16477.26
719.915	16299.35
720.317	16352.1
720.719	16662.28
721.122	16735.83
721.524	16714.34
721.926	16649.8
722.328	16969.6
722.731	16853.98
723.133	16792.38
723.535	17214
723.937	17089.32
724.338	17091.45
724.74	17101.43
725.142	16692.05
725.544	16674.59
725.945	16717.51
726.347	16723.08
726.748	16716.07
727.15	16783.06
727.551	16673.82
727.952	16606.22
728.354	16543.43
728.755	16614.08
729.156	16609.25
729.557	16890.79
729.958	16676.55
730.359	16736.87
730.76	16902.31
731.161	16942.56
731.562	17087.82
731.962	17335.68
732.363	17324.75
732.763	17298.74
733.164	17584.94
733.564	17459.91
733.965	17209.14
734.365	17159.5
734.766	17307.74
735.166	17193.47
735.566	16993.58
735.966	16886
736.366	16856.85
736.766	16647.06
737.166	16784.22
737.566	16666.22
737.966	16605.87
738.365	16760.55
738.765	16741.36
739.165	16490.04
739.564	16416.15
739.964	16614.12
740.363	16500.18
740.763	16542.29
741.162	16528.18
741.561	16431.2
741.96	16286.62
742.36	16382.28
742.759	16428.79
743.158	16603.01
743.557	16675.34
743.955	16836.03
744.354	16677.54
744.753	16881.57
745.152	16719.65
745.55	16918.42
745.949	16885.91
746.348	16869.2
746.746	16910.76
747.144	16725.42
747.543	16614.36
747.941	16751.76
748.339	16463.04
748.737	16399.55
749.136	16325.36
749.534	16522.23
749.932	16375.6
750.33	16424.6
750.727	16600.16
751.125	16489.19
751.523	16431.2
751.921	16545.82
752.318	16407.28
752.716	16582.01
753.113	16605.75
753.511	16664.28
753.908	16630.15
754.305	16527.28
754.703	16705.04
755.1	16861.07
755.497	17001.03
755.894	17498.44
756.291	17778.67
756.688	18229.59
757.085	18655.88
757.482	19217.6
757.878	19601.46
758.275	19642.23
758.672	20148.03
759.068	20134.04
759.465	20477.85
759.861	20983.16
760.258	21561.72
760.654	21187.67
761.05	20258.28
761.447	19421.07
761.843	18742.47
762.239	18213.11
762.635	18437.55
763.031	18564.97
763.427	18296.81
763.822	18011.92
764.218	17800.95
764.614	17164.95
765.01	16979.42
765.405	17096.56
765.801	17293.76
766.196	17182.47
766.592	17345.75
766.987	17041.25
767.382	16917.1
767.778	17071.48
768.173	17007.6
768.568	17035.96
768.963	16831.46
769.358	17025.8
769.753	16983.21
770.148	16804.83
770.542	16877.38
770.937	16829.04
771.332	17149.97
771.726	17223.79
772.121	17004.53
772.515	17182.48
772.91	17136.82
773.304	17373.56
773.699	17165.32
774.093	17330
774.487	17485.82
774.881	17592.73
775.275	17547.44
775.669	17394.76
776.063	17520.71
776.457	17619.73
776.851	17345.94
777.245	17282.29
777.638	17342.5
778.032	17662.04
778.425	17503.04
778.819	17593.88
779.212	17416.28
779.606	17248.01
779.999	17266.74
780.392	17152.37
780.786	17361.61
781.179	17370.86
781.572	17447.85
781.965	17434.56
782.358	17198.87
782.751	17319.76
783.143	17109.57
783.536	17264.42
783.929	17324.48
784.322	17582.08
784.714	17592.77
785.107	17484.27
785.499	17595.58
785.891	17410.61
786.284	17224.16
786.676	17501.26
787.068	17288.88
787.46	17293.05
787.852	17220.12
788.245	17325.77
788.636	17286.42
789.028	17344.19
789.42	17324.33
789.812	17224.59
790.204	17386.14
790.595	17557.25
790.987	16953.53
791.378	16953.75
791.77	17241.7
792.161	17532.86
792.553	17604.19
792.944	17223.78
793.335	16957.6
793.726	17061.15
794.117	17219.34
794.508	17512.03
794.899	17373.23
795.29	17665.25
795.681	17734.73
796.072	17285.14
796.463	16666.54
796.853	16587.87
797.244	16886.56
797.634	16878.37
798.025	16785.31
798.415	16719.3
798.806	16812.11
799.196	16884.89
799.586	16855.6
799.976	16617.79
800.366	17026.36
800.756	17518.38
801.146	17305.11
801.536	17251.32
801.926	17318.39
802.316	17270.38
802.706	17339.62
803.095	16976.06
803.485	17127.88
803.874	17150.21
804.264	17654.2
804.653	17510.14
805.043	17723.7
805.432	17857.04
805.821	17742.45
806.21	17647.31
806.599	17758.7
806.988	17681.96
807.377	17722
807.766	17779.69
808.155	18130.67
808.544	17352.93
808.933	17128.52
809.321	16826.7
809.71	17117.6
810.098	17094.65
810.487	17600.27
810.875	18066.92
811.264	17660.65
811.652	17671.93
812.04	17424.11
812.428	17182.93
812.816	17860.88
813.204	17929
813.592	18168.81
813.98	18103.98
814.368	17477.96
814.756	17690.77
815.144	17177.55
815.531	17448.16
815.919	17084.34
816.306	17234.62
816.694	16672.16
817.081	16659.07
817.469	17100.92
817.856	17192.22
818.243	17620.24
818.63	18191
819.017	17667.49
819.404	17646.02
819.791	17897.43
820.178	18384.31
820.565	18465.28
820.952	19405.85
821.339	18665.86
821.725	18731.67
822.112	17655.65
822.498	17404.28
822.885	17372.43
823.271	17174.42
823.657	17711.93
824.044	17853.43
824.43	18049.61
824.816	18032.61
825.202	17462.53
825.588	18476.61
825.974	18283.65
826.36	18643.58
826.746	18465.75
827.132	18635.75
827.517	18380.45
827.903	17298.42
828.289	17132.23
828.674	16157.2
829.06	15927.66
829.445	16229.25
829.83	16487.42
830.216	16855.05
830.601	17105.11
830.986	16601.12
831.371	16393.97
831.756	16879.05
832.141	16405.36
832.526	16346.16
832.911	16588.17
833.295	16450.87
833.68	16896.94
834.065	16288.94
834.449	15414.88
834.834	15358.73
835.218	15352.03
835.603	15670.44
835.987	15433.89
836.371	16213.96
836.755	16097.01
837.139	16456.77
837.524	16649.45
837.908	16421.55
838.291	16422.36
838.675	16423.98
839.059	16561.06
839.443	16486.91
839.827	16201.67
840.21	16593.17
840.594	16368.89
840.977	16459.97
841.361	16345.96
841.744	16603.79
842.127	16380.44
842.511	16528.27
842.894	16991.26
843.277	17258.42
843.66	17660.83
844.043	17645.95
844.426	16838.18
844.809	16492.72
845.191	16449.13
845.574	15971.44
845.957	15574.3
846.339	15364.34
846.722	14775.02
847.104	14686.13
847.487	14394.56
847.869	14273.91
848.252	14377.8
848.634	14520.48
849.016	14603.12
849.398	14583.24
849.78	15140.29
850.162	15006.33
850.544	15180.13
850.926	15487.52
851.307	15228.13
851.689	15244.29
852.071	15406.59
852.452	15488.5
852.834	15338.93
853.215	15503.38
853.597	15492.86
853.978	15594.47
854.359	15837.54
854.741	15111.85
855.122	15079.1
855.503	14935.65
855.884	15100.53
856.265	15096.29
856.646	15186.56
857.026	14891.6
857.407	14822.49
857.788	14900.07
858.169	15057.11
858.549	14388.52
858.93	14766.87
859.31	14733.73
859.69	14812.32
860.071	14451.41
860.451	14225.78
860.831	13650.97
861.211	14372.01
861.591	14663.42
861.971	14552.93
862.351	14568.66
862.731	14675.49
863.111	14664.81
863.491	14679.39
863.87	15033.63
864.25	15069.09
864.629	14639.69
865.009	14787
865.388	15152.4
865.768	16069.09
866.147	15861.85
866.526	14888.37
866.905	15025.53
867.284	15870.72
867.663	15081.13
868.042	14470.79
868.421	14416.62
868.8	14642.32
869.179	14769.63
869.558	13887.73
869.936	12782.44
870.315	12975.72
870.693	13249.15
871.072	14240.7
871.45	13510.6
871.828	13625.23
872.207	14264.26
872.585	13980.87
872.963	14286.81
873.341	13717.71
873.719	13492.61
874.097	13269.88
874.475	13469.87
874.853	13718.17
875.23	13089.24
875.608	13574.9
875.986	14621.04
876.363	13917.19
876.741	14299.7
877.118	13877.47
877.495	14488.56
877.873	14650.94
878.25	15319.89
878.627	14615.18
879.004	14748.02
879.381	14598.68
879.758	14152.94
880.135	13125.2
880.512	13826.41
880.889	13394.48
881.265	13209.08
881.642	13068.32
882.019	13237.74
882.395	12937.34
882.772	13390.5
883.148	12754.79
883.524	12641.83
883.901	12499.66
884.277	12605
884.653	12451.11
885.029	12736.5
885.405	14025.22
885.781	13834.13
886.157	13204.08
886.532	13289.6
886.908	13221.52
887.284	14633.25
887.659	15063.07
888.035	15475.99
888.411	15820.88
888.786	15963.5
889.161	16446.98
889.537	16052.84
889.912	16448.56
890.287	16302.08
890.662	16573.49
891.037	16116.3
891.412	14863.81
891.787	14515.26
892.162	13794.46
892.536	13882.29
892.911	13115.94
893.286	12571.86
893.66	11796.71
894.035	11823.11
894.409	12557.2
894.784	11763.1
895.158	11662.38
895.532	12032.8
895.906	12024.49
896.281	11969.71
896.655	11478.76
897.029	12801.4
897.402	13033.84
897.776	14221.02
898.15	13900.14
898.524	13520.25
898.898	13488
899.271	14892.93
899.645	12758.82
900.018	12199.52
900.392	12686.37
900.765	12840.91
901.138	11985.6
901.511	11929.72
901.884	11111.34
902.258	10420.98
902.631	10959.72
903.003	12814.51
903.376	11722.14
903.749	13297.26
904.122	14352.88
904.495	15824.89
904.867	15989.42
905.24	13762.16
905.612	12678.08
905.985	12762.04
906.357	13110.57
906.729	12258.64
907.102	10254.41
907.474	9670.69
907.846	9553.54
908.218	9268.66
908.59	8085.71
908.962	7734.86
909.334	8277.28
909.705	8639.09
910.077	8351.98
910.449	8632.29
910.82	8822.03
911.192	9655.93
911.563	9997.13
911.935	10661.4
912.306	10630.27
912.677	10900.19
913.048	10706.95
913.419	11502.95
913.79	11473.42
914.161	12232.83
914.532	11637.51
914.903	10645.65
915.274	10076.43
915.645	9886.62
916.015	8687.93
916.386	8292.96
916.756	8865.76
917.127	9220.47
917.497	8323.24
917.868	9169.88
918.238	8809.53
918.608	9177.43
918.978	9490.8
919.348	10194.62
919.718	10690.05
920.088	10434.56
920.458	10927.92
920.828	11575.35
921.198	11017.51
921.567	11770.37
921.937	9090.99
922.306	9152.07
922.676	9827.3
923.045	8166.82
923.415	7710.71
923.784	6972.57
924.153	7103.51
924.522	7061.98
924.891	6595.33
925.26	6998.3
925.629	6763.14
925.998	7664.43
926.367	7361.58
926.736	6898.22
927.104	8035.08
927.473	8417.82
927.842	9839.72
928.21	9409.23
928.578	9459.47
928.947	8552.88
929.315	8194.27
929.683	9125.22
930.051	8729.37
930.42	9559.68
930.788	7680.59
931.156	7158.56
931.523	6298.66
931.891	5466.37
932.259	4932.15
932.627	5394.21
932.994	7141.54
933.362	5623.16
933.729	4666.33
934.097	4286.44
934.464	3525.28
934.831	3926.44
935.199	3810.61
935.566	3666.25
935.933	3757.2
936.3	4597.12
936.667	3661.16
937.034	3483.57
937.401	3556.15
937.767	3213.48
938.134	2994.64
938.501	4407.45
938.867	4980.39
939.234	8838.03
939.6	7870.76
939.967	9018.16
940.333	6309.6
940.699	5545.5
941.065	4521.55
941.431	6053.83
941.798	5911.95
942.163	7830.5
942.529	4922.35
942.895	4538.56
943.261	2916.63
943.627	3829.46
943.992	3331.41
944.358	3287.01
944.723	3298.86
945.089	3183.23
945.454	2921.82
945.82	3099.06
946.185	2966.96
946.55	3425.45
946.915	3065.88
947.28	3621.61
947.645	3191.31
948.01	2953.46
948.375	3096.7
948.74	3690.7
949.104	4314.95
949.469	6195.91
949.834	10967.01
950.198	10506.51
950.562	6301.56
950.927	5205.33
951.291	6208.47
951.655	5267.01
952.02	4921.2
952.384	3733.54
952.748	3259.42
953.112	3191
953.476	2767.54
953.839	2529.85
954.203	2498.78
954.567	3118.02
954.931	4898.18
955.294	4212.91
955.658	4241.73
956.021	7224.74
956.385	12182.27
956.748	18024.21
957.111	27755.47
957.474	31255.27
957.837	35237.11
958.2	26555.14
958.563	9564.26
958.926	6524.63
959.289	9906.97
959.652	11145.27
960.015	8387.48
960.377	12048.95
960.74	13778.02
961.102	23916.08
961.465	25917.34
961.827	14329.76
962.189	27727.02
962.552	19586.22
962.914	15843.74
963.276	10411.04
963.638	8670.64
964	8665.91
964.362	5959.89
964.724	5812.21
965.085	4200.77
965.447	3487.29
965.809	3956.66
966.17	3993.91
966.532	4348.39
966.893	4088.55
967.255	3792.72
967.616	4546.21
967.977	3718.2
968.338	4137.65
968.699	3498.18
969.061	3577.24
969.421	3677.78
969.782	4219.28
970.143	3671.35
970.504	3904.55
970.865	4478.83
971.225	4647.08
971.586	4598.21
971.946	6591.05
972.307	5778.82
972.667	7545.99
973.027	7777.13
973.388	9421.39
973.748	6393.15
974.108	6900.55
974.468	9168.12
974.828	7078.6
975.188	5390.57
975.548	4917.2
975.907	4125.43
976.267	4576.2
976.627	3858.33
976.986	4008.47
977.346	3826.27
977.705	3693.28
978.064	3372.41
978.424	2832.94
978.783	2918.73
979.142	3356.3
979.501	3249.78
979.86	3455.67
980.219	3354.57
980.578	4325.46
980.937	4831.44
981.296	4353.03
981.654	4523.52
982.013	7100.04
982.371	9349.73
982.73	8845.8
983.088	10097.86
983.447	10863.1
983.805	15680.84
984.163	33089.59
984.521	37201.43
984.879	55108.65
985.237	-90340.05
985.595	87617.52
985.953	21869.42
986.311	12646.46
986.669	7410.05
987.026	6436.27
987.384	8706.11
987.741	9085.83
988.099	6590.61
988.456	5283.51
988.814	5001.51
989.171	4380.5
989.528	4337.31
989.885	4614.04
990.242	3710.63
990.599	4634.45
990.956	3823.37
991.313	2693.68
991.67	2214.93
992.027	2364.62
992.383	2114.86
992.74	1866.28
993.096	1970.53
993.453	2056.5
993.809	2136.59
994.165	2840.06
994.522	2642.92
994.878	2926.71
995.234	3703.07
995.59	3673.34
995.946	3470.68
996.302	3977.1
996.658	4636.33
997.013	5121.58
997.369	6134.16
997.725	7921.63
998.08	5143.39
998.436	7854.37
998.791	10849.33
999.147	10844.14
999.502	11854.97
999.857	8605.27
1000.212	14056.74
1000.567	20015.17
1000.922	11543.07
1001.277	7353.74
1001.632	5479.57
1001.987	7075.83
1002.342	5114.66
1002.696	4122.18
1003.051	3298.94
1003.406	3999.64
1003.76	4007.33
1004.114	3975.44
1004.469	3358.68
1004.823	2788.47
1005.177	3002.66
1005.531	2370.77
1005.885	2124.86
1006.239	2411.19
1006.593	3035.54
1006.947	4076.11
1007.301	3073.31
1007.655	3334.21
1008.008	2446.76
1008.362	2741.63
1008.715	3949.79
1009.069	3597.82
1009.422	5515.9
1009.776	11074.32
1010.129	7336.7
1010.482	6127.71
1010.835	5175.21
1011.188	10816.14
1011.541	10338.75
1011.894	-63748.49
1012.247	189472.56
1012.6	12890.43
1012.952	8233.51
1013.305	4226.97
1013.657	3048.09
1014.01	2911.02
1014.362	2413.5
1014.715	2183.39
1015.067	1929.92
1015.419	1903.86
1015.771	1702.7
1016.123	1539.66
1016.475	1590.75
1016.827	1692.05
1017.179	1840.17
1017.531	1874.48
1017.883	1928.2
1018.234	1904.57
1018.586	2413.86
1018.938	2592.09
1019.289	3602.41
1019.64	4123.76
1019.992	3869.12
1020.343	3605.49
1020.694	2915.28
1021.045	2588.88
1021.396	2994.03
1021.747	3230.05
1022.098	3863.94
1022.449	2851.78
1022.8	2649.66
1023.151	1865.73
1023.501	1684.46
1023.852	1822.79
1024.202	1897.82
1024.553	2079.02
1024.903	2075.21
1025.253	1790.38
1025.604	1639.97
1025.954	2033.82
1026.304	2468.67
1026.654	2914.94
1027.004	4301.36
1027.354	6983.19
1027.703	6623.98
1028.053	8812.27
1028.403	13079.16
1028.753	18894.1
1029.102	25713.79
1029.452	131676.08
1029.801	5751.85
1030.15	3740.5
1030.499	3158.02
897.758	1644.88
901.051	1586.19
904.343	1617.89
907.636	1622.99
910.928	1669.61
914.22	1609.08
917.511	1614.14
920.803	1648.12
924.094	1640.88
927.384	1647.42
930.675	1618.69
933.965	1595.16
937.255	1623.03
940.544	1599.86
943.834	1592.69
947.123	1548.4
950.411	1616.11
953.7	1604.05
956.988	1596.68
960.276	1539.68
963.563	1569.72
966.851	1579.25
970.138	1606.02
973.424	1607.06
976.711	1567.37
979.997	1603.76
983.283	1633.97
986.568	1585.72
989.853	1571.2
993.138	1586.69
996.423	1656.83
999.708	1628.44
1002.992	1647.1
1006.275	1580.71
1009.559	1582.41
1012.842	1656.91
1016.125	1623.86
1019.408	1606.16
1022.69	1642.06
1025.972	1668.63
1029.254	1651.03
1032.536	1627.63
1035.817	1630.59
1039.098	1607.95
1042.379	1642.21
1045.659	1661.5
1048.939	1618.68
1052.219	1619.52
1055.498	1612.77
1058.778	1606.84
1062.057	1588.88
1065.335	1607.99
1068.614	1611.71
1071.892	1606.68
1075.17	1645.4
1078.447	1648.15
1081.724	1641.8
1085.001	1658.79
1088.278	1641.39
1091.554	1644.73
1094.83	1642.82
1098.106	1665.36
1101.382	1684.38
1104.657	1683.9
1107.932	1684.83
1111.206	1666.33
1114.481	1632.58
1117.755	1635.02
1121.029	1629.76
1124.302	1674.94
1127.575	1653.45
1130.848	1652.04
1134.121	1634.13
1137.393	1603.54
1140.665	1644.54
1143.937	1627.13
1147.208	1592.51
1150.48	1633.9
1153.75	1622.77
1157.021	1623.29
1160.291	1607.73
1163.561	1643.38
1166.831	1617.86
1170.101	1633.82
1173.37	1606.15
1176.639	1577.76
1179.907	1608.93
1183.176	1623.93
1186.444	1628
1189.711	1644.8
1192.979	1664.15
1196.246	1631.24
1199.513	1641.23
1202.78	1642.73
1206.046	1650.47
1209.312	1669.29
1212.578	1678.48
1215.843	1654.9
1219.108	1633.08
1222.373	1649.55
1225.638	1632.65
1228.902	1625.32
1232.166	1596.18
1235.43	1588.44
1238.693	1611.46
1241.956	1604.94
1245.219	1643.54
1248.482	1631.6
1251.744	1632.4
1255.006	1715.74
1258.268	1675.86
1261.529	1648.67
1264.79	1647.65
1268.051	1716.52
1271.312	1722.73
1274.572	1697.44
1277.832	1687.59
1281.092	1671.22
1284.351	1666.9
1287.61	1656.71
1290.869	1612.77
1294.128	1612.36
1297.386	1638.59
1300.644	1634.24
1303.902	1639.5
1307.159	1547.02
1310.416	1583.07
1313.673	1603.62
1316.93	1606.31
1320.186	1624.82
1323.442	1646.8
1326.697	1650.33
1329.953	1630.46
1333.208	1660.09
1336.463	1641.23
1339.717	1619.62
1342.972	1693.62
1346.226	1675.99
1349.479	1646.12
1352.733	1630.85
1355.986	1639.32
1359.238	1625.15
1362.491	1629.07
1365.743	1628.96
1368.995	1626.05
1372.247	1636.72
1375.498	1648.78
1378.749	1684.52
1382	1651.47
1385.251	1671.36
1388.501	1640.28
1391.751	1638.57
1395	1620.57
1398.25	1637.97
1401.499	1661.76
1404.748	1626.95
1407.996	1615.03
1411.244	1610.87
1414.492	1599.19
1417.74	1590.06
1420.987	1597.11
1424.234	1639.61
1427.481	1613.18
1430.728	1652.54
1433.974	1637.98
1437.22	1634.53
1440.465	1628.79
1443.711	1633.12
1446.956	1645.91
1450.201	1624.42
1453.445	1653.72
1456.689	1644.09
1459.933	1652.81
1463.177	1680.71
1466.42	1662.16
1469.663	1645.36
1472.906	1657.32
1476.148	1692.43
1479.391	1659.44
1482.633	1645.24
1485.874	1663.46
1489.115	1671
1492.356	1656.86
1495.597	1638.9
1498.838	1630.47
1502.078	1622.22
1505.318	1608.17
1508.557	1627.49
1511.797	1623.18
1515.036	1664.04
1518.274	1632.78
1521.513	1592.39
1524.751	1597.16
1527.989	1613.21
1531.227	1626.81
1534.464	1635.4
1537.701	1626.1
1540.938	1631.54
1544.174	1592.85
1547.41	1584.12
1550.646	1609.43
1553.882	1645.04
1557.117	1688.2
1560.352	1694.32
1563.587	1663.39
1566.821	1642.63
1570.055	1652.12
1573.289	1634.18
1576.523	1671.65
1579.756	1682.88
1582.989	1697.84
1586.222	1665.02
1589.454	1690.8
1592.686	1680.86
1595.918	1698.22
1599.15	1698.43
1602.381	1724.95
1605.612	1714.68
1608.843	1781.81
1612.073	1727.54
1615.303	1721.86
1618.533	1717.96
1621.762	1717.61
1624.992	1692.48
1628.221	1692.71
1631.449	1683.14
1634.678	1701.07
1637.906	1677.89
1641.134	1693.59
1644.361	1668.03
1647.588	1662.71
1650.815	1679.25
1654.042	1651.74
1657.269	1672.53
1660.495	1661.97
1663.72	1647.59
1666.946	1625.26
1670.171	1611.3
1673.396	1592.23
1676.621	1579.96
1679.845	1577.66
1683.069	1578.39
1686.293	1595.58
1689.517	1591.5
1692.74	1560.31
1695.963	1575.38
1699.185	1607.93
1702.408	1590.2
1705.63	1610.38
1708.852	1623.96
1712.073	1601.21
1715.294	1614.41
1718.515	1648.92
1721.736	1620.55
1724.956	1608
1728.176	1624.49
1731.396	1638.96
1734.616	1631.09
1737.835	1661.63
1741.054	1637.93
1744.272	1634.13
1747.491	1666.99
1750.709	1680.5
1753.927	1649.02
1757.144	1666.23
1760.361	1708.85
1763.578	1688.21
1766.795	1652.66
1770.011	1640.61
1773.227	1657.14
1776.443	1687.3
1779.658	1717.39
1782.874	1677.5
1786.089	1671.89
1789.303	1672.87
1792.518	1671.36
1795.732	1663.46
1798.945	1673.12
1802.159	1706.44
1805.372	1670.21
1808.585	1665.26
1811.797	1666.52
1815.01	1681.08
1818.222	1702.04
1821.434	1670.23
1824.645	1698.59
1827.856	1707.97
1831.067	1728.17
1834.278	1683.24
1837.488	1671.28
1840.698	1757.63
1843.908	1723.16
1847.117	1702.69
1850.326	1655.23
1853.535	1696.06
1856.744	1727.17
1859.952	1673.47
1863.16	1676.04
1866.368	1692.57
1869.575	1781.19
1872.782	1693.32
1875.989	1647.06
1879.196	1680.22
1882.402	1675.99
1885.608	1700.63
1888.814	1662.34
1892.019	1599.83
1895.224	1641.33
1898.429	1615.92
1901.634	1602.66
1904.838	1586.58
1908.042	1634.05
1911.246	1645.32
1914.449	1622.02
1917.652	1607.94
1920.855	1594.13
1924.058	1609.83
1927.26	1647.81
1930.462	1662.99
1933.664	1693.34
1936.865	1654.36
1940.066	1664.53
1943.267	1622.25
1946.467	1631.38
1949.668	1641.14
1952.868	1695.05
1956.067	1691.82
1959.267	1646.61
1962.466	1664.23
1965.665	1646.54
1968.863	1646.6
1972.061	1642.33
1975.259	1638.04
1978.457	1694.14
1981.654	1664.35
1984.852	1666.25
1988.048	1635.47
1991.245	1622.03
1994.441	1689.39
1997.637	1650.95
2000.833	1640.2
2004.028	1661.25
2007.223	1715.2
2010.418	1705.87
2013.613	1665.6
2016.807	1664.2
2020.001	1658.26
2023.194	1670.7
2026.388	1659.9
2029.581	1618.91
2032.774	1667.82
2035.966	1675.59
2039.158	1637.81
2042.35	1649.31
2045.542	1594.7
2048.733	1653.63
2051.924	1640.32
2055.115	1653
2058.306	1630.58
2061.496	1667.76
2064.686	1701.97
2067.875	1630.76
2071.065	1629.49
2074.254	1643.7
2077.442	1608.97
2080.631	1669.72
2083.819	1627.19
2087.007	1622.55
2090.195	1613.1
2093.382	1620.64
2096.569	1614.43
2099.756	1585.61
2102.942	1628.53
2106.128	1639.47
2109.314	1631.62
2112.5	1624.71
2115.685	1598.51
2118.87	1604.35
2122.055	1652.84
2125.239	1637.05
2128.424	1630.43
2131.608	1665.32
2134.791	1654.14
2137.974	1677.95
2141.157	1671.1
2144.34	1652.24
2147.523	1639.5
2150.705	1663.88
2153.887	1634.82
2157.068	1619.48
2160.25	1598.51
2163.431	1614.75
2166.611	1594.36
2169.792	1612.38
2172.972	1546.91
2176.152	1584.45
2179.331	1600.87
2182.511	1604.82
2185.69	1618.76
2188.868	1624.02
2192.047	1647.77
2195.225	1670.9
2198.403	1629.14
2201.58	1617.99
2204.758	1604.05
2207.935	1659.63
2211.111	1600.18
2214.288	1592.74
2217.464	1618.04
2220.64	1582.18
2223.815	1619.2
2226.991	1567.82
2230.166	1576.77
2233.34	1611.31
2236.515	1620.96
2239.689	1673.13
2242.863	1634.12
2246.036	1670.9
2249.209	1658.89
2252.382	1673.09
2255.555	1684.99
2258.727	1651.32
2261.9	1672.17
2265.071	1667.77
2268.243	1665.78
2271.414	1632.39
2274.585	1618.71
2277.756	1664.86
2280.926	1635.1
2284.096	1654.64
2287.266	1604.73
2290.436	1639.86
2293.605	1651.25
2296.774	1682.63
2299.942	1683.76
2303.111	1696.04
2306.279	1735.93
2309.447	1725.88
2312.614	1706.36
2315.781	1723.15
2318.948	1706.43
2322.115	1734.26
2325.281	1655.7
2328.447	1660.27
2331.613	1635.11
2334.779	1633.06
2337.944	1628
2341.109	1628.69
2344.274	1623.19
2347.438	1597.81
2350.602	1613.97
2353.766	1618.26
2356.929	1612.46
2360.092	1638.29
2363.255	1617.75
2366.418	1600.2
2369.58	1629.62
2372.742	1600.16
2375.904	1582.77
2379.066	1575.04
2382.227	1592.27
2385.388	1561.35
2388.548	1532.33
2391.709	1557.69
2394.869	1556.39
2398.029	1588.11
2401.188	1578.53
2404.347	1567.2
2407.506	1569.06
2410.665	1611.19
2413.823	1595.45
2416.981	1583.74
2420.139	1596.91
2423.296	1623.98
2426.453	1604.64
2429.61	1619.7
2432.767	1605.77
2435.923	1635.27
2439.079	1589.4
2442.235	1614.43
2445.391	1571.9
2448.546	1604.46
2451.701	1630.06
2454.855	1629.78
2458.009	1648.04
2461.163	1634.44
2464.317	1615.77
2467.471	1634.14
2470.624	1656.94
2473.777	1654.24
2476.929	1666.71
2480.082	1682.19
2483.234	1668.44
2486.385	1621.85
2489.537	1616.42
2492.688	1613.6
2495.839	1632.71
2498.989	1641.48
2502.14	1631.8
2505.29	1624.91
2508.439	1642.34
2511.589	1601.49
2514.738	1600.75
2517.887	1613.16
2521.035	1670.16
2524.183	1633.46
2527.331	1627.15
2530.479	1621.61
2533.627	1624.4
