Data from N_1_HIR_IL_4N_Splice17_11-27-10-880.txt Node
Date: Sat Mar 14 11:27:10 EDT 2020
User: sa697716
Spectrometer: FLMS03696
Trigger mode: 0
Integration Time (sec): 3.180400E-1
Scans to average: 20
Electric dark correction enabled: true
Nonlinearity correction enabled: true
Boxcar width: 5
XAxis mode: Wavelengths
Number of Pixels in Spectrum: 2048
>>>>>Begin Spectral Data<<<<<
187.83	-235791.26
188.298	1760.77
188.766	947.93
189.233	842.5
189.701	1164.34
190.169	1519.11
190.636	609.22
191.104	433.25
191.571	102.79
192.039	10.46
192.506	-12.19
192.974	295.36
193.441	-466.4
193.908	-118.98
194.375	-3.53
194.842	55.89
195.31	70.04
195.777	119.31
196.244	197.25
196.711	187.24
197.177	184.89
197.644	183.18
198.111	300.5
198.578	413.12
199.045	315.68
199.511	446.33
199.978	465.08
200.445	414.84
200.911	426.76
201.378	427.25
201.844	416.66
202.31	676.05
202.777	757.32
203.243	448.15
203.709	432.14
204.176	523.71
204.642	457.03
205.108	410.94
205.574	337.37
206.04	297.63
206.506	277.22
206.972	234.71
207.438	247.7
207.903	282.01
208.369	246.95
208.835	250.24
209.301	250.16
209.766	233.99
210.232	252.4
210.697	288.04
211.163	361.02
211.628	506.47
212.094	430.96
212.559	538.74
213.024	316.73
213.49	381.64
213.955	365.75
214.42	351.84
214.885	332.81
215.35	325.34
215.815	367
216.28	375.11
216.745	303.58
217.21	340.08
217.675	256.95
218.14	275.41
218.604	266.45
219.069	272.02
219.534	286.95
219.998	305.9
220.463	322.57
220.927	296.74
221.392	259.95
221.856	252.41
222.32	243.12
222.785	309.62
223.249	349.93
223.713	375.09
224.177	376.8
224.642	409.87
225.106	436.41
225.57	465.98
226.034	384.51
226.497	566.16
226.961	539.16
227.425	643.08
227.889	674.43
228.353	637.15
228.816	1187.22
229.28	1025.63
229.744	832
230.207	558.77
230.671	523.35
231.134	748.64
231.597	899.04
232.061	824.26
232.524	724.48
232.987	490.59
233.45	456.97
233.914	412.55
234.377	388.27
234.84	348.78
235.303	386.03
235.766	393.31
236.229	384.31
236.691	226.01
237.154	226.64
237.617	196.03
238.08	183.85
238.542	208.38
239.005	164.08
239.468	183.39
239.93	183.46
240.393	170.69
240.855	158.9
241.317	154.04
241.78	165.13
242.242	185.88
242.704	227.56
243.166	213.56
243.629	218.39
244.091	245.33
244.553	257.17
245.015	283.59
245.477	315.63
245.939	451.1
246.4	486.33
246.862	470.18
247.324	439.38
247.786	422.78
248.247	492.45
248.709	421.81
249.17	334.44
249.632	377.02
250.093	439.17
250.555	437.35
251.016	293.86
251.477	283.17
251.939	312.5
252.4	315.82
252.861	356.93
253.322	353.81
253.783	363.82
254.244	432.62
254.705	303.1
255.166	246.14
255.627	214.87
256.088	298.23
256.549	323.63
257.009	268.08
257.47	291.86
257.931	237.23
258.391	208.92
258.852	235.19
259.312	237.66
259.773	298.31
260.233	297.21
260.694	277.25
261.154	289.31
261.614	262.83
262.074	220.84
262.534	264.32
262.994	253.3
263.455	296.81
263.915	269.06
264.374	253.4
264.834	274.62
265.294	274.62
265.754	268.93
266.214	249.95
266.673	219.06
267.133	282.06
267.593	243.01
268.052	300.01
268.512	244.06
268.971	326.65
269.431	384.55
269.89	325.89
270.349	452.37
270.809	538.54
271.268	503.99
271.727	1027.33
272.186	678.08
272.645	512.49
273.104	325.58
273.563	475.56
274.022	325.47
274.481	298.37
274.94	252.71
275.399	193.72
275.857	203.58
276.316	254.84
276.775	238.45
277.233	220.02
277.692	232.09
278.15	310.29
278.609	384.31
279.067	358.6
279.525	343.12
279.984	404.82
280.442	484.81
280.9	562.53
281.358	356.03
281.816	328
282.274	332.35
282.732	303.23
283.19	288.24
283.648	218.44
284.106	213.68
284.564	199.25
285.021	220.51
285.479	177.29
285.937	131.19
286.394	142.55
286.852	134.09
287.309	147.22
287.767	182.41
288.224	193.04
288.682	208.35
289.139	258.6
289.596	248.15
290.053	235.87
290.511	267.64
290.968	328.85
291.425	429.48
291.882	429.65
292.339	385.19
292.796	353.87
293.252	323.46
293.709	287.19
294.166	260.12
294.623	274.92
295.079	247.96
295.536	270.8
295.992	249.24
296.449	236.35
296.905	242
297.362	244.14
297.818	241.2
298.274	248.06
298.731	243.44
299.187	233.21
299.643	249.27
300.099	315.01
300.555	337.08
301.011	315.27
301.467	368.46
301.923	397.94
302.379	378.16
302.835	381.44
303.291	383.29
303.746	416.46
304.202	501.65
304.658	493
305.113	353.6
305.569	347.19
306.024	304.61
306.479	210.86
306.935	185.02
307.39	193.71
307.845	192.47
308.301	221.12
308.756	200.57
309.211	203.99
309.666	194.35
310.121	262.47
310.576	249.39
311.031	255.11
311.486	286.98
311.94	295.83
312.395	341.63
312.85	563.79
313.305	1579.56
313.759	12356.95
314.214	940.79
314.668	873.84
315.123	743.23
315.577	315.01
316.032	285.37
316.486	357.32
316.94	281.84
317.394	230.57
317.849	193.19
318.303	198.48
318.757	192.98
319.211	196.79
319.665	169.2
320.119	175.87
320.572	207.82
321.026	222.12
321.48	191.74
321.934	192.6
322.387	195.13
322.841	215.05
323.295	237.43
323.748	220.18
324.202	244.51
324.655	302.97
325.108	418.74
325.562	354
326.015	374.49
326.468	288.03
326.921	351.58
327.374	350.11
327.827	377.45
328.28	418.12
328.733	316.63
329.186	277.28
329.639	275.76
330.092	240.51
330.545	231.17
330.997	264.86
331.45	328.62
331.903	396.47
332.355	631.01
332.808	583.91
333.26	459.24
333.713	506.27
334.165	497.16
334.617	597.3
335.069	421.13
335.522	665.16
335.974	668.29
336.426	508.44
336.878	281.12
337.33	161.52
337.782	170.89
338.234	223.78
338.686	232.97
339.137	271.83
339.589	284.13
340.041	253.14
340.493	228.1
340.944	235.65
341.396	260.11
341.847	266.23
342.299	325.83
342.75	427.21
343.201	331.92
343.653	377.28
344.104	457.43
344.555	341.48
345.006	451.48
345.457	423.73
345.908	327.68
346.359	324.88
346.81	243.61
347.261	225.27
347.712	177.59
348.163	198.17
348.613	233.76
349.064	208.83
349.515	189.85
349.965	216.13
350.416	216.91
350.866	232.44
351.317	233.72
351.767	398.18
352.217	552.92
352.668	518.92
353.118	508.64
353.568	393.09
354.018	378.45
354.468	426.86
354.918	335.7
355.368	320.34
355.818	428.13
356.268	1146.98
356.718	5055.55
357.168	1232.82
357.617	568.18
358.067	535.8
358.517	543.86
358.966	647.03
359.416	732.45
359.865	757.56
360.315	776.56
360.764	416.58
361.213	250.43
361.663	182.83
362.112	220.44
362.561	384.74
363.01	315.53
363.459	288.89
363.908	287.75
364.357	303.59
364.806	434.67
365.255	292.65
365.703	303.09
366.152	275.68
366.601	246.67
367.05	243.21
367.498	241.73
367.947	241.02
368.395	251.47
368.844	230.27
369.292	214.72
369.74	180.43
370.189	248.32
370.637	244.95
371.085	221.99
371.533	272.18
371.981	191.96
372.429	163.32
372.877	200.62
373.325	161.69
373.773	135.57
374.221	118.76
374.669	130.78
375.116	130.99
375.564	146.09
376.012	129.11
376.459	129.26
376.907	154.12
377.354	171.41
377.801	145.57
378.249	192.46
378.696	256.56
379.143	333.98
379.591	355.95
380.038	527.23
380.485	375.22
380.932	495.35
381.379	488.68
381.826	459.94
382.273	326.04
382.72	270.71
383.166	254.25
383.613	168.45
384.06	148.95
384.506	159.07
384.953	135.03
385.4	132.32
385.846	113.8
386.292	81.67
386.739	58
387.185	55.11
387.631	53.81
388.078	65.27
388.524	82.6
388.97	87.57
389.416	85.13
389.862	95.27
390.308	91.82
390.754	106.66
391.2	122.12
391.645	121.61
392.091	140.9
392.537	145.71
392.983	128.07
393.428	141.26
393.874	140.97
394.319	151.51
394.765	147.05
395.21	145.02
395.655	135.94
396.101	129.08
396.546	124.45
396.991	111.76
397.436	106.38
397.881	103.71
398.326	78.18
398.771	77.2
399.216	57.56
399.661	53.72
400.106	56.52
400.551	57.95
400.995	55.54
401.44	58.03
401.885	51.82
402.329	47.65
402.774	48.74
403.218	61.5
403.663	62.73
404.107	67.93
404.551	70.51
404.995	65.78
405.44	59.21
405.884	55.21
406.328	46.9
406.772	45.84
407.216	44.47
407.66	38.47
408.104	29.45
408.547	24.33
408.991	22.02
409.435	14.56
409.879	15.57
410.322	14.07
410.766	17.5
411.209	21.83
411.653	20.71
412.096	21.49
412.54	21.94
412.983	21.94
413.426	25.17
413.869	23.04
414.312	28.01
414.756	26.24
415.199	26.3
415.642	28.59
416.085	27.44
416.527	28.66
416.97	26.78
417.413	27.3
417.856	25.03
418.298	22.13
418.741	21.08
419.184	20.14
419.626	15.41
420.069	16.1
420.511	13.11
420.953	14.11
421.396	13.07
421.838	13.78
422.28	11.77
422.722	13.71
423.164	13.81
423.606	15.76
424.048	15.02
424.49	17.28
424.932	15.5
425.374	13.26
425.816	10.98
426.258	12.12
426.699	12.01
427.141	16.54
427.582	14.55
428.024	13.61
428.465	10.1
428.907	9.89
429.348	10.81
429.789	13.79
430.231	16.4
430.672	17.22
431.113	18.8
431.554	18.95
431.995	17.02
432.436	20.37
432.877	20.07
433.318	24.54
433.759	21.67
434.2	20.41
434.64	18.57
435.081	18.55
435.522	19.82
435.962	18.11
436.403	18.6
436.843	16.53
437.284	14.72
437.724	12.95
438.164	7.84
438.604	10.94
439.045	12.4
439.485	16.96
439.925	16.21
440.365	14.54
440.805	14
441.245	15.12
441.685	15.89
442.125	15.22
442.564	16.99
443.004	20.08
443.444	19.22
443.883	19.7
444.323	13.45
444.762	10.37
445.202	8.87
445.641	9.56
446.081	7.12
446.52	7.28
446.959	7.56
447.398	7.3
447.837	6.8
448.276	5.83
448.716	6.76
449.154	6.18
449.593	7.53
450.032	8.67
450.471	6.89
450.91	6.6
451.349	8.14
451.787	7.39
452.226	7.22
452.664	6.22
453.103	5.79
453.541	4.67
453.98	8.54
454.418	8.46
454.856	9.59
455.295	10.56
455.733	11.9
456.171	10.65
456.609	12.79
457.047	13.48
457.485	15.06
457.923	16.8
458.361	15.79
458.798	13.79
459.236	14.06
459.674	12.72
460.111	12.31
460.549	11.91
460.987	10.22
461.424	8.2
461.862	7.45
462.299	7.62
462.736	7.92
463.173	8.4
463.611	12.31
464.048	12.19
464.485	13.37
464.922	13.24
465.359	12.57
465.796	19.91
466.233	21.04
466.67	22.85
467.106	23.63
467.543	22
467.98	20.84
468.416	17.82
468.853	17.58
469.29	15.84
469.726	15.14
470.162	14.64
470.599	9.29
471.035	7.19
471.471	5.89
471.907	3.63
472.344	3.37
472.78	5
473.216	3.86
473.652	3.92
474.088	3.31
474.523	3.46
474.959	3.27
475.395	3.2
475.831	4.13
476.266	4.15
476.702	3.78
477.138	4.36
477.573	3.16
478.008	3.77
478.444	5.13
478.879	6.68
479.314	7.41
479.75	7.51
480.185	6.75
480.62	5.68
481.055	5.97
481.49	6.77
481.925	7.03
482.36	8.45
482.795	7.9
483.229	6.39
483.664	5.83
484.099	5.44
484.534	5.84
484.968	6.95
485.403	7.63
485.837	6.74
486.271	5.86
486.706	5.37
487.14	4.71
487.574	4.95
488.009	5.11
488.443	4.55
488.877	4.86
489.311	4.31
489.745	4.54
490.179	4.64
490.613	6.16
491.046	5.72
491.48	5.51
491.914	5.19
492.348	5.38
492.781	5.23
493.215	5.67
493.648	4.97
494.082	5.52
494.515	5.3
494.948	5.83
495.382	4.53
495.815	5.56
496.248	5.83
496.681	5.92
497.114	5.07
497.547	5.64
497.98	6.22
498.413	7.48
498.846	7.45
499.279	7.21
499.711	6.56
500.144	6.43
500.577	6.64
501.009	6.1
501.442	6.49
501.874	7.58
502.306	6.74
502.739	8.17
503.171	7.48
503.603	7.77
504.036	6.99
504.468	7.31
504.9	7.49
505.332	7
505.764	7.46
506.196	7.23
506.627	6.65
507.059	7.22
507.491	5.16
507.923	5.44
508.354	5.63
508.786	5.91
509.217	5.56
509.649	5.96
510.08	5.71
510.512	6.62
510.943	6.46
511.374	6.8
511.805	6.62
512.237	6.32
512.668	5.55
513.099	4.1
513.53	4.13
513.961	4.87
514.391	4.34
514.822	5.31
515.253	4.76
515.684	4.86
516.114	5.06
516.545	4.96
516.975	5.23
517.406	5.23
517.836	5.28
518.267	5.49
518.697	5.97
519.127	5.73
519.558	5.07
519.988	4.65
520.418	4.08
520.848	3.01
521.278	2.99
521.708	30.11
522.138	31.1
522.567	31.48
522.997	31.51
523.427	30.81
523.857	31.08
524.286	31.28
524.716	31.07
525.145	31.25
525.575	32.05
526.004	31.76
526.433	4.79
526.863	3.68
527.292	4.21
527.721	4.7
528.15	4.35
528.579	4.86
529.008	4.87
529.437	4.71
529.866	5.24
530.295	4.85
530.724	5.79
531.152	6.15
531.581	6.86
532.01	6.68
532.438	5.87
532.867	6.04
533.295	5.39
533.723	5.55
534.152	6.08
534.58	6.29
535.008	6.59
535.436	7.25
535.865	7.07
536.293	6.24
536.721	5.82
537.149	6.49
537.576	7.06
538.004	7.96
538.432	7.27
538.86	7.78
539.287	7.13
539.715	7.23
540.143	5.85
540.57	6.08
540.998	6.29
541.425	7.87
541.852	7.33
542.28	6.83
542.707	6.08
543.134	6.45
543.561	6.14
543.988	6.3
544.415	6.09
544.842	5.69
545.269	5.39
545.696	5.68
546.123	5.24
546.549	5.68
546.976	5.45
547.403	5.33
547.829	4.57
548.256	3.58
548.682	3.96
549.108	4.75
549.535	5.2
549.961	5.61
550.387	5.57
550.813	5.9
551.24	5.51
551.666	5.41
552.092	5.02
552.518	5.4
552.943	6.66
553.369	5.98
553.795	5.46
554.221	5.81
554.646	5.15
555.072	6.07
555.498	4.66
555.923	4.21
556.349	4.12
556.774	4.55
557.199	4.22
557.625	3.02
558.05	3.6
558.475	3.45
558.9	3.62
559.325	3.99
559.75	4.06
560.175	4.68
560.6	4.54
561.025	4.25
561.449	4.36
561.874	4.68
562.299	5.47
562.723	4.78
563.148	4.26
563.572	3.16
563.997	3.17
564.421	2.27
564.846	1.44
565.27	2.13
565.694	2.55
566.118	2.34
566.542	3.08
566.966	2.58
567.39	2.65
567.814	3.48
568.238	4.21
568.662	3.54
569.086	3.43
569.509	3.51
569.933	3.94
570.357	3.88
570.78	3.9
571.204	4.2
571.627	4.54
572.05	5.04
572.474	5.77
572.897	5.95
573.32	7.23
573.743	7.03
574.166	8.03
574.589	7.86
575.012	8.15
575.435	8.01
575.858	7.65
576.281	7.95
576.704	7.32
577.126	6.04
577.549	5.02
577.972	3.78
578.394	4.32
578.817	5.13
579.239	4.73
579.661	4.98
580.084	5.85
580.506	5.94
580.928	5.22
581.35	5.8
581.772	6.15
582.194	6.95
582.616	7.19
583.038	5.8
583.46	4.27
583.882	4.78
584.303	3.98
584.725	3.3
585.147	6.95
585.568	7.49
585.99	7.7
586.411	7.54
586.833	8.09
587.254	8.57
587.675	9.44
588.096	9.41
588.518	9.5
588.939	9.97
589.36	10.76
589.781	5.76
590.202	7.76
590.623	7.47
591.043	7.6
591.464	7.37
591.885	7.69
592.305	7.35
592.726	7.37
593.147	6.93
593.567	6.98
593.987	6.51
594.408	6.82
594.828	4.84
595.248	5.41
595.669	5.89
596.089	5.52
596.509	4.8
596.929	5.01
597.349	4.76
597.769	4.61
598.189	4.64
598.608	4.53
599.028	4.71
599.448	4.34
599.867	3.81
600.287	2.56
600.706	2.77
601.126	3.15
601.545	3.95
601.965	4.19
602.384	4.5
602.803	3.95
603.222	4
603.641	3.71
604.061	4.28
604.48	4.41
604.898	3.98
605.317	3.77
605.736	3.5
606.155	3.64
606.574	3.63
606.992	3.16
607.411	3.74
607.829	3.05
608.248	3.28
608.666	2.45
609.085	2.23
609.503	2.97
609.921	3.27
610.339	3.59
610.758	2.37
611.176	2.38
611.594	3.32
612.012	3.1
612.43	4.25
612.847	4.05
613.265	4.9
613.683	5.08
614.101	5.91
614.518	5.2
614.936	5.19
615.353	6.01
615.771	6.42
616.188	6
616.606	5.97
617.023	5.87
617.44	5.93
617.857	5.3
618.274	5.57
618.691	5.65
619.108	5.62
619.525	5.29
619.942	5.59
620.359	5.11
620.776	4.71
621.192	5.34
621.609	6.04
622.026	6.38
622.442	6.8
622.859	6.16
623.275	5.7
623.691	6.3
624.108	6.53
624.524	6.1
624.94	6.47
625.356	6.48
625.772	5.8
626.188	4.52
626.604	4.3
627.02	4.13
627.436	4.42
627.852	5.42
628.268	5.44
628.683	4.6
629.099	4.23
629.514	3.64
629.93	3.8
630.345	3.43
630.761	3.46
631.176	3.32
631.591	4.83
632.007	5.4
632.422	3.62
632.837	3.39
633.252	4.48
633.667	5.19
634.082	5.81
634.497	6.27
634.911	8.38
635.326	8.41
635.741	9.4
636.155	8.21
636.57	8.6
636.984	9.38
637.399	10.27
637.813	9.82
638.228	9.4
638.642	8.59
639.056	8.05
639.47	6.21
639.884	6.45
640.298	5.88
640.712	6.73
641.126	6.27
641.54	6.29
641.954	4.18
642.368	4.61
642.781	6.69
643.195	7.82
643.609	8.04
644.022	8.52
644.436	8.54
644.849	8.74
645.262	8.18
645.676	7.64
646.089	7.64
646.502	9.61
646.915	9.11
647.328	8.06
647.741	8.06
648.154	7.81
648.567	9.66
648.98	10.06
649.393	9
649.805	9.03
650.218	8.56
650.631	9.19
651.043	9.03
651.456	10.12
651.868	9.6
652.28	8.11
652.693	8.03
653.105	6.35
653.517	6.15
653.929	6.64
654.341	6.08
654.753	7.35
655.165	6.49
655.577	6.23
655.989	5.92
656.401	4.35
656.813	6.79
657.224	7.32
657.636	7.38
658.047	7.88
658.459	8.06
658.87	7.41
659.282	6.84
659.693	7.83
660.104	8.06
660.515	7.32
660.926	7.97
661.338	7.13
661.749	6.09
662.159	7.33
662.57	6.32
662.981	6.3
663.392	6.57
663.803	6.61
664.213	5.85
664.624	6.12
665.035	5.99
665.445	6.05
665.855	6.89
666.266	7.59
666.676	6.47
667.086	5.55
667.497	6.2
667.907	6.71
668.317	6.41
668.727	9.37
669.137	8.52
669.547	8.31
669.956	7.59
670.366	6.6
670.776	7.01
671.186	7.39
671.595	8.56
672.005	7.81
672.414	7.78
672.824	8.36
673.233	4.79
673.642	4.61
674.052	5.07
674.461	6.7
674.87	7.13
675.279	7.7
675.688	5.89
676.097	7.08
676.506	6.88
676.915	6.19
677.323	5.46
677.732	5.67
678.141	6.05
678.549	6.4
678.958	5.13
679.366	4.64
679.775	3.68
680.183	6.41
680.592	5.45
681	5.74
681.408	7.04
681.816	7.7
682.224	7.39
682.632	8.48
683.04	8.53
683.448	8.51
683.856	8.85
684.264	10.95
684.671	9.74
685.079	8.79
685.487	9.1
685.894	8
686.302	5.71
686.709	6.55
687.116	5.45
687.524	6.97
687.931	8.26
688.338	8.77
688.745	6.59
689.152	5.15
689.559	6.38
689.966	6.81
690.373	7.66
690.78	10.51
691.187	10.79
691.593	12.2
692	10.68
692.407	10.89
692.813	12.88
693.22	13.59
693.626	13.73
694.032	14.38
694.439	15.06
694.845	14.03
695.251	12.78
695.657	13.06
696.063	11.27
696.469	11.81
696.875	11.39
697.281	9.35
697.687	8.68
698.093	9.66
698.498	10.24
698.904	8.22
699.31	9.4
699.715	11.24
700.12	11.26
700.526	12.7
700.931	11.5
701.337	12.7
701.742	13.56
702.147	13.9
702.552	13.74
702.957	11.85
703.362	12.86
703.767	12.15
704.172	10.54
704.577	10.13
704.981	7.75
705.386	8.48
705.791	7.82
706.195	6.41
706.6	6.3
707.004	4.61
707.408	4.73
707.813	5.98
708.217	7.42
708.621	7.46
709.025	6.43
709.43	9.43
709.834	9.12
710.237	8.24
710.641	8.47
711.045	9.3
711.449	11.22
711.853	13.99
712.256	12.7
712.66	11.15
713.064	11.2
713.467	12.59
713.87	11.76
714.274	12.69
714.677	13.87
715.08	14.83
715.484	14.96
715.887	17.17
716.29	15.26
716.693	16.96
717.096	18.28
717.499	19.93
717.901	19.73
718.304	18.33
718.707	17.88
719.109	17.1
719.512	15.34
719.915	17.45
720.317	15.81
720.719	14.37
721.122	12.31
721.524	12.1
721.926	15.36
722.328	16.71
722.731	17.43
723.133	16.99
723.535	17.52
723.937	19.9
724.338	19.03
724.74	19.05
725.142	61.96
725.544	66.13
725.945	77.35
726.347	74.41
726.748	73.2
727.15	74.82
727.551	77.86
727.952	76.92
728.354	74.51
728.755	74.2
729.156	72.37
729.557	31.23
729.958	27.65
730.359	16.94
730.76	15.43
731.161	15.53
731.562	13.94
731.962	12.22
732.363	12.83
732.763	13.58
733.164	10.72
733.564	11.85
733.965	12.56
734.365	13.08
734.766	14.12
735.166	15
735.566	15.79
735.966	16.07
736.366	16.39
736.766	15.34
737.166	14.38
737.566	15.45
737.966	14.96
738.365	15.5
738.765	16.76
739.165	15.84
739.564	15.46
739.964	12.77
740.363	11.37
740.763	8.88
741.162	10.29
741.561	10.75
741.96	11.43
742.36	10.64
742.759	10.51
743.158	7.64
743.557	7.59
743.955	6.33
744.354	7.84
744.753	8.29
745.152	10.59
745.55	9.21
745.949	8.43
746.348	7.19
746.746	6.13
747.144	7.77
747.543	8.65
747.941	8.29
748.339	9.36
748.737	9.66
749.136	9.8
749.534	8.13
749.932	10.39
750.33	10.74
750.727	10.79
751.125	12.43
751.523	10.92
751.921	13.8
752.318	14.95
752.716	16.19
753.113	16.18
753.511	16.17
753.908	17.95
754.305	20.31
754.703	20.86
755.1	22.62
755.497	22.63
755.894	21.56
756.291	19.13
756.688	18.27
757.085	17.73
757.482	18.79
757.878	22.9
758.275	23.23
758.672	17.15
759.068	18.68
759.465	16.7
759.861	15.06
760.258	15.57
760.654	16.95
761.05	20.13
761.447	16.84
761.843	17.02
762.239	15
762.635	12.58
763.031	10.24
763.427	8.04
763.822	8.82
764.218	10.08
764.614	11.45
765.01	9.71
765.405	8.09
765.801	8.46
766.196	6.37
766.592	4.9
766.987	6.59
767.382	8.53
767.778	8.96
768.173	8.58
768.568	9.46
768.963	10.41
769.358	10.57
769.753	12.33
770.148	12.83
770.542	13.78
770.937	13.6
771.332	12.94
771.726	11.43
772.121	14.61
772.515	15.79
772.91	15.61
773.304	14.56
773.699	15.92
774.093	14.69
774.487	15.06
774.881	15.83
775.275	15.91
775.669	13.8
776.063	15.48
776.457	13.81
776.851	13.35
777.245	13.43
777.638	14.68
778.032	13.78
778.425	14.34
778.819	18.3
779.212	19.33
779.606	21.81
779.999	23.08
780.392	23.91
780.786	22.17
781.179	23.1
781.572	24.3
781.965	24.61
782.358	23.81
782.751	23.75
783.143	20.47
783.536	20.44
783.929	18.56
784.322	19.36
784.714	17.43
785.107	19.25
785.499	18.89
785.891	20.15
786.284	19.3
786.676	21.1
787.068	23.43
787.46	25.8
787.852	23.58
788.245	23.99
788.636	22.84
789.028	25.08
789.42	26.38
789.812	28.02
790.204	26.42
790.595	28.49
790.987	28.58
791.378	26.36
791.77	22.78
792.161	21.61
792.553	20.62
792.944	21.1
793.335	18.64
793.726	17.05
794.117	15.36
794.508	14.19
794.899	10.7
795.29	8.39
795.681	8.77
796.072	9.51
796.463	27.44
796.853	31.84
797.244	33.19
797.634	35.11
798.025	35.27
798.415	34.72
798.806	35.72
799.196	38.29
799.586	41.29
799.976	42.68
800.366	42.84
800.756	25.86
801.146	22.32
801.536	23.05
801.926	23.16
802.316	22.75
802.706	23.75
803.095	26.29
803.485	25.83
803.874	24.39
804.264	21.66
804.653	22.03
805.043	23.93
805.432	26.04
805.821	28.34
806.21	31.55
806.599	32.12
806.988	32.43
807.377	26.06
807.766	25.11
808.155	26.22
808.544	26.33
808.933	27.67
809.321	30.93
809.71	28.43
810.098	28.32
810.487	23.08
810.875	23.64
811.264	23.73
811.652	37.36
812.04	39.4
812.428	40.83
812.816	38.19
813.204	38.89
813.592	32.58
813.98	32.46
814.368	32.53
814.756	37.99
815.144	38.64
815.531	43.28
815.919	30.96
816.306	31.49
816.694	30.95
817.081	38.62
817.469	41.78
817.856	40.24
818.243	40.12
818.63	37.11
819.017	35.85
819.404	39.32
819.791	34.61
820.178	32.47
820.565	33.85
820.952	39.32
821.339	38.31
821.725	37.57
822.112	41.99
822.498	44.41
822.885	42
823.271	38.5
823.657	33.54
824.044	35.13
824.43	36.87
824.816	44.51
825.202	40.81
825.588	43.7
825.974	42.77
826.36	42.55
826.746	41.65
827.132	42.29
827.517	46.84
827.903	45.49
828.289	51.28
828.674	52.74
829.06	46.38
829.445	46.1
829.83	41.9
830.216	42.1
830.601	46.64
830.986	52.13
831.371	55.18
831.756	57.62
832.141	64.19
832.526	61.79
832.911	62.3
833.295	58.54
833.68	56.78
834.065	59.27
834.449	59.06
834.834	58.04
835.218	56.42
835.603	58.47
835.987	55.16
836.371	53.98
836.755	51.97
837.139	48.59
837.524	49.05
837.908	48.3
838.291	49.49
838.675	44.81
839.059	43.61
839.443	38.39
839.827	34.05
840.21	31.11
840.594	30.8
840.977	30.63
841.361	33.56
841.744	31.59
842.127	34.97
842.511	32.17
842.894	34.86
843.277	34.72
843.66	34.94
844.043	34.97
844.426	39.31
844.809	32.51
845.191	31.55
845.574	32.55
845.957	32.45
846.339	33.95
846.722	31.71
847.104	30.25
847.487	26.11
847.869	28.21
848.252	31.91
848.634	32.91
849.016	36.44
849.398	35.36
849.78	32.73
850.162	33.81
850.544	30.14
850.926	30.43
851.307	28.31
851.689	31.06
852.071	27.44
852.452	26.76
852.834	24.38
853.215	27.54
853.597	29.03
853.978	34.16
854.359	38.91
854.741	40.19
855.122	39.85
855.503	40.73
855.884	43.2
856.265	48.25
856.646	39.51
857.026	41.22
857.407	41.92
857.788	40.79
858.169	33.99
858.549	37.29
858.93	36.81
859.31	39.25
859.69	47.82
860.071	45.16
860.451	42.89
860.831	49.93
861.211	44.74
861.591	38.87
861.971	39.87
862.351	43.57
862.731	36.4
863.111	38.03
863.491	44.96
863.87	38.28
864.25	36.5
864.629	48.75
865.009	43.68
865.388	52.35
865.768	55.13
866.147	56.13
866.526	59.31
866.905	62.23
867.284	54.76
867.663	44.5
868.042	41.14
868.421	41.43
868.8	27.63
869.179	32.87
869.558	27.03
869.936	30.19
870.315	30.52
870.693	29.76
871.072	27.59
871.45	30.32
871.828	36.48
872.207	40.27
872.585	40.21
872.963	40.28
873.341	44.69
873.719	54.42
874.097	57.38
874.475	52.87
874.853	46.96
875.23	51.38
875.608	54.8
875.986	57.59
876.363	54.9
876.741	64.12
877.118	70.12
877.495	72.81
877.873	69.77
878.25	66.85
878.627	69.66
879.004	78.83
879.381	71.96
879.758	72.63
880.135	64.83
880.512	67.09
880.889	53.78
881.265	50.16
881.642	45.74
882.019	41.07
882.395	46.52
882.772	53.48
883.148	49.7
883.524	52.46
883.901	53.55
884.277	50.73
884.653	50.9
885.029	63.36
885.405	77.69
885.781	77.89
886.157	75.71
886.532	67.88
886.908	59.63
887.284	59.32
887.659	61.56
888.035	62.14
888.411	62.31
888.786	57.12
889.161	52.9
889.537	40.63
889.912	37.63
890.287	41.5
890.662	41.96
891.037	40.83
891.412	42.41
891.787	37.97
892.162	38.94
892.536	39.25
892.911	46.4
893.286	40.3
893.66	43.91
894.035	50.68
894.409	43.88
894.784	43.75
895.158	47.3
895.532	43.68
895.906	43.95
896.281	41.15
896.655	46.82
897.029	51.81
897.402	59.93
897.776	53.45
898.15	41.19
898.524	48.8
898.898	51.79
899.271	54.23
899.645	59.53
900.018	59.07
900.392	67.64
900.765	65.9
901.138	63.02
901.511	63.65
901.884	72.65
902.258	77.98
902.631	87.3
903.003	94.38
903.376	87.76
903.749	98.01
904.122	101.46
904.495	102.58
904.867	106.41
905.24	92.99
905.612	80.7
905.985	69.09
906.357	67.02
906.729	59.3
907.102	66.23
907.474	69.09
907.846	69.92
908.218	74.8
908.59	77.76
908.962	74.33
909.334	82.92
909.705	96.99
910.077	98.8
910.449	99.47
910.82	115.83
911.192	116.99
911.563	134.28
911.935	130.31
912.306	124.68
912.677	119.18
913.048	124.47
913.419	128.97
913.79	115.52
914.161	126.61
914.532	143.64
914.903	114.86
915.274	111.55
915.645	92.85
916.015	81.83
916.386	89.2
916.756	93.37
917.127	80.25
917.497	74.8
917.868	90
918.238	78.84
918.608	63.23
918.978	69.68
919.348	64.97
919.718	69.66
920.088	79.53
920.458	92.6
920.828	76.2
921.198	84.14
921.567	83.72
921.937	65.19
922.306	67.64
922.676	67.73
923.045	75.58
923.415	85.77
923.784	79.24
924.153	85.51
924.522	80.81
924.891	91.33
925.26	96.57
925.629	89.75
925.998	97.3
926.367	106.11
926.736	131.19
927.104	136.11
927.473	131.97
927.842	140.6
928.21	121.37
928.578	103.51
928.947	102.51
929.315	93.12
929.683	128.64
930.051	126.25
930.42	132.82
930.788	100.77
931.156	95.58
931.523	130.69
931.891	129.67
932.259	151.68
932.627	195.25
932.994	232.58
933.362	255.77
933.729	225.86
934.097	212.55
934.464	195.38
934.831	199.16
935.199	197.28
935.566	177.92
935.933	177.07
936.3	209.68
936.667	172.41
937.034	256.99
937.401	239.12
937.767	209.98
938.134	208.83
938.501	247.5
938.867	283.39
939.234	465.21
939.6	352.32
939.967	436.07
940.333	298.64
940.699	237.22
941.065	105.28
941.431	131.64
941.798	178.17
942.163	275.16
942.529	197.54
942.895	161.74
943.261	116.07
943.627	179.86
943.992	160.12
944.358	157.81
944.723	196.88
945.089	190.02
945.454	181.72
945.82	184.61
946.185	156.14
946.55	181.92
946.915	167.13
947.28	194.76
947.645	156.25
948.01	174.87
948.375	190.58
948.74	178.75
949.104	206.64
949.469	242
949.834	374.6
950.198	443.94
950.562	321.49
950.927	272.03
951.291	302.53
951.655	269.55
952.02	188.5
952.384	154.07
952.748	182.62
953.112	199.74
953.476	181.31
953.839	159.93
954.203	168.59
954.567	189.4
954.931	285.75
955.294	248.92
955.658	242.31
956.021	400.42
956.385	577.52
956.748	702.11
957.111	974.53
957.474	1061.65
957.837	1108.6
958.2	549.68
958.563	185.02
958.926	148.03
959.289	241.31
959.652	270.13
960.015	206.66
960.377	300.32
960.74	337.41
961.102	432.17
961.465	608.45
961.827	691.41
962.189	1369.24
962.552	1052.69
962.914	825.7
963.276	513.1
963.638	417.29
964	418.06
964.362	318.69
964.724	295.81
965.085	235.27
965.447	186.1
965.809	136.4
966.17	132.92
966.532	117.88
966.893	110.97
967.255	110.68
967.616	115.83
967.977	104.33
968.338	108.12
968.699	110.57
969.061	97.41
969.421	102.78
969.782	118.63
970.143	116.96
970.504	151.92
970.865	189.76
971.225	213.59
971.586	222.1
971.946	292.9
972.307	235.44
972.667	254.74
973.027	290.2
973.388	320.94
973.748	215.75
974.108	235.51
974.468	220.85
974.828	196.95
975.188	139.5
975.548	123.4
975.907	122.52
976.267	126.74
976.627	144.57
976.986	143.42
977.346	140.14
977.705	139.21
978.064	108.34
978.424	107.95
978.783	83.9
979.142	85.46
979.501	84.06
979.86	81.57
980.219	84.77
980.578	63.07
980.937	57.21
981.296	56.27
981.654	44.77
982.013	50.25
982.371	69.97
982.73	94.39
983.088	103.91
983.447	140.38
983.805	284.67
984.163	718.27
984.521	843.01
984.879	1350.64
985.237	-2673.8
985.595	3261.98
985.953	821.92
986.311	419.71
986.669	230.69
987.026	186.07
987.384	213.13
987.741	137.42
988.099	130.62
988.456	126.7
988.814	118.9
989.171	92.79
989.528	56.66
989.885	63.4
990.242	77.92
990.599	75.66
990.956	71.92
991.313	64.54
991.67	65.45
992.027	101.34
992.383	91.63
992.74	93.42
993.096	103.15
993.453	101.9
993.809	100.83
994.165	128.33
994.522	176.66
994.878	206.06
995.234	253.4
995.59	258.17
995.946	175.94
996.302	205.85
996.658	216.01
997.013	212.93
997.369	329.15
997.725	425.69
998.08	264.71
998.436	225.62
998.791	287.13
999.147	240.53
999.502	244.04
999.857	158.66
1000.212	271.9
1000.567	306.93
1000.922	232.07
1001.277	123.18
1001.632	125.46
1001.987	136.13
1002.342	136.24
1002.696	140.58
1003.051	141.26
1003.406	185.83
1003.76	179.61
1004.114	168.47
1004.469	163.37
1004.823	139.48
1005.177	128.52
1005.531	100.67
1005.885	124.6
1006.239	132.43
1006.593	148.32
1006.947	208.87
1007.301	128.39
1007.655	157.91
1008.008	114.45
1008.362	128.93
1008.715	165.97
1009.069	155.62
1009.422	289.96
1009.776	436.11
1010.129	343.21
1010.482	226.68
1010.835	98
1011.188	224.63
1011.541	249.09
1011.894	-1482.64
1012.247	4301.56
1012.6	279.88
1012.952	205.79
1013.305	56.28
1013.657	77.49
1014.01	54.8
1014.362	56.92
1014.715	124.15
1015.067	125.9
1015.419	119.16
1015.771	129.92
1016.123	130.9
1016.475	140.54
1016.827	148.92
1017.179	176.52
1017.531	160.63
1017.883	160.35
1018.234	212.62
1018.586	229.77
1018.938	259.33
1019.289	359.52
1019.64	342.02
1019.992	266.58
1020.343	232.14
1020.694	252.58
1021.045	239.1
1021.396	260.51
1021.747	328.92
1022.098	293.63
1022.449	233.92
1022.8	221.91
1023.151	181.97
1023.501	193.74
1023.852	219.27
1024.202	251.58
1024.553	243.05
1024.903	249.38
1025.253	251.31
1025.604	227.99
1025.954	276.78
1026.304	297.3
1026.654	351.55
1027.004	460.42
1027.354	623.91
1027.703	653.51
1028.053	786.04
1028.403	1140.57
1028.753	1275.55
1029.102	943.21
1029.452	1155.2
1029.801	6.37
1030.15	29.46
1030.499	-37.11
897.758	1493
901.051	1441.43
904.343	1470.4
907.636	1472.57
910.928	1513.75
914.22	1462.03
917.511	1466.38
920.803	1496.43
924.094	1488.67
927.384	1494.79
930.675	1467.22
933.965	1447.13
937.255	1471.07
940.544	1449.03
943.834	1447.37
947.123	1408.17
950.411	1466.98
953.7	1457.5
956.988	1447.77
960.276	1399.53
963.563	1428.19
966.851	1436.2
970.138	1459.79
973.424	1460.59
976.711	1427.01
979.997	1458.2
983.283	1485.85
986.568	1441.97
989.853	1431.07
993.138	1445.08
996.423	1510.52
999.708	1481.61
1002.992	1500.07
1006.275	1441.71
1009.559	1443.88
1012.842	1507.73
1016.125	1477.18
1019.408	1461.62
1022.69	1495.04
1025.972	1514
1029.254	1500.48
1032.536	1475.05
1035.817	1478.93
1039.098	1460.2
1042.379	1488.6
1045.659	1504.79
1048.939	1469.24
1052.219	1471.82
1055.498	1464.29
1058.778	1457.57
1062.057	1444.29
1065.335	1461.82
1068.614	1464.1
1071.892	1459.38
1075.17	1492.42
1078.447	1495.09
1081.724	1492.51
1085.001	1503.48
1088.278	1488.29
1091.554	1490.62
1094.83	1489.97
1098.106	1512.23
1101.382	1528.36
1104.657	1527.32
1107.932	1527.92
1111.206	1514.48
1114.481	1482.52
1117.755	1482.39
1121.029	1479.08
1124.302	1517.83
1127.575	1498.25
1130.848	1496.95
1134.121	1477.55
1137.393	1450.79
1140.665	1490.74
1143.937	1473.59
1147.208	1441
1150.48	1479.8
1153.75	1472.48
1157.021	1474.5
1160.291	1458.76
1163.561	1492.27
1166.831	1466.67
1170.101	1479.65
1173.37	1456.42
1176.639	1428.33
1179.907	1461.39
1183.176	1473.59
1186.444	1475.19
1189.711	1488.49
1192.979	1505.37
1196.246	1476.35
1199.513	1486.56
1202.78	1491.02
1206.046	1498.43
1209.312	1516.64
1212.578	1523.63
1215.843	1499.34
1219.108	1481.06
1222.373	1495.17
1225.638	1480.05
1228.902	1471.75
1232.166	1449.06
1235.43	1441.31
1238.693	1460.99
1241.956	1456.21
1245.219	1486.98
1248.482	1477.56
1251.744	1477.97
1255.006	1553.62
1258.268	1520.35
1261.529	1496.62
1264.79	1494.47
1268.051	1555.05
1271.312	1560.08
1274.572	1538.99
1277.832	1530.93
1281.092	1516.26
1284.351	1514.94
1287.61	1506.58
1290.869	1465.31
1294.128	1465.5
1297.386	1488.81
1300.644	1487.3
1303.902	1490.46
1307.159	1407.2
1310.416	1438.57
1313.673	1455.61
1316.93	1458.82
1320.186	1473.01
1323.442	1490.6
1326.697	1492.97
1329.953	1476.28
1333.208	1501.17
1336.463	1486.12
1339.717	1466.85
1342.972	1537.26
1346.226	1519.02
1349.479	1494.25
1352.733	1478.04
1355.986	1489.42
1359.238	1478.4
1362.491	1479.72
1365.743	1481.58
1368.995	1477.23
1372.247	1489.09
1375.498	1498.45
1378.749	1524.62
1382	1498.76
1385.251	1515.6
1388.501	1490.54
1391.751	1486.74
1395	1471.12
1398.25	1488.91
1401.499	1505.9
1404.748	1476.47
1407.996	1463.82
1411.244	1462.06
1414.492	1451.59
1417.74	1441.91
1420.987	1449.63
1424.234	1486.87
1427.481	1462.69
1430.728	1496.95
1433.974	1484.66
1437.22	1483.66
1440.465	1478.17
1443.711	1480.74
1446.956	1491.42
1450.201	1474.42
1453.445	1503.44
1456.689	1491.72
1459.933	1500.05
1463.177	1526.68
1466.42	1510.17
1469.663	1496.45
1472.906	1505.9
1476.148	1537.56
1479.391	1509.34
1482.633	1496.92
1485.874	1511.4
1489.115	1513.96
1492.356	1504.49
1495.597	1489.21
1498.838	1479.48
1502.078	1472.57
1505.318	1459.45
1508.557	1474.94
1511.797	1474.36
1515.036	1507.44
1518.274	1481.24
1521.513	1447.96
1524.751	1453.14
1527.989	1466.34
1531.227	1476.9
1534.464	1484.02
1537.701	1475.72
1540.938	1479.75
1544.174	1449.79
1547.41	1437.76
1550.646	1461.43
1553.882	1490.09
1557.117	1530.21
1560.352	1534.05
1563.587	1507.09
1566.821	1487.23
1570.055	1501.46
1573.289	1484.49
1576.523	1516.12
1579.756	1523.32
1582.989	1538.12
1586.222	1509.14
1589.454	1532.85
1592.686	1522
1595.918	1536.52
1599.15	1535.89
1602.381	1563.9
1605.612	1551.42
1608.843	1610.26
1612.073	1562.06
1615.303	1555.72
1618.533	1550.12
1621.762	1553.02
1624.992	1533.5
1628.221	1530.93
1631.449	1526.89
1634.678	1541.71
1637.906	1520
1641.134	1533.62
1644.361	1511.76
1647.588	1505.4
1650.815	1522.05
1654.042	1500.11
1657.269	1514.65
1660.495	1503.52
1663.72	1495.65
1666.946	1473.52
1670.171	1463.11
1673.396	1444.72
1676.621	1433.21
1679.845	1431.81
1683.069	1435.07
1686.293	1449.7
1689.517	1446.11
1692.74	1420.44
1695.963	1432.65
1699.185	1455.74
1702.408	1440.55
1705.63	1456.81
1708.852	1468.22
1712.073	1449.14
1715.294	1460.91
1718.515	1491.82
1721.736	1466
1724.956	1455.11
1728.176	1469.91
1731.396	1481.31
1734.616	1478.18
1737.835	1506.29
1741.054	1483.57
1744.272	1482.72
1747.491	1509.95
1750.709	1521.32
1753.927	1493.77
1757.144	1511.26
1760.361	1546.72
1763.578	1529.16
1766.795	1498.16
1770.011	1487.04
1773.227	1499.13
1776.443	1529.25
1779.658	1552.82
1782.874	1519.38
1786.089	1514.99
1789.303	1515.04
1792.518	1513.78
1795.732	1508.92
1798.945	1516.82
1802.159	1545.91
1805.372	1511.83
1808.585	1507.8
1811.797	1507.8
1815.01	1526.3
1818.222	1543.68
1821.434	1516.58
1824.645	1541.77
1827.856	1548.51
1831.067	1562.85
1834.278	1528.2
1837.488	1516.72
1840.698	1594.75
1843.908	1565.27
1847.117	1547.09
1850.326	1499.62
1853.535	1536.23
1856.744	1563.76
1859.952	1516.75
1863.16	1517.73
1866.368	1535.21
1869.575	1605.22
1872.782	1534.44
1875.989	1493.33
1879.196	1525.73
1882.402	1521.68
1885.608	1540.19
1888.814	1506.07
1892.019	1449.64
1895.224	1487.3
1898.429	1468.14
1901.634	1454.55
1904.838	1442.21
1908.042	1478.94
1911.246	1491.84
1914.449	1467.9
1917.652	1457.4
1920.855	1447.61
1924.058	1462.43
1927.26	1495.7
1930.462	1505.53
1933.664	1530.05
1936.865	1499.05
1940.066	1508.44
1943.267	1473.13
1946.467	1479.16
1949.668	1485.94
1952.868	1530.15
1956.067	1528.82
1959.267	1490.86
1962.466	1506.47
1965.665	1493.98
1968.863	1492.58
1972.061	1487.99
1975.259	1483.15
1978.457	1530.97
1981.654	1505.67
1984.852	1507.94
1988.048	1483.12
1991.245	1470.6
1994.441	1527.53
1997.637	1492.84
2000.833	1483.64
2004.028	1504.49
2007.223	1550.14
2010.418	1539.75
2013.613	1507.91
2016.807	1504.02
2020.001	1501.81
2023.194	1513.6
2026.388	1501.96
2029.581	1467.76
2032.774	1511.93
2035.966	1517.46
2039.158	1483.07
2042.35	1495.14
2045.542	1447.34
2048.733	1499.85
2051.924	1489.86
2055.115	1498.98
2058.306	1478.33
2061.496	1514.41
2064.686	1543.73
2067.875	1478.62
2071.065	1479.5
2074.254	1492.1
2077.442	1460.33
2080.631	1515.59
2083.819	1477.24
2087.007	1471.1
2090.195	1463.2
2093.382	1466.93
2096.569	1461.25
2099.756	1436.81
2102.942	1477.11
2106.128	1483.39
2109.314	1477.41
2112.5	1470.63
2115.685	1449.16
2118.87	1452.66
2122.055	1499.23
2125.239	1483.32
2128.424	1480.58
2131.608	1510.14
2134.791	1497.86
2137.974	1519.57
2141.157	1512.78
2144.34	1495.83
2147.523	1486.07
2150.705	1507.16
2153.887	1481.5
2157.068	1464.07
2160.25	1449.9
2163.431	1466.35
2166.611	1450.99
2169.792	1466.99
2172.972	1406.51
2176.152	1443.89
2179.331	1457.35
2182.511	1458.86
2185.69	1470.06
2188.868	1476.06
2192.047	1496.51
2195.225	1515.52
2198.403	1475.6
2201.58	1466.87
2204.758	1454.38
2207.935	1504
2211.111	1450.42
2214.288	1442.76
2217.464	1465.65
2220.64	1438.35
2223.815	1468.51
2226.991	1425.34
2230.166	1432.48
2233.34	1465.29
2236.515	1472.28
2239.689	1520.15
2242.863	1485.2
2246.036	1518.26
2249.209	1508.59
2252.382	1523.1
2255.555	1526.74
2258.727	1499.25
2261.9	1514.71
2265.071	1510.9
2268.243	1508.77
2271.414	1478.08
2274.585	1464.03
2277.756	1505.53
2280.926	1476.77
2284.096	1497.33
2287.266	1449.19
2290.436	1484.93
2293.605	1493.95
2296.774	1522.39
2299.942	1525.35
2303.111	1536.76
2306.279	1570.73
2309.447	1564.24
2312.614	1547.65
2315.781	1562.29
2318.948	1543.99
2322.115	1571.23
2325.281	1499.66
2328.447	1506.13
2331.613	1483.28
2334.779	1481.3
2337.944	1475.19
2341.109	1476.44
2344.274	1469.21
2347.438	1447.28
2350.602	1461.23
2353.766	1468.74
2356.929	1464.14
2360.092	1489.58
2363.255	1466.59
2366.418	1452.92
2369.58	1478.61
2372.742	1456.39
2375.904	1440.17
2379.066	1434.74
2382.227	1450.68
2385.388	1426.35
2388.548	1395.73
2391.709	1417.03
2394.869	1414.64
2398.029	1448.39
2401.188	1437.73
2404.347	1425.74
2407.506	1423.13
2410.665	1462.2
2413.823	1447.92
2416.981	1437.58
2420.139	1447.48
2423.296	1472.79
2426.453	1457.62
2429.61	1470.73
2432.767	1454.99
2435.923	1479.75
2439.079	1443.79
2442.235	1467.13
2445.391	1427.72
2448.546	1455.96
2451.701	1477.75
2454.855	1476.46
2458.009	1495.16
2461.163	1484.23
2464.317	1464.14
2467.471	1481.41
2470.624	1503.49
2473.777	1496.49
2476.929	1507.74
2480.082	1521.51
2483.234	1510.55
2486.385	1472.65
2489.537	1467.72
2492.688	1460.73
2495.839	1478.39
2498.989	1487.19
2502.14	1478.19
2505.29	1471.52
2508.439	1487.61
2511.589	1451.24
2514.738	1449.81
2517.887	1459.97
2521.035	1508.08
2524.183	1478.18
2527.331	1473.49
2530.479	1465.03
2533.627	1468.73
