Data from N_1_DIV_IL_4N_Splice17_11-16-07-706.txt Node
Date: Sat Mar 14 11:16:07 EDT 2020
User: sa697716
Spectrometer: FLMS03696
Trigger mode: 0
Integration Time (sec): 3.180400E-1
Scans to average: 20
Electric dark correction enabled: true
Nonlinearity correction enabled: true
Boxcar width: 5
XAxis mode: Wavelengths
Number of Pixels in Spectrum: 2048
>>>>>Begin Spectral Data<<<<<
187.83	-92761.7
188.298	758.04
188.766	451.63
189.233	380.45
189.701	579.31
190.169	682.69
190.636	245.12
191.104	176.41
191.571	-10.29
192.039	-95.24
192.506	-167.04
192.974	-40.87
193.441	82.79
193.908	309.08
194.375	78.41
194.842	55.25
195.31	-12.26
195.777	62.66
196.244	105.93
196.711	75.63
197.177	78.06
197.644	76.67
198.111	148.74
198.578	222.72
199.045	162.85
199.511	286.45
199.978	324.66
200.445	303.86
200.911	326.74
201.378	363.42
201.844	365.36
202.31	614.84
202.777	662.86
203.243	362.88
203.709	345.29
204.176	446.87
204.642	378.27
205.108	379.64
205.574	322.11
206.04	281.04
206.506	253.57
206.972	232.87
207.438	221.88
207.903	264.88
208.369	259.68
208.835	271.52
209.301	263.25
209.766	257.77
210.232	249.82
210.697	293.4
211.163	351.9
211.628	544.94
212.094	479.23
212.559	610.3
213.024	377.68
213.49	454.45
213.955	409.48
214.42	387.91
214.885	348.84
215.35	330.64
215.815	351.92
216.28	374.43
216.745	281.64
217.21	293.23
217.675	238.52
218.14	243.89
218.604	225.16
219.069	258.26
219.534	277.83
219.998	293.02
220.463	323.56
220.927	295.65
221.392	267.61
221.856	268.7
222.32	272.18
222.785	322.71
223.249	368.33
223.713	397.85
224.177	361.06
224.642	400.06
225.106	420.2
225.57	440.98
226.034	383.82
226.497	504.85
226.961	477.53
227.425	577.33
227.889	613.17
228.353	591.23
228.816	1104.64
229.28	1063.59
229.744	854.56
230.207	586.53
230.671	578.31
231.134	801.29
231.597	953.87
232.061	869.73
232.524	752.29
232.987	512.09
233.45	457.71
233.914	399.16
234.377	349.33
234.84	315.19
235.303	343.57
235.766	368.66
236.229	396.91
236.691	244.51
237.154	255.77
237.617	218.91
238.08	201.13
238.542	243.43
239.005	193.56
239.468	216.59
239.93	208.06
240.393	192.26
240.855	176.8
241.317	174.93
241.78	187.2
242.242	203.1
242.704	234.25
243.166	211.7
243.629	213.35
244.091	243.25
244.553	259.35
245.015	280.51
245.477	347.87
245.939	467.75
246.4	490.75
246.862	480.77
247.324	456.59
247.786	460
248.247	586.03
248.709	482.01
249.17	375.45
249.632	408.53
250.093	516.53
250.555	457.35
251.016	311.19
251.477	288.42
251.939	331.93
252.4	320.49
252.861	374.29
253.322	370.29
253.783	437.17
254.244	554.68
254.705	396.65
255.166	311.67
255.627	282.01
256.088	377.93
256.549	407.26
257.009	333.11
257.47	405.72
257.931	307.11
258.391	243.9
258.852	249.19
259.312	245.59
259.773	268.68
260.233	301.89
260.694	278.44
261.154	303.31
261.614	290.86
262.074	250.91
262.534	278.26
262.994	275.81
263.455	334.18
263.915	298.87
264.374	272.06
264.834	297.39
265.294	265.56
265.754	285.49
266.214	251.75
266.673	217.95
267.133	268.13
267.593	255.17
268.052	294.88
268.512	232.5
268.971	303.2
269.431	351.19
269.89	315.13
270.349	495.91
270.809	547.05
271.268	510.85
271.727	1002.52
272.186	689.21
272.645	477.44
273.104	331.61
273.563	489.08
274.022	314.76
274.481	275.45
274.94	211.74
275.399	148.4
275.857	139.8
276.316	168.26
276.775	175.25
277.233	139.42
277.692	144.19
278.15	177.08
278.609	237.84
279.067	239.27
279.525	237.88
279.984	295.02
280.442	345.77
280.9	392.21
281.358	277.43
281.816	250.43
282.274	263.71
282.732	261.83
283.19	245.43
283.648	196.29
284.106	187.09
284.564	189.63
285.021	214.27
285.479	182.91
285.937	159.12
286.394	158.41
286.852	161.44
287.309	170.31
287.767	193.36
288.224	210.52
288.682	229.81
289.139	268.38
289.596	245.86
290.053	230.22
290.511	251.39
290.968	310.78
291.425	376.17
291.882	371.01
292.339	335.66
292.796	314.1
293.252	284.67
293.709	251.19
294.166	226.91
294.623	237.06
295.079	223.1
295.536	244.77
295.992	229.27
296.449	228.11
296.905	226.78
297.362	238.92
297.818	242.59
298.274	253.07
298.731	231.66
299.187	222.31
299.643	239.64
300.099	300.69
300.555	327
301.011	268.26
301.467	309.39
301.923	309.28
302.379	291.48
302.835	287.31
303.291	281.22
303.746	319.15
304.202	387.97
304.658	409.04
305.113	299.36
305.569	293.3
306.024	302.91
306.479	243.61
306.935	237.15
307.39	231.27
307.845	212.08
308.301	229.79
308.756	199.33
309.211	217.05
309.666	205.34
310.121	250.14
310.576	241.59
311.031	230.79
311.486	237.1
311.94	232.27
312.395	326.67
312.85	627.93
313.305	2377.96
313.759	18387.74
314.214	1323.58
314.668	1109.21
315.123	1019.52
315.577	415.57
316.032	388.96
316.486	464.82
316.94	388.15
317.394	295.37
317.849	224.44
318.303	225.24
318.757	209.08
319.211	222.8
319.665	188.85
320.119	186.9
320.572	240.22
321.026	261.1
321.48	225.21
321.934	207.02
322.387	191.1
322.841	236.85
323.295	241.16
323.748	248.02
324.202	259.66
324.655	342.01
325.108	502.82
325.562	376.26
326.015	392.27
326.468	329.41
326.921	388.66
327.374	397.3
327.827	407.63
328.28	440.17
328.733	312.47
329.186	276.68
329.639	263.61
330.092	212.24
330.545	208.75
330.997	226.78
331.45	260.56
331.903	342.72
332.355	502.93
332.808	474.23
333.26	390.07
333.713	431.77
334.165	414.12
334.617	530.21
335.069	384.66
335.522	618.73
335.974	653.28
336.426	516.66
336.878	294.93
337.33	205.57
337.782	179.85
338.234	241.18
338.686	297.65
339.137	354.41
339.589	314.55
340.041	299.35
340.493	238.52
340.944	221.34
341.396	231.22
341.847	209.28
342.299	241.51
342.75	340.17
343.201	281.93
343.653	286.83
344.104	356.66
344.555	283.47
345.006	367.54
345.457	379.61
345.908	305.95
346.359	321.12
346.81	261.79
347.261	259.69
347.712	232.99
348.163	226.56
348.613	263.19
349.064	232.24
349.515	202.79
349.965	219.76
350.416	230.09
350.866	251.86
351.317	269.89
351.767	426.47
352.217	549.08
352.668	490.95
353.118	488.57
353.568	413.22
354.018	387.48
354.468	404.93
354.918	297.56
355.368	276.85
355.818	407.98
356.268	1049.02
356.718	4750.19
357.168	1224.45
357.617	627.37
358.067	617.9
358.517	580.49
358.966	670.36
359.416	864.59
359.865	937.18
360.315	1070.3
360.764	482.72
361.213	293.88
361.663	237.02
362.112	267.02
362.561	393.14
363.01	299.65
363.459	242.27
363.908	249.56
364.357	241.22
364.806	323.03
365.255	216.84
365.703	251.06
366.152	241.83
366.601	197.28
367.05	182.49
367.498	192.58
367.947	207.8
368.395	218.13
368.844	206.68
369.292	206.68
369.74	173.49
370.189	244.02
370.637	240.72
371.085	209.25
371.533	269.65
371.981	218.04
372.429	187.62
372.877	204.92
373.325	170.77
373.773	144.42
374.221	122.68
374.669	117.98
375.116	117.33
375.564	133.87
376.012	127.65
376.459	123.25
376.907	171.06
377.354	213.34
377.801	201.1
378.249	271.31
378.696	317.6
379.143	384.34
379.591	449.03
380.038	685.7
380.485	457.92
380.932	505.12
381.379	501.98
381.826	428.1
382.273	296.33
382.72	251.75
383.166	245.17
383.613	195.66
384.06	182.46
384.506	203.3
384.953	165.68
385.4	167.44
385.846	158.25
386.292	133.75
386.739	106.52
387.185	96.07
387.631	99.79
388.078	108.6
388.524	107.86
388.97	108.59
389.416	95.73
389.862	100.77
390.308	101.79
390.754	97.1
391.2	102.21
391.645	103.21
392.091	133.81
392.537	133.2
392.983	117.1
393.428	139.75
393.874	137.07
394.319	151.84
394.765	159.28
395.21	153.02
395.655	149.52
396.101	149.89
396.546	142.34
396.991	118.93
397.436	115.13
397.881	110.15
398.326	89.21
398.771	93.61
399.216	73.6
399.661	63.45
400.106	64.9
400.551	69.03
400.995	58.85
401.44	55.3
401.885	55.21
402.329	51.19
402.774	51.69
403.218	57.39
403.663	51.73
404.107	53.53
404.551	52.2
404.995	49.24
405.44	45.37
405.884	45.01
406.328	39.68
406.772	36.23
407.216	37.15
407.66	32.15
408.104	25.53
408.547	24.51
408.991	25.41
409.435	23.41
409.879	25.75
410.322	24.65
410.766	25.6
411.209	31.11
411.653	31.39
412.096	29.4
412.54	27.26
412.983	27.61
413.426	28.78
413.869	26.65
414.312	29
414.756	24.33
415.199	24.59
415.642	26.2
416.085	25.35
416.527	24.58
416.97	26.02
417.413	30.49
417.856	28.31
418.298	28.08
418.741	25.95
419.184	21.2
419.626	19.15
420.069	17.92
420.511	16.96
420.953	16.78
421.396	16.37
421.838	13.66
422.28	12.84
422.722	14.24
423.164	11.65
423.606	12.15
424.048	15.1
424.49	17.3
424.932	18.24
425.374	18.12
425.816	16.91
426.258	16.76
426.699	18.55
427.141	20.14
427.582	18.54
428.024	18.01
428.465	17.09
428.907	16.41
429.348	16.93
429.789	18.49
430.231	20.17
430.672	20.89
431.113	21.73
431.554	21.11
431.995	18.72
432.436	20.6
432.877	21.7
433.318	25.12
433.759	23.56
434.2	22.26
434.64	18.81
435.081	17.53
435.522	17.57
435.962	15.46
436.403	15.81
436.843	14.8
437.284	13.37
437.724	10.52
438.164	6.16
438.604	6.91
439.045	9.88
439.485	13.13
439.925	13.28
440.365	12.07
440.805	14.04
441.245	13.87
441.685	13.51
442.125	13.25
442.564	14.38
443.004	15.19
443.444	14.99
443.883	14.49
444.323	12.57
444.762	7.89
445.202	6.5
445.641	5.57
446.081	4.99
446.52	5.86
446.959	6.19
447.398	7.19
447.837	8.15
448.276	7.51
448.716	8.27
449.154	6.78
449.593	10.2
450.032	11.65
450.471	10.53
450.91	9.75
451.349	10.09
451.787	9.06
452.226	7.88
452.664	6.89
453.103	7.37
453.541	5.71
453.98	7.78
454.418	7.5
454.856	7.64
455.295	8.34
455.733	7.93
456.171	7.46
456.609	8.41
457.047	8.96
457.485	10.63
457.923	11.52
458.361	11.23
458.798	10.18
459.236	10.16
459.674	9.22
460.111	8.86
460.549	9.72
460.987	8.26
461.424	7.79
461.862	8.27
462.299	8.73
462.736	9.3
463.173	9.26
463.611	11.9
464.048	12.11
464.485	12.7
464.922	13.09
465.359	13.05
465.796	20.45
466.233	21.95
466.67	23.71
467.106	24.66
467.543	22.37
467.98	21.93
468.416	19.53
468.853	18.42
469.29	18.08
469.726	16.85
470.162	16.45
470.599	10.36
471.035	9.03
471.471	6.87
471.907	4.33
472.344	4.76
472.78	5.15
473.216	4.48
473.652	5.11
474.088	4.29
474.523	5.22
474.959	4.35
475.395	4.92
475.831	4.74
476.266	5.14
476.702	4.64
477.138	5.14
477.573	4.77
478.008	4.86
478.444	6.37
478.879	7.74
479.314	7.63
479.75	8.71
480.185	8.09
480.62	8.53
481.055	7.62
481.49	9.27
481.925	9.16
482.36	10.76
482.795	10.33
483.229	9.05
483.664	8.46
484.099	8.11
484.534	7.47
484.968	7.51
485.403	6.38
485.837	6.45
486.271	5.28
486.706	5.11
487.14	3.78
487.574	4.62
488.009	4.22
488.443	4.07
488.877	4.78
489.311	4.6
489.745	4.77
490.179	5.33
490.613	6.66
491.046	6.23
491.48	6
491.914	6.38
492.348	5.9
492.781	5.86
493.215	5.62
493.648	4.52
494.082	4.37
494.515	4.51
494.948	5.33
495.382	4.07
495.815	4.55
496.248	5.02
496.681	4.16
497.114	3.88
497.547	4.21
497.98	4.74
498.413	6.09
498.846	6.68
499.279	5.54
499.711	4.44
500.144	4.43
500.577	5.12
501.009	4.57
501.442	5.37
501.874	6
502.306	5.68
502.739	6.91
503.171	6.23
503.603	6.05
504.036	6.96
504.468	7.65
504.9	8.15
505.332	7.4
505.764	7.62
506.196	7.76
506.627	7.54
507.059	7.67
507.491	6.02
507.923	6.26
508.354	6.43
508.786	6.03
509.217	5.42
509.649	5.27
510.08	5.57
510.512	6.13
510.943	5.81
511.374	5.82
511.805	5.84
512.237	5.6
512.668	4.69
513.099	4.1
513.53	4.34
513.961	5.05
514.391	4.96
514.822	5.9
515.253	6.34
515.684	6.6
516.114	6.85
516.545	6.41
516.975	6.61
517.406	6.7
517.836	6.76
518.267	6.58
518.697	6.88
519.127	6.72
519.558	5.58
519.988	4.47
520.418	3.91
520.848	2.94
521.278	2.83
521.708	18.15
522.138	18.84
522.567	18.22
522.997	18.51
523.427	17.51
523.857	17.53
524.286	17.67
524.716	18.22
525.145	18.87
525.575	19.74
526.004	19.44
526.433	4.72
526.863	4.59
527.292	5.74
527.721	5.74
528.15	6.18
528.579	6.5
529.008	6.17
529.437	4.98
529.866	4.22
530.295	3.25
530.724	4.27
531.152	4.52
531.581	5.3
532.01	4.82
532.438	4.75
532.867	4.25
533.295	4.34
533.723	4.68
534.152	5.29
534.58	5.66
535.008	6.34
535.436	6.57
535.865	6.02
536.293	4.16
536.721	4
537.149	4.06
537.576	4.79
538.004	4.95
538.432	4.31
538.86	4.85
539.287	4.44
539.715	4.67
540.143	4.22
540.57	4.63
540.998	5.21
541.425	6.79
541.852	6.43
542.28	5.61
542.707	5.4
543.134	5.92
543.561	5.5
543.988	5.63
544.415	5.27
544.842	5.1
545.269	4.81
545.696	5.41
546.123	4.62
546.549	5.25
546.976	5.96
547.403	6.15
547.829	5.47
548.256	5.35
548.682	5.62
549.108	6.23
549.535	5.89
549.961	5.23
550.387	4.81
550.813	5.61
551.24	5.12
551.666	4.46
552.092	3.97
552.518	4.46
552.943	5.21
553.369	5.57
553.795	5.29
554.221	6.25
554.646	6.9
555.072	7.78
555.498	6.15
555.923	5.74
556.349	6
556.774	6.12
557.199	5.92
557.625	5.41
558.05	4.85
558.475	4.59
558.9	4.2
559.325	4.77
559.75	4.78
560.175	4.97
560.6	5.02
561.025	4.95
561.449	5.33
561.874	5.13
562.299	5.17
562.723	5.21
563.148	5.55
563.572	5.25
563.997	4.56
564.421	3.4
564.846	2.82
565.27	2.66
565.694	2.64
566.118	2.3
566.542	3.32
566.966	3.86
567.39	3.96
567.814	3.96
568.238	4.35
568.662	3.75
569.086	4.46
569.509	4.77
569.933	5.98
570.357	5.9
570.78	5.43
571.204	5.63
571.627	5.48
572.05	5.33
572.474	6.03
572.897	5.86
573.32	7.22
573.743	6.58
574.166	7.13
574.589	6.44
575.012	6.66
575.435	6.88
575.858	6.62
576.281	6.67
576.704	6.56
577.126	5.47
577.549	5.19
577.972	3.89
578.394	4.43
578.817	5.79
579.239	5.78
579.661	5.8
580.084	6.88
580.506	6.59
580.928	6.08
581.35	5.89
581.772	6.17
582.194	6.63
582.616	6.75
583.038	5.72
583.46	4.2
583.882	4.12
584.303	3.4
584.725	2.32
585.147	5.38
585.568	5.77
585.99	6.66
586.411	6.87
586.833	6.79
587.254	7.12
587.675	7.95
588.096	7.95
588.518	8.46
588.939	9.43
589.36	10.29
589.781	6.77
590.202	8.35
590.623	7.92
591.043	7.29
591.464	7.4
591.885	7.34
592.305	6.81
592.726	6.84
593.147	6.49
593.567	6.33
593.987	5.72
594.408	5.88
594.828	3.94
595.248	4.11
595.669	5.14
596.089	4.62
596.509	4.83
596.929	5.06
597.349	5.28
597.769	4.99
598.189	4.8
598.608	5.25
599.028	4.83
599.448	4.52
599.867	4.21
600.287	2.96
600.706	3.35
601.126	3.52
601.545	4.07
601.965	3.88
602.384	4.37
602.803	3.96
603.222	3.32
603.641	3.2
604.061	3.92
604.48	3.88
604.898	4.14
605.317	3.68
605.736	3.7
606.155	3.64
606.574	3.51
606.992	3.44
607.411	4.16
607.829	4.17
608.248	4.02
608.666	3.11
609.085	3.66
609.503	3.59
609.921	4.07
610.339	3.76
610.758	3.19
611.176	3.65
611.594	3.86
612.012	3.88
612.43	4.89
612.847	5.34
613.265	6.69
613.683	6.81
614.101	7.59
614.518	7.15
614.936	7.2
615.353	8.16
615.771	7.86
616.188	7.47
616.606	6.9
617.023	6.13
617.44	6.36
617.857	5.27
618.274	4.99
618.691	4.99
619.108	4.93
619.525	4.3
619.942	4.47
620.359	4.17
620.776	4.23
621.192	5.13
621.609	5.69
622.026	5.85
622.442	5.77
622.859	5.02
623.275	4.73
623.691	4.95
624.108	5.54
624.524	5.15
624.94	5.88
625.356	5.58
625.772	4.69
626.188	4.14
626.604	3.43
627.02	3.53
627.436	4.59
627.852	5.84
628.268	6.55
628.683	6.53
629.099	5.88
629.514	5.26
629.93	5.97
630.345	5.85
630.761	6
631.176	6.44
631.591	8.26
632.007	8.18
632.422	6.67
632.837	5.97
633.252	6.8
633.667	7.18
634.082	7.8
634.497	7.8
634.911	9.51
635.326	9.35
635.741	9.45
636.155	7.96
636.57	8.59
636.984	8.75
637.399	9.18
637.813	8.76
638.228	8.66
638.642	8.13
639.056	8.33
639.47	7.04
639.884	7.87
640.298	7.72
640.712	8.53
641.126	8.29
641.54	8.19
641.954	6.52
642.368	6.42
642.781	8.49
643.195	8.56
643.609	8.77
644.022	8.68
644.436	7.87
644.849	7.49
645.262	7.06
645.676	6.02
646.089	6.17
646.502	8.04
646.915	7.62
647.328	6.02
647.741	6.45
648.154	5.98
648.567	7.44
648.98	8.05
649.393	8.58
649.805	8.98
650.218	9.01
650.631	9.41
651.043	9.4
651.456	9.52
651.868	9.4
652.28	8.96
652.693	8.54
653.105	7.81
653.517	7.2
653.929	6.86
654.341	7.29
654.753	7.84
655.165	7.75
655.577	7.55
655.989	8.51
656.401	7.68
656.813	8.77
657.224	9.21
657.636	8.47
658.047	8.91
658.459	8.96
658.87	7.48
659.282	7.04
659.693	7.75
660.104	8.03
660.515	7.55
660.926	7.32
661.338	5.96
661.749	5.36
662.159	5.97
662.57	4.99
662.981	6.1
663.392	6.24
663.803	6.12
664.213	5.09
664.624	4.64
665.035	3.63
665.445	3.62
665.855	5.03
666.266	6.29
666.676	6.34
667.086	6.6
667.497	6.18
667.907	6.41
668.317	6.37
668.727	8.48
669.137	7.85
669.547	8.33
669.956	8.67
670.366	7.92
670.776	7.2
671.186	7.87
671.595	8.2
672.005	7.68
672.414	8.22
672.824	8.87
673.233	7.05
673.642	7.87
674.052	8.25
674.461	9.55
674.87	9.68
675.279	10.58
675.688	8.58
676.097	9.56
676.506	10.17
676.915	9.17
677.323	9.36
677.732	9.32
678.141	8.63
678.549	8.55
678.958	7.16
679.366	6.48
679.775	5.37
680.183	7.12
680.592	6.27
681	5.63
681.408	6.58
681.816	6.44
682.224	6.85
682.632	8.88
683.04	9.82
683.448	10.26
683.856	11.94
684.264	12.5
684.671	12.48
685.079	12.62
685.487	13.37
685.894	12.79
686.302	11.97
686.709	11.48
687.116	10.05
687.524	9.99
687.931	11.74
688.338	11.64
688.745	10.97
689.152	9.63
689.559	10.37
689.966	10.63
690.373	10.84
690.78	11.47
691.187	12.28
691.593	12.61
692	11.06
692.407	10.46
692.813	11.67
693.22	12.93
693.626	11.82
694.032	12.12
694.439	12.25
694.845	12.55
695.251	12.34
695.657	11.98
696.063	10.54
696.469	11.45
696.875	10.3
697.281	8.77
697.687	8.06
698.093	9.24
698.498	9.24
698.904	8.69
699.31	8.17
699.715	9.98
700.12	9.23
700.526	10.78
700.931	10.67
701.337	11.77
701.742	12.42
702.147	12.46
702.552	13.2
702.957	12.04
703.362	12.29
703.767	11.76
704.172	10.34
704.577	9.93
704.981	9.1
705.386	9.51
705.791	8.97
706.195	7.88
706.6	8.55
707.004	7.58
707.408	7.62
707.813	8.01
708.217	9.22
708.621	8.85
709.025	9.4
709.43	10.64
709.834	10.12
710.237	9.99
710.641	10.63
711.045	10.28
711.449	11.42
711.853	13.76
712.256	13.26
712.66	12.63
713.064	12.57
713.467	13.58
713.87	12.89
714.274	12.96
714.677	13.99
715.08	14.48
715.484	15.08
715.887	16.9
716.29	14.63
716.693	15.07
717.096	17.34
717.499	19.05
717.901	18.78
718.304	18.81
718.707	19.6
719.109	18.57
719.512	16.74
719.915	17.91
720.317	16.12
720.719	14.99
721.122	15.25
721.524	14.59
721.926	16.98
722.328	17.03
722.731	17.6
723.133	17.28
723.535	16.94
723.937	17.61
724.338	18.29
724.74	19.46
725.142	54.15
725.544	56.4
725.945	64.05
726.347	61.37
726.748	61.78
727.15	61.74
727.551	64.44
727.952	63.93
728.354	64
728.755	61.52
729.156	59.77
729.557	25.82
729.958	22.53
730.359	14.19
730.76	14.12
731.161	12.96
731.562	11.72
731.962	9.16
732.363	9.53
732.763	8.72
733.164	7.44
733.564	7.53
733.965	9.32
734.365	9.89
734.766	10.38
735.166	10.56
735.566	10.57
735.966	11.14
736.366	11.63
736.766	11.63
737.166	12.07
737.566	12.42
737.966	12.11
738.365	12.36
738.765	13.65
739.165	13.56
739.564	12.26
739.964	12.25
740.363	11.6
740.763	10.78
741.162	11.71
741.561	11.63
741.96	12.66
742.36	11.97
742.759	11.38
743.158	9.81
743.557	9.71
743.955	9.89
744.354	10.05
744.753	9.82
745.152	10.95
745.55	9.23
745.949	7.91
746.348	7.27
746.746	6.98
747.144	8.49
747.543	7.73
747.941	7.2
748.339	7.06
748.737	7.38
749.136	8.34
749.534	5.87
749.932	7.98
750.33	8.63
750.727	8.64
751.125	10.45
751.523	9.64
751.921	12.05
752.318	12.97
752.716	15.03
753.113	15.26
753.511	14.63
753.908	16.81
754.305	19.34
754.703	20.43
755.1	20.98
755.497	20.72
755.894	20.63
756.291	19.06
756.688	19.62
757.085	17.97
757.482	19.64
757.878	23.05
758.275	24
758.672	20.65
759.068	19.88
759.465	18.6
759.861	20.02
760.258	19.61
760.654	22.25
761.05	23.85
761.447	23.59
761.843	20.35
762.239	19.16
762.635	16.46
763.031	13.5
763.427	13.78
763.822	15.95
764.218	13.64
764.614	14.52
765.01	11.34
765.405	9.53
765.801	10.9
766.196	10.32
766.592	9.36
766.987	10.72
767.382	11.53
767.778	11.46
768.173	10.64
768.568	10.93
768.963	10.82
769.358	12.43
769.753	14.23
770.148	14.1
770.542	12.95
770.937	12.13
771.332	11.44
771.726	10.5
772.121	13.23
772.515	13.55
772.91	14.18
773.304	14.46
773.699	13.95
774.093	11.38
774.487	11.26
774.881	12.65
775.275	13.21
775.669	13.11
776.063	14.07
776.457	12.28
776.851	13.37
777.245	13.34
777.638	13.34
778.032	13.11
778.425	15.1
778.819	17.44
779.212	19.77
779.606	21.01
779.999	21.73
780.392	23.13
780.786	22.46
781.179	21.11
781.572	21.4
781.965	22.7
782.358	23.23
782.751	23.55
783.143	21.89
783.536	21.13
783.929	20.02
784.322	18.2
784.714	16.46
785.107	16.8
785.499	18.34
785.891	18.57
786.284	16.25
786.676	17.23
787.068	18.08
787.46	17.84
787.852	15.87
788.245	15.36
788.636	15.33
789.028	17.43
789.42	19.43
789.812	20.52
790.204	21.53
790.595	24.58
790.987	23.82
791.378	23.9
791.77	22.24
792.161	22.55
792.553	23.87
792.944	25.35
793.335	23.43
793.726	24.18
794.117	24.56
794.508	22.08
794.899	18.26
795.29	17.57
795.681	15.32
796.072	15.97
796.463	29.84
796.853	32.71
797.244	32.75
797.634	33.83
798.025	31.37
798.415	28.2
798.806	30.7
799.196	33.6
799.586	36.08
799.976	37.36
800.366	38.43
800.756	25.47
801.146	23.24
801.536	23.05
801.926	23.17
802.316	24.99
802.706	27.51
803.095	26.64
803.485	26.81
803.874	27.2
804.264	27.02
804.653	25.92
805.043	28.11
805.432	28.59
805.821	29.79
806.21	28.7
806.599	27.26
806.988	26.74
807.377	24.88
807.766	24.76
808.155	23.05
808.544	23.12
808.933	25.39
809.321	25.02
809.71	23.6
810.098	23.36
810.487	21.79
810.875	21.17
811.264	21.63
811.652	32.77
812.04	32.86
812.428	33.66
812.816	33.97
813.204	35.25
813.592	32.49
813.98	31.42
814.368	34.96
814.756	36.11
815.144	39.24
815.531	41.98
815.919	31.97
816.306	34.04
816.694	32.87
817.081	36.18
817.469	39.27
817.856	36.94
818.243	36.46
818.63	35.95
819.017	38.49
819.404	38.83
819.791	34.84
820.178	30.83
820.565	30.22
820.952	37.15
821.339	33.82
821.725	30.89
822.112	36.22
822.498	40.68
822.885	38.11
823.271	36.35
823.657	33.42
824.044	37.49
824.43	38.76
824.816	46.33
825.202	45.1
825.588	48.11
825.974	50.73
826.36	47.52
826.746	46.23
827.132	45.31
827.517	49.85
827.903	50.95
828.289	50.3
828.674	53.96
829.06	47.1
829.445	42.12
829.83	37.92
830.216	36.18
830.601	41.65
830.986	47.43
831.371	47.79
831.756	50.14
832.141	55.39
832.526	56.36
832.911	54.9
833.295	52.88
833.68	54.4
834.065	57.71
834.449	56.75
834.834	54.44
835.218	53.4
835.603	56.16
835.987	51.89
836.371	47.25
836.755	48.61
837.139	46.51
837.524	44.64
837.908	41.89
838.291	42.3
838.675	40.76
839.059	39.23
839.443	32.69
839.827	29.35
840.21	23.34
840.594	24.31
840.977	23
841.361	24.16
841.744	21.91
842.127	25.68
842.511	25.27
842.894	25.17
843.277	27.85
843.66	28.87
844.043	32.37
844.426	40.11
844.809	35.07
845.191	35.99
845.574	35.03
845.957	37.98
846.339	38.32
846.722	38.89
847.104	36.98
847.487	33.47
847.869	35.05
848.252	35.66
848.634	33.31
849.016	37.05
849.398	31.23
849.78	31.96
850.162	32.63
850.544	32.25
850.926	30.18
851.307	30.42
851.689	33.12
852.071	31.54
852.452	29.79
852.834	32.24
853.215	33.28
853.597	33.45
853.978	35.14
854.359	34.31
854.741	33.48
855.122	31.01
855.503	32.74
855.884	30.95
856.265	28.99
856.646	22.91
857.026	27.6
857.407	30.35
857.788	31.27
858.169	28.95
858.549	36.61
858.93	40.75
859.31	42.27
859.69	45.52
860.071	47.14
860.451	48.97
860.831	51.91
861.211	43.48
861.591	36.91
861.971	35.72
862.351	36.8
862.731	31.44
863.111	31.81
863.491	36.21
863.87	34.12
864.25	29.63
864.629	37.27
865.009	36.91
865.388	45.34
865.768	49.52
866.147	58.83
866.526	57.11
866.905	58.52
867.284	48.4
867.663	39.42
868.042	34.66
868.421	37.5
868.8	27.33
869.179	29.56
869.558	22.26
869.936	22.71
870.315	17.53
870.693	21.57
871.072	23.56
871.45	26.28
871.828	31.68
872.207	32.86
872.585	33.24
872.963	33.84
873.341	38.18
873.719	47.02
874.097	47.11
874.475	46.79
874.853	42.36
875.23	38.25
875.608	43.17
875.986	46.33
876.363	49.35
876.741	59.44
877.118	68.09
877.495	70.12
877.873	67.57
878.25	68.54
878.627	67.74
879.004	71.05
879.381	69.34
879.758	69.55
880.135	64.04
880.512	63.91
880.889	49.79
881.265	43.47
881.642	34.84
882.019	35.34
882.395	43.34
882.772	52.73
883.148	54.16
883.524	57.95
883.901	55.03
884.277	52.93
884.653	53.33
885.029	63.85
885.405	79.03
885.781	84.22
886.157	81.05
886.532	75.62
886.908	67.66
887.284	63.58
887.659	61.88
888.035	59.98
888.411	59.62
888.786	53.52
889.161	48.05
889.537	36.7
889.912	36.38
890.287	37.52
890.662	34.25
891.037	29.72
891.412	30.21
891.787	25.86
892.162	31.6
892.536	34.4
892.911	42.19
893.286	42.18
893.66	43.78
894.035	45.75
894.409	41.11
894.784	48.39
895.158	51.2
895.532	57.51
895.906	64.13
896.281	66.37
896.655	71.79
897.029	75.48
897.402	78.89
897.776	80.23
898.15	83.23
898.524	90.13
898.898	81.76
899.271	91.76
899.645	80.78
900.018	79.73
900.392	74.53
900.765	62.44
901.138	63.09
901.511	54.72
901.884	65.14
902.258	66.58
902.631	71.3
903.003	70.39
903.376	66.09
903.749	80.48
904.122	81.4
904.495	84.56
904.867	83.03
905.24	80.86
905.612	78.11
905.985	61.44
906.357	42.76
906.729	46.27
907.102	57.29
907.474	56.34
907.846	55.45
908.218	57.01
908.59	70.98
908.962	75.12
909.334	78.35
909.705	94.16
910.077	93.02
910.449	107.19
910.82	109.16
911.192	113.07
911.563	130.22
911.935	129.39
912.306	122.13
912.677	106.49
913.048	111.14
913.419	109.04
913.79	93.19
914.161	100.68
914.532	103.29
914.903	89.72
915.274	90.81
915.645	80.47
916.015	64.57
916.386	66.58
916.756	68.24
917.127	64.72
917.497	69.81
917.868	93.16
918.238	89.85
918.608	89.66
918.978	93.68
919.348	85.84
919.718	79.58
920.088	95.18
920.458	106.5
920.828	106.11
921.198	105.77
921.567	96.32
921.937	68.94
922.306	67.22
922.676	62.37
923.045	64.36
923.415	73.11
923.784	75.62
924.153	80.54
924.522	78.85
924.891	70.26
925.26	79.02
925.629	78.56
925.998	76.86
926.367	85.09
926.736	99.52
927.104	107.13
927.473	105.22
927.842	103.54
928.21	88.22
928.578	78.01
928.947	112.88
929.315	108.73
929.683	140.78
930.051	169.85
930.42	174.72
930.788	139.51
931.156	132.65
931.523	165.42
931.891	171.45
932.259	174.75
932.627	218.25
932.994	265.91
933.362	233.89
933.729	214.64
934.097	196.45
934.464	176.3
934.831	195.08
935.199	197.8
935.566	175.81
935.933	212.05
936.3	278.92
936.667	225.69
937.034	282.23
937.401	279.51
937.767	256.7
938.134	228.84
938.501	313.86
938.867	369.12
939.234	623.13
939.6	522.96
939.967	527.88
940.333	383.44
940.699	335.25
941.065	209.19
941.431	292.85
941.798	303.34
942.163	434.87
942.529	293.69
942.895	247.92
943.261	176.03
943.627	225.54
943.992	213.49
944.358	200.22
944.723	222.14
945.089	209.1
945.454	191.09
945.82	179.85
946.185	163.64
946.55	194.97
946.915	199.09
947.28	231.83
947.645	212.4
948.01	193.12
948.375	201.33
948.74	210.38
949.104	233.71
949.469	268.11
949.834	486.96
950.198	537.63
950.562	361.96
950.927	281.45
951.291	345.85
951.655	283.89
952.02	253.84
952.384	198.75
952.748	196.41
953.112	227.19
953.476	209.76
953.839	185.08
954.203	187.07
954.567	203.47
954.931	274.9
955.294	220.72
955.658	225.78
956.021	374.15
956.385	572.7
956.748	765.47
957.111	951.27
957.474	1021.79
957.837	1061.73
958.2	525.83
958.563	245.87
958.926	195.68
959.289	330.88
959.652	366.83
960.015	257.29
960.377	356.4
960.74	427.44
961.102	643.7
961.465	859.57
961.827	738.2
962.189	1406.05
962.552	981.64
962.914	737.69
963.276	441.25
963.638	359.97
964	346.6
964.362	264.98
964.724	228.69
965.085	186.27
965.447	165.73
965.809	125.72
966.17	115.48
966.532	118.69
966.893	130.06
967.255	112.28
967.616	132.21
967.977	123.45
968.338	115.28
968.699	115.84
969.061	117.44
969.421	102.51
969.782	118.5
970.143	124.36
970.504	149.08
970.865	167.44
971.225	188.52
971.586	168.12
971.946	211.21
972.307	200.94
972.667	227.05
973.027	214.18
973.388	262.31
973.748	180.02
974.108	223.34
974.468	227.19
974.828	229.42
975.188	186.15
975.548	201.22
975.907	180.68
976.267	203.08
976.627	188.48
976.986	184.74
977.346	160.77
977.705	160.09
978.064	125.29
978.424	116.34
978.783	94.11
979.142	95.91
979.501	87.28
979.86	97.39
980.219	74.05
980.578	76.1
980.937	95.28
981.296	109.18
981.654	109.66
982.013	147.72
982.371	173.9
982.73	166.58
983.088	198.33
983.447	233.54
983.805	344.99
984.163	856.3
984.521	893.7
984.879	1197.45
985.237	-1826.97
985.595	2541.93
985.953	749.57
986.311	437.62
986.669	286.88
987.026	241.4
987.384	279.25
987.741	251.5
988.099	219.12
988.456	190.48
988.814	201.55
989.171	192.77
989.528	136.14
989.885	127.22
990.242	98.17
990.599	96.59
990.956	67.34
991.313	68.64
991.67	60.11
992.027	87.59
992.383	90.03
992.74	83.82
993.096	83.65
993.453	89.23
993.809	81.36
994.165	116.54
994.522	139.2
994.878	169.53
995.234	201.66
995.59	211.52
995.946	152.07
996.302	172.81
996.658	210.63
997.013	220.59
997.369	318.19
997.725	437.77
998.08	277.35
998.436	318.35
998.791	400.82
999.147	401.85
999.502	424.52
999.857	319.12
1000.212	420.73
1000.567	481.27
1000.922	313.54
1001.277	178.96
1001.632	146.49
1001.987	176.7
1002.342	140.94
1002.696	139.25
1003.051	141.2
1003.406	184.93
1003.76	155.78
1004.114	176.2
1004.469	163.55
1004.823	134.86
1005.177	123.68
1005.531	108.31
1005.885	115.76
1006.239	131.21
1006.593	174.54
1006.947	228.74
1007.301	167.58
1007.655	189.82
1008.008	143.26
1008.362	169.4
1008.715	252.02
1009.069	254.38
1009.422	437.77
1009.776	822.8
1010.129	566.04
1010.482	424.03
1010.835	271
1011.188	541.97
1011.541	569.74
1011.894	-3302.01
1012.247	8879.6
1012.6	497.45
1012.952	340.82
1013.305	163.95
1013.657	129.61
1014.01	121.53
1014.362	87.52
1014.715	131
1015.067	127.58
1015.419	127.81
1015.771	128.38
1016.123	128.64
1016.475	139.99
1016.827	144.59
1017.179	159.86
1017.531	149
1017.883	160.6
1018.234	206.79
1018.586	245.42
1018.938	296.84
1019.289	401.74
1019.64	414.73
1019.992	383.06
1020.343	382.37
1020.694	347.79
1021.045	284.14
1021.396	333
1021.747	367.83
1022.098	376.66
1022.449	291.23
1022.8	269.13
1023.151	208.13
1023.501	197.96
1023.852	205.3
1024.202	223.41
1024.553	214.5
1024.903	242.5
1025.253	216.8
1025.604	206.23
1025.954	252.78
1026.304	277.89
1026.654	294.93
1027.004	370.53
1027.354	519.52
1027.703	571.25
1028.053	592.91
1028.403	1053.07
1028.753	1352.29
1029.102	1550.05
1029.452	5138.41
1029.801	179.03
1030.15	116.17
1030.499	63.38
897.758	1269.06
901.051	1226.48
904.343	1249.83
907.636	1250.49
910.928	1284.53
914.22	1240.24
917.511	1248.24
920.803	1270.25
924.094	1264.49
927.384	1270.29
930.675	1250.26
933.965	1232.77
937.255	1251.84
940.544	1234.54
943.834	1237.18
947.123	1204.94
950.411	1255.75
953.7	1245.27
956.988	1239.69
960.276	1197.86
963.563	1222.14
966.851	1225.63
970.138	1244.38
973.424	1246.34
976.711	1217.07
979.997	1240.76
983.283	1263.33
986.568	1227.22
989.853	1219.15
993.138	1229.65
996.423	1282.98
999.708	1259.05
1002.992	1275.05
1006.275	1229.69
1009.559	1229.06
1012.842	1283.11
1016.125	1259.57
1019.408	1244.4
1022.69	1273.23
1025.972	1286.92
1029.254	1276.61
1032.536	1257.35
1035.817	1260.38
1039.098	1243.6
1042.379	1268.08
1045.659	1283.34
1048.939	1252.38
1052.219	1253.08
1055.498	1250.98
1058.778	1242.93
1062.057	1236.66
1065.335	1251.23
1068.614	1252.34
1071.892	1246.93
1075.17	1277.82
1078.447	1279.09
1081.724	1273.36
1085.001	1287.15
1088.278	1272.02
1091.554	1273.51
1094.83	1273.9
1098.106	1287.78
1101.382	1300.81
1104.657	1301.98
1107.932	1303.37
1111.206	1287.7
1114.481	1263.12
1117.755	1265.48
1121.029	1259.88
1124.302	1291.55
1127.575	1277.4
1130.848	1277.45
1134.121	1260.94
1137.393	1238.54
1140.665	1268.42
1143.937	1252.48
1147.208	1232.26
1150.48	1259.88
1153.75	1255.35
1157.021	1258.91
1160.291	1244.58
1163.561	1269.92
1166.831	1251.04
1170.101	1262.79
1173.37	1243.65
1176.639	1223.57
1179.907	1251.84
1183.176	1255.51
1186.444	1258.49
1189.711	1268.75
1192.979	1283.63
1196.246	1260.91
1199.513	1268.28
1202.78	1270.02
1206.046	1275.66
1209.312	1292.26
1212.578	1294.47
1215.843	1273.6
1219.108	1265.83
1222.373	1276.45
1225.638	1261.98
1228.902	1251.44
1232.166	1236.16
1235.43	1227.12
1238.693	1241.4
1241.956	1240.71
1245.219	1264.3
1248.482	1260.27
1251.744	1261.4
1255.006	1322.07
1258.268	1294.61
1261.529	1277.2
1264.79	1277.71
1268.051	1327.29
1271.312	1336.51
1274.572	1316.21
1277.832	1307.96
1281.092	1298.33
1284.351	1295.03
1287.61	1288.49
1290.869	1252.11
1294.128	1253.6
1297.386	1273.58
1300.644	1270.66
1303.902	1272.96
1307.159	1200.98
1310.416	1229.52
1313.673	1241.57
1316.93	1242.5
1320.186	1255.46
1323.442	1269.87
1326.697	1271.45
1329.953	1257.66
1333.208	1276.49
1336.463	1263.61
1339.717	1246.61
1342.972	1307.67
1346.226	1296.09
1349.479	1276.43
1352.733	1262.65
1355.986	1274.18
1359.238	1264.57
1362.491	1264.47
1365.743	1263.66
1368.995	1263.51
1372.247	1273.4
1375.498	1279.28
1378.749	1298.1
1382	1276.03
1385.251	1287.97
1388.501	1269.47
1391.751	1262.82
1395	1252.2
1398.25	1267.41
1401.499	1283.04
1404.748	1257.56
1407.996	1249.87
1411.244	1251.86
1414.492	1242.6
1417.74	1231.34
1420.987	1241.27
1424.234	1268.3
1427.481	1251.97
1430.728	1276.73
1433.974	1266.67
1437.22	1267.82
1440.465	1259.62
1443.711	1260.76
1446.956	1267.3
1450.201	1256.6
1453.445	1283.78
1456.689	1271.79
1459.933	1281.65
1463.177	1300.27
1466.42	1288.23
1469.663	1276.9
1472.906	1282.21
1476.148	1309.86
1479.391	1288.15
1482.633	1279.94
1485.874	1291
1489.115	1291.88
1492.356	1284.42
1495.597	1268.73
1498.838	1264.47
1502.078	1260.32
1505.318	1249.61
1508.557	1263.29
1511.797	1262.52
1515.036	1286.2
1518.274	1264.21
1521.513	1236.28
1524.751	1240.28
1527.989	1250.54
1531.227	1260.7
1534.464	1262.4
1537.701	1256.7
1540.938	1260.11
1544.174	1233.59
1547.41	1226.11
1550.646	1247.86
1553.882	1269.26
1557.117	1302.44
1560.352	1307.34
1563.587	1284.26
1566.821	1269.17
1570.055	1281.68
1573.289	1264.73
1576.523	1291.9
1579.756	1300.33
1582.989	1312.65
1586.222	1286.12
1589.454	1309.39
1592.686	1300.94
1595.918	1311.68
1599.15	1312.88
1602.381	1335.23
1605.612	1325.09
1608.843	1373.23
1612.073	1334.89
1615.303	1327.52
1618.533	1322.78
1621.762	1324.36
1624.992	1306.95
1628.221	1302.73
1631.449	1297.73
1634.678	1312.67
1637.906	1295.39
1641.134	1304.41
1644.361	1289.11
1647.588	1282.74
1650.815	1297.22
1654.042	1279.24
1657.269	1294.23
1660.495	1283.97
1663.72	1278.88
1666.946	1260.63
1670.171	1250.27
1673.396	1233.66
1676.621	1227.56
1679.845	1225.76
1683.069	1228.83
1686.293	1241.96
1689.517	1236.12
1692.74	1213.75
1695.963	1222.93
1699.185	1241.21
1702.408	1229.99
1705.63	1242.37
1708.852	1250.77
1712.073	1235.58
1715.294	1245.74
1718.515	1271.52
1721.736	1248.14
1724.956	1242.91
1728.176	1254.86
1731.396	1263.03
1734.616	1259.6
1737.835	1282.86
1741.054	1267.16
1744.272	1266.67
1747.491	1286.98
1750.709	1297.12
1753.927	1272.04
1757.144	1289.46
1760.361	1316.99
1763.578	1298.1
1766.795	1273.87
1770.011	1270.06
1773.227	1282.37
1776.443	1304.01
1779.658	1322.8
1782.874	1295.19
1786.089	1289.95
1789.303	1290.85
1792.518	1290.84
1795.732	1284.99
1798.945	1294.79
1802.159	1319.64
1805.372	1286.77
1808.585	1278.96
1811.797	1280.33
1815.01	1297.03
1818.222	1311.99
1821.434	1293.58
1824.645	1311.96
1827.856	1314.4
1831.067	1327.84
1834.278	1301.24
1837.488	1291.87
1840.698	1355.48
1843.908	1332.88
1847.117	1315.65
1850.326	1277.25
1853.535	1310.8
1856.744	1329.76
1859.952	1292.36
1863.16	1291.74
1866.368	1307.76
1869.575	1365.47
1872.782	1306.02
1875.989	1272.95
1879.196	1298.81
1882.402	1296.97
1885.608	1312.64
1888.814	1279.76
1892.019	1234.64
1895.224	1265.64
1898.429	1250.43
1901.634	1237.53
1904.838	1228.17
1908.042	1259.48
1911.246	1269.64
1914.449	1250.94
1917.652	1242.52
1920.855	1233.61
1924.058	1246.48
1927.26	1273.91
1930.462	1282.25
1933.664	1303.01
1936.865	1278.27
1940.066	1284.37
1943.267	1255.71
1946.467	1261.72
1949.668	1266.02
1952.868	1304.42
1956.067	1304.21
1959.267	1273.22
1962.466	1285.79
1965.665	1274.89
1968.863	1274.17
1972.061	1271.68
1975.259	1268.74
1978.457	1307.34
1981.654	1287.37
1984.852	1288.41
1988.048	1266.84
1991.245	1255.94
1994.441	1301.8
1997.637	1273.63
2000.833	1265.11
2004.028	1280.15
2007.223	1316.27
2010.418	1305.78
2013.613	1281.05
2016.807	1276.5
2020.001	1276.2
2023.194	1286.57
2026.388	1278.55
2029.581	1249.22
2032.774	1284.04
2035.966	1289.64
2039.158	1262.86
2042.35	1271.99
2045.542	1234.56
2048.733	1278.6
2051.924	1270.93
2055.115	1278.89
2058.306	1262.62
2061.496	1285.59
2064.686	1316.46
2067.875	1262.87
2071.065	1267.07
2074.254	1274.89
2077.442	1250.25
2080.631	1294.14
2083.819	1261.05
2087.007	1256.01
2090.195	1248.84
2093.382	1250.19
2096.569	1250.25
2099.756	1226.21
2102.942	1260.05
2106.128	1261.5
2109.314	1257.8
2112.5	1251.73
2115.685	1235.26
2118.87	1238.34
2122.055	1276.39
2125.239	1262.29
2128.424	1259.1
2131.608	1288.11
2134.791	1277.85
2137.974	1295.51
2141.157	1288.95
2144.34	1276.6
2147.523	1268.48
2150.705	1285.43
2153.887	1264.48
2157.068	1249.88
2160.25	1237.9
2163.431	1251.52
2166.611	1234.38
2169.792	1246.86
2172.972	1195.68
2176.152	1231.01
2179.331	1241.57
2182.511	1241.12
2185.69	1249.98
2188.868	1252.02
2192.047	1271.48
2195.225	1289.49
2198.403	1257.63
2201.58	1249.38
2204.758	1240.79
2207.935	1281.49
2211.111	1234.79
2214.288	1227.3
2217.464	1245.53
2220.64	1224.6
2223.815	1251.05
2226.991	1213.4
2230.166	1217.49
2233.34	1240.58
2236.515	1248.02
2239.689	1288.26
2242.863	1259.8
2246.036	1285.7
2249.209	1279.95
2252.382	1292.11
2255.555	1294.22
2258.727	1272.47
2261.9	1287.94
2265.071	1284.8
2268.243	1286.03
2271.414	1261.13
2274.585	1246.49
2277.756	1279.56
2280.926	1259.17
2284.096	1277.56
2287.266	1239
2290.436	1266.4
2293.605	1272.47
2296.774	1291.58
2299.942	1296.57
2303.111	1306.11
2306.279	1332.19
2309.447	1327.32
2312.614	1317.1
2315.781	1323.41
2318.948	1309.29
2322.115	1332.05
2325.281	1274.69
2328.447	1280.45
2331.613	1264.65
2334.779	1261.63
2337.944	1258.23
2341.109	1258.28
2344.274	1252.01
2347.438	1232.1
2350.602	1247.13
2353.766	1251.22
2356.929	1246.72
2360.092	1271.38
2363.255	1250.05
2366.418	1236.64
2369.58	1255.76
2372.742	1238.87
2375.904	1228.08
2379.066	1224.48
2382.227	1237.84
2385.388	1215.51
2388.548	1190.66
2391.709	1208.99
2394.869	1205.68
2398.029	1237.97
2401.188	1228.27
2404.347	1218.76
2407.506	1214.99
2410.665	1247.64
2413.823	1236.28
2416.981	1228.1
2420.139	1238.42
2423.296	1260.19
2426.453	1245.98
2429.61	1257.53
2432.767	1240.89
2435.923	1260.62
2439.079	1234.86
2442.235	1255.03
2445.391	1220.05
2448.546	1242.78
2451.701	1258.85
2454.855	1256.16
2458.009	1271.49
2461.163	1263.85
2464.317	1245.79
2467.471	1262.74
2470.624	1282.37
2473.777	1274.55
2476.929	1282.82
2480.082	1293.77
2483.234	1283.83
2486.385	1254.89
2489.537	1250.13
2492.688	1242.94
2495.839	1257.67
2498.989	1262.96
2502.14	1252.57
2505.29	1247.36
2508.439	1260.82
2511.589	1229.57
2514.738	1231.53
2517.887	1239.63
2521.035	1281.3
2524.183	1258.11
2527.331	1253.52
2530.479	1245.65
2533.627	1249.95
