Data from N_1_DEC_VA_2N_Splice17_11-18-33-998.txt Node
Date: Sat Mar 14 11:18:33 EDT 2020
User: sa697716
Spectrometer: FLMS03696
Trigger mode: 0
Integration Time (sec): 3.180400E-1
Scans to average: 20
Electric dark correction enabled: true
Nonlinearity correction enabled: true
Boxcar width: 5
XAxis mode: Wavelengths
Number of Pixels in Spectrum: 2048
>>>>>Begin Spectral Data<<<<<
187.83	-123078.86
188.298	957.21
188.766	482.2
189.233	386.87
189.701	551.04
190.169	753.75
190.636	315.82
191.104	326.87
191.571	97.3
192.039	20.85
192.506	-95.92
192.974	247.83
193.441	-508.22
193.908	-218.2
194.375	-127.2
194.842	-70.62
195.31	-87.39
195.777	44.38
196.244	165.05
196.711	130.85
197.177	138.98
197.644	134.99
198.111	215.67
198.578	309.36
199.045	236.63
199.511	369.94
199.978	399.16
200.445	348.11
200.911	357.68
201.378	356.62
201.844	364.03
202.31	616.73
202.777	661.04
203.243	390.41
203.709	387.29
204.176	455.83
204.642	384.28
205.108	357.94
205.574	303.2
206.04	267.98
206.506	253.84
206.972	205.76
207.438	183.11
207.903	210.86
208.369	192.31
208.835	190.11
209.301	185.77
209.766	186.68
210.232	179.91
210.697	208.52
211.163	239.75
211.628	310.02
212.094	310.2
212.559	432.22
213.024	259.72
213.49	325.51
213.955	301.23
214.42	282.18
214.885	254
215.35	234.91
215.815	275.45
216.28	302.97
216.745	237.83
217.21	250.37
217.675	200.23
218.14	217.49
218.604	206.56
219.069	206.55
219.534	235.85
219.998	241.21
220.463	269.71
220.927	233.44
221.392	198.97
221.856	211.61
222.32	202.99
222.785	230.23
223.249	263.15
223.713	274.64
224.177	289.56
224.642	291.17
225.106	335.82
225.57	342.46
226.034	282.04
226.497	412.37
226.961	362.41
227.425	452.97
227.889	494.47
228.353	447.88
228.816	871.48
229.28	788.2
229.744	626.93
230.207	436.19
230.671	418.78
231.134	600.73
231.597	685.93
232.061	653.81
232.524	551.69
232.987	395.47
233.45	389.14
233.914	337.82
234.377	318.98
234.84	302.07
235.303	304.48
235.766	332.01
236.229	352.32
236.691	214.73
237.154	195.43
237.617	166.69
238.08	144.53
238.542	158.02
239.005	137.35
239.468	158.46
239.93	150.54
240.393	153.2
240.855	138.35
241.317	130.17
241.78	133.24
242.242	153.69
242.704	196.66
243.166	189.39
243.629	195.79
244.091	216.06
244.553	218.11
245.015	240.45
245.477	298.75
245.939	404.45
246.4	443.59
246.862	428.37
247.324	394.94
247.786	390.44
248.247	431.8
248.709	308.68
249.17	240.69
249.632	284.47
250.093	368.67
250.555	298.7
251.016	220.18
251.477	198.82
251.939	224.59
252.4	226.58
252.861	249.17
253.322	277.38
253.783	315.2
254.244	371.21
254.705	252.69
255.166	180.61
255.627	158.91
256.088	231.29
256.549	259.33
257.009	219.14
257.47	271.01
257.931	222.48
258.391	166.71
258.852	171.74
259.312	196.39
259.773	221.77
260.233	232.89
260.694	230.11
261.154	241.82
261.614	232.78
262.074	213.97
262.534	225.13
262.994	222.27
263.455	251.54
263.915	229.28
264.374	199.79
264.834	221.32
265.294	213.36
265.754	236.6
266.214	215.87
266.673	180.35
267.133	200
267.593	187.9
268.052	208.01
268.512	181.59
268.971	248.13
269.431	291.32
269.89	264.96
270.349	393.25
270.809	412.44
271.268	371
271.727	811.18
272.186	540.24
272.645	415.79
273.104	278.44
273.563	416.98
274.022	273.33
274.481	235.83
274.94	189.99
275.399	140.91
275.857	143.2
276.316	167.78
276.775	138.1
277.233	151.88
277.692	150.7
278.15	194.98
278.609	230.48
279.067	209.24
279.525	219.72
279.984	249.02
280.442	291.73
280.9	326.95
281.358	229.07
281.816	216.3
282.274	204.24
282.732	188.67
283.19	171.78
283.648	143.85
284.106	155.71
284.564	137.3
285.021	155.69
285.479	122.67
285.937	81.16
286.394	87.96
286.852	90.61
287.309	99.22
287.767	131.04
288.224	155.23
288.682	165.22
289.139	184.92
289.596	167.18
290.053	156.41
290.511	189.93
290.968	258.88
291.425	335.47
291.882	312.26
292.339	288.66
292.796	236.06
293.252	202.3
293.709	185.12
294.166	180.15
294.623	196.4
295.079	185.67
295.536	200.69
295.992	190.69
296.449	182.44
296.905	185.69
297.362	184.72
297.818	197.78
298.274	198.05
298.731	187.96
299.187	183.46
299.643	198.07
300.099	235.07
300.555	225.84
301.011	191.67
301.467	236.07
301.923	240.66
302.379	231.91
302.835	233.62
303.291	247.77
303.746	279.24
304.202	334.5
304.658	311.61
305.113	240.3
305.569	262.94
306.024	264.1
306.479	174.25
306.935	167.91
307.39	154.72
307.845	146.39
308.301	167.92
308.756	149.28
309.211	170.87
309.666	191.04
310.121	247.15
310.576	227.72
311.031	207.46
311.486	251.46
311.94	212.84
312.395	292.62
312.85	498.4
313.305	1460.04
313.759	11391.97
314.214	663.89
314.668	594.98
315.123	534.09
315.577	242.12
316.032	246.05
316.486	301.6
316.94	281.16
317.394	227.18
317.849	180.84
318.303	175.86
318.757	168.83
319.211	179.89
319.665	146.25
320.119	138.95
320.572	162.69
321.026	164.88
321.48	146.66
321.934	145.22
322.387	128.66
322.841	163.98
323.295	175.74
323.748	162.69
324.202	201.24
324.655	265.83
325.108	414.5
325.562	335.68
326.015	365.32
326.468	292.45
326.921	348.07
327.374	359.37
327.827	374.43
328.28	409.02
328.733	303.13
329.186	241.93
329.639	239.88
330.092	193.31
330.545	184.12
330.997	189.67
331.45	218.47
331.903	264.65
332.355	391.01
332.808	358.76
333.26	307.89
333.713	322.85
334.165	344.15
334.617	386.2
335.069	268.72
335.522	410.48
335.974	453.09
336.426	355.79
336.878	196.48
337.33	110.94
337.782	101.99
338.234	140.08
338.686	147.4
339.137	151.94
339.589	151.02
340.041	146.83
340.493	116.14
340.944	123.67
341.396	126.95
341.847	128.58
342.299	198.31
342.75	297.06
343.201	247.23
343.653	269.08
344.104	311.36
344.555	239.28
345.006	327.34
345.457	357.16
345.908	253.52
346.359	269.14
346.81	227.96
347.261	211.08
347.712	185.81
348.163	195.89
348.613	240.46
349.064	228.98
349.515	223.09
349.965	241.21
350.416	244.66
350.866	276.35
351.317	263.19
351.767	400.84
352.217	500.39
352.668	410.38
353.118	313.73
353.568	232.21
354.018	226.87
354.468	227.34
354.918	178.61
355.368	158.43
355.818	237.27
356.268	630.22
356.718	3035.09
357.168	825.56
357.617	420.17
358.067	459.11
358.517	411.58
358.966	529.62
359.416	658.87
359.865	669.28
360.315	733.64
360.764	354.49
361.213	228.12
361.663	162.54
362.112	156.58
362.561	232.04
363.01	165.28
363.459	125.07
363.908	87.1
364.357	97.16
364.806	105.75
365.255	74.19
365.703	97.69
366.152	112.6
366.601	121.18
367.05	147.55
367.498	154.11
367.947	160.16
368.395	163.33
368.844	154.06
369.292	141.63
369.74	113.04
370.189	136.16
370.637	133.94
371.085	104.56
371.533	105.21
371.981	68.87
372.429	74.92
372.877	102.79
373.325	115.29
373.773	112.75
374.221	84.72
374.669	118.24
375.116	137.47
375.564	132.71
376.012	134.69
376.459	118.75
376.907	137.76
377.354	127.06
377.801	124.17
378.249	162.53
378.696	190.18
379.143	304.4
379.591	319.42
380.038	489.79
380.485	450.57
380.932	509.31
381.379	584.54
381.826	471.65
382.273	320.3
382.72	293.82
383.166	291.7
383.613	201.56
384.06	165.7
384.506	184.84
384.953	138.08
385.4	133.21
385.846	117.01
386.292	96.87
386.739	77.01
387.185	82.74
387.631	76.73
388.078	83.53
388.524	92.99
388.97	95.24
389.416	84.98
389.862	99.69
390.308	84.78
390.754	92.78
391.2	98.2
391.645	99.54
392.091	113.84
392.537	115.34
392.983	99.4
393.428	112.16
393.874	108.43
394.319	126.11
394.765	138.66
395.21	138.07
395.655	120.14
396.101	116.33
396.546	105.4
396.991	83.99
397.436	78.64
397.881	80.2
398.326	62.51
398.771	66.94
399.216	50.23
399.661	35.71
400.106	40.06
400.551	47.62
400.995	41.07
401.44	45.63
401.885	43.88
402.329	41.51
402.774	38.63
403.218	42.44
403.663	42.64
404.107	42.22
404.551	45.42
404.995	42.32
405.44	36.61
405.884	35.36
406.328	28.95
406.772	27.47
407.216	25.71
407.66	21.2
408.104	18.5
408.547	12.31
408.991	14.12
409.435	10.84
409.879	11.73
410.322	12.28
410.766	13.04
411.209	13.95
411.653	15.68
412.096	19.3
412.54	19.78
412.983	16.61
413.426	19.94
413.869	18.72
414.312	19.38
414.756	17.8
415.199	16.52
415.642	19.35
416.085	21.72
416.527	20.58
416.97	17.04
417.413	18.28
417.856	18.5
418.298	16.92
418.741	13.89
419.184	10.79
419.626	7.07
420.069	6.61
420.511	5.49
420.953	6.32
421.396	7.14
421.838	5.6
422.28	5.69
422.722	7.91
423.164	8.03
423.606	10.29
424.048	11.9
424.49	14.54
424.932	14.38
425.374	13.91
425.816	12.28
426.258	11.88
426.699	15.28
427.141	17.98
427.582	16.15
428.024	15.24
428.465	12.4
428.907	11.88
429.348	13.09
429.789	15.22
430.231	15.63
430.672	16.12
431.113	17.63
431.554	17.35
431.995	15.27
432.436	17.1
432.877	16.71
433.318	19.06
433.759	18.06
434.2	15.54
434.64	13.49
435.081	13.34
435.522	14.01
435.962	12.21
436.403	12.45
436.843	10.17
437.284	6.87
437.724	5.95
438.164	4.61
438.604	7.14
439.045	9.79
439.485	12.35
439.925	11.54
440.365	10.4
440.805	10.17
441.245	9.78
441.685	9.99
442.125	11.52
442.564	11.51
443.004	10.47
443.444	8.92
443.883	9.62
444.323	6.15
444.762	2.94
445.202	1.22
445.641	3.05
446.081	0.22
446.52	-0.41
446.959	-0.32
447.398	1.67
447.837	3.83
448.276	3.78
448.716	2.79
449.154	1.92
449.593	4.83
450.032	5.3
450.471	1.95
450.91	2.18
451.349	4.07
451.787	3.52
452.226	3.1
452.664	1.35
453.103	0.88
453.541	-0.39
453.98	3.94
454.418	3.54
454.856	5.23
455.295	6.57
455.733	7.76
456.171	7.34
456.609	8.82
457.047	8.95
457.485	10.77
457.923	12.83
458.361	12.43
458.798	9.85
459.236	9.83
459.674	8.52
460.111	9.13
460.549	9.92
460.987	9.37
461.424	7.74
461.862	7.66
462.299	7.56
462.736	7.51
463.173	7.8
463.611	9.8
464.048	10.06
464.485	11.28
464.922	10.9
465.359	9.4
465.796	15.06
466.233	16.44
466.67	17.88
467.106	19.36
467.543	18.72
467.98	18.6
468.416	17.55
468.853	16.69
469.29	15.34
469.726	15.13
470.162	15.71
470.599	10.93
471.035	9.54
471.471	8.53
471.907	5.76
472.344	5.63
472.78	6.35
473.216	5.18
473.652	5.78
474.088	4.53
474.523	4.24
474.959	3.57
475.395	3.67
475.831	4.03
476.266	3.74
476.702	3.45
477.138	2.82
477.573	1.69
478.008	2.59
478.444	3.67
478.879	5.45
479.314	5.61
479.75	5.63
480.185	4.72
480.62	3.75
481.055	3.26
481.49	4.1
481.925	4.48
482.36	6.93
482.795	6.29
483.229	4.42
483.664	3.93
484.099	4.31
484.534	4.85
484.968	5.47
485.403	6.27
485.837	5.83
486.271	5.42
486.706	5.06
487.14	3.07
487.574	3.18
488.009	3.11
488.443	3.36
488.877	3.16
489.311	2.65
489.745	2.98
490.179	2.7
490.613	4.23
491.046	4.03
491.48	3.64
491.914	4.07
492.348	3.91
492.781	4.67
493.215	4.26
493.648	3.44
494.082	3.28
494.515	3.59
494.948	4.15
495.382	2.95
495.815	4.07
496.248	4.78
496.681	4.26
497.114	3.29
497.547	3.31
497.98	3.98
498.413	5.19
498.846	5.26
499.279	4.25
499.711	3.74
500.144	3.82
500.577	2.88
501.009	2.42
501.442	3.24
501.874	5.22
502.306	5.22
502.739	6.71
503.171	6.52
503.603	6.62
504.036	6.47
504.468	6.59
504.9	6.53
505.332	6.51
505.764	6.37
506.196	6.26
506.627	5.41
507.059	5.1
507.491	2.62
507.923	2.84
508.354	3.04
508.786	3.45
509.217	3.52
509.649	3.68
510.08	3.76
510.512	4.95
510.943	4.61
511.374	4.59
511.805	4.36
512.237	4.54
512.668	3.75
513.099	3.13
513.53	3.12
513.961	3.07
514.391	3.1
514.822	4.11
515.253	3.9
515.684	3.84
516.114	4.27
516.545	4.34
516.975	4.48
517.406	4.25
517.836	4.82
518.267	4.69
518.697	5.35
519.127	4.87
519.558	3.76
519.988	2.36
520.418	2.16
520.848	1.36
521.278	1.43
521.708	17.9
522.138	18.32
522.567	17.39
522.997	17.41
523.427	17.27
523.857	17.62
524.286	17.71
524.716	18.6
525.145	19.14
525.575	19.53
526.004	19.21
526.433	3.38
526.863	3.65
527.292	4.65
527.721	4.9
528.15	4.4
528.579	4.54
529.008	4.13
529.437	3.25
529.866	2.61
530.295	2.28
530.724	3.17
531.152	2.61
531.581	2.75
532.01	3.04
532.438	2.73
532.867	2.32
533.295	2.72
533.723	3.38
534.152	3.73
534.58	4.23
535.008	4.31
535.436	4.57
535.865	4.26
536.293	3.6
536.721	3.09
537.149	2.7
537.576	3.53
538.004	3.1
538.432	2.59
538.86	3.14
539.287	3.03
539.715	3.49
540.143	2.41
540.57	3.18
540.998	3.3
541.425	4.37
541.852	4.45
542.28	4.42
542.707	4.4
543.134	4.9
543.561	4.96
543.988	5.2
544.415	4.78
544.842	4.76
545.269	4.42
545.696	5.28
546.123	4.67
546.549	5.34
546.976	5.51
547.403	5.44
547.829	4.84
548.256	4.5
548.682	4.61
549.108	5.19
549.535	4.99
549.961	4.98
550.387	4.51
550.813	5.08
551.24	4.88
551.666	4.49
552.092	4.74
552.518	4.96
552.943	5.28
553.369	4.67
553.795	4.71
554.221	5.04
554.646	4.99
555.072	5.86
555.498	4.84
555.923	4.52
556.349	4.01
556.774	3.71
557.199	3.88
557.625	3.52
558.05	3.6
558.475	3.24
558.9	3.75
559.325	4.31
559.75	3.81
560.175	3.67
560.6	3.36
561.025	3.03
561.449	3.03
561.874	2.61
562.299	3.33
562.723	3.27
563.148	3.07
563.572	2.56
563.997	2.26
564.421	1.05
564.846	1.22
565.27	2.01
565.694	2.11
566.118	1.95
566.542	2.97
566.966	2.75
567.39	3.09
567.814	3.85
568.238	4.4
568.662	3.84
569.086	4.71
569.509	4.57
569.933	5.49
570.357	5.78
570.78	6.02
571.204	6.06
571.627	5.63
572.05	5.34
572.474	5.4
572.897	5.2
573.32	6.21
573.743	5.61
574.166	6.21
574.589	4.88
575.012	5.06
575.435	4.91
575.858	4.94
576.281	4.97
576.704	5.13
577.126	4.7
577.549	4.13
577.972	3.46
578.394	3.71
578.817	5
579.239	5.14
579.661	5.82
580.084	6.55
580.506	6.07
580.928	6.41
581.35	6.23
581.772	6.01
582.194	6.71
582.616	6.13
583.038	5.19
583.46	3.22
583.882	3.37
584.303	1.93
584.725	1.39
585.147	4.64
585.568	4.76
585.99	5.06
586.411	5.74
586.833	5.47
587.254	6.65
587.675	7.33
588.096	7.51
588.518	7.6
588.939	8.27
589.36	8.48
589.781	4.24
590.202	6.13
590.623	5.87
591.043	4.85
591.464	4.88
591.885	5.1
592.305	5.23
592.726	5.66
593.147	5.49
593.567	5.83
593.987	5.89
594.408	6.01
594.828	3.8
595.248	4.25
595.669	4.71
596.089	4.65
596.509	3.54
596.929	3.02
597.349	2.95
597.769	2.99
598.189	3.04
598.608	2.44
599.028	2.7
599.448	2.44
599.867	1.98
600.287	1.7
600.706	1.96
601.126	2.6
601.545	3.8
601.965	3.39
602.384	3.27
602.803	2.69
603.222	3.3
603.641	3.2
604.061	3.78
604.48	4.01
604.898	3.87
605.317	3.76
605.736	3.69
606.155	3.46
606.574	3.6
606.992	3.47
607.411	3.87
607.829	2.95
608.248	2.43
608.666	1.89
609.085	2.16
609.503	2.09
609.921	2.28
610.339	1.93
610.758	1.55
611.176	1.48
611.594	2.07
612.012	2.06
612.43	2.73
612.847	3.21
613.265	4.22
613.683	3.94
614.101	4.28
614.518	3.97
614.936	4.3
615.353	5.32
615.771	5.55
616.188	5.43
616.606	5.37
617.023	6.32
617.44	6.11
617.857	4.9
618.274	4.42
618.691	4.92
619.108	4.85
619.525	4.74
619.942	4.07
620.359	4.02
620.776	3.51
621.192	4.18
621.609	3.8
622.026	4.35
622.442	4.7
622.859	4.4
623.275	4.06
623.691	3.85
624.108	3.92
624.524	3.56
624.94	3.65
625.356	3.59
625.772	3
626.188	2.22
626.604	2.06
627.02	1.87
627.436	2.99
627.852	3.77
628.268	4.51
628.683	4.04
629.099	4.07
629.514	3.23
629.93	3.83
630.345	3.67
630.761	3.56
631.176	3.52
631.591	4.92
632.007	4.85
632.422	3.6
632.837	2.43
633.252	3.67
633.667	4.47
634.082	5.29
634.497	5.51
634.911	6.8
635.326	6.87
635.741	7.36
636.155	6.95
636.57	7.64
636.984	7.88
637.399	9.11
637.813	7.83
638.228	7.34
638.642	7.27
639.056	6.82
639.47	6.14
639.884	6.53
640.298	6.58
640.712	6.74
641.126	6.26
641.54	5.8
641.954	4.4
642.368	4.96
642.781	6.24
643.195	6.32
643.609	6.31
644.022	5.51
644.436	4.87
644.849	4.23
645.262	3.17
645.676	2.49
646.089	2.67
646.502	4.05
646.915	3.49
647.328	3.07
647.741	3.65
648.154	3.82
648.567	6.41
648.98	7.22
649.393	7.58
649.805	7.76
650.218	7.31
650.631	8.07
651.043	8.21
651.456	9.22
651.868	8.8
652.28	8.07
652.693	7.94
653.105	6
653.517	6
653.929	5.71
654.341	6.42
654.753	7.43
655.165	7.14
655.577	6.91
655.989	6.15
656.401	5.19
656.813	6.04
657.224	5.51
657.636	5.29
658.047	5.85
658.459	5.73
658.87	4.7
659.282	4.41
659.693	4.83
660.104	5.11
660.515	5.07
660.926	4.81
661.338	3.87
661.749	3.47
662.159	3.75
662.57	2.57
662.981	2.94
663.392	2.65
663.803	2.6
664.213	2.27
664.624	2.01
665.035	1.61
665.445	2.02
665.855	2.9
666.266	4.22
666.676	4.05
667.086	3.32
667.497	3.08
667.907	3.96
668.317	3.91
668.727	6
669.137	5.2
669.547	5.65
669.956	5.03
670.366	4.49
670.776	5.04
671.186	4.99
671.595	6.77
672.005	6.42
672.414	6.92
672.824	7.66
673.233	5.17
673.642	5.42
674.052	6.05
674.461	7.42
674.87	7.3
675.279	7.2
675.688	6.83
676.097	6.69
676.506	6.79
676.915	5.8
677.323	6.32
677.732	6.81
678.141	7.27
678.549	7.11
678.958	5.46
679.366	4.78
679.775	3.23
680.183	4.81
680.592	4.44
681	4.71
681.408	5.16
681.816	4.08
682.224	3.61
682.632	4.88
683.04	4.69
683.448	5.5
683.856	7.2
684.264	8.84
684.671	6.92
685.079	6.94
685.487	6.93
685.894	6.18
686.302	4.9
686.709	5.82
687.116	5.01
687.524	5.51
687.931	6.44
688.338	6.09
688.745	4.29
689.152	5.01
689.559	5.17
689.966	6.85
690.373	8.34
690.78	10.55
691.187	11.06
691.593	12.07
692	11.3
692.407	11.95
692.813	12.98
693.22	13.98
693.626	12.98
694.032	12.71
694.439	12.33
694.845	11.79
695.251	11
695.657	10.26
696.063	7.75
696.469	7.32
696.875	6.58
697.281	4.89
697.687	5.15
698.093	5.32
698.498	6.19
698.904	4.92
699.31	4.89
699.715	6.32
700.12	5.63
700.526	7.28
700.931	7.54
701.337	7.89
701.742	9.94
702.147	9.5
702.552	10.83
702.957	9.24
703.362	9.57
703.767	9.09
704.172	7.15
704.577	7.24
704.981	5.68
705.386	6.06
705.791	5.9
706.195	3.93
706.6	4.78
707.004	2.72
707.408	3.15
707.813	3.62
708.217	4.51
708.621	4.96
709.025	5.11
709.43	6.77
709.834	7.27
710.237	7.45
710.641	8.17
711.045	8.34
711.449	10.74
711.853	13.06
712.256	12.76
712.66	12.44
713.064	12.5
713.467	13.07
713.87	12.49
714.274	13.2
714.677	13.4
715.08	13.87
715.484	14.11
715.887	15.78
716.29	13.16
716.693	14.73
717.096	15.72
717.499	16.7
717.901	16.36
718.304	16.66
718.707	15.04
719.109	14.62
719.512	14.1
719.915	15.92
720.317	14.11
720.719	13.72
721.122	12.92
721.524	12.68
721.926	15.27
722.328	15.63
722.731	15.19
723.133	15.77
723.535	15.43
723.937	16.78
724.338	17.45
724.74	17.34
725.142	54.91
725.544	56.53
725.945	65.02
726.347	61.66
726.748	62.03
727.15	64.78
727.551	66.15
727.952	65.31
728.354	63.08
728.755	60.62
729.156	59.92
729.557	23.98
729.958	21.11
730.359	13.21
730.76	12.93
731.161	13
731.562	10.52
731.962	9.17
732.363	10.2
732.763	10.06
733.164	8.03
733.564	9.32
733.965	10.45
734.365	12.44
734.766	12.73
735.166	13.25
735.566	13.58
735.966	12.92
736.366	13.1
736.766	11.86
737.166	11.41
737.566	12.8
737.966	11.74
738.365	11.86
738.765	11.33
739.165	10.75
739.564	10.63
739.964	9.72
740.363	10.07
740.763	9.59
741.162	11.88
741.561	12.81
741.96	13.1
742.36	11.97
742.759	11.77
743.158	10.97
743.557	10.45
743.955	10.18
744.354	9.88
744.753	9.82
745.152	10.09
745.55	7.86
745.949	7.88
746.348	7.5
746.746	7.14
747.144	9.32
747.543	9
747.941	8.32
748.339	8.12
748.737	9.15
749.136	9.76
749.534	8.71
749.932	10.76
750.33	9.84
750.727	9.1
751.125	10.66
751.523	8.55
751.921	11.5
752.318	12.64
752.716	13.34
753.113	12.65
753.511	11.89
753.908	13.09
754.305	15.59
754.703	15.67
755.1	16.79
755.497	16.11
755.894	15.37
756.291	12.76
756.688	12.85
757.085	12.88
757.482	13.05
757.878	15.59
758.275	17.56
758.672	12.24
759.068	13.83
759.465	13.95
759.861	15.26
760.258	16.54
760.654	16.49
761.05	18.44
761.447	16.29
761.843	15.83
762.239	14.97
762.635	10.6
763.031	6.91
763.427	6.52
763.822	5.77
764.218	6.27
764.614	6.3
765.01	4.53
765.405	3.98
765.801	5.72
766.196	6.19
766.592	4.78
766.987	5.54
767.382	7.49
767.778	7.39
768.173	7.82
768.568	8.03
768.963	8.54
769.358	11.17
769.753	11.64
770.148	11.42
770.542	10.79
770.937	10.1
771.332	10.06
771.726	9.79
772.121	12.83
772.515	12.37
772.91	12.88
773.304	13.24
773.699	12.35
774.093	12.16
774.487	12.46
774.881	12.42
775.275	14.36
775.669	12.72
776.063	12.88
776.457	11.64
776.851	12.54
777.245	10.88
777.638	11.31
778.032	10.46
778.425	11.16
778.819	14.15
779.212	17.89
779.606	18.71
779.999	20.32
780.392	21.97
780.786	20.77
781.179	21.79
781.572	23.95
781.965	24.49
782.358	25.48
782.751	24.24
783.143	21.09
783.536	18.78
783.929	17.17
784.322	17.34
784.714	14.76
785.107	14.89
785.499	15.38
785.891	15.05
786.284	14.85
786.676	14.96
787.068	16.62
787.46	18.08
787.852	18.07
788.245	17.12
788.636	16.72
789.028	20.34
789.42	22.51
789.812	22.64
790.204	23.37
790.595	25.25
790.987	24.78
791.378	23.7
791.77	22.07
792.161	21.42
792.553	24.31
792.944	24.84
793.335	21.74
793.726	20.57
794.117	21.54
794.508	18.59
794.899	15.39
795.29	14.92
795.681	15.97
796.072	15.48
796.463	30.19
796.853	32.39
797.244	34.39
797.634	36.19
798.025	35.98
798.415	32.68
798.806	35.15
799.196	36.8
799.586	39.57
799.976	40.04
800.366	39.8
800.756	23.85
801.146	21.75
801.536	20.08
801.926	18.87
802.316	18.82
802.706	19.04
803.095	19.86
803.485	19.32
803.874	17.2
804.264	16.24
804.653	19.77
805.043	23.18
805.432	25.64
805.821	27.43
806.21	28.92
806.599	29.77
806.988	31.47
807.377	27.29
807.766	25.84
808.155	26.07
808.544	26.21
808.933	24.98
809.321	23.26
809.71	18.18
810.098	17.56
810.487	14.64
810.875	12.51
811.264	12.97
811.652	24.11
812.04	27.67
812.428	29.11
812.816	26.2
813.204	27.7
813.592	26.47
813.98	28.06
814.368	28.26
814.756	30.65
815.144	33.22
815.531	36.22
815.919	26.78
816.306	26.59
816.694	25.69
817.081	30.86
817.469	30.23
817.856	28.08
818.243	26.87
818.63	24.67
819.017	28.69
819.404	30.33
819.791	26.76
820.178	25.11
820.565	26.09
820.952	35.3
821.339	33.97
821.725	33.9
822.112	37.92
822.498	41.85
822.885	39.62
823.271	34.81
823.657	30.57
824.044	32.77
824.43	34.68
824.816	39.63
825.202	35.93
825.588	35.9
825.974	36.15
826.36	35.66
826.746	32.45
827.132	33.84
827.517	39.2
827.903	40.77
828.289	41.57
828.674	39.33
829.06	35.3
829.445	31.24
829.83	31.55
830.216	31.27
830.601	33.9
830.986	40.36
831.371	43.77
831.756	45.7
832.141	49.17
832.526	48.45
832.911	50.91
833.295	48.74
833.68	47.79
834.065	50.29
834.449	51.67
834.834	51.7
835.218	49.79
835.603	50.21
835.987	45.59
836.371	42.76
836.755	42.67
837.139	42.35
837.524	41.26
837.908	40.45
838.291	38.89
838.675	34.52
839.059	32.96
839.443	29.31
839.827	25.85
840.21	25.94
840.594	26.36
840.977	26.37
841.361	26.06
841.744	23.48
842.127	26.19
842.511	27.05
842.894	26.93
843.277	27.83
843.66	26.3
844.043	25.61
844.426	28.8
844.809	23.9
845.191	23.8
845.574	23.14
845.957	24.75
846.339	23
846.722	20.75
847.104	19.38
847.487	14.85
847.869	18.59
848.252	22.11
848.634	20.76
849.016	24.05
849.398	22.27
849.78	23.15
850.162	26.94
850.544	29.64
850.926	27.21
851.307	30.15
851.689	35.78
852.071	25.03
852.452	24.46
852.834	22.69
853.215	24.33
853.597	25.13
853.978	27.08
854.359	25.56
854.741	28.73
855.122	28.48
855.503	26.45
855.884	22.75
856.265	29.91
856.646	24.2
857.026	23.42
857.407	26.31
857.788	27.51
858.169	24.63
858.549	30.55
858.93	27.31
859.31	32.3
859.69	34.74
860.071	36.77
860.451	37.55
860.831	40.83
861.211	38.75
861.591	35.84
861.971	30.69
862.351	29.82
862.731	21.84
863.111	20.51
863.491	24.95
863.87	23.92
864.25	24.17
864.629	28.92
865.009	30.54
865.388	34.76
865.768	33.51
866.147	41.69
866.526	42.61
866.905	47.62
867.284	44.62
867.663	34.36
868.042	33.19
868.421	30.79
868.8	25.7
869.179	28.22
869.558	27.16
869.936	26.96
870.315	19.72
870.693	25.11
871.072	20.07
871.45	24.13
871.828	26.62
872.207	30.48
872.585	36.71
872.963	34.63
873.341	36.68
873.719	41.64
874.097	39.57
874.475	40.39
874.853	34.73
875.23	37.2
875.608	37.77
875.986	38.43
876.363	33.27
876.741	36.62
877.118	48.32
877.495	48
877.873	43.64
878.25	46.78
878.627	51.89
879.004	54.01
879.381	47.72
879.758	49.97
880.135	50.65
880.512	56.82
880.889	43.95
881.265	35.98
881.642	31.32
882.019	29.66
882.395	34.38
882.772	39.95
883.148	40.71
883.524	44.69
883.901	41.83
884.277	39.99
884.653	36.76
885.029	42.71
885.405	52.33
885.781	52.33
886.157	46.85
886.532	43.5
886.908	36.12
887.284	33.83
887.659	35.47
888.035	34.06
888.411	34.64
888.786	33.74
889.161	34.24
889.537	24.76
889.912	26.86
890.287	37.8
890.662	35.3
891.037	34.15
891.412	32.98
891.787	25.19
892.162	33.18
892.536	34.11
892.911	36.1
893.286	34.96
893.66	41.16
894.035	44.7
894.409	35.25
894.784	42.19
895.158	42.19
895.532	43.87
895.906	50.77
896.281	48.17
896.655	46.92
897.029	49.05
897.402	50.71
897.776	37.86
898.15	35.74
898.524	45.34
898.898	33.18
899.271	44.49
899.645	48.46
900.018	56.56
900.392	57.62
900.765	53.26
901.138	59.44
901.511	58.29
901.884	70.83
902.258	73.64
902.631	76.94
903.003	91.13
903.376	75.35
903.749	81.89
904.122	72.44
904.495	69.54
904.867	76.15
905.24	67.47
905.612	58.14
905.985	47.78
906.357	40.99
906.729	49.27
907.102	49.9
907.474	59.91
907.846	66.43
908.218	70.66
908.59	71.17
908.962	66.55
909.334	69.04
909.705	79.97
910.077	77.78
910.449	72.51
910.82	77.39
911.192	79.28
911.563	76.49
911.935	65.96
912.306	59.85
912.677	56.75
913.048	76.29
913.419	65.47
913.79	51.8
914.161	52.23
914.532	64.64
914.903	42.69
915.274	36.94
915.645	37.93
916.015	29.71
916.386	33.56
916.756	39.69
917.127	22.21
917.497	32.87
917.868	44.42
918.238	46.04
918.608	31.55
918.978	35.99
919.348	37.36
919.718	38.26
920.088	52.07
920.458	60.78
920.828	45.44
921.198	48.64
921.567	39.8
921.937	32.45
922.306	24.98
922.676	39.36
923.045	48.81
923.415	58
923.784	53.87
924.153	63.56
924.522	65.66
924.891	66.42
925.26	67.83
925.629	66.74
925.998	63.06
926.367	66.45
926.736	71.17
927.104	70.61
927.473	65.33
927.842	69.95
928.21	44.11
928.578	30.44
928.947	50.38
929.315	46.43
929.683	54.73
930.051	72.08
930.42	107.15
930.788	118.9
931.156	101.94
931.523	119.85
931.891	119.64
932.259	133.57
932.627	172.76
932.994	224.99
933.362	243.01
933.729	242.06
934.097	238.48
934.464	200.99
934.831	180.82
935.199	205.81
935.566	174.23
935.933	150.15
936.3	174.52
936.667	126.59
937.034	161.41
937.401	136.78
937.767	114.75
938.134	106.56
938.501	110.46
938.867	156.66
939.234	188.94
939.6	165.7
939.967	241.7
940.333	161.13
940.699	130.92
941.065	61.62
941.431	77.07
941.798	125.3
942.163	167.19
942.529	136.67
942.895	105.12
943.261	107.38
943.627	151.7
943.992	134.22
944.358	124.99
944.723	140.85
945.089	131.68
945.454	131.51
945.82	118.28
946.185	111.67
946.55	137.98
946.915	132.38
947.28	137.81
947.645	119.03
948.01	129.53
948.375	162.82
948.74	192.29
949.104	210.19
949.469	237.25
949.834	354.94
950.198	407.19
950.562	250.6
950.927	210.14
951.291	219.94
951.655	177.84
952.02	126.7
952.384	92.54
952.748	89.85
953.112	115.54
953.476	123.52
953.839	117.7
954.203	127.14
954.567	138.43
954.931	190.64
955.294	195.05
955.658	200.33
956.021	371.55
956.385	587.74
956.748	939.13
957.111	1272.97
957.474	1217.3
957.837	1209.09
958.2	671.07
958.563	295.78
958.926	221.18
959.289	285.35
959.652	317.97
960.015	235.08
960.377	303.83
960.74	246.88
961.102	340.35
961.465	471.95
961.827	610.2
962.189	1258.87
962.552	896.68
962.914	729.51
963.276	469.57
963.638	393.34
964	353.17
964.362	252.18
964.724	237.13
965.085	175.08
965.447	147.62
965.809	105.13
966.17	77.3
966.532	75.73
966.893	65.5
967.255	55.24
967.616	35.98
967.977	48.09
968.338	50.3
968.699	61.81
969.061	61.28
969.421	70.05
969.782	62.18
970.143	69.38
970.504	94.66
970.865	107.67
971.225	140.55
971.586	162.72
971.946	189.99
972.307	166.32
972.667	167.53
973.027	185.14
973.388	196.25
973.748	151.6
974.108	172.49
974.468	134.07
974.828	156.43
975.188	103.55
975.548	74.99
975.907	92.42
976.267	102.08
976.627	110.67
976.986	107.3
977.346	95.33
977.705	103.3
978.064	100.36
978.424	103.09
978.783	79.65
979.142	75.08
979.501	83.38
979.86	78.64
980.219	71.4
980.578	69.1
980.937	68.9
981.296	70.06
981.654	45.37
982.013	24.04
982.371	19.3
982.73	21.06
983.088	72.73
983.447	90.7
983.805	119.55
984.163	209.99
984.521	229.76
984.879	252.32
985.237	-413.94
985.595	748.47
985.953	216.59
986.311	99.92
986.669	83.53
987.026	39.3
987.384	14.46
987.741	-33.96
988.099	28.45
988.456	28.22
988.814	47.05
989.171	41.98
989.528	16.59
989.885	15.06
990.242	13.77
990.599	-1.04
990.956	12.45
991.313	17
991.67	30.65
992.027	57.07
992.383	64.97
992.74	67.36
993.096	74.38
993.453	81.67
993.809	75.89
994.165	97.45
994.522	133.15
994.878	143.72
995.234	184.44
995.59	180.23
995.946	122.2
996.302	128.48
996.658	131.23
997.013	126.17
997.369	188.23
997.725	294.16
998.08	194.89
998.436	132.86
998.791	194.22
999.147	199.93
999.502	236.27
999.857	139.4
1000.212	150.07
1000.567	210.37
1000.922	197.19
1001.277	113.08
1001.632	81.85
1001.987	77.06
1002.342	87.26
1002.696	77.71
1003.051	85.93
1003.406	112.8
1003.76	129.85
1004.114	139.41
1004.469	118.09
1004.823	96.53
1005.177	85.31
1005.531	65.24
1005.885	84.29
1006.239	103.26
1006.593	132.49
1006.947	169.04
1007.301	95.41
1007.655	87.92
1008.008	72.28
1008.362	74.17
1008.715	92.98
1009.069	126.1
1009.422	259.92
1009.776	473.4
1010.129	298.69
1010.482	252.57
1010.835	155.93
1011.188	346.93
1011.541	358.03
1011.894	-1787.51
1012.247	6170.57
1012.6	410.62
1012.952	210.74
1013.305	52.2
1013.657	57.56
1014.01	49.88
1014.362	15.67
1014.715	73.13
1015.067	99.85
1015.419	92.52
1015.771	89.12
1016.123	90.59
1016.475	108.57
1016.827	104.58
1017.179	134.81
1017.531	123.14
1017.883	119.64
1018.234	171.54
1018.586	178.4
1018.938	182.2
1019.289	243.98
1019.64	280.51
1019.992	261.21
1020.343	192.27
1020.694	211.01
1021.045	162.73
1021.396	188.65
1021.747	262.76
1022.098	245.62
1022.449	216.3
1022.8	200.81
1023.151	170.7
1023.501	166.25
1023.852	182.01
1024.202	208.3
1024.553	209.72
1024.903	236.32
1025.253	235.71
1025.604	201.04
1025.954	240.37
1026.304	235.06
1026.654	266.23
1027.004	321.51
1027.354	425.85
1027.703	399.8
1028.053	484.63
1028.403	749.75
1028.753	785.69
1029.102	308.5
1029.452	-578.92
1029.801	-51.24
1030.15	-11.34
1030.499	-45.61
897.758	1311.79
901.051	1273.21
904.343	1296.36
907.636	1296.77
910.928	1330.8
914.22	1286.03
917.511	1292.67
920.803	1316.22
924.094	1309.58
927.384	1315.57
930.675	1292.53
933.965	1276.81
937.255	1292.01
940.544	1273.97
943.834	1274.39
947.123	1241.93
950.411	1292.82
953.7	1283.38
956.988	1276.06
960.276	1233.87
963.563	1256.34
966.851	1262.87
970.138	1282.19
973.424	1285.47
976.711	1256.09
979.997	1282.8
983.283	1305.43
986.568	1267.14
989.853	1258.84
993.138	1269.5
996.423	1326.11
999.708	1302.84
1002.992	1315.79
1006.275	1268.92
1009.559	1270.56
1012.842	1325.93
1016.125	1298.55
1019.408	1285.03
1022.69	1315
1025.972	1329.94
1029.254	1319.9
1032.536	1297.77
1035.817	1300.71
1039.098	1286.57
1042.379	1311.41
1045.659	1322.98
1048.939	1292.53
1052.219	1296.98
1055.498	1292.45
1058.778	1284.14
1062.057	1273.64
1065.335	1289.42
1068.614	1291.41
1071.892	1286.26
1075.17	1316.63
1078.447	1315.44
1081.724	1313.55
1085.001	1324.89
1088.278	1310.23
1091.554	1312.85
1094.83	1313.92
1098.106	1328.2
1101.382	1344.06
1104.657	1343.19
1107.932	1344.38
1111.206	1330.84
1114.481	1305.53
1117.755	1307.09
1121.029	1303.35
1124.302	1334.5
1127.575	1316.76
1130.848	1317.17
1134.121	1302.98
1137.393	1277.25
1140.665	1311.47
1143.937	1296.66
1147.208	1269.93
1150.48	1301.18
1153.75	1293.12
1157.021	1296
1160.291	1281.93
1163.561	1311.38
1166.831	1289.21
1170.101	1301.32
1173.37	1282.35
1176.639	1260.06
1179.907	1289.66
1183.176	1296.65
1186.444	1301.15
1189.711	1313.03
1192.979	1325.81
1196.246	1302.74
1199.513	1308.67
1202.78	1312.91
1206.046	1318.73
1209.312	1333.96
1212.578	1337.93
1215.843	1314.07
1219.108	1305.09
1222.373	1313.48
1225.638	1299.93
1228.902	1292.51
1232.166	1274.74
1235.43	1267.82
1238.693	1282.81
1241.956	1281.21
1245.219	1307.17
1248.482	1300.31
1251.744	1303.08
1255.006	1363.66
1258.268	1336.81
1261.529	1317.69
1264.79	1317.03
1268.051	1368.66
1271.312	1377.12
1274.572	1356.24
1277.832	1347.89
1281.092	1337.15
1284.351	1334.49
1287.61	1327.46
1290.869	1291.37
1294.128	1291.8
1297.386	1311.48
1300.644	1308.41
1303.902	1312.31
1307.159	1238.69
1310.416	1267.84
1313.673	1280.85
1316.93	1281.31
1320.186	1294.45
1323.442	1310.16
1326.697	1312.13
1329.953	1297.66
1333.208	1318.27
1336.463	1305.28
1339.717	1286.77
1342.972	1349.4
1346.226	1335.73
1349.479	1315.69
1352.733	1301.53
1355.986	1312.6
1359.238	1302.04
1362.491	1303.34
1365.743	1303.36
1368.995	1303.72
1372.247	1313.4
1375.498	1321.3
1378.749	1339.49
1382	1319.06
1385.251	1331.89
1388.501	1310.84
1391.751	1305.72
1395	1294.43
1398.25	1309.39
1401.499	1324.37
1404.748	1296.18
1407.996	1289.39
1411.244	1288.03
1414.492	1279.7
1417.74	1267.48
1420.987	1278.98
1424.234	1308.43
1427.481	1289.51
1430.728	1316.27
1433.974	1307.43
1437.22	1307.71
1440.465	1302.74
1443.711	1302.98
1446.956	1311.29
1450.201	1298.43
1453.445	1324.18
1456.689	1310.41
1459.933	1321.03
1463.177	1342.29
1466.42	1329.29
1469.663	1317.58
1472.906	1323.78
1476.148	1350.86
1479.391	1327.64
1482.633	1318.3
1485.874	1331.16
1489.115	1335.12
1492.356	1326.17
1495.597	1310.54
1498.838	1304.11
1502.078	1298.61
1505.318	1286.83
1508.557	1300.47
1511.797	1297.75
1515.036	1325.9
1518.274	1303.13
1521.513	1275.53
1524.751	1278.97
1527.989	1292.11
1531.227	1302.68
1534.464	1306.19
1537.701	1301.66
1540.938	1304.47
1544.174	1277.56
1547.41	1271.53
1550.646	1290.98
1553.882	1315.54
1557.117	1346.42
1560.352	1351.65
1563.587	1326.29
1566.821	1310.9
1570.055	1324.29
1573.289	1306.92
1576.523	1334.31
1579.756	1342.89
1582.989	1352.71
1586.222	1328.71
1589.454	1349.86
1592.686	1342.04
1595.918	1353.12
1599.15	1353.09
1602.381	1379.29
1605.612	1367.27
1608.843	1415.97
1612.073	1376.37
1615.303	1369.63
1618.533	1365.26
1621.762	1365.48
1624.992	1350.45
1628.221	1348.01
1631.449	1343.54
1634.678	1356.46
1637.906	1335.33
1641.134	1347.28
1644.361	1330.6
1647.588	1324.6
1650.815	1339.77
1654.042	1321.24
1657.269	1338.17
1660.495	1325.44
1663.72	1320.1
1666.946	1301.5
1670.171	1292.97
1673.396	1276.59
1676.621	1268.78
1679.845	1266.77
1683.069	1269.25
1686.293	1282.27
1689.517	1277.55
1692.74	1253.35
1695.963	1263.35
1699.185	1281.46
1702.408	1270.36
1705.63	1284.31
1708.852	1292.29
1712.073	1277.41
1715.294	1287.21
1718.515	1314.1
1721.736	1291.91
1724.956	1285.31
1728.176	1297.07
1731.396	1305.89
1734.616	1303.67
1737.835	1327.49
1741.054	1308.27
1744.272	1309.58
1747.491	1329.29
1750.709	1339.84
1753.927	1315.14
1757.144	1328.37
1760.361	1358.6
1763.578	1340.66
1766.795	1314.68
1770.011	1308.14
1773.227	1319.73
1776.443	1346.4
1779.658	1362.57
1782.874	1336.57
1786.089	1332.29
1789.303	1331.24
1792.518	1332.45
1795.732	1325.6
1798.945	1333.61
1802.159	1363.22
1805.372	1330.34
1808.585	1324.4
1811.797	1322.49
1815.01	1341.28
1818.222	1354.7
1821.434	1334.57
1824.645	1356.77
1827.856	1360.55
1831.067	1373.01
1834.278	1347.27
1837.488	1332.66
1840.698	1398.57
1843.908	1373.84
1847.117	1357.33
1850.326	1317.5
1853.535	1350.62
1856.744	1369.89
1859.952	1329.41
1863.16	1330.16
1866.368	1345.73
1869.575	1404.43
1872.782	1344.74
1875.989	1310.99
1879.196	1339.87
1882.402	1336.38
1885.608	1353.03
1888.814	1320.97
1892.019	1274.07
1895.224	1305.63
1898.429	1291.06
1901.634	1279.87
1904.838	1269.9
1908.042	1300.38
1911.246	1312.95
1914.449	1290.24
1917.652	1282.96
1920.855	1272.86
1924.058	1286.26
1927.26	1315.51
1930.462	1325.48
1933.664	1346.16
1936.865	1318.28
1940.066	1324.17
1943.267	1296.78
1946.467	1300.53
1949.668	1307.64
1952.868	1347.25
1956.067	1347.2
1959.267	1312.94
1962.466	1325.68
1965.665	1314.53
1968.863	1314.39
1972.061	1312.55
1975.259	1309.81
1978.457	1350.93
1981.654	1329.2
1984.852	1329.82
1988.048	1306.61
1991.245	1297.3
1994.441	1345.78
1997.637	1317
2000.833	1308.88
2004.028	1324.56
2007.223	1361.74
2010.418	1350.28
2013.613	1324.97
2016.807	1322.45
2020.001	1319.48
2023.194	1331.11
2026.388	1318.85
2029.581	1291.41
2032.774	1328.13
2035.966	1334.28
2039.158	1305.22
2042.35	1315.88
2045.542	1277.5
2048.733	1321.52
2051.924	1311.18
2055.115	1321.13
2058.306	1304.12
2061.496	1331.83
2064.686	1360.6
2067.875	1303.06
2071.065	1304.67
2074.254	1313.34
2077.442	1288.91
2080.631	1334.17
2083.819	1300.45
2087.007	1297.14
2090.195	1290.16
2093.382	1291.14
2096.569	1288.73
2099.756	1264.37
2102.942	1300.35
2106.128	1302.9
2109.314	1300.04
2112.5	1292.21
2115.685	1273.75
2118.87	1276.84
2122.055	1315.72
2125.239	1300.56
2128.424	1297.22
2131.608	1327.42
2134.791	1317.26
2137.974	1336.41
2141.157	1330.97
2144.34	1316.32
2147.523	1307.1
2150.705	1325.81
2153.887	1304.96
2157.068	1288.94
2160.25	1277.07
2163.431	1292.05
2166.611	1273.61
2169.792	1286.41
2172.972	1233.73
2176.152	1267.9
2179.331	1279.19
2182.511	1280.33
2185.69	1287.51
2188.868	1291.68
2192.047	1311.54
2195.225	1328.02
2198.403	1296.16
2201.58	1288.39
2204.758	1279.33
2207.935	1320.44
2211.111	1272.08
2214.288	1264.99
2217.464	1282.75
2220.64	1264.45
2223.815	1289.29
2226.991	1249.56
2230.166	1255.31
2233.34	1278.51
2236.515	1286.84
2239.689	1327.8
2242.863	1300.84
2246.036	1327.23
2249.209	1322.16
2252.382	1334.75
2255.555	1336.47
2258.727	1313.37
2261.9	1331.64
2265.071	1327.64
2268.243	1330.39
2271.414	1303
2274.585	1290.44
2277.756	1324.08
2280.926	1304.47
2284.096	1319.67
2287.266	1281.05
2290.436	1309.56
2293.605	1315.24
2296.774	1336.79
2299.942	1341.72
2303.111	1348.56
2306.279	1378.65
2309.447	1370.57
2312.614	1357.26
2315.781	1364.85
2318.948	1353.82
2322.115	1376.86
2325.281	1316.41
2328.447	1323.43
2331.613	1304.57
2334.779	1301.69
2337.944	1299.86
2341.109	1298.39
2344.274	1293.58
2347.438	1272.21
2350.602	1286.84
2353.766	1291.81
2356.929	1288.5
2360.092	1309.4
2363.255	1288.14
2366.418	1275.61
2369.58	1296.52
2372.742	1278.12
2375.904	1266.76
2379.066	1262.53
2382.227	1277.74
2385.388	1253.64
2388.548	1228.92
2391.709	1244.77
2394.869	1244.91
2398.029	1276.3
2401.188	1266.32
2404.347	1256.68
2407.506	1252.03
2410.665	1284.86
2413.823	1273.02
2416.981	1264.79
2420.139	1276.67
2423.296	1295.14
2426.453	1282.98
2429.61	1293.71
2432.767	1278.28
2435.923	1299.31
2439.079	1271.69
2442.235	1289.78
2445.391	1256.57
2448.546	1279.69
2451.701	1296.44
2454.855	1293.98
2458.009	1309.26
2461.163	1303.81
2464.317	1286.1
2467.471	1300.34
2470.624	1320.89
2473.777	1313.22
2476.929	1322.77
2480.082	1334.72
2483.234	1324.94
2486.385	1294.72
2489.537	1289.56
2492.688	1284.6
2495.839	1295.09
2498.989	1302.34
2502.14	1295.32
2505.29	1288.74
2508.439	1299.91
2511.589	1269.48
2514.738	1270.48
2517.887	1279.54
2521.035	1323.48
2524.183	1298.15
2527.331	1292.93
2530.479	1287.08
2533.627	1290.78
