Data from N_1_DIV_WI_4N_Splice17_11-32-27-228.txt Node
Date: Sat Mar 14 11:32:27 EDT 2020
User: sa697716
Spectrometer: FLMS03696
Trigger mode: 0
Integration Time (sec): 3.180400E-1
Scans to average: 20
Electric dark correction enabled: true
Nonlinearity correction enabled: true
Boxcar width: 5
XAxis mode: Wavelengths
Number of Pixels in Spectrum: 2048
>>>>>Begin Spectral Data<<<<<
187.83	-123055.45
188.298	971.33
188.766	530.73
189.233	456.3
189.701	649.05
190.169	958.82
190.636	317.27
191.104	180.69
191.571	-30.27
192.039	-110.68
192.506	-107.89
192.974	345.46
193.441	-640.45
193.908	-294.64
194.375	-94.25
194.842	-40.5
195.31	-14.05
195.777	69.84
196.244	141.13
196.711	55.68
197.177	27.91
197.644	8.77
198.111	24.3
198.578	39.04
199.045	21.38
199.511	23.44
199.978	-30.26
200.445	11.02
200.911	-15.83
201.378	-87.5
201.844	-27.56
202.31	-52.71
202.777	-80.08
203.243	-38.28
203.709	-36.4
204.176	-22.81
204.642	-22.17
205.108	-9.23
205.574	-30.61
206.04	-48.42
206.506	-37.5
206.972	-57.16
207.438	-61.77
207.903	-65.14
208.369	-29.29
208.835	-27.28
209.301	-37.86
209.766	-67.87
210.232	-72.78
210.697	-86.83
211.163	-115.64
211.628	-230.49
212.094	-141.65
212.559	-96.76
213.024	-40.08
213.49	-52.79
213.955	-64.26
214.42	-88.18
214.885	-49.58
215.35	-51.82
215.815	22.03
216.28	25.68
216.745	35.92
217.21	50.56
217.675	8.43
218.14	18.63
218.604	13.7
219.069	21.63
219.534	58.89
219.998	48.49
220.463	69.61
220.927	-1.9
221.392	9.22
221.856	17.01
222.32	-35.9
222.785	-11.74
223.249	-60.66
223.713	-83.3
224.177	-71.12
224.642	-162.84
225.106	-237.29
225.57	-291.59
226.034	-154.3
226.497	-260.92
226.961	-182.27
227.425	-125.23
227.889	-216.16
228.353	-207.68
228.816	-486.54
229.28	-426.85
229.744	-309.37
230.207	-77.44
230.671	-40.39
231.134	-251.01
231.597	-225.66
232.061	-312.04
232.524	-400.72
232.987	-226.22
233.45	-141.64
233.914	-94.82
234.377	-153.6
234.84	-146.79
235.303	-230.46
235.766	-266.21
236.229	-199.19
236.691	-138.28
237.154	-152.93
237.617	-92.45
238.08	-104.76
238.542	-145.71
239.005	-107.19
239.468	-77.2
239.93	-71.74
240.393	-47.91
240.855	-46.11
241.317	-77.89
241.78	-106.03
242.242	-94.49
242.704	-78.27
243.166	-55.88
243.629	-29.28
244.091	-31.18
244.553	-52.64
245.015	-42.61
245.477	-89.46
245.939	-162.3
246.4	-132.05
246.862	-145.05
247.324	-151.88
247.786	-209.74
248.247	-326.12
248.709	-435.23
249.17	-303.16
249.632	-197.81
250.093	-183.48
250.555	-139.41
251.016	-33.93
251.477	-20.13
251.939	0.78
252.4	-15.12
252.861	-42.67
253.322	-12.42
253.783	-32.76
254.244	-69.53
254.705	-88.26
255.166	-124.08
255.627	-116.09
256.088	-170.74
256.549	-178.7
257.009	-174.16
257.47	-214.13
257.931	-178.01
258.391	-110.61
258.852	-93.84
259.312	-108.62
259.773	-164.41
260.233	-70.48
260.694	-44.25
261.154	-60.71
261.614	3.72
262.074	1.42
262.534	25.08
262.994	42.34
263.455	18.61
263.915	18.59
264.374	11.77
264.834	23.4
265.294	-8.58
265.754	5.84
266.214	8.85
266.673	-4
267.133	0.27
267.593	-32.32
268.052	-41.58
268.512	-36.12
268.971	16.38
269.431	42.47
269.89	44.16
270.349	67.19
270.809	74.4
271.268	69.64
271.727	-42.43
272.186	-32.96
272.645	-30.59
273.104	-63.35
273.563	-74.81
274.022	-186.92
274.481	-137.15
274.94	-104.18
275.399	-95.4
275.857	-152.85
276.316	-249.46
276.775	-210.23
277.233	-211.94
277.692	-164.47
278.15	-165.42
278.609	-160.28
279.067	-111.09
279.525	-85.72
279.984	-140.26
280.442	-169.98
280.9	-106.08
281.358	-42.47
281.816	-28.94
282.274	-44.98
282.732	-88.85
283.19	-105.53
283.648	-99.06
284.106	-109.02
284.564	-136.18
285.021	-108.89
285.479	-85.03
285.937	-105.3
286.394	-88.97
286.852	-99.52
287.309	-102.86
287.767	-69.41
288.224	-53.75
288.682	-70
289.139	-77.88
289.596	-56.47
290.053	-70.22
290.511	-92.1
290.968	-72.86
291.425	-98.27
291.882	-37.86
292.339	23.96
292.796	-3.44
293.252	-1.51
293.709	42.35
294.166	42.71
294.623	18.02
295.079	6.87
295.536	32.87
295.992	26.48
296.449	18.61
296.905	24.83
297.362	31.8
297.818	43.08
298.274	41.38
298.731	14.36
299.187	13.01
299.643	24.05
300.099	21.92
300.555	10.58
301.011	26.47
301.467	70.06
301.923	18.58
302.379	7.79
302.835	2.04
303.291	4.93
303.746	-2.98
304.202	-6.58
304.658	-9.16
305.113	23.24
305.569	18.35
306.024	-17.18
306.479	-79.58
306.935	-34.23
307.39	-87.27
307.845	-80.54
308.301	-47.74
308.756	-50.31
309.211	-46.33
309.666	-59.89
310.121	-61.85
310.576	-85.46
311.031	-109.41
311.486	-142.99
311.94	-169.49
312.395	-212.68
312.85	-547.67
313.305	-3721.38
313.759	-16203.74
314.214	-1135.94
314.668	-969.86
315.123	-723.35
315.577	-211.87
316.032	-182.55
316.486	-219.78
316.94	-169.19
317.394	-101.02
317.849	-55.82
318.303	-50.25
318.757	-37.67
319.211	-48.63
319.665	-30.49
320.119	-44.44
320.572	-90.06
321.026	-58.35
321.48	-30.3
321.934	-46.24
322.387	-55.33
322.841	-38.04
323.295	14.64
323.748	-40.15
324.202	-34.82
324.655	-19.61
325.108	28.45
325.562	49.83
326.015	43.22
326.468	28.99
326.921	62.71
327.374	101.88
327.827	97.31
328.28	41.01
328.733	69.79
329.186	70.96
329.639	71.55
330.092	48.81
330.545	49.27
330.997	65.19
331.45	94.04
331.903	125.98
332.355	147.67
332.808	114.71
333.26	104.07
333.713	131.89
334.165	106.77
334.617	78.78
335.069	-33.51
335.522	-140.79
335.974	-211.69
336.426	-275.59
336.878	-276.25
337.33	-120.71
337.782	-112.44
338.234	-97.33
338.686	-163.33
339.137	-208.62
339.589	-159.22
340.041	-68.59
340.493	-67.14
340.944	-72.74
341.396	-78.82
341.847	-28.36
342.299	16.82
342.75	56.3
343.201	-9.61
343.653	2.4
344.104	-9.74
344.555	-2.49
345.006	-83.81
345.457	36.69
345.908	39.77
346.359	77.04
346.81	46.4
347.261	-2.78
347.712	-32.93
348.163	-42.87
348.613	-13.07
349.064	-3.02
349.515	-6.01
349.965	11.19
350.416	-24.31
350.866	-30.46
351.317	-95.41
351.767	-161.38
352.217	-215.01
352.668	-118.55
353.118	-71.23
353.568	-164.66
354.018	-123.12
354.468	-116.46
354.918	-64.98
355.368	-54.88
355.818	-120.01
356.268	-405.79
356.718	-1202.46
357.168	-219.58
357.617	-163.67
358.067	-229.71
358.517	-224.31
358.966	-178.2
359.416	-56.64
359.865	2.58
360.315	-105.22
360.764	-11.1
361.213	-5.62
361.663	-53.76
362.112	-75.82
362.561	-80.52
363.01	-25.01
363.459	-29.95
363.908	-88.34
364.357	-85.6
364.806	-247.62
365.255	-151.22
365.703	-80.31
366.152	-64.14
366.601	-58.69
367.05	-15.62
367.498	-15.58
367.947	-34.79
368.395	-38.07
368.844	-16.5
369.292	-70.53
369.74	-22.33
370.189	-66.42
370.637	-121.95
371.085	-84.38
371.533	-94.3
371.981	-149.19
372.429	-147.55
372.877	-162.5
373.325	-121.76
373.773	-156.01
374.221	-154.66
374.669	-193.63
375.116	-149.86
375.564	-149.17
376.012	-188.29
376.459	-137.3
376.907	-166.32
377.354	-213.1
377.801	-160.55
378.249	-152.65
378.696	-177.78
379.143	-199.09
379.591	-282.47
380.038	-503.54
380.485	-315.26
380.932	-410.12
381.379	-277.27
381.826	-147.97
382.273	-117.8
382.72	-136.84
383.166	-144.45
383.613	-62.57
384.06	-52.38
384.506	-41.75
384.953	-25.99
385.4	-33.48
385.846	-22.85
386.292	-41.78
386.739	-48.08
387.185	-57.13
387.631	-60.46
388.078	-40.72
388.524	-63.3
388.97	-56.39
389.416	-46.62
389.862	-47.43
390.308	-47.41
390.754	-40.79
391.2	-48.73
391.645	-63.62
392.091	-26.29
392.537	-14.49
392.983	-37.59
393.428	0.01
393.874	-7.91
394.319	10.03
394.765	33.75
395.21	22.63
395.655	21.93
396.101	26.04
396.546	34.71
396.991	16.84
397.436	17.24
397.881	15.08
398.326	-4.74
398.771	7.8
399.216	-5.71
399.661	-11.81
400.106	-3.76
400.551	1.7
400.995	0.96
401.44	2.57
401.885	6.37
402.329	7.32
402.774	10.9
403.218	21.6
403.663	17.85
404.107	23.03
404.551	23.08
404.995	20.89
405.44	14.43
405.884	13.08
406.328	7.65
406.772	3.04
407.216	2.55
407.66	1.18
408.104	-8.46
408.547	-6.32
408.991	-7.95
409.435	-8.31
409.879	-4.95
410.322	-3.8
410.766	0.09
411.209	2.97
411.653	4.17
412.096	5.84
412.54	4.25
412.983	3.34
413.426	5.21
413.869	5.18
414.312	7.68
414.756	5.41
415.199	5.45
415.642	3.9
416.085	4.06
416.527	2.66
416.97	-1.44
417.413	1
417.856	0.96
418.298	-1.22
418.741	-3.41
419.184	-5.85
419.626	-11.55
420.069	-11.94
420.511	-9.8
420.953	-6.88
421.396	-5.43
421.838	-4.89
422.28	-5.86
422.722	-3.92
423.164	-5.49
423.606	-2.51
424.048	-3.54
424.49	1.35
424.932	0.11
425.374	-1.96
425.816	-6.17
426.258	-8.17
426.699	-7.8
427.141	-5.88
427.582	-9.37
428.024	-10.31
428.465	-12.78
428.907	-10.77
429.348	-11.43
429.789	-7.6
430.231	-5.55
430.672	-2.65
431.113	-1.12
431.554	-1.16
431.995	-3.57
432.436	0.14
432.877	2.01
433.318	5.24
433.759	1.32
434.2	0.59
434.64	-0.97
435.081	-2.28
435.522	-2.11
435.962	-2.78
436.403	0.08
436.843	-0.2
437.284	-2.2
437.724	-4.51
438.164	-8.59
438.604	-5.52
439.045	-3.88
439.485	-2.08
439.925	-2.63
440.365	-3.88
440.805	-4.5
441.245	-3.99
441.685	-3.09
442.125	-3.17
442.564	-3.34
443.004	-1.14
443.444	-3.25
443.883	-3.34
444.323	-5.9
444.762	-9.18
445.202	-10.89
445.641	-9.52
446.081	-13.15
446.52	-12.69
446.959	-10.66
447.398	-8.5
447.837	-8
448.276	-7.26
448.716	-6.02
449.154	-7.21
449.593	-4.75
450.032	-4.19
450.471	-6.19
450.91	-7.11
451.349	-5.24
451.787	-6.29
452.226	-6.81
452.664	-7.36
453.103	-5.97
453.541	-7.57
453.98	-5.63
454.418	-4.21
454.856	-1.13
455.295	-0.28
455.733	1.88
456.171	1.15
456.609	2.22
457.047	2.86
457.485	4.38
457.923	4.9
458.361	3.77
458.798	3.72
459.236	2.26
459.674	-0.08
460.111	1.58
460.549	2.49
460.987	0.72
461.424	-0.36
461.862	0.22
462.299	0.2
462.736	1.26
463.173	2.11
463.611	4.35
464.048	5.07
464.485	6.34
464.922	5.13
465.359	4.39
465.796	11.92
466.233	13.45
466.67	14.34
467.106	15.4
467.543	13.36
467.98	12.88
468.416	10.86
468.853	10
469.29	9.6
469.726	8.81
470.162	8.32
470.599	2.46
471.035	0.51
471.471	-0.71
471.907	-3.47
472.344	-3.54
472.78	-3.17
473.216	-3.51
473.652	-2.68
474.088	-3.76
474.523	-2.52
474.959	-2.59
475.395	-2.25
475.831	-1.02
476.266	-1.26
476.702	-0.7
477.138	0.23
477.573	0.16
478.008	-0.21
478.444	-0.02
478.879	1.47
479.314	1.05
479.75	0.94
480.185	0.51
480.62	-0.25
481.055	-0.42
481.49	0.92
481.925	0.64
482.36	2.8
482.795	2.44
483.229	1.71
483.664	1.24
484.099	1.99
484.534	2.64
484.968	3.81
485.403	3.96
485.837	3.69
486.271	2.38
486.706	1.83
487.14	0.19
487.574	0.34
488.009	0.85
488.443	0.22
488.877	0.5
489.311	-0.76
489.745	-1.53
490.179	-1.39
490.613	0.5
491.046	-0.07
491.48	-0.36
491.914	-0.42
492.348	-0.49
492.781	-0.5
493.215	-0.6
493.648	-1.42
494.082	-1.02
494.515	-0.83
494.948	-0.33
495.382	-2.09
495.815	-1.34
496.248	-0.54
496.681	-0.87
497.114	-1.18
497.547	-1.49
497.98	0.01
498.413	1.28
498.846	1.7
499.279	1.36
499.711	0.82
500.144	0.93
500.577	1.43
501.009	0.75
501.442	2.05
501.874	3.09
502.306	3.17
502.739	4.76
503.171	3.91
503.603	3.8
504.036	3.24
504.468	3.61
504.9	3.76
505.332	2.85
505.764	3.49
506.196	2.56
506.627	2.73
507.059	2.95
507.491	0.06
507.923	0.15
508.354	0.89
508.786	1.77
509.217	1.9
509.649	2.12
510.08	2.35
510.512	3.04
510.943	3.26
511.374	2.95
511.805	2.71
512.237	2.68
512.668	2.38
513.099	0.72
513.53	0.06
513.961	0.2
514.391	-0.36
514.822	0.85
515.253	0.11
515.684	0.24
516.114	0.25
516.545	0.49
516.975	0.69
517.406	0.24
517.836	0.72
518.267	1.19
518.697	1.71
519.127	1.88
519.558	0.94
519.988	0.66
520.418	-0.05
520.848	-0.68
521.278	-0.81
521.708	18.16
522.138	19.03
522.567	18.5
522.997	17.99
523.427	17.06
523.857	16.85
524.286	16.69
524.716	17.26
525.145	17.78
525.575	18.45
526.004	18.16
526.433	-0.34
526.863	-0.54
527.292	0.87
527.721	2.08
528.15	1.94
528.579	2.51
529.008	2.54
529.437	1.45
529.866	0.93
530.295	-0.16
530.724	0.45
531.152	0.21
531.581	0.26
532.01	0.07
532.438	-1.21
532.867	-1.58
533.295	-1.53
533.723	-1.44
534.152	-0.93
534.58	-0.81
535.008	-0.01
535.436	0.69
535.865	0.9
536.293	0.29
536.721	-0.78
537.149	-0.25
537.576	0.87
538.004	0.88
538.432	0.58
538.86	0.99
539.287	1.07
539.715	0.82
540.143	0.01
540.57	0.21
540.998	0.08
541.425	2.66
541.852	2.51
542.28	1.71
542.707	1.79
543.134	1.73
543.561	1.82
543.988	2.17
544.415	1.76
544.842	1.17
545.269	0.91
545.696	1.99
546.123	0.64
546.549	1.44
546.976	1.91
547.403	1.61
547.829	1.07
548.256	0.3
548.682	-0.18
549.108	1.08
549.535	1.24
549.961	0.59
550.387	-0.41
550.813	0.49
551.24	-0.13
551.666	-0.63
552.092	-1.07
552.518	-0.74
552.943	0.06
553.369	-0.36
553.795	-0.97
554.221	-0.65
554.646	-0.11
555.072	1.5
555.498	0.17
555.923	-0.45
556.349	-0.69
556.774	-0.83
557.199	-0.76
557.625	-1.79
558.05	-1.23
558.475	-1.34
558.9	-1.1
559.325	-0.51
559.75	-1.34
560.175	-1.49
560.6	-1.47
561.025	-1.78
561.449	-1.19
561.874	-1.48
562.299	-0.41
562.723	-0.44
563.148	-0.64
563.572	-1.5
563.997	-2.26
564.421	-3.27
564.846	-3.55
565.27	-2.65
565.694	-2.3
566.118	-2.7
566.542	-1.89
566.966	-2.35
567.39	-2.14
567.814	-1.48
568.238	-0.72
568.662	-0.86
569.086	-0.01
569.509	-0.37
569.933	0.73
570.357	0.85
570.78	1.02
571.204	1.36
571.627	1.6
572.05	1.56
572.474	2.16
572.897	2
573.32	3.06
573.743	2.52
574.166	4.05
574.589	2.7
575.012	2.55
575.435	2.56
575.858	1.98
576.281	1.78
576.704	1.07
577.126	-0
577.549	-0.73
577.972	-1.72
578.394	-1.45
578.817	-0.32
579.239	-0.6
579.661	-0.2
580.084	0.54
580.506	1.19
580.928	0.99
581.35	1.75
581.772	1.72
582.194	2.34
582.616	1.89
583.038	1.24
583.46	-0.8
583.882	-1.02
584.303	-1.87
584.725	-2.92
585.147	0.42
585.568	0.41
585.99	0.33
586.411	1.16
586.833	1.38
587.254	2.39
587.675	2.72
588.096	3.16
588.518	3.93
588.939	4.62
589.36	5.18
589.781	0.7
590.202	3
590.623	2.96
591.043	1.79
591.464	1.61
591.885	1.48
592.305	0.75
592.726	0.18
593.147	-0.58
593.567	-0.73
593.987	-1.14
594.408	-1.65
594.828	-3.96
595.248	-4
595.669	-2.75
596.089	-2.73
596.509	-2.86
596.929	-2.79
597.349	-2.3
597.769	-1.14
598.189	-0.95
598.608	-0.92
599.028	-0.47
599.448	-0.53
599.867	-0.36
600.287	-1.3
600.706	-0.95
601.126	-0.61
601.545	0.43
601.965	0.22
602.384	-0.39
602.803	-0.67
603.222	-0.16
603.641	-0.45
604.061	0.24
604.48	0.1
604.898	0.19
605.317	-0.12
605.736	-0.48
606.155	-0.12
606.574	-0.2
606.992	-0.43
607.411	0.14
607.829	-0.82
608.248	-0.97
608.666	-1.31
609.085	-0.91
609.503	-0.48
609.921	-0.16
610.339	0.13
610.758	-1.16
611.176	-1.06
611.594	-0.53
612.012	-0.93
612.43	0.04
612.847	0.21
613.265	1.08
613.683	0.59
614.101	0.42
614.518	0.02
614.936	-0.06
615.353	1.11
615.771	1.85
616.188	1.51
616.606	1.56
617.023	1.69
617.44	2.51
617.857	1.16
618.274	1.1
618.691	1.72
619.108	1.54
619.525	1.66
619.942	1.43
620.359	0.93
620.776	0.96
621.192	1.38
621.609	1.53
622.026	1.29
622.442	2.03
622.859	1.99
623.275	1.23
623.691	1.48
624.108	1.49
624.524	0.85
624.94	0.9
625.356	0.92
625.772	0.1
626.188	-0.62
626.604	-0.48
627.02	-1.71
627.436	-1.59
627.852	-0.52
628.268	-0.42
628.683	-0.57
629.099	0.11
629.514	0.15
629.93	-0.37
630.345	-0.52
630.761	-0.46
631.176	-1.09
631.591	1.19
632.007	1.78
632.422	0.55
632.837	0.36
633.252	0.7
633.667	0.66
634.082	-0.09
634.497	0.65
634.911	2.34
635.326	2.41
635.741	3.38
636.155	1.91
636.57	2.23
636.984	2.73
637.399	3.82
637.813	3.21
638.228	2.58
638.642	2.89
639.056	3.16
639.47	2.1
639.884	2.5
640.298	1.99
640.712	2.87
641.126	2.65
641.54	1.96
641.954	-0.19
642.368	0.08
642.781	3.33
643.195	3.32
643.609	2.84
644.022	2.93
644.436	2.21
644.849	1.72
645.262	0.61
645.676	-0.06
646.089	0.3
646.502	1
646.915	0.63
647.328	-0.8
647.741	-0.02
648.154	0.01
648.567	2.46
648.98	2.99
649.393	2.73
649.805	2.5
650.218	2.23
650.631	2.07
651.043	2.37
651.456	2.83
651.868	1.75
652.28	-0.27
652.693	-0.74
653.105	-3.08
653.517	-3.97
653.929	-3.22
654.341	-1.93
654.753	-1.08
655.165	-0.89
655.577	-0.69
655.989	-1.26
656.401	-2.32
656.813	0.53
657.224	0.88
657.636	0.46
658.047	1.96
658.459	1.72
658.87	-0.22
659.282	-0.76
659.693	0.2
660.104	0.56
660.515	0.95
660.926	1.09
661.338	0.02
661.749	-1.12
662.159	-0.23
662.57	-1.86
662.981	-2.22
663.392	-0.99
663.803	-0.59
664.213	-1.06
664.624	-1.2
665.035	-2.51
665.445	-3.01
665.855	-2.35
666.266	-0.67
666.676	-1.5
667.086	-1.08
667.497	-0.16
667.907	-0.59
668.317	-0.84
668.727	1.14
669.137	-0.59
669.547	0.09
669.956	0.19
670.366	-0.65
670.776	-0.68
671.186	-0.13
671.595	0.27
672.005	-0.77
672.414	-0.35
672.824	0.24
673.233	-2.72
673.642	-1.87
674.052	-0.84
674.461	0.16
674.87	0.26
675.279	0.49
675.688	-1.09
676.097	-0.21
676.506	0.17
676.915	-0.94
677.323	-1.18
677.732	-0.51
678.141	-0.57
678.549	-1.88
678.958	-2.98
679.366	-2.84
679.775	-3.87
680.183	-1.62
680.592	-1.58
681	-1.12
681.408	-0.15
681.816	-0.68
682.224	-1.56
682.632	0.35
683.04	0.68
683.448	1.17
683.856	1.27
684.264	1.95
684.671	0.33
685.079	-1.19
685.487	-2.14
685.894	-2.75
686.302	-3.7
686.709	-1.95
687.116	-3.68
687.524	-3.32
687.931	-2.49
688.338	-2.76
688.745	-4.24
689.152	-4.17
689.559	-3.63
689.966	-1.6
690.373	-0.33
690.78	1.26
691.187	0.19
691.593	1.05
692	1.12
692.407	1.26
692.813	4.08
693.22	5.62
693.626	4.72
694.032	4.77
694.439	3.02
694.845	1.75
695.251	0.5
695.657	1.43
696.063	0.29
696.469	0.78
696.875	0.82
697.281	-1.21
697.687	-2.39
698.093	-1.28
698.498	-1.61
698.904	-1.48
699.31	-1.29
699.715	1.24
700.12	-0.48
700.526	-0.01
700.931	-1.79
701.337	-1.43
701.742	-1.14
702.147	-0.71
702.552	-0.06
702.957	-0.53
703.362	-0.89
703.767	-1.04
704.172	-3.53
704.577	-2.65
704.981	-4.35
705.386	-2.67
705.791	-2.57
706.195	-4.15
706.6	-4.05
707.004	-6.44
707.408	-6.24
707.813	-4.42
708.217	-3.62
708.621	-3.64
709.025	-4.07
709.43	-1.25
709.834	-1.56
710.237	-2.93
710.641	-2.21
711.045	-1.7
711.449	0.3
711.853	3.87
712.256	2.58
712.66	2.41
713.064	3
713.467	4.36
713.87	3.76
714.274	4.08
714.677	5.42
715.08	6.1
715.484	6.48
715.887	9.83
716.29	6.05
716.693	6.57
717.096	7.42
717.499	8.16
717.901	6.23
718.304	5.61
718.707	4.61
719.109	4.25
719.512	3.28
719.915	4.87
720.317	1.9
720.719	1.24
721.122	1.51
721.524	1.15
721.926	4.52
722.328	5.14
722.731	5.09
723.133	5.57
723.535	4.72
723.937	4.6
724.338	4.4
724.74	4.35
725.142	47.9
725.544	50.48
725.945	61.42
726.347	57.94
726.748	58.41
727.15	59
727.551	62.74
727.952	60.7
728.354	60.03
728.755	59.29
729.156	57.84
729.557	16.02
729.958	12.1
730.359	1.47
730.76	1.5
731.161	1.65
731.562	-0.15
731.962	-4.49
732.363	-2.74
732.763	-2.47
733.164	-5.03
733.564	-4.04
733.965	-2.98
734.365	-1.57
734.766	-1.1
735.166	-0.93
735.566	0.73
735.966	2.32
736.366	3.41
736.766	3.71
737.166	3.41
737.566	4.56
737.966	3.77
738.365	3.19
738.765	4.09
739.165	3.78
739.564	2.28
739.964	-0.46
740.363	-0.63
740.763	-1.88
741.162	-0.17
741.561	-0.77
741.96	-0.35
742.36	-0.77
742.759	0.26
743.158	-2.08
743.557	-3.03
743.955	-2.92
744.354	-2.63
744.753	-4.44
745.152	-3.45
745.55	-5.78
745.949	-5.58
746.348	-5.53
746.746	-5.52
747.144	-3.5
747.543	-3.01
747.941	-3.62
748.339	-2.26
748.737	-0.76
749.136	0.84
749.534	-0.18
749.932	1.67
750.33	2.06
750.727	0.6
751.125	1.68
751.523	-0.51
751.921	2.37
752.318	3.37
752.716	4.16
753.113	3.04
753.511	3.29
753.908	4.35
754.305	7.28
754.703	7.54
755.1	8.49
755.497	7.97
755.894	7.06
756.291	4.65
756.688	5.05
757.085	3.79
757.482	4.57
757.878	5.99
758.275	6.4
758.672	-1.65
759.068	-2.31
759.465	-4.09
759.861	-5.44
760.258	-6.91
760.654	-8.64
761.05	-6.85
761.447	-8.62
761.843	-8.57
762.239	-7.36
762.635	-8.19
763.031	-10.32
763.427	-9.49
763.822	-7.14
764.218	-7.57
764.614	-7.39
765.01	-7.13
765.405	-8.81
765.801	-7.15
766.196	-7.14
766.592	-10.73
766.987	-9.26
767.382	-7.05
767.778	-7.55
768.173	-7.7
768.568	-7
768.963	-5.26
769.358	-5.15
769.753	-2.74
770.148	-1.42
770.542	-1.83
770.937	-0.95
771.332	-1.92
771.726	-2.38
772.121	2.16
772.515	1.9
772.91	1.94
773.304	1.23
773.699	0.78
774.093	-1.52
774.487	-2.93
774.881	-2.68
775.275	-2.63
775.669	-2.84
776.063	-1.96
776.457	-4.25
776.851	-3.75
777.245	-3.23
777.638	-3.3
778.032	-4.07
778.425	-2.24
778.819	0.31
779.212	3.09
779.606	6.07
779.999	6.04
780.392	6.79
780.786	5.16
781.179	4.01
781.572	5.13
781.965	6.09
782.358	7.8
782.751	6.25
783.143	3.07
783.536	1.53
783.929	-1.36
784.322	-1.2
784.714	-2.95
785.107	-2.02
785.499	0.04
785.891	0.4
786.284	-0.72
786.676	-1.33
787.068	1.96
787.46	4.71
787.852	3.42
788.245	3.24
788.636	0.81
789.028	3.16
789.42	4.35
789.812	5.35
790.204	3.79
790.595	6.25
790.987	6.76
791.378	4.86
791.77	0.71
792.161	0.19
792.553	-0.02
792.944	1.05
793.335	-0.5
793.726	-0.92
794.117	-1.61
794.508	-2.96
794.899	-4.63
795.29	-5.84
795.681	-6.51
796.072	-4.17
796.463	14.6
796.853	19.15
797.244	21.05
797.634	21.18
798.025	20.53
798.415	16.74
798.806	19.33
799.196	19.79
799.586	22.57
799.976	24.04
800.366	22.51
800.756	1.71
801.146	-0.36
801.536	-2.28
801.926	-1.66
802.316	-2.3
802.706	0.68
803.095	1.27
803.485	1.76
803.874	-0.66
804.264	-2.76
804.653	0.2
805.043	3.5
805.432	4.59
805.821	6.31
806.21	6.3
806.599	7.69
806.988	8.75
807.377	5.06
807.766	1.94
808.155	1.97
808.544	2.08
808.933	1.2
809.321	2.59
809.71	-2.28
810.098	-1.22
810.487	-5.3
810.875	-8.95
811.264	-8.9
811.652	3.49
812.04	5.36
812.428	6.92
812.816	4.11
813.204	4.54
813.592	1.34
813.98	2.77
814.368	6.65
814.756	8.56
815.144	10.12
815.531	11.14
815.919	-2.95
816.306	-2.88
816.694	-1.41
817.081	1.57
817.469	2.89
817.856	-1.23
818.243	-1.74
818.63	-8.96
819.017	-6.12
819.404	-4.4
819.791	-9.01
820.178	-10.51
820.565	-8.65
820.952	-2.08
821.339	1.04
821.725	-0.8
822.112	6.33
822.498	6.64
822.885	8.41
823.271	7.01
823.657	4.42
824.044	8.16
824.43	8.41
824.816	14.09
825.202	8.79
825.588	10.11
825.974	13.9
826.36	14.72
826.746	14.11
827.132	13.44
827.517	19.85
827.903	19.77
828.289	22.74
828.674	23.1
829.06	17.75
829.445	15.6
829.83	10.49
830.216	5.48
830.601	3.61
830.986	11.57
831.371	15.13
831.756	15.27
832.141	23.08
832.526	23.06
832.911	26.89
833.295	27.95
833.68	25.08
834.065	29.08
834.449	27.93
834.834	28.51
835.218	27.26
835.603	28.04
835.987	23.37
836.371	17.35
836.755	16.59
837.139	9.37
837.524	7.47
837.908	7.01
838.291	6.52
838.675	9.67
839.059	8.84
839.443	5.72
839.827	0.44
840.21	-2.83
840.594	0.57
840.977	2.57
841.361	6.03
841.744	7.33
842.127	11.73
842.511	13.61
842.894	8.08
843.277	7.9
843.66	3.41
844.043	6.11
844.426	11.33
844.809	5.51
845.191	1.62
845.574	3.13
845.957	0.46
846.339	-0.62
846.722	-2.17
847.104	-0.25
847.487	-4.9
847.869	-2.29
848.252	-1.92
848.634	-4.57
849.016	-5.04
849.398	-5.31
849.78	-6.88
850.162	-4.6
850.544	-5.13
850.926	-9.24
851.307	-6.42
851.689	-1.96
852.071	-5.99
852.452	-6.42
852.834	-7.9
853.215	0.59
853.597	-2.44
853.978	2.3
854.359	3.42
854.741	6.83
855.122	7.66
855.503	2.16
855.884	-1.41
856.265	2.59
856.646	-3.37
857.026	-0.74
857.407	-6.75
857.788	-5.84
858.169	-13.93
858.549	-8.69
858.93	-8.91
859.31	-8.76
859.69	-2.74
860.071	-1.45
860.451	-1.89
860.831	2.88
861.211	0.12
861.591	-0.36
861.971	-2.22
862.351	-1.56
862.731	-10.36
863.111	-14.43
863.491	-7.7
863.87	-8.86
864.25	-8.83
864.629	-0.8
865.009	-4.36
865.388	-2.75
865.768	-7.39
866.147	-0.91
866.526	3.28
866.905	10.16
867.284	3.33
867.663	-5.51
868.042	-9.83
868.421	-9.17
868.8	-15.45
869.179	-5.57
869.558	-5.6
869.936	1.96
870.315	-0.74
870.693	3.8
871.072	-2.02
871.45	1.81
871.828	9.44
872.207	9.68
872.585	12.63
872.963	9.62
873.341	12.85
873.719	20.6
874.097	19.75
874.475	15.65
874.853	8.54
875.23	9.48
875.608	12.1
875.986	3.31
876.363	6.84
876.741	14.81
877.118	23.36
877.495	18.77
877.873	14.87
878.25	14.53
878.627	21.27
879.004	24.72
879.381	22.74
879.758	28.98
880.135	30.96
880.512	28.9
880.889	16.8
881.265	5.68
881.642	-2.98
882.019	-1.67
882.395	3.97
882.772	9.14
883.148	11.18
883.524	11.92
883.901	5.23
884.277	3.88
884.653	7.97
885.029	16.79
885.405	33.05
885.781	38.56
886.157	30.96
886.532	24.89
886.908	16.11
887.284	7.52
887.659	10.12
888.035	11.4
888.411	10.39
888.786	7.12
889.161	1.25
889.537	-10.35
889.912	-11.14
890.287	-7.6
890.662	-11.87
891.037	-10.92
891.412	-4.64
891.787	-9.09
892.162	-5.85
892.536	-5.64
892.911	0.05
893.286	-1.83
893.66	1.36
894.035	4.34
894.409	-1.41
894.784	6.09
895.158	2.44
895.532	2.81
895.906	5.4
896.281	6.46
896.655	14.23
897.029	7.79
897.402	8.21
897.776	-1.91
898.15	-5.34
898.524	0.34
898.898	-5.92
899.271	-1.78
899.645	6.91
900.018	9.71
900.392	8.25
900.765	-2.3
901.138	-0.86
901.511	-10.08
901.884	10.22
902.258	15.38
902.631	16.37
903.003	7.61
903.376	5.22
903.749	-0.22
904.122	-3.59
904.495	-11.72
904.867	-15.47
905.24	-8.23
905.612	-4.39
905.985	-14.7
906.357	-21.84
906.729	-14.28
907.102	5.77
907.474	15.5
907.846	23.63
908.218	24.77
908.59	32.5
908.962	34.36
909.334	37.51
909.705	43.91
910.077	42.27
910.449	36.8
910.82	39.16
911.192	34.65
911.563	30.1
911.935	8.55
912.306	-1.52
912.677	-0.71
913.048	10.62
913.419	-1.52
913.79	-18.69
914.161	-27.96
914.532	-17.1
914.903	-21.4
915.274	-24.79
915.645	-21.88
916.015	-16.06
916.386	-2.94
916.756	-15.82
917.127	-30.77
917.497	-11.2
917.868	4.39
918.238	5.58
918.608	0.79
918.978	3.11
919.348	-3.29
919.718	-2.83
920.088	5.44
920.458	-4.13
920.828	-13.94
921.198	-9.94
921.567	-28.31
921.937	-16.06
922.306	-21.88
922.676	-25.99
923.045	-4.2
923.415	11.33
923.784	14.96
924.153	23.27
924.522	32.06
924.891	34.04
925.26	36.6
925.629	39.48
925.998	32.24
926.367	35.07
926.736	53.91
927.104	43.48
927.473	23.63
927.842	5.58
928.21	-14.31
928.578	-42.33
928.947	-22.33
929.315	-13.22
929.683	10.08
930.051	12.6
930.42	14.89
930.788	3.57
931.156	-8.13
931.523	30.03
931.891	36.84
932.259	54.73
932.627	90.91
932.994	78.71
933.362	90.06
933.729	64.77
934.097	67.41
934.464	63.74
934.831	59.72
935.199	78.27
935.566	61.32
935.933	49.48
936.3	52.74
936.667	33.73
937.034	113.4
937.401	94.64
937.767	81.13
938.134	82.83
938.501	95.01
938.867	115.32
939.234	129.71
939.6	80.21
939.967	115.99
940.333	87.52
940.699	68.87
941.065	-20.14
941.431	-21.94
941.798	22.66
942.163	44.6
942.529	28.88
942.895	-5.65
943.261	17.22
943.627	15.15
943.992	27.74
944.358	8.3
944.723	22.19
945.089	36.85
945.454	37.94
945.82	19.32
946.185	-9.45
946.55	17.65
946.915	32.59
947.28	28.77
947.645	35.64
948.01	42.45
948.375	63.73
948.74	61.11
949.104	38.79
949.469	-20.02
949.834	-37.3
950.198	157.76
950.562	96.57
950.927	89.65
951.291	132.2
951.655	132.37
952.02	87.89
952.384	66.74
952.748	79.63
953.112	118.25
953.476	115.67
953.839	93.05
954.203	82.97
954.567	86.6
954.931	83.53
955.294	57.34
955.658	51.5
956.021	111.2
956.385	137.65
956.748	126.79
957.111	-8.61
957.474	-113.66
957.837	-201.22
958.2	-316.5
958.563	-88.63
958.926	-10.86
959.289	-30.28
959.652	-42.12
960.015	-36.87
960.377	-73.61
960.74	-77.75
961.102	-235.95
961.465	56.02
961.827	431.74
962.189	643.69
962.552	474.07
962.914	397.75
963.276	243.35
963.638	189.83
964	137.15
964.362	136.68
964.724	120.61
965.085	96.35
965.447	68.85
965.809	-2.32
966.17	-16.94
966.532	-36.48
966.893	-53.38
967.255	-49.75
967.616	-65.7
967.977	-30.59
968.338	-71.05
968.699	-40.51
969.061	-32.21
969.421	-26.1
969.782	-38.86
970.143	12.87
970.504	45.99
970.865	85.29
971.225	106.94
971.586	113.23
971.946	129.39
972.307	134.2
972.667	138.19
973.027	127.17
973.388	119.18
973.748	112.98
974.108	110.3
974.468	49.21
974.828	86.58
975.188	69.23
975.548	58.82
975.907	69.99
976.267	70
976.627	93.1
976.986	94.67
977.346	79.2
977.705	65.49
978.064	55.89
978.424	66.92
978.783	25.07
979.142	18.48
979.501	32.07
979.86	31.76
980.219	26.74
980.578	-13.66
980.937	-44.73
981.296	-20.9
981.654	-9.81
982.013	-67.62
982.371	-114.44
982.73	-101.93
983.088	-161.2
983.447	-188.04
983.805	-272.24
984.163	-582.71
984.521	-667.86
984.879	-1011.47
985.237	1571.62
985.595	-1527.3
985.953	-369.79
986.311	-276.11
986.669	-144.75
987.026	-115.66
987.384	-216.46
987.741	-254.12
988.099	-101.38
988.456	-47.2
988.814	-10.87
989.171	-13.41
989.528	-49
989.885	-62.61
990.242	-14.26
990.599	-42.89
990.956	-35.76
991.313	-9.66
991.67	3.16
992.027	33.72
992.383	29.75
992.74	34.95
993.096	44.42
993.453	50.26
993.809	44.73
994.165	47.47
994.522	102.02
994.878	115.3
995.234	127.56
995.59	110.55
995.946	24.62
996.302	21.52
996.658	-14.18
997.013	-45.28
997.369	-15.16
997.725	35.01
998.08	19.91
998.436	-159.33
998.791	-217.75
999.147	-135.49
999.502	-148.58
999.857	-94.07
1000.212	-196.2
1000.567	-224.15
1000.922	-120.95
1001.277	-94.4
1001.632	-38.32
1001.987	-82.11
1002.342	-33.57
1002.696	6.67
1003.051	16.89
1003.406	7.59
1003.76	-24.66
1004.114	-0.89
1004.469	7.33
1004.823	16.19
1005.177	-4.81
1005.531	-13.87
1005.885	9.81
1006.239	23.51
1006.593	20.21
1006.947	17.52
1007.301	23.04
1007.655	49.76
1008.008	53.46
1008.362	63.92
1008.715	78.96
1009.069	111.42
1009.422	246.72
1009.776	404.66
1010.129	187.25
1010.482	111.76
1010.835	30.5
1011.188	81.65
1011.541	57.8
1011.894	467.31
1012.247	-1819.93
1012.6	-141.99
1012.952	-124.2
1013.305	-156.57
1013.657	-86.02
1014.01	-54.97
1014.362	-55.21
1014.715	15.53
1015.067	30.24
1015.419	20.06
1015.771	28.02
1016.123	39.19
1016.475	49.17
1016.827	52.92
1017.179	87.12
1017.531	68.98
1017.883	38.77
1018.234	100.66
1018.586	91.5
1018.938	125.12
1019.289	188.87
1019.64	188.41
1019.992	156.27
1020.343	122.16
1020.694	127.68
1021.045	83.55
1021.396	94
1021.747	170.19
1022.098	114.39
1022.449	77.64
1022.8	59.34
1023.151	71.31
1023.501	79.36
1023.852	82.81
1024.202	96.19
1024.553	72.4
1024.903	124.12
1025.253	136.31
1025.604	119.03
1025.954	143.41
1026.304	154.97
1026.654	143.08
1027.004	126.66
1027.354	124.31
1027.703	172.66
1028.053	184.23
1028.403	386.73
1028.753	127.56
1029.102	-532.18
1029.452	-5155.1
1029.801	-294.88
1030.15	-183.07
1030.499	-176.05
897.758	1608.03
901.051	1549.9
904.343	1578.46
907.636	1582.23
910.928	1627.37
914.22	1569.44
917.511	1573.82
920.803	1607.19
924.094	1599.31
927.384	1606.65
930.675	1576.88
933.965	1553.97
937.255	1580.9
940.544	1559.64
943.834	1556.03
947.123	1513.38
950.411	1577.88
953.7	1565.56
956.988	1558.03
960.276	1504.52
963.563	1533.35
966.851	1543.31
970.138	1569.01
973.424	1570.65
976.711	1531.28
979.997	1565.23
983.283	1595.24
986.568	1548.76
989.853	1535.63
993.138	1551.07
996.423	1619.48
999.708	1590.72
1002.992	1610.4
1006.275	1545.18
1009.559	1546.04
1012.842	1616.74
1016.125	1585.51
1019.408	1568.76
1022.69	1603.02
1025.972	1628.27
1029.254	1611.12
1032.536	1586.31
1035.817	1590.63
1039.098	1568.87
1042.379	1601.64
1045.659	1620.43
1048.939	1583.01
1052.219	1582.6
1055.498	1576.06
1058.778	1569.59
1062.057	1552.89
1065.335	1571.4
1068.614	1576.53
1071.892	1570.52
1075.17	1606.1
1078.447	1612.68
1081.724	1607.46
1085.001	1622.52
1088.278	1606.39
1091.554	1606.8
1094.83	1607.18
1098.106	1629.24
1101.382	1648.03
1104.657	1644.84
1107.932	1646.29
1111.206	1631.85
1114.481	1592.28
1117.755	1597.13
1121.029	1591.36
1124.302	1633.39
1127.575	1613.12
1130.848	1611.36
1134.121	1591.74
1137.393	1562.04
1140.665	1602.83
1143.937	1586.77
1147.208	1551.38
1150.48	1595.64
1153.75	1583.1
1157.021	1585.45
1160.291	1570.34
1163.561	1606.49
1166.831	1580.13
1170.101	1596.22
1173.37	1568.58
1176.639	1541.59
1179.907	1572.38
1183.176	1586.57
1186.444	1589.74
1189.711	1605.12
1192.979	1622.25
1196.246	1591.88
1199.513	1601.65
1202.78	1605.84
1206.046	1611.96
1209.312	1631.21
1212.578	1638.92
1215.843	1613.98
1219.108	1593.83
1222.373	1609.83
1225.638	1592.16
1228.902	1586.08
1232.166	1556.8
1235.43	1550.9
1238.693	1572.09
1241.956	1567.22
1245.219	1603.85
1248.482	1594.23
1251.744	1596.42
1255.006	1677.95
1258.268	1637.69
1261.529	1613.24
1264.79	1611.35
1268.051	1678.21
1271.312	1680.8
1274.572	1656.9
1277.832	1647.08
1281.092	1631.51
1284.351	1626.78
1287.61	1616.57
1290.869	1575.18
1294.128	1576.77
1297.386	1602.77
1300.644	1598.37
1303.902	1605.7
1307.159	1515.36
1310.416	1549.75
1313.673	1569.44
1316.93	1571.43
1320.186	1588.92
1323.442	1610.58
1326.697	1612.57
1329.953	1591.67
1333.208	1619.44
1336.463	1601.27
1339.717	1577.65
1342.972	1651.28
1346.226	1634.28
1349.479	1607.3
1352.733	1592.84
1355.986	1599.25
1359.238	1586.86
1362.491	1587.08
1365.743	1588.67
1368.995	1586.22
1372.247	1598.19
1375.498	1609.63
1378.749	1643.33
1382	1611.98
1385.251	1629.74
1388.501	1599.64
1391.751	1601.44
1395	1581.9
1398.25	1603.23
1401.499	1625.64
1404.748	1590.4
1407.996	1577.94
1411.244	1575.63
1414.492	1565.1
1417.74	1552.68
1420.987	1560.3
1424.234	1603.1
1427.481	1574.75
1430.728	1612.62
1433.974	1598.63
1437.22	1593.65
1440.465	1589.13
1443.711	1592.73
1446.956	1604.95
1450.201	1582.97
1453.445	1616.53
1456.689	1606.22
1459.933	1613.76
1463.177	1643.1
1466.42	1625.79
1469.663	1608.59
1472.906	1621.81
1476.148	1655.88
1479.391	1622.43
1482.633	1608.36
1485.874	1626.68
1489.115	1630.84
1492.356	1617.73
1495.597	1600.71
1498.838	1593.09
1502.078	1585.37
1505.318	1571.45
1508.557	1589.13
1511.797	1586.29
1515.036	1627.52
1518.274	1598.17
1521.513	1557.68
1524.751	1564.45
1527.989	1579.71
1531.227	1592.69
1534.464	1598.51
1537.701	1588.27
1540.938	1593.51
1544.174	1557.2
1547.41	1546.35
1550.646	1570.81
1553.882	1604.74
1557.117	1649.93
1560.352	1651.36
1563.587	1622.14
1566.821	1600.89
1570.055	1613.07
1573.289	1594.7
1576.523	1631.8
1579.756	1641.56
1582.989	1656.96
1586.222	1623.91
1589.454	1647.74
1592.686	1637.54
1595.918	1655.19
1599.15	1655.03
1602.381	1683.46
1605.612	1672.06
1608.843	1738.62
1612.073	1684.27
1615.303	1677.29
1618.533	1675.98
1621.762	1676.86
1624.992	1653.93
1628.221	1652.4
1631.449	1647.03
1634.678	1663.45
1637.906	1640.21
1641.134	1654.78
1644.361	1631.67
1647.588	1624.24
1650.815	1643.14
1654.042	1612.79
1657.269	1633.01
1660.495	1621.72
1663.72	1608.2
1666.946	1584.45
1670.171	1572.24
1673.396	1552.48
1676.621	1540.57
1679.845	1536.3
1683.069	1538.77
1686.293	1556.86
1689.517	1555.77
1692.74	1525.67
1695.963	1538.9
1699.185	1569.98
1702.408	1551.82
1705.63	1570.77
1708.852	1584.65
1712.073	1561.59
1715.294	1575.89
1718.515	1610.66
1721.736	1580.59
1724.956	1568.31
1728.176	1583.73
1731.396	1599.45
1734.616	1591.56
1737.835	1623.6
1741.054	1598.39
1744.272	1594.05
1747.491	1628.39
1750.709	1640.42
1753.927	1608.94
1757.144	1628.44
1760.361	1666.37
1763.578	1645.95
1766.795	1610.73
1770.011	1600.8
1773.227	1615.11
1776.443	1647.26
1779.658	1677.29
1782.874	1635.25
1786.089	1630.75
1789.303	1631.29
1792.518	1629.09
1795.732	1622.53
1798.945	1633.21
1802.159	1665.26
1805.372	1628.58
1808.585	1625.86
1811.797	1626.22
1815.01	1641.67
1818.222	1663.4
1821.434	1631.49
1824.645	1659.03
1827.856	1667.51
1831.067	1688.27
1834.278	1646.13
1837.488	1632.86
1840.698	1717.84
1843.908	1683.42
1847.117	1665.01
1850.326	1616.84
1853.535	1654.39
1856.744	1685.63
1859.952	1633.29
1863.16	1635.43
1866.368	1650.16
1869.575	1733.05
1872.782	1652.34
1875.989	1608.25
1879.196	1639.61
1882.402	1635.9
1885.608	1658.82
1888.814	1623.92
1892.019	1563.61
1895.224	1605.2
1898.429	1580.39
1901.634	1568.55
1904.838	1552.83
1908.042	1595.56
1911.246	1610.08
1914.449	1587.82
1917.652	1570.08
1920.855	1558.89
1924.058	1574.23
1927.26	1609.98
1930.462	1623.49
1933.664	1653.01
1936.865	1614.93
1940.066	1625.75
1943.267	1586.98
1946.467	1592.41
1949.668	1601.11
1952.868	1655.03
1956.067	1651.6
1959.267	1606.98
1962.466	1623.81
1965.665	1609.69
1968.863	1608.3
1972.061	1603.88
1975.259	1597.57
1978.457	1652.7
1981.654	1621.6
1984.852	1624.42
1988.048	1594.9
1991.245	1581.77
1994.441	1646.69
1997.637	1610.06
2000.833	1597.33
2004.028	1620.94
2007.223	1672.09
2010.418	1663.21
2013.613	1625.7
2016.807	1625.91
2020.001	1621.78
2023.194	1633.73
2026.388	1624.14
2029.581	1583.58
2032.774	1630.66
2035.966	1639.05
2039.158	1600.87
2042.35	1613.06
2045.542	1561.52
2048.733	1618.18
2051.924	1604.67
2055.115	1614.68
2058.306	1593.35
2061.496	1629.53
2064.686	1664.54
2067.875	1594.94
2071.065	1594.25
2074.254	1606.36
2077.442	1573.94
2080.631	1631.78
2083.819	1588.86
2087.007	1584.66
2090.195	1574.71
2093.382	1582.64
2096.569	1575.82
2099.756	1547.53
2102.942	1589.13
2106.128	1597.65
2109.314	1590.66
2112.5	1582.16
2115.685	1557.18
2118.87	1562.77
2122.055	1610.62
2125.239	1597.34
2128.424	1587.64
2131.608	1622.17
2134.791	1611.1
2137.974	1635.77
2141.157	1629.23
2144.34	1611.67
2147.523	1600.2
2150.705	1625.26
2153.887	1596.85
2157.068	1580.22
2160.25	1560.75
2163.431	1579.66
2166.611	1561.41
2169.792	1578.97
2172.972	1513.01
2176.152	1550.15
2179.331	1568
2182.511	1571.67
2185.69	1583.77
2188.868	1588.37
2192.047	1610.4
2195.225	1632.38
2198.403	1589.55
2201.58	1577.2
2204.758	1564.63
2207.935	1618.25
2211.111	1562.75
2214.288	1552.25
2217.464	1576.2
2220.64	1545.89
2223.815	1581.79
2226.991	1533.36
2230.166	1541.7
2233.34	1575.16
2236.515	1586.68
2239.689	1634.67
2242.863	1598.85
2246.036	1633.86
2249.209	1622.58
2252.382	1636.19
2255.555	1643.01
2258.727	1612.03
2261.9	1630.65
2265.071	1626.27
2268.243	1626.25
2271.414	1590.73
2274.585	1580.12
2277.756	1624.03
2280.926	1594.05
2284.096	1610.99
2287.266	1563.53
2290.436	1599.62
2293.605	1609.14
2296.774	1638.86
2299.942	1642.02
2303.111	1652.55
2306.279	1690.76
2309.447	1681.16
2312.614	1664.13
2315.781	1679.11
2318.948	1663.91
2322.115	1691.44
2325.281	1611.49
2328.447	1617.18
2331.613	1594.62
2334.779	1590.48
2337.944	1587.62
2341.109	1588.33
2344.274	1580.37
2347.438	1555.93
2350.602	1572.43
2353.766	1578.23
2356.929	1571.72
2360.092	1601.79
2363.255	1580.31
2366.418	1563.05
2369.58	1593.96
2372.742	1565.34
2375.904	1549.02
2379.066	1544.03
2382.227	1559.51
2385.388	1532.78
2388.548	1504.3
2391.709	1528.18
2394.869	1525.65
2398.029	1556.95
2401.188	1547.18
2404.347	1534.05
2407.506	1535.27
2410.665	1577.29
2413.823	1559.31
2416.981	1548.77
2420.139	1559.38
2423.296	1586.47
2426.453	1566.74
2429.61	1584.06
2432.767	1571.78
2435.923	1600.11
2439.079	1556.31
2442.235	1580.21
2445.391	1537.23
2448.546	1572.82
2451.701	1596.35
2454.855	1594.27
2458.009	1610.23
2461.163	1600.99
2464.317	1577.23
2467.471	1595.65
2470.624	1617.21
2473.777	1612.28
2476.929	1624.97
2480.082	1640.87
2483.234	1626.61
2486.385	1581.11
2489.537	1576.55
2492.688	1574.57
2495.839	1590.69
2498.989	1601.28
2502.14	1590.47
2505.29	1584.91
2508.439	1604.65
2511.589	1564.25
2514.738	1562.19
2517.887	1572.32
2521.035	1630.85
2524.183	1597.1
2527.331	1589.95
2530.479	1585.01
2533.627	1587.4
