Data from N_1_DEC_OH_4N_Splice17_11-20-53-946.txt Node
Date: Sat Mar 14 11:20:53 EDT 2020
User: sa697716
Spectrometer: FLMS03696
Trigger mode: 0
Integration Time (sec): 3.180400E-1
Scans to average: 20
Electric dark correction enabled: true
Nonlinearity correction enabled: true
Boxcar width: 5
XAxis mode: Wavelengths
Number of Pixels in Spectrum: 2048
>>>>>Begin Spectral Data<<<<<
187.83	-164628.27
188.298	1280.54
188.766	719.97
189.233	603.92
189.701	822.47
190.169	1191.22
190.636	502.5
191.104	438.73
191.571	109.83
192.039	12.93
192.506	-21.81
192.974	411.91
193.441	-587.62
193.908	-192.54
194.375	-33.36
194.842	1.47
195.31	18.81
195.777	83.06
196.244	148.85
196.711	113.74
197.177	139.11
197.644	144.32
198.111	243.88
198.578	314.13
199.045	247.21
199.511	350.2
199.978	391.41
200.445	356.14
200.911	386.82
201.378	397.92
201.844	379.48
202.31	576.36
202.777	587.07
203.243	328.25
203.709	338.83
204.176	407.84
204.642	331.57
205.108	308.9
205.574	259.04
206.04	232.56
206.506	217.48
206.972	186.07
207.438	169.08
207.903	196.26
208.369	194.19
208.835	189.95
209.301	198.9
209.766	210.41
210.232	196.25
210.697	215.26
211.163	219.12
211.628	306.08
212.094	291.54
212.559	423.61
213.024	262.89
213.49	327.54
213.955	304.48
214.42	261.63
214.885	212.99
215.35	208.39
215.815	251.04
216.28	287.55
216.745	225.84
217.21	258.31
217.675	199.53
218.14	214.52
218.604	204.67
219.069	212.77
219.534	231.57
219.998	252.85
220.463	278.52
220.927	267.29
221.392	214.57
221.856	217.76
222.32	207.88
222.785	270.21
223.249	296.9
223.713	300.14
224.177	302.32
224.642	328.47
225.106	347.05
225.57	355.58
226.034	306.3
226.497	499.44
226.961	470.64
227.425	545.33
227.889	547.59
228.353	553.75
228.816	1008.06
229.28	928.16
229.744	771.72
230.207	534.12
230.671	500.39
231.134	660.95
231.597	753.59
232.061	672.3
232.524	633.37
232.987	427.35
233.45	391.15
233.914	340.12
234.377	300.33
234.84	285.28
235.303	297.53
235.766	350.4
236.229	330.35
236.691	177.48
237.154	171.09
237.617	121.26
238.08	106.97
238.542	99.46
239.005	115.2
239.468	132.04
239.93	118.21
240.393	112.69
240.855	88.69
241.317	79.68
241.78	78.54
242.242	105.14
242.704	149.59
243.166	141.6
243.629	147.62
244.091	152.4
244.553	155.78
245.015	166.16
245.477	193.61
245.939	292.16
246.4	355.55
246.862	376.58
247.324	346.9
247.786	341.31
248.247	416.13
248.709	355.56
249.17	267.27
249.632	319.23
250.093	420.54
250.555	371.47
251.016	239.59
251.477	224.08
251.939	244.1
252.4	243.76
252.861	268.38
253.322	286.85
253.783	313.86
254.244	398.58
254.705	257.71
255.166	162.86
255.627	148.78
256.088	236
256.549	264.33
257.009	208.03
257.47	263.37
257.931	183.33
258.391	141.97
258.852	162.3
259.312	146.31
259.773	184.68
260.233	216.24
260.694	213.18
261.154	230.54
261.614	236.98
262.074	219.98
262.534	234.2
262.994	244.05
263.455	283.83
263.915	260.5
264.374	247
264.834	272.16
265.294	270.19
265.754	265.12
266.214	240.38
266.673	198.2
267.133	218.82
267.593	189.56
268.052	236.42
268.512	220.72
268.971	299.56
269.431	340.93
269.89	316.14
270.349	509.56
270.809	579.27
271.268	505.78
271.727	990.67
272.186	692.55
272.645	522.04
273.104	326.22
273.563	433.07
274.022	269.56
274.481	254.39
274.94	197.94
275.399	140.03
275.857	133.83
276.316	183.11
276.775	178.39
277.233	167.29
277.692	178.68
278.15	244.04
278.609	274.92
279.067	233.55
279.525	236.22
279.984	276.95
280.442	335.03
280.9	412.8
281.358	256.63
281.816	247.4
282.274	226.12
282.732	197.32
283.19	151.95
283.648	125.87
284.106	137.39
284.564	123.41
285.021	152.61
285.479	108.44
285.937	79.96
286.394	88.57
286.852	81.09
287.309	83.94
287.767	117.43
288.224	133.02
288.682	145.47
289.139	174.26
289.596	165.54
290.053	137.18
290.511	139.93
290.968	158.44
291.425	184.96
291.882	194.03
292.339	202.24
292.796	158.71
293.252	151.63
293.709	139.29
294.166	127.33
294.623	121.34
295.079	118.51
295.536	162.66
295.992	168.08
296.449	181.48
296.905	186.94
297.362	197.97
297.818	212.47
298.274	219.12
298.731	212.69
299.187	211.97
299.643	230.04
300.099	289.27
300.555	284.02
301.011	236.83
301.467	276.51
301.923	291.8
302.379	292.51
302.835	285.37
303.291	278.56
303.746	299.23
304.202	336.05
304.658	329.83
305.113	221.3
305.569	240.33
306.024	223.89
306.479	152.89
306.935	142.61
307.39	127.59
307.845	133.89
308.301	150.52
308.756	146.77
309.211	165.42
309.666	164.34
310.121	229.3
310.576	196.81
311.031	205.47
311.486	205.18
311.94	235.98
312.395	280.05
312.85	441.23
313.305	1663.35
313.759	13658.61
314.214	1006.16
314.668	906.1
315.123	853.65
315.577	395.33
316.032	395.27
316.486	481.73
316.94	381.37
317.394	290.03
317.849	244.74
318.303	218.52
318.757	202.25
319.211	214.69
319.665	187.07
320.119	169.04
320.572	195.51
321.026	174
321.48	160.21
321.934	150.13
322.387	133.37
322.841	146.55
323.295	174.17
323.748	142.39
324.202	161.29
324.655	197.28
325.108	353.65
325.562	268.37
326.015	272.01
326.468	215.56
326.921	248.6
327.374	275.81
327.827	281.89
328.28	325.58
328.733	257.01
329.186	219.45
329.639	211.36
330.092	157.38
330.545	164.32
330.997	197.22
331.45	232.56
331.903	285.21
332.355	402.03
332.808	396.73
333.26	291.32
333.713	317.25
334.165	323.64
334.617	427.36
335.069	284.09
335.522	420.83
335.974	380.2
336.426	266.81
336.878	130.17
337.33	119.38
337.782	106.63
338.234	158.47
338.686	179.27
339.137	173.82
339.589	147.82
340.041	183.31
340.493	149.27
340.944	166.43
341.396	173.68
341.847	185.01
342.299	240.45
342.75	334.77
343.201	277.51
343.653	306.78
344.104	394.38
344.555	315.05
345.006	379.39
345.457	374.1
345.908	283.08
346.359	289.37
346.81	231.64
347.261	198.82
347.712	153.9
348.163	140.03
348.613	180.18
349.064	176.27
349.515	160.92
349.965	179.39
350.416	172.81
350.866	170.06
351.317	180.98
351.767	277.07
352.217	382.38
352.668	347.71
353.118	346.91
353.568	243.72
354.018	204.33
354.468	192.87
354.918	156.11
355.368	169.96
355.818	214.29
356.268	590.62
356.718	2831.11
357.168	812.94
357.617	440.88
358.067	484.13
358.517	478.64
358.966	630.51
359.416	870.67
359.865	928.24
360.315	997.31
360.764	515.33
361.213	292.9
361.663	244.72
362.112	238.82
362.561	353.89
363.01	272.44
363.459	203.9
363.908	171.45
364.357	117.79
364.806	132.51
365.255	90.43
365.703	131.5
366.152	113.2
366.601	117.71
367.05	125.12
367.498	130.76
367.947	129.49
368.395	140.91
368.844	133.93
369.292	125.8
369.74	105.22
370.189	155.7
370.637	151.14
371.085	140.18
371.533	128.8
371.981	111.69
372.429	97.55
372.877	106.69
373.325	97.3
373.773	96.52
374.221	78.84
374.669	81.99
375.116	74.42
375.564	58.66
376.012	70.64
376.459	86.52
376.907	103.62
377.354	123.74
377.801	147.84
378.249	213.62
378.696	210.61
379.143	307.42
379.591	401.81
380.038	656.17
380.485	559.02
380.932	533.97
381.379	540.58
381.826	444.86
382.273	292.94
382.72	228.81
383.166	206.13
383.613	157.31
384.06	136.16
384.506	133.01
384.953	102.21
385.4	86.25
385.846	86.1
386.292	58.98
386.739	43.53
387.185	43.4
387.631	40.14
388.078	55.1
388.524	64.17
388.97	72.42
389.416	69.03
389.862	70.53
390.308	75.8
390.754	77.68
391.2	73.03
391.645	63.29
392.091	90.4
392.537	105.28
392.983	87.05
393.428	108.9
393.874	106.64
394.319	126.53
394.765	139.11
395.21	138.42
395.655	125.76
396.101	135.23
396.546	130.27
396.991	113.21
397.436	93.69
397.881	85.63
398.326	59.93
398.771	63.03
399.216	44.57
399.661	34.85
400.106	34.92
400.551	38.37
400.995	33.43
401.44	35.18
401.885	33.45
402.329	35.15
402.774	40.9
403.218	53.96
403.663	49.46
404.107	55.11
404.551	56.92
404.995	52.22
405.44	50.19
405.884	49.37
406.328	44.03
406.772	40.94
407.216	37.55
407.66	29.89
408.104	18.69
408.547	18.09
408.991	18.02
409.435	15.32
409.879	18.28
410.322	16.33
410.766	17.34
411.209	20.27
411.653	21.32
412.096	25.29
412.54	25.22
412.983	26.43
413.426	28.96
413.869	24.2
414.312	26.24
414.756	24.69
415.199	25.24
415.642	26.03
416.085	25.65
416.527	25.11
416.97	23.8
417.413	26.59
417.856	23.68
418.298	21.43
418.741	20.71
419.184	17.96
419.626	12.59
420.069	10.59
420.511	9.42
420.953	11.6
421.396	11.75
421.838	10.21
422.28	9.02
422.722	13.2
423.164	10.81
423.606	12.51
424.048	12.16
424.49	16.74
424.932	17.37
425.374	15.51
425.816	12.89
426.258	13.49
426.699	13.39
427.141	15.62
427.582	13.16
428.024	13.46
428.465	10.64
428.907	10.95
429.348	11.47
429.789	12.25
430.231	16.04
430.672	17.49
431.113	16.33
431.554	16.25
431.995	12.94
432.436	13.36
432.877	14.25
433.318	16.64
433.759	16.06
434.2	13.51
434.64	12.67
435.081	11.51
435.522	10.13
435.962	10.85
436.403	12.65
436.843	12.99
437.284	12.79
437.724	12.13
438.164	8.99
438.604	8.62
439.045	10.84
439.485	13.98
439.925	12.69
440.365	13.18
440.805	11.92
441.245	12.59
441.685	12.34
442.125	11.47
442.564	11.41
443.004	13.45
443.444	13.76
443.883	13.03
444.323	9.79
444.762	7.1
445.202	5.81
445.641	7.4
446.081	4.1
446.52	4.43
446.959	5.92
447.398	7.17
447.837	6.43
448.276	6.32
448.716	7.3
449.154	5.84
449.593	8.99
450.032	8.94
450.471	7.46
450.91	8.18
451.349	8.9
451.787	8.07
452.226	6.52
452.664	7.77
453.103	7.74
453.541	5.73
453.98	9.15
454.418	8.96
454.856	10.82
455.295	11.26
455.733	10.74
456.171	9.25
456.609	9.99
457.047	10.13
457.485	10.2
457.923	11.47
458.361	11.06
458.798	9.28
459.236	8.8
459.674	6.95
460.111	6.96
460.549	8.01
460.987	7.93
461.424	6.88
461.862	7.79
462.299	8.41
462.736	8.39
463.173	8.76
463.611	11.46
464.048	12.9
464.485	14.03
464.922	13.19
465.359	12.15
465.796	18.5
466.233	19.55
466.67	21.53
467.106	22.81
467.543	21.18
467.98	20.95
468.416	18.78
468.853	17.11
469.29	16.95
469.726	17.2
470.162	17.05
470.599	11.81
471.035	10.57
471.471	9.25
471.907	6.36
472.344	6.22
472.78	6.39
473.216	5.81
473.652	5.47
474.088	3.9
474.523	3.81
474.959	3.55
475.395	3.74
475.831	4.24
476.266	3.55
476.702	3.98
477.138	4.59
477.573	3.96
478.008	4.26
478.444	5.82
478.879	7.57
479.314	7.99
479.75	8.53
480.185	7.95
480.62	7.57
481.055	7.6
481.49	7.95
481.925	8.07
482.36	10.18
482.795	10.02
483.229	8.76
483.664	7.78
484.099	6.91
484.534	6.12
484.968	6.32
485.403	5.96
485.837	5
486.271	4.78
486.706	4.82
487.14	3.53
487.574	3.52
488.009	3.37
488.443	3.51
488.877	4.48
489.311	4.15
489.745	4.21
490.179	4.58
490.613	6.29
491.046	5.93
491.48	5.83
491.914	5.76
492.348	5.75
492.781	5.8
493.215	6.06
493.648	4.7
494.082	4.75
494.515	5.38
494.948	5.96
495.382	4.64
495.815	4.99
496.248	5.23
496.681	5.58
497.114	5.29
497.547	6
497.98	6.5
498.413	8.48
498.846	9.04
499.279	8.43
499.711	7.86
500.144	8.12
500.577	9.01
501.009	8.46
501.442	9.53
501.874	9.82
502.306	9.22
502.739	10.44
503.171	9.7
503.603	10.01
504.036	10.34
504.468	10.71
504.9	10.4
505.332	9.8
505.764	10.76
506.196	9.66
506.627	10.01
507.059	10.09
507.491	8.18
507.923	8.34
508.354	8.73
508.786	8.5
509.217	8.74
509.649	9.01
510.08	8.69
510.512	8.75
510.943	9.12
511.374	9.48
511.805	9.46
512.237	9.43
512.668	9.47
513.099	8.67
513.53	9.02
513.961	9.46
514.391	9.18
514.822	10.47
515.253	10.32
515.684	10.53
516.114	10.34
516.545	10.88
516.975	10.96
517.406	10.93
517.836	10.73
518.267	10.86
518.697	11.37
519.127	12.1
519.558	10.82
519.988	10.97
520.418	10.5
520.848	9.62
521.278	9.32
521.708	26.27
522.138	26.54
522.567	26.56
522.997	27.05
523.427	26.22
523.857	26.34
524.286	27.02
524.716	26.91
525.145	27.62
525.575	29.04
526.004	28.85
526.433	13.1
526.863	13.26
527.292	14.53
527.721	14.33
528.15	14.6
528.579	14.87
529.008	14.67
529.437	14.04
529.866	13.72
530.295	13.15
530.724	14.03
531.152	13.5
531.581	13.87
532.01	13.62
532.438	13.62
532.867	13.08
533.295	13.48
533.723	13.91
534.152	14.71
534.58	15.41
535.008	15.89
535.436	17.09
535.865	17.09
536.293	16
536.721	15.42
537.149	15.53
537.576	16.79
538.004	16.75
538.432	16.12
538.86	16.24
539.287	15.21
539.715	15.11
540.143	14.12
540.57	14.55
540.998	14.94
541.425	16.41
541.852	15.91
542.28	15.07
542.707	14.48
543.134	14.79
543.561	14.99
543.988	15.03
544.415	14.66
544.842	14.17
545.269	13.94
545.696	14.79
546.123	14.37
546.549	14.99
546.976	15.29
547.403	15.51
547.829	15.1
548.256	14.53
548.682	15.14
549.108	15.82
549.535	15.87
549.961	15.74
550.387	15.21
550.813	15.58
551.24	15.43
551.666	14.69
552.092	14.88
552.518	15.01
552.943	15.55
553.369	15.01
553.795	14.81
554.221	14.97
554.646	15.17
555.072	15.9
555.498	14.71
555.923	13.91
556.349	14.14
556.774	14.11
557.199	14.09
557.625	13.24
558.05	13.5
558.475	13.33
558.9	13.26
559.325	13.58
559.75	13.54
560.175	13.73
560.6	14.23
561.025	14.27
561.449	14.1
561.874	13.78
562.299	14.54
562.723	14.59
563.148	14.12
563.572	14.12
563.997	14.01
564.421	12.95
564.846	12.63
565.27	12.76
565.694	12.41
566.118	12.33
566.542	13.73
566.966	13.8
567.39	13.55
567.814	14.09
568.238	14.1
568.662	13.34
569.086	13.9
569.509	14
569.933	14.61
570.357	15
570.78	14.55
571.204	14.13
571.627	13.67
572.05	13.64
572.474	13.99
572.897	14.03
573.32	15.01
573.743	14.43
574.166	14.23
574.589	13.55
575.012	13.18
575.435	13.53
575.858	13.57
576.281	13.82
576.704	13.47
577.126	12.51
577.549	11.76
577.972	11
578.394	10.98
578.817	13.07
579.239	12.83
579.661	13.27
580.084	13.89
580.506	13.66
580.928	12.72
581.35	12.54
581.772	12.69
582.194	12.82
582.616	12.44
583.038	12.29
583.46	10.62
583.882	10.71
584.303	9.75
584.725	8.73
585.147	11.87
585.568	12.6
585.99	13.43
586.411	13.92
586.833	14.2
587.254	14.52
587.675	13.85
588.096	13.14
588.518	13.44
588.939	13.78
589.36	14.1
589.781	10.07
590.202	12.22
590.623	11.87
591.043	11.37
591.464	11.09
591.885	11.8
592.305	11.98
592.726	12.1
593.147	11.6
593.567	12.31
593.987	12.5
594.408	12.25
594.828	9.43
595.248	10.26
595.669	10.7
596.089	10.48
596.509	9.24
596.929	8.83
597.349	9.1
597.769	8.98
598.189	8.15
598.608	7.66
599.028	7.79
599.448	7.52
599.867	6.63
600.287	6.29
600.706	6.87
601.126	7.72
601.545	8.65
601.965	8.27
602.384	8.53
602.803	8.49
603.222	8.75
603.641	8.88
604.061	9.47
604.48	9.29
604.898	8.76
605.317	8.65
605.736	8.24
606.155	8.5
606.574	8.76
606.992	8.94
607.411	9.44
607.829	8.57
608.248	8.3
608.666	7.96
609.085	8.19
609.503	8.4
609.921	8.3
610.339	8.37
610.758	7.48
611.176	7.27
611.594	7.5
612.012	7.34
612.43	8.61
612.847	8.66
613.265	9.45
613.683	9.66
614.101	9.77
614.518	9.37
614.936	9.73
615.353	10.46
615.771	11.31
616.188	11.19
616.606	11.02
617.023	10.74
617.44	10.44
617.857	9.43
618.274	8.97
618.691	9.39
619.108	9.44
619.525	8.63
619.942	8.27
620.359	7.65
620.776	7.41
621.192	7.98
621.609	8.18
622.026	8.71
622.442	9.65
622.859	9.29
623.275	8.52
623.691	8.74
624.108	9.43
624.524	9.31
624.94	9.4
625.356	8.97
625.772	8.39
626.188	7.21
626.604	7.25
627.02	6.72
627.436	7.91
627.852	8.74
628.268	9.25
628.683	8.29
629.099	8.66
629.514	8.26
629.93	8.09
630.345	8.27
630.761	8.47
631.176	8.37
631.591	9.72
632.007	9.57
632.422	8.48
632.837	7.49
633.252	8.39
633.667	7.95
634.082	8.22
634.497	8.89
634.911	10.18
635.326	10.65
635.741	10.71
636.155	9.27
636.57	9.91
636.984	10.26
637.399	11.34
637.813	11.18
638.228	10.97
638.642	10.76
639.056	10.58
639.47	9.35
639.884	9.35
640.298	9.06
640.712	10.4
641.126	9.54
641.54	9.13
641.954	6.95
642.368	7
642.781	9.54
643.195	9.34
643.609	9.25
644.022	8.99
644.436	8.03
644.849	8
645.262	6.77
645.676	6.62
646.089	6.9
646.502	8.93
646.915	8.14
647.328	6.47
647.741	6.8
648.154	6.51
648.567	8.63
648.98	9.64
649.393	9.74
649.805	10.7
650.218	10.28
650.631	11.34
651.043	10.91
651.456	12.05
651.868	12.2
652.28	12.08
652.693	12.79
653.105	11.18
653.517	10.86
653.929	11.72
654.341	11.16
654.753	11.52
655.165	10.12
655.577	10.46
655.989	9.61
656.401	8.37
656.813	8.9
657.224	8.38
657.636	8.14
658.047	8.14
658.459	8.11
658.87	6.98
659.282	6.69
659.693	7.73
660.104	8.38
660.515	7.67
660.926	7.6
661.338	7.22
661.749	6.33
662.159	7.03
662.57	6.81
662.981	6.34
663.392	6.81
663.803	7.41
664.213	7.43
664.624	6.05
665.035	6.78
665.445	6.85
665.855	7.68
666.266	8.74
666.676	7.99
667.086	7.69
667.497	7.82
667.907	8.05
668.317	7.57
668.727	9.36
669.137	9.48
669.547	9.35
669.956	8.44
670.366	7.76
670.776	7.9
671.186	7.92
671.595	9.11
672.005	8.41
672.414	8.74
672.824	8.82
673.233	6.34
673.642	6.27
674.052	6.58
674.461	8.63
674.87	9.04
675.279	9.86
675.688	8.16
676.097	8.53
676.506	8.19
676.915	7.42
677.323	7.8
677.732	7.57
678.141	7.19
678.549	7.81
678.958	6.12
679.366	4.75
679.775	3.79
680.183	6.74
680.592	5.95
681	6.67
681.408	7.64
681.816	7.58
682.224	8.32
682.632	10.26
683.04	8.97
683.448	9.38
683.856	10.84
684.264	11.37
684.671	9.73
685.079	9.5
685.487	9.22
685.894	8.41
686.302	7.97
686.709	7.6
687.116	6.43
687.524	9.03
687.931	11.7
688.338	11.71
688.745	11.24
689.152	12.01
689.559	13.14
689.966	14.31
690.373	14.65
690.78	15.76
691.187	16.54
691.593	17.35
692	16.68
692.407	16.13
692.813	18.12
693.22	19.37
693.626	18.14
694.032	18.04
694.439	18.37
694.845	18.58
695.251	17.36
695.657	18.19
696.063	17.27
696.469	16.39
696.875	15.96
697.281	13.87
697.687	13.2
698.093	14.52
698.498	15.16
698.904	13.93
699.31	13.95
699.715	16.53
700.12	15.57
700.526	16.69
700.931	17.08
701.337	17.5
701.742	18.66
702.147	18.66
702.552	19.32
702.957	18.04
703.362	19.06
703.767	19.1
704.172	17.49
704.577	16.98
704.981	15.18
705.386	15.95
705.791	16.39
706.195	15.59
706.6	16.14
707.004	14.45
707.408	14.32
707.813	15.42
708.217	15.83
708.621	16.02
709.025	16.55
709.43	18.22
709.834	17.97
710.237	17.13
710.641	17.46
711.045	18.32
711.449	20.07
711.853	23.47
712.256	21.5
712.66	21.26
713.064	21.96
713.467	23.42
713.87	23.73
714.274	24.82
714.677	26.28
715.08	27.17
715.484	27.28
715.887	29.56
716.29	27.03
716.693	29.44
717.096	30.45
717.499	30.07
717.901	28.73
718.304	28.58
718.707	27.05
719.109	26.87
719.512	25.69
719.915	27.79
720.317	26.41
720.719	26.47
721.122	25.77
721.524	26.32
721.926	30.36
722.328	31.64
722.731	31.08
723.133	31.73
723.535	30.8
723.937	31.9
724.338	31.76
724.74	32.65
725.142	69.91
725.544	72.3
725.945	80.47
726.347	77.03
726.748	75.81
727.15	77.52
727.551	80.41
727.952	79.48
728.354	78.33
728.755	76.89
729.156	74.89
729.557	38.46
729.958	35.39
730.359	26.96
730.76	26.7
731.161	27.37
731.562	26.04
731.962	23.13
732.363	23.51
732.763	23.89
733.164	22.08
733.564	22.75
733.965	23.34
734.365	24.21
734.766	24.99
735.166	24.35
735.566	25.21
735.966	25.66
736.366	26.55
736.766	26.93
737.166	26.18
737.566	26.9
737.966	27.25
738.365	27.41
738.765	27.8
739.165	27.36
739.564	27.4
739.964	25.82
740.363	25.48
740.763	24.4
741.162	25.58
741.561	25.29
741.96	25.74
742.36	25.01
742.759	24.95
743.158	23.93
743.557	23.32
743.955	23.38
744.354	22.43
744.753	22.32
745.152	22.98
745.55	21.51
745.949	22
746.348	22.07
746.746	20.86
747.144	23.01
747.543	23.07
747.941	22.71
748.339	22.49
748.737	24.37
749.136	24.65
749.534	22.84
749.932	24.31
750.33	24.49
750.727	23.28
751.125	24.61
751.523	22.35
751.921	25.1
752.318	26.26
752.716	27.66
753.113	26.73
753.511	26.51
753.908	28.53
754.305	30.52
754.703	30.49
755.1	31.21
755.497	30.67
755.894	31.55
756.291	28.94
756.688	30.24
757.085	29.32
757.482	31.47
757.878	34.06
758.275	35.1
758.672	31.46
759.068	31.92
759.465	32.46
759.861	32.25
760.258	31.65
760.654	31.84
761.05	32.13
761.447	31.38
761.843	29.17
762.239	27.98
762.635	23.62
763.031	21.37
763.427	21.68
763.822	24
764.218	25.14
764.614	23.71
765.01	22.06
765.405	20.15
765.801	20.93
766.196	21.07
766.592	19.94
766.987	21.51
767.382	22.73
767.778	22.46
768.173	20.47
768.568	20.17
768.963	21.09
769.358	22.57
769.753	23.22
770.148	23.41
770.542	22.4
770.937	22.43
771.332	22.48
771.726	20.93
772.121	23.56
772.515	24.62
772.91	24.22
773.304	24.87
773.699	24.53
774.093	23.6
774.487	22.95
774.881	24.18
775.275	24.37
775.669	24.08
776.063	25.57
776.457	25.34
776.851	24.99
777.245	25.13
777.638	24.87
778.032	25.67
778.425	27.14
778.819	30.09
779.212	31.96
779.606	34.03
779.999	34.54
780.392	36.69
780.786	35.28
781.179	35.81
781.572	37.75
781.965	37.77
782.358	38.22
782.751	37.07
783.143	34.39
783.536	32.68
783.929	30.02
784.322	29.56
784.714	26.43
785.107	26.97
785.499	29.11
785.891	28.44
786.284	28.95
786.676	27.45
787.068	29.5
787.46	31.85
787.852	31.74
788.245	32.77
788.636	31.27
789.028	34.63
789.42	36.6
789.812	35.66
790.204	35.98
790.595	37.4
790.987	36.78
791.378	35.56
791.77	33.2
792.161	32.87
792.553	33.05
792.944	34.86
793.335	30.97
793.726	29.57
794.117	30.39
794.508	28.61
794.899	24.94
795.29	27.76
795.681	28.34
796.072	28.93
796.463	43.04
796.853	45.75
797.244	47.94
797.634	49.6
798.025	48.5
798.415	47.01
798.806	49.95
799.196	53.46
799.586	53.05
799.976	53.52
800.366	53.32
800.756	37.12
801.146	34.19
801.536	32.06
801.926	32.03
802.316	32.8
802.706	34.43
803.095	32.63
803.485	31.31
803.874	30.07
804.264	28.98
804.653	29.66
805.043	33.46
805.432	35.2
805.821	37.06
806.21	37.65
806.599	36.24
806.988	34.37
807.377	32.21
807.766	32.23
808.155	33.64
808.544	32.54
808.933	30.71
809.321	32.59
809.71	28.96
810.098	28.65
810.487	27.44
810.875	28
811.264	28.74
811.652	39.56
812.04	38.38
812.428	39.48
812.816	38.44
813.204	41.37
813.592	35.68
813.98	38.08
814.368	39.71
814.756	40.18
815.144	41.6
815.531	42.58
815.919	31.05
816.306	31.16
816.694	30.43
817.081	36.74
817.469	41.91
817.856	42.56
818.243	41.67
818.63	37.74
819.017	39.77
819.404	43.42
819.791	42.12
820.178	41.84
820.565	47.3
820.952	53.89
821.339	52.81
821.725	48.14
822.112	49.15
822.498	48.84
822.885	48.49
823.271	44.91
823.657	38.63
824.044	38.54
824.43	40.49
824.816	43.89
825.202	41
825.588	38.95
825.974	42.1
826.36	40.89
826.746	40.27
827.132	42.95
827.517	45.5
827.903	46.89
828.289	50.94
828.674	51.75
829.06	50.57
829.445	49.51
829.83	46.71
830.216	44.42
830.601	48.01
830.986	56.06
831.371	54.56
831.756	60.66
832.141	66.43
832.526	65.02
832.911	64.64
833.295	58.91
833.68	59.43
834.065	60.07
834.449	57.99
834.834	56.01
835.218	51.93
835.603	52.1
835.987	45.86
836.371	41.92
836.755	40.7
837.139	38.05
837.524	36.69
837.908	33.34
838.291	39.49
838.675	40.04
839.059	41.93
839.443	41.88
839.827	40.55
840.21	39.07
840.594	39.78
840.977	43.71
841.361	45.85
841.744	44.8
842.127	45.08
842.511	39.94
842.894	39.3
843.277	37
843.66	38.79
844.043	41.98
844.426	47.36
844.809	44.27
845.191	40.62
845.574	40.43
845.957	42.08
846.339	43.95
846.722	44.75
847.104	43.88
847.487	42.07
847.869	40.61
848.252	41.57
848.634	40.7
849.016	40.62
849.398	37.78
849.78	37.64
850.162	40.02
850.544	41.14
850.926	39.25
851.307	39.18
851.689	41.74
852.071	36.81
852.452	38.52
852.834	36.15
853.215	39.35
853.597	41.19
853.978	50.53
854.359	51.16
854.741	50.11
855.122	48.78
855.503	49.35
855.884	45.16
856.265	50.5
856.646	41.77
857.026	45.19
857.407	45.9
857.788	47.55
858.169	38.61
858.549	42.47
858.93	42.03
859.31	44.78
859.69	48.21
860.071	52.08
860.451	48.21
860.831	51.95
861.211	51.52
861.591	45.1
861.971	43.59
862.351	46.08
862.731	38.44
863.111	42.02
863.491	48.41
863.87	45.11
864.25	41.4
864.629	48.38
865.009	47.08
865.388	44.72
865.768	50.3
866.147	52.2
866.526	47.24
866.905	52.79
867.284	43.06
867.663	32.2
868.042	29.82
868.421	31.88
868.8	24.92
869.179	27.81
869.558	26.65
869.936	25.31
870.315	21.88
870.693	24.81
871.072	19.82
871.45	20.73
871.828	23.07
872.207	28.27
872.585	31.87
872.963	27.7
873.341	31.62
873.719	38.33
874.097	40.69
874.475	38.38
874.853	37.12
875.23	40.52
875.608	47.13
875.986	49.33
876.363	46.96
876.741	53.28
877.118	69.01
877.495	70.73
877.873	68.31
878.25	71.31
878.627	75.04
879.004	75.23
879.381	68.96
879.758	69.51
880.135	65.8
880.512	64.49
880.889	54.9
881.265	45.06
881.642	37.1
882.019	35.47
882.395	40.11
882.772	45.99
883.148	50.6
883.524	57.84
883.901	53.9
884.277	53.03
884.653	54.72
885.029	58.75
885.405	70.41
885.781	73.47
886.157	72.65
886.532	64.19
886.908	56.65
887.284	54.21
887.659	57.03
888.035	57.61
888.411	58.34
888.786	58.92
889.161	53.81
889.537	44.66
889.912	41.93
890.287	40.85
890.662	40.33
891.037	33.83
891.412	28.08
891.787	18.4
892.162	21.2
892.536	21.35
892.911	24.77
893.286	28.55
893.66	30.53
894.035	37.23
894.409	31.61
894.784	39.5
895.158	48.16
895.532	57.92
895.906	63.31
896.281	64.4
896.655	70.18
897.029	68.77
897.402	73.35
897.776	74.69
898.15	67.3
898.524	75.56
898.898	77.5
899.271	84.69
899.645	78.04
900.018	78.03
900.392	86
900.765	82
901.138	83.82
901.511	70.51
901.884	78.61
902.258	79.59
902.631	81.09
903.003	76.59
903.376	65.56
903.749	69.95
904.122	67.75
904.495	62.24
904.867	61.68
905.24	65.71
905.612	71.29
905.985	57.34
906.357	56.85
906.729	57.78
907.102	63.29
907.474	67.38
907.846	71.42
908.218	75.58
908.59	76.58
908.962	71.83
909.334	72.37
909.705	78.9
910.077	73.86
910.449	70.14
910.82	81.38
911.192	92.09
911.563	100.54
911.935	92.61
912.306	81.33
912.677	75.85
913.048	93.71
913.419	98.49
913.79	85.67
914.161	88.4
914.532	106.69
914.903	81.72
915.274	72.52
915.645	65.46
916.015	62.83
916.386	67.68
916.756	67.31
917.127	52.67
917.497	43.57
917.868	57.92
918.238	68.39
918.608	62.67
918.978	69.47
919.348	53.98
919.718	59.67
920.088	71.94
920.458	76.44
920.828	81.78
921.198	82.09
921.567	91.69
921.937	76.86
922.306	66.18
922.676	68.31
923.045	79.19
923.415	98.1
923.784	91.91
924.153	90.4
924.522	90.91
924.891	84.24
925.26	88.52
925.629	87.67
925.998	85.32
926.367	94.65
926.736	106.8
927.104	102.91
927.473	91.05
927.842	101.95
928.21	96.23
928.578	88.53
928.947	94.68
929.315	104.97
929.683	137.73
930.051	138.35
930.42	161.97
930.788	133.78
931.156	136.45
931.523	152.76
931.891	141.24
932.259	152.77
932.627	188.92
932.994	258.24
933.362	249.92
933.729	212.84
934.097	220.7
934.464	192.92
934.831	205.57
935.199	212.22
935.566	203.93
935.933	198.4
936.3	204.38
936.667	166.92
937.034	212.76
937.401	189.07
937.767	165.98
938.134	148.49
938.501	179.93
938.867	214.73
939.234	352.86
939.6	279.16
939.967	356.02
940.333	274.24
940.699	220.3
941.065	106.42
941.431	157.22
941.798	148.73
942.163	234.97
942.529	155.77
942.895	123.59
943.261	77.22
943.627	105.66
943.992	95.44
944.358	99.76
944.723	137.07
945.089	148.54
945.454	136.42
945.82	145.15
946.185	136.85
946.55	176.8
946.915	156.68
947.28	173.84
947.645	154.59
948.01	166.36
948.375	181.75
948.74	178.56
949.104	182.94
949.469	175.43
949.834	338.98
950.198	362.57
950.562	277.06
950.927	243.79
951.291	302.19
951.655	258.02
952.02	175.39
952.384	132.84
952.748	140.55
953.112	164.24
953.476	166.47
953.839	147.97
954.203	153.89
954.567	147.66
954.931	182.67
955.294	163.64
955.658	169.51
956.021	271.92
956.385	401.23
956.748	543.32
957.111	690.52
957.474	610.25
957.837	572.22
958.2	198.49
958.563	82.23
958.926	110.57
959.289	181.88
959.652	185.25
960.015	185.57
960.377	267.64
960.74	301.27
961.102	415.99
961.465	609.41
961.827	649.58
962.189	1220.06
962.552	952.33
962.914	691.59
963.276	431.35
963.638	372.69
964	354.77
964.362	260.22
964.724	232.59
965.085	185.38
965.447	157.91
965.809	95.61
966.17	86.89
966.532	83.67
966.893	96.07
967.255	77.52
967.616	60.04
967.977	58.68
968.338	43.97
968.699	59.21
969.061	47.11
969.421	45.86
969.782	64.19
970.143	77.42
970.504	100.93
970.865	111.61
971.225	148.08
971.586	165.13
971.946	203.44
972.307	186
972.667	182.58
973.027	194.05
973.388	231.86
973.748	151.06
974.108	154.23
974.468	124.28
974.828	160.13
975.188	100.17
975.548	95.36
975.907	101.73
976.267	106.33
976.627	126.78
976.986	138.75
977.346	113
977.705	130.89
978.064	122.43
978.424	107.76
978.783	85.2
979.142	89.09
979.501	84.09
979.86	87.67
980.219	75.84
980.578	75.65
980.937	62.35
981.296	70.61
981.654	43.9
982.013	50.85
982.371	95.76
982.73	63.6
983.088	55.09
983.447	49.1
983.805	95.22
984.163	265.53
984.521	264.15
984.879	508.21
985.237	-883.41
985.595	1638.43
985.953	290.32
986.311	91.19
986.669	67.08
987.026	62.85
987.384	33.04
987.741	-15.2
988.099	54.78
988.456	27.78
988.814	43.67
989.171	43.08
989.528	-3.24
989.885	4.28
990.242	45.94
990.599	45.18
990.956	39.36
991.313	50.86
991.67	51.93
992.027	78.36
992.383	75.56
992.74	67.4
993.096	71.6
993.453	75.64
993.809	74.42
994.165	71.01
994.522	106.99
994.878	122.97
995.234	137.8
995.59	118.93
995.946	47.02
996.302	58.39
996.658	72.47
997.013	62.04
997.369	135.24
997.725	224.5
998.08	160.78
998.436	97.49
998.791	89.77
999.147	124.95
999.502	204.04
999.857	175.89
1000.212	281.21
1000.567	352.63
1000.922	293.01
1001.277	141.4
1001.632	88.4
1001.987	92.91
1002.342	98.74
1002.696	107.11
1003.051	126.21
1003.406	188.55
1003.76	166.4
1004.114	184.66
1004.469	165.92
1004.823	138.48
1005.177	132.31
1005.531	102.91
1005.885	115.97
1006.239	132.36
1006.593	165.36
1006.947	179.72
1007.301	101.64
1007.655	126.26
1008.008	95.16
1008.362	107.56
1008.715	130.81
1009.069	126.7
1009.422	251.42
1009.776	461.09
1010.129	270.86
1010.482	223.65
1010.835	135.98
1011.188	236.31
1011.541	177.97
1011.894	-742.4
1012.247	1505.16
1012.6	66.4
1012.952	90.16
1013.305	-13.12
1013.657	2.23
1014.01	24.9
1014.362	23.65
1014.715	73.05
1015.067	87.96
1015.419	85.83
1015.771	101.33
1016.123	108.46
1016.475	121.39
1016.827	116.78
1017.179	154.38
1017.531	140.01
1017.883	135.98
1018.234	168.02
1018.586	187.08
1018.938	214.17
1019.289	297.68
1019.64	254.12
1019.992	216.44
1020.343	178.65
1020.694	203.51
1021.045	162.99
1021.396	183.24
1021.747	217.77
1022.098	181.81
1022.449	149.57
1022.8	135.08
1023.151	114.65
1023.501	128.56
1023.852	130.1
1024.202	154.6
1024.553	156.76
1024.903	182.67
1025.253	187.87
1025.604	182.34
1025.954	210.44
1026.304	230.15
1026.654	259.91
1027.004	353.71
1027.354	501.18
1027.703	533.99
1028.053	610.67
1028.403	871.69
1028.753	950.73
1029.102	551.63
1029.452	-801.14
1029.801	-41.85
1030.15	-24.5
1030.499	-72.86
897.758	1358.31
901.051	1315.26
904.343	1340.55
907.636	1338.58
910.928	1375.74
914.22	1330.57
917.511	1336.24
920.803	1362.47
924.094	1356.7
927.384	1362.4
930.675	1338.68
933.965	1320.36
937.255	1339.87
940.544	1320.78
943.834	1323.4
947.123	1288.95
950.411	1339.88
953.7	1330.8
956.988	1322.84
960.276	1279.9
963.563	1303.71
966.851	1310.41
970.138	1331.79
973.424	1332.49
976.711	1301.61
979.997	1329.22
983.283	1352.46
986.568	1314.17
989.853	1304.22
993.138	1317.7
996.423	1373.53
999.708	1350.01
1002.992	1366.41
1006.275	1315.26
1009.559	1318.22
1012.842	1375.39
1016.125	1346.87
1019.408	1333.67
1022.69	1364.12
1025.972	1380.25
1029.254	1368.92
1032.536	1346.91
1035.817	1350.25
1039.098	1331.71
1042.379	1358.64
1045.659	1372.12
1048.939	1340.98
1052.219	1344.01
1055.498	1337.91
1058.778	1330.54
1062.057	1318.72
1065.335	1334.37
1068.614	1335.35
1071.892	1328.93
1075.17	1362.61
1078.447	1364.58
1081.724	1357.79
1085.001	1370.75
1088.278	1355.96
1091.554	1358.97
1094.83	1359.79
1098.106	1378.66
1101.382	1394.01
1104.657	1393.19
1107.932	1394.81
1111.206	1381.81
1114.481	1351.69
1117.755	1355.89
1121.029	1350.29
1124.302	1383.12
1127.575	1366.98
1130.848	1365.38
1134.121	1348.77
1137.393	1321.74
1140.665	1358.61
1143.937	1343.68
1147.208	1316.09
1150.48	1349.15
1153.75	1340.85
1157.021	1345.04
1160.291	1331.66
1163.561	1359.2
1166.831	1339.02
1170.101	1352.04
1173.37	1331.28
1176.639	1307.9
1179.907	1336.06
1183.176	1344.27
1186.444	1348.19
1189.711	1361.54
1192.979	1376.26
1196.246	1350.69
1199.513	1358.3
1202.78	1361.32
1206.046	1365.56
1209.312	1382.92
1212.578	1386.91
1215.843	1364.16
1219.108	1352.79
1222.373	1363.44
1225.638	1348.31
1228.902	1339.09
1232.166	1320.75
1235.43	1313.19
1238.693	1330.49
1241.956	1327.26
1245.219	1355.81
1248.482	1348.51
1251.744	1351.24
1255.006	1414.05
1258.268	1386.31
1261.529	1366.08
1264.79	1365.56
1268.051	1418.19
1271.312	1426.04
1274.572	1404.13
1277.832	1398.47
1281.092	1384.41
1284.351	1381.32
1287.61	1373.3
1290.869	1339.57
1294.128	1337.32
1297.386	1360.85
1300.644	1358.23
1303.902	1363.16
1307.159	1286.94
1310.416	1315.3
1313.673	1329.38
1316.93	1332.05
1320.186	1346.58
1323.442	1364.38
1326.697	1360.93
1329.953	1348.61
1333.208	1368.58
1336.463	1353.31
1339.717	1335.35
1342.972	1399.5
1346.226	1385.49
1349.479	1364.22
1352.733	1348.94
1355.986	1360.98
1359.238	1348.02
1362.491	1352.11
1365.743	1351.53
1368.995	1347.49
1372.247	1361.13
1375.498	1366.6
1378.749	1386.81
1382	1365.87
1385.251	1378.76
1388.501	1358.48
1391.751	1350.7
1395	1340.53
1398.25	1354.23
1401.499	1371.1
1404.748	1345.11
1407.996	1335.67
1411.244	1336.03
1414.492	1327.41
1417.74	1315.11
1420.987	1325.84
1424.234	1355.14
1427.481	1337.32
1430.728	1363.96
1433.974	1355.52
1437.22	1354.01
1440.465	1349.59
1443.711	1349.18
1446.956	1357.75
1450.201	1344.01
1453.445	1372.63
1456.689	1359.47
1459.933	1368.5
1463.177	1389.5
1466.42	1377.73
1469.663	1364.84
1472.906	1371.09
1476.148	1400.55
1479.391	1375.42
1482.633	1366.64
1485.874	1379.65
1489.115	1381.41
1492.356	1373.41
1495.597	1357.17
1498.838	1353.19
1502.078	1347.27
1505.318	1334.69
1508.557	1349.82
1511.797	1346.52
1515.036	1375.9
1518.274	1353.05
1521.513	1322.35
1524.751	1326.8
1527.989	1338.19
1531.227	1350.38
1534.464	1352.6
1537.701	1345.57
1540.938	1350.19
1544.174	1322.08
1547.41	1313.02
1550.646	1335.32
1553.882	1359.57
1557.117	1394.97
1560.352	1397.01
1563.587	1373.31
1566.821	1357.06
1570.055	1369.55
1573.289	1352.42
1576.523	1382.1
1579.756	1390.54
1582.989	1403.03
1586.222	1377.91
1589.454	1400.46
1592.686	1391.21
1595.918	1405.44
1599.15	1404.2
1602.381	1430.29
1605.612	1420.37
1608.843	1471.98
1612.073	1427.1
1615.303	1421.55
1618.533	1417.29
1621.762	1415.48
1624.992	1398.54
1628.221	1394.77
1631.449	1389.9
1634.678	1405.73
1637.906	1384.35
1641.134	1394.22
1644.361	1376.88
1647.588	1372.93
1650.815	1386.41
1654.042	1368.21
1657.269	1382.83
1660.495	1371.09
1663.72	1367.58
1666.946	1347.62
1670.171	1336.89
1673.396	1320.07
1676.621	1314.02
1679.845	1310.91
1683.069	1312.93
1686.293	1327.58
1689.517	1322.06
1692.74	1299.92
1695.963	1309.2
1699.185	1327.63
1702.408	1315.18
1705.63	1328.72
1708.852	1339.28
1712.073	1321.11
1715.294	1333.28
1718.515	1362.61
1721.736	1337.49
1724.956	1330.6
1728.176	1343.53
1731.396	1353.71
1734.616	1351.13
1737.835	1376.72
1741.054	1358.05
1744.272	1357.39
1747.491	1380.59
1750.709	1389.41
1753.927	1362.55
1757.144	1377.75
1760.361	1407.74
1763.578	1390.31
1766.795	1364.35
1770.011	1355.57
1773.227	1367.59
1776.443	1393.66
1779.658	1413.11
1782.874	1382.9
1786.089	1379.1
1789.303	1378.31
1792.518	1380.77
1795.732	1374.07
1798.945	1380.09
1802.159	1408.57
1805.372	1376.11
1808.585	1369.79
1811.797	1367.96
1815.01	1386.04
1818.222	1401.58
1821.434	1380.86
1824.645	1403.53
1827.856	1405.09
1831.067	1419.54
1834.278	1393.59
1837.488	1379.69
1840.698	1448.69
1843.908	1423.68
1847.117	1407.5
1850.326	1364.66
1853.535	1401.09
1856.744	1422.03
1859.952	1379.63
1863.16	1381.2
1866.368	1396.55
1869.575	1459.02
1872.782	1396.18
1875.989	1361.66
1879.196	1392.18
1882.402	1387.71
1885.608	1405.45
1888.814	1371.53
1892.019	1322.89
1895.224	1356.35
1898.429	1340.78
1901.634	1329.9
1904.838	1317.72
1908.042	1351.32
1911.246	1361.17
1914.449	1337.77
1917.652	1330.77
1920.855	1320.57
1924.058	1333.9
1927.26	1363.31
1930.462	1374.42
1933.664	1395.94
1936.865	1365.8
1940.066	1371.66
1943.267	1342.36
1946.467	1348.55
1949.668	1354.08
1952.868	1396.13
1956.067	1395.41
1959.267	1360.33
1962.466	1374.27
1965.665	1360.17
1968.863	1359.75
1972.061	1358.46
1975.259	1354.7
1978.457	1397.08
1981.654	1375.94
1984.852	1378.25
1988.048	1353.79
1991.245	1345.19
1994.441	1395.74
1997.637	1365.18
2000.833	1356.01
2004.028	1374.41
2007.223	1413.64
2010.418	1404.27
2013.613	1377.85
2016.807	1373.6
2020.001	1369.75
2023.194	1379.35
2026.388	1366.47
2029.581	1337.03
2032.774	1374.39
2035.966	1383.4
2039.158	1351.86
2042.35	1361.45
2045.542	1320.7
2048.733	1366.42
2051.924	1358.37
2055.115	1367.57
2058.306	1352.25
2061.496	1382.22
2064.686	1409.37
2067.875	1353.42
2071.065	1354.02
2074.254	1362.93
2077.442	1338.39
2080.631	1385.93
2083.819	1349.4
2087.007	1342.5
2090.195	1335.89
2093.382	1337.2
2096.569	1333.85
2099.756	1312.71
2102.942	1346.56
2106.128	1350.37
2109.314	1347.3
2112.5	1339.94
2115.685	1321.35
2118.87	1324.85
2122.055	1365.2
2125.239	1350.2
2128.424	1347.06
2131.608	1377.13
2134.791	1364.07
2137.974	1385.56
2141.157	1379.7
2144.34	1363.4
2147.523	1353.56
2150.705	1372.11
2153.887	1351.34
2157.068	1337.15
2160.25	1324.63
2163.431	1339.12
2166.611	1320.58
2169.792	1336.76
2172.972	1280.48
2176.152	1316.8
2179.331	1328.92
2182.511	1329.93
2185.69	1337.77
2188.868	1340.44
2192.047	1361.51
2195.225	1379.12
2198.403	1346.37
2201.58	1336.85
2204.758	1327.84
2207.935	1371.95
2211.111	1321.12
2214.288	1314.73
2217.464	1334.1
2220.64	1314.23
2223.815	1341.43
2226.991	1301.98
2230.166	1307
2233.34	1332.26
2236.515	1344.07
2239.689	1382.56
2242.863	1353.12
2246.036	1381.26
2249.209	1374.67
2252.382	1387.81
2255.555	1388.84
2258.727	1363.62
2261.9	1381.26
2265.071	1377.86
2268.243	1378.18
2271.414	1346.15
2274.585	1334.46
2277.756	1370.91
2280.926	1349.19
2284.096	1365.42
2287.266	1325.82
2290.436	1358.36
2293.605	1366.04
2296.774	1385.98
2299.942	1390.54
2303.111	1399.25
2306.279	1432.75
2309.447	1423.65
2312.614	1410.25
2315.781	1419.29
2318.948	1407.03
2322.115	1428.94
2325.281	1365.97
2328.447	1371.9
2331.613	1352.25
2334.779	1349.11
2337.944	1346.14
2341.109	1345.64
2344.274	1341.7
2347.438	1320.54
2350.602	1335.16
2353.766	1339.34
2356.929	1334.94
2360.092	1358.98
2363.255	1336.72
2366.418	1324.54
2369.58	1345.96
2372.742	1329.72
2375.904	1316.79
2379.066	1311.78
2382.227	1325.85
2385.388	1301
2388.548	1274.26
2391.709	1292.91
2394.869	1288.68
2398.029	1321.81
2401.188	1312.16
2404.347	1300.24
2407.506	1292.98
2410.665	1327.64
2413.823	1317.61
2416.981	1308.36
2420.139	1320.32
2423.296	1343
2426.453	1328.4
2429.61	1340.59
2432.767	1325.7
2435.923	1346.81
2439.079	1319.58
2442.235	1341.09
2445.391	1306.68
2448.546	1329.51
2451.701	1349.71
2454.855	1347.5
2458.009	1363.38
2461.163	1354.42
2464.317	1338.22
2467.471	1352.06
2470.624	1372.48
2473.777	1365.47
2476.929	1373.24
2480.082	1386.21
2483.234	1376.96
2486.385	1341.09
2489.537	1336.5
2492.688	1330.05
2495.839	1345.88
2498.989	1351.71
2502.14	1344.26
2505.29	1338.07
2508.439	1350.04
2511.589	1319.53
2514.738	1319.19
2517.887	1328.06
2521.035	1373.85
2524.183	1348.34
2527.331	1342.89
2530.479	1336.44
2533.627	1339.32
