Data from N_1_DIV_WI_4N_Splice17_11-32-07-683.txt Node
Date: Sat Mar 14 11:32:07 EDT 2020
User: sa697716
Spectrometer: FLMS03696
Trigger mode: 0
Integration Time (sec): 3.180400E-1
Scans to average: 20
Electric dark correction enabled: true
Nonlinearity correction enabled: true
Boxcar width: 5
XAxis mode: Wavelengths
Number of Pixels in Spectrum: 2048
>>>>>Begin Spectral Data<<<<<
187.83	-148004.55
188.298	1238.2
188.766	644.47
189.233	568.79
189.701	835.66
190.169	1153.34
190.636	445.35
191.104	354.46
191.571	66.13
192.039	-15.11
192.506	-54.06
192.974	289.22
193.441	-408.26
193.908	1.94
194.375	-22.95
194.842	56.67
195.31	102.67
195.777	156.95
196.244	236.4
196.711	121.53
197.177	101.36
197.644	79.76
198.111	119.05
198.578	175.73
199.045	95.7
199.511	119.09
199.978	38.63
200.445	30.23
200.911	-13.3
201.378	-82.62
201.844	-44.3
202.31	-90.77
202.777	-120.3
203.243	-47.4
203.709	-80.85
204.176	-111.3
204.642	-68.69
205.108	-46.13
205.574	-24.38
206.04	-52.29
206.506	-47.93
206.972	-61
207.438	-74.76
207.903	-87.9
208.369	-63.61
208.835	-33.36
209.301	-20.44
209.766	-34.23
210.232	-33.57
210.697	-61.18
211.163	-79.11
211.628	-156.42
212.094	-77.64
212.559	-1.62
213.024	29.39
213.49	29.49
213.955	-12.91
214.42	-52.54
214.885	-60.3
215.35	-53.32
215.815	13.37
216.28	22.1
216.745	27.08
217.21	36.97
217.675	2.63
218.14	-15.49
218.604	-34.45
219.069	-16.52
219.534	24
219.998	28.03
220.463	48.85
220.927	-17.39
221.392	-22.33
221.856	-16.53
222.32	-63.02
222.785	-53.39
223.249	-77.92
223.713	-65.33
224.177	-55.39
224.642	-134.83
225.106	-195.65
225.57	-237.01
226.034	-86.23
226.497	-128.61
226.961	-70.48
227.425	-18.98
227.889	-57.64
228.353	-48.03
228.816	-143
229.28	-176.28
229.744	-178.46
230.207	-8.66
230.671	-26.7
231.134	-239.79
231.597	-196.32
232.061	-260.9
232.524	-332.1
232.987	-234.86
233.45	-167.84
233.914	-143.98
234.377	-156.57
234.84	-120.08
235.303	-187.55
235.766	-178.84
236.229	-158.54
236.691	-117.93
237.154	-137.29
237.617	-80.26
238.08	-105.48
238.542	-145.53
239.005	-92.28
239.468	-82.45
239.93	-69.48
240.393	-66.41
240.855	-55.77
241.317	-76.9
241.78	-106.5
242.242	-99.88
242.704	-72.63
243.166	-36.11
243.629	4.17
244.091	-6.28
244.553	-24.03
245.015	-20.47
245.477	-45.43
245.939	-99.86
246.4	-58.48
246.862	-62.98
247.324	-52.94
247.786	-140.87
248.247	-204.74
248.709	-354.25
249.17	-207.31
249.632	-112.82
250.093	-81.46
250.555	-13.36
251.016	36.88
251.477	31.64
251.939	46.65
252.4	52.08
252.861	63.88
253.322	77.83
253.783	74.47
254.244	35.23
254.705	-16.89
255.166	-80.64
255.627	-104.96
256.088	-173.66
256.549	-188.18
257.009	-179.74
257.47	-273.93
257.931	-263.05
258.391	-174.48
258.852	-163.7
259.312	-179.94
259.773	-244.41
260.233	-133.61
260.694	-87.57
261.154	-118.49
261.614	-43.3
262.074	-33.18
262.534	-5.67
262.994	27.43
263.455	2.3
263.915	29.93
264.374	33.3
264.834	59.62
265.294	37.91
265.754	32.9
266.214	39.26
266.673	28.89
267.133	13.1
267.593	-15.42
268.052	-33.5
268.512	-32.14
268.971	-12.71
269.431	-29.92
269.89	-54.37
270.349	-86.01
270.809	-69.64
271.268	-64.76
271.727	-317.13
272.186	-152.26
272.645	-124.45
273.104	-155.81
273.563	-242.55
274.022	-239.2
274.481	-152.57
274.94	-91.54
275.399	-78.12
275.857	-119.45
276.316	-206.82
276.775	-183.48
277.233	-192.68
277.692	-128.94
278.15	-88.13
278.609	-36.03
279.067	-54.11
279.525	-32.2
279.984	-78.68
280.442	-98.16
280.9	-28.86
281.358	5.46
281.816	23.14
282.274	20.26
282.732	-45.72
283.19	-58.85
283.648	-81.52
284.106	-91.67
284.564	-116.79
285.021	-80.77
285.479	-63.47
285.937	-92.33
286.394	-64.59
286.852	-78.52
287.309	-82.56
287.767	-32.15
288.224	-8.97
288.682	-27.67
289.139	-8.22
289.596	-1.77
290.053	-18.9
290.511	-26.29
290.968	-24.23
291.425	-54.03
291.882	31.48
292.339	45.38
292.796	-1.58
293.252	-30.36
293.709	12.56
294.166	-3.86
294.623	-15.63
295.079	-14.95
295.536	-6.22
295.992	2.76
296.449	-3.87
296.905	-15.95
297.362	0.96
297.818	1.17
298.274	18.28
298.731	-3.04
299.187	0.25
299.643	-0.11
300.099	-3.47
300.555	-8.77
301.011	26.51
301.467	93.59
301.923	50.47
302.379	61.15
302.835	53.12
303.291	39.31
303.746	44.58
304.202	50.88
304.658	39.92
305.113	46.82
305.569	57.38
306.024	20.6
306.479	-54.8
306.935	-6.02
307.39	-48.54
307.845	-51.93
308.301	-27.03
308.756	-16.86
309.211	5.36
309.666	5.34
310.121	27.5
310.576	6.74
311.031	-11.74
311.486	-43.53
311.94	-90.26
312.395	-131.11
312.85	-307.46
313.305	-2486.16
313.759	-10618.14
314.214	-902.72
314.668	-627.13
315.123	-495.16
315.577	-117.04
316.032	-66.75
316.486	-74.4
316.94	-5.29
317.394	12.25
317.849	37.59
318.303	28.76
318.757	36.21
319.211	42.31
319.665	30.26
320.119	14.79
320.572	-27.15
321.026	-18.25
321.48	-15.8
321.934	-39.48
322.387	-34.24
322.841	-29.05
323.295	22.9
323.748	-24.81
324.202	-25.86
324.655	-25.72
325.108	14.92
325.562	49.36
326.015	63.21
326.468	60.3
326.921	72.74
327.374	86.59
327.827	99.94
328.28	90.92
328.733	76.87
329.186	83.09
329.639	76.08
330.092	45.09
330.545	45.85
330.997	38.85
331.45	65.48
331.903	97.05
332.355	94.69
332.808	64.6
333.26	26.64
333.713	54.85
334.165	29.1
334.617	12.28
335.069	-34.82
335.522	-165.87
335.974	-175.93
336.426	-243.51
336.878	-265.52
337.33	-88.11
337.782	-92.68
338.234	-73.35
338.686	-118.79
339.137	-146.37
339.589	-128.38
340.041	-61.38
340.493	-56.17
340.944	-64.15
341.396	-45.55
341.847	17.82
342.299	18.97
342.75	32.3
343.201	-38.55
343.653	-55.93
344.104	-116.04
344.555	-97.85
345.006	-254.93
345.457	-83.03
345.908	-65.32
346.359	-57.92
346.81	-87.7
347.261	-122.38
347.712	-127.25
348.163	-122.56
348.613	-71.03
349.064	-40.7
349.515	-20.51
349.965	2.51
350.416	-34.84
350.866	-54.18
351.317	-78.26
351.767	-100.06
352.217	-144.58
352.668	-89.04
353.118	-66.33
353.568	-164.8
354.018	-119.97
354.468	-128.77
354.918	-71.19
355.368	-68.22
355.818	-135.45
356.268	-574.74
356.718	-1956.82
357.168	-337.12
357.617	-144.38
358.067	-190.2
358.517	-132.8
358.966	-42.56
359.416	-12.13
359.865	-75.41
360.315	-233.03
360.764	-53.77
361.213	-4.31
361.663	-50.32
362.112	-95.7
362.561	-236.4
363.01	-151.22
363.459	-163.89
363.908	-247.19
364.357	-165.34
364.806	-332.93
365.255	-162.87
365.703	-84.49
366.152	-67.42
366.601	-24.92
367.05	9.36
367.498	47.2
367.947	34
368.395	39.46
368.844	47.21
369.292	-3.46
369.74	39.06
370.189	30.86
370.637	-15.82
371.085	-31.12
371.533	-63.46
371.981	-93.24
372.429	-81.33
372.877	-85.26
373.325	-74.72
373.773	-90.7
374.221	-77.37
374.669	-130.74
375.116	-125.63
375.564	-120.1
376.012	-124.16
376.459	-73.01
376.907	-94.14
377.354	-104.3
377.801	-69.85
378.249	-51.11
378.696	-83.91
379.143	-120.31
379.591	-167.84
380.038	-206.83
380.485	-93.69
380.932	-90.56
381.379	-11.96
381.826	88.68
382.273	8.46
382.72	-19.83
383.166	-10.09
383.613	7.51
384.06	22.56
384.506	48.41
384.953	34.91
385.4	21
385.846	7.94
386.292	-26.8
386.739	-60.45
387.185	-69.05
387.631	-67.71
388.078	-53.16
388.524	-59.81
388.97	-49.38
389.416	-39.29
389.862	-39.27
390.308	-43.68
390.754	-34.01
391.2	-34.91
391.645	-34.37
392.091	0.76
392.537	10.39
392.983	-8.34
393.428	8.88
393.874	1.21
394.319	14.5
394.765	32.27
395.21	30.77
395.655	28.78
396.101	34.06
396.546	42.31
396.991	14.62
397.436	12.11
397.881	4.95
398.326	-6.12
398.771	-3.84
399.216	-14.67
399.661	-21.08
400.106	-18.33
400.551	-13.39
400.995	-11.54
401.44	-10.57
401.885	-4.17
402.329	-3.53
402.774	2.35
403.218	15.18
403.663	12.07
404.107	17.82
404.551	20.63
404.995	19.53
405.44	13.16
405.884	9.57
406.328	3.12
406.772	0.75
407.216	2.13
407.66	0.58
408.104	-6.43
408.547	-5.75
408.991	-7.3
409.435	-11.37
409.879	-7.46
410.322	-4.14
410.766	-0.37
411.209	3.42
411.653	5.45
412.096	8.28
412.54	5.65
412.983	6.2
413.426	11.29
413.869	8.44
414.312	13.83
414.756	11.28
415.199	8.53
415.642	11.01
416.085	12.55
416.527	9.23
416.97	5.14
417.413	7.35
417.856	4.23
418.298	1.9
418.741	0.1
419.184	-4.36
419.626	-8.87
420.069	-10.14
420.511	-11.75
420.953	-11.56
421.396	-8.72
421.838	-8.08
422.28	-7.43
422.722	-6.34
423.164	-8.51
423.606	-4.5
424.048	-4.21
424.49	-1
424.932	-0.57
425.374	-0.98
425.816	-3.7
426.258	-3.73
426.699	-6.22
427.141	-1.09
427.582	-2.25
428.024	-3.36
428.465	-6.74
428.907	-6.14
429.348	-6.59
429.789	-4.96
430.231	-3.24
430.672	-2.01
431.113	-4.56
431.554	-2.54
431.995	-8.37
432.436	-4.29
432.877	-1.81
433.318	2.36
433.759	0.86
434.2	1.54
434.64	0.39
435.081	-0.24
435.522	0.27
435.962	2.1
436.403	4.77
436.843	3.11
437.284	-0.48
437.724	-3.55
438.164	-8.64
438.604	-7.02
439.045	-3.99
439.485	-0.17
439.925	-1.1
440.365	-1.29
440.805	-2.3
441.245	-2.79
441.685	-0.12
442.125	1.18
442.564	1.55
443.004	3.57
443.444	2.84
443.883	1.07
444.323	-2.98
444.762	-6.96
445.202	-7.77
445.641	-5.25
446.081	-9.21
446.52	-9.2
446.959	-8.77
447.398	-6.59
447.837	-5.64
448.276	-5.83
448.716	-4.6
449.154	-5.56
449.593	-2.53
450.032	-2.94
450.471	-6.25
450.91	-6.77
451.349	-6.03
451.787	-7.02
452.226	-8.99
452.664	-10.28
453.103	-9.79
453.541	-12.48
453.98	-8.76
454.418	-8.24
454.856	-6.3
455.295	-4.79
455.733	-2.3
456.171	-3.75
456.609	-1.92
457.047	-0.86
457.485	1.29
457.923	3.12
458.361	2.83
458.798	1.37
459.236	2.09
459.674	1.3
460.111	1.08
460.549	1.26
460.987	0.91
461.424	0.02
461.862	-0.14
462.299	-0.07
462.736	0.09
463.173	0.89
463.611	3.25
464.048	3.58
464.485	4.12
464.922	3.92
465.359	2.55
465.796	9.73
466.233	10.2
466.67	12
467.106	13.72
467.543	12.1
467.98	12.13
468.416	10.18
468.853	8.7
469.29	8.38
469.726	8.26
470.162	8.16
470.599	2.49
471.035	1.45
471.471	0.2
471.907	-3.1
472.344	-2.92
472.78	-1.59
473.216	-2.44
473.652	-1.36
474.088	-2.46
474.523	-1.71
474.959	-1.59
475.395	-1.42
475.831	-0.82
476.266	-0.58
476.702	-0.2
477.138	0.02
477.573	-0.97
478.008	-0.11
478.444	-0.24
478.879	1.31
479.314	1.63
479.75	2.07
480.185	2.29
480.62	1.65
481.055	1.62
481.49	2.72
481.925	3.12
482.36	4.67
482.795	4.12
483.229	3.72
483.664	2.62
484.099	2.22
484.534	2.63
484.968	2.81
485.403	2.66
485.837	2.26
486.271	1.74
486.706	1.58
487.14	0.22
487.574	0.6
488.009	0.14
488.443	0.42
488.877	0.8
489.311	0.04
489.745	0.16
490.179	0.73
490.613	2.39
491.046	1.91
491.48	1.26
491.914	1.77
492.348	1.08
492.781	1.25
493.215	1.34
493.648	0.2
494.082	-0.06
494.515	-0.27
494.948	0.4
495.382	-1.2
495.815	-0.87
496.248	-0.07
496.681	-0.95
497.114	-1.06
497.547	-0.37
497.98	0.23
498.413	1.97
498.846	2.92
499.279	2.83
499.711	1.99
500.144	1.89
500.577	2.39
501.009	1.6
501.442	2.62
501.874	3.94
502.306	3.6
502.739	5.41
503.171	5.07
503.603	4.87
504.036	4.31
504.468	4.04
504.9	4.5
505.332	3.88
505.764	4.52
506.196	4.35
506.627	3.45
507.059	3.05
507.491	0.17
507.923	0.01
508.354	0.05
508.786	0.23
509.217	0.57
509.649	0.41
510.08	0.5
510.512	0.95
510.943	0.81
511.374	1.32
511.805	1.25
512.237	1.25
512.668	0.41
513.099	-0.73
513.53	-0.71
513.961	-0.51
514.391	-0.35
514.822	0.63
515.253	0.53
515.684	0.91
516.114	0.89
516.545	1.38
516.975	1.88
517.406	2.02
517.836	2.47
518.267	2.44
518.697	3.49
519.127	2.93
519.558	1.83
519.988	1.44
520.418	0.34
520.848	-0.48
521.278	-0.73
521.708	18.07
522.138	18.13
522.567	17.88
522.997	17.9
523.427	16.41
523.857	16.9
524.286	17.15
524.716	17.53
525.145	18.47
525.575	19.32
526.004	18.89
526.433	0.04
526.863	0.19
527.292	1.43
527.721	2.1
528.15	2.18
528.579	2.48
529.008	2.31
529.437	0.96
529.866	0.36
530.295	-0.04
530.724	1.02
531.152	1.35
531.581	1.72
532.01	1.5
532.438	0.62
532.867	0.09
533.295	-0.18
533.723	-0.35
534.152	0.18
534.58	0.64
535.008	0.46
535.436	0.92
535.865	0.53
536.293	0.08
536.721	-0.67
537.149	-0.43
537.576	0.79
538.004	0.86
538.432	0.52
538.86	0.94
539.287	0.44
539.715	0.55
540.143	-0.67
540.57	-0.18
540.998	-0
541.425	1.33
541.852	1.2
542.28	0.73
542.707	0.86
543.134	1.81
543.561	2.04
543.988	2
544.415	1.89
544.842	1.53
545.269	1.45
545.696	1.41
546.123	1.07
546.549	1.3
546.976	1.52
547.403	1.14
547.829	0.26
548.256	-0.46
548.682	0.23
549.108	1.02
549.535	1.29
549.961	0.99
550.387	0.83
550.813	1.56
551.24	1.77
551.666	0.9
552.092	1.18
552.518	1.7
552.943	1.83
553.369	1.05
553.795	0.42
554.221	0.61
554.646	0.63
555.072	1.78
555.498	0.45
555.923	-0.3
556.349	0.14
556.774	-0.37
557.199	-0.81
557.625	-1.02
558.05	-0.45
558.475	-0.34
558.9	0.06
559.325	0.71
559.75	0.25
560.175	0.59
560.6	0.35
561.025	-0.23
561.449	0.27
561.874	-0.07
562.299	0.63
562.723	0.52
563.148	0.37
563.572	-0.47
563.997	-1.24
564.421	-1.99
564.846	-2.47
565.27	-2.11
565.694	-1.66
566.118	-2.82
566.542	-1.82
566.966	-1.79
567.39	-1.92
567.814	-1.42
568.238	-0.71
568.662	-1.13
569.086	-0.48
569.509	-0.75
569.933	0.62
570.357	0.75
570.78	1.8
571.204	2.22
571.627	1.86
572.05	1.81
572.474	2.48
572.897	2.34
573.32	4.03
573.743	3.25
574.166	3.79
574.589	2.85
575.012	2.91
575.435	2.18
575.858	2.08
576.281	2.24
576.704	2.16
577.126	1.06
577.549	0.37
577.972	-0.75
578.394	-0.78
578.817	0.67
579.239	0.52
579.661	0.87
580.084	2.19
580.506	1.48
580.928	0.81
581.35	0.75
581.772	0.63
582.194	1.16
582.616	0.63
583.038	0.14
583.46	-1.32
583.882	-1.15
584.303	-2.3
584.725	-3.54
585.147	0.87
585.568	1.88
585.99	2.6
586.411	3.57
586.833	3.91
587.254	4.51
587.675	4.61
588.096	4.49
588.518	4.2
588.939	4.82
589.36	5.55
589.781	0.11
590.202	2.2
590.623	2.08
591.043	0.66
591.464	0.75
591.885	1.05
592.305	1.35
592.726	1.26
593.147	1.64
593.567	1.7
593.987	1.42
594.408	1.73
594.828	-0.87
595.248	-0.65
595.669	0.36
596.089	-0.24
596.509	-0.54
596.929	-0.91
597.349	-0.54
597.769	-0.52
598.189	-0.26
598.608	-0.3
599.028	0.17
599.448	-0.17
599.867	-0.22
600.287	-0.43
600.706	0.29
601.126	0.59
601.545	1.59
601.965	1.24
602.384	1.16
602.803	0.85
603.222	1.11
603.641	0.78
604.061	1.53
604.48	1.31
604.898	0.81
605.317	0.5
605.736	0.39
606.155	0.57
606.574	0.92
606.992	0.99
607.411	1.41
607.829	0.5
608.248	0.34
608.666	-0.08
609.085	-0.05
609.503	-0.25
609.921	-0.06
610.339	-0.26
610.758	-1.24
611.176	-1.31
611.594	-0.98
612.012	-0.99
612.43	-0.2
612.847	-0.3
613.265	0.62
613.683	0.16
614.101	0.62
614.518	-0.26
614.936	-0.6
615.353	0.29
615.771	0.34
616.188	0.25
616.606	-0.26
617.023	-0.01
617.44	0.02
617.857	-1.17
618.274	-0.87
618.691	-0.16
619.108	-0.12
619.525	-0.23
619.942	-0.41
620.359	-0.66
620.776	-0.82
621.192	-0.14
621.609	0.72
622.026	1.48
622.442	1.71
622.859	1.08
623.275	0.28
623.691	0.65
624.108	1.52
624.524	1.16
624.94	1.7
625.356	1.38
625.772	0.87
626.188	-0.56
626.604	-0.29
627.02	-0.19
627.436	0.68
627.852	1.98
628.268	2.49
628.683	2.36
629.099	2.61
629.514	1.7
629.93	1.32
630.345	1.63
630.761	1.39
631.176	0.77
631.591	2.01
632.007	2.14
632.422	0.82
632.837	-0.08
633.252	0.5
633.667	0.48
634.082	0.88
634.497	2
634.911	3.57
635.326	3.9
635.741	4.23
636.155	3.29
636.57	3.89
636.984	4.26
637.399	6.03
637.813	4.81
638.228	3.92
638.642	2.95
639.056	2.33
639.47	0.68
639.884	0.82
640.298	0.27
640.712	0.69
641.126	0.29
641.54	-0.33
641.954	-3.05
642.368	-2.65
642.781	0.88
643.195	1.55
643.609	1.74
644.022	1.7
644.436	0.78
644.849	1
645.262	0.23
645.676	-0.65
646.089	-0.73
646.502	1.66
646.915	0.97
647.328	-1.04
647.741	-0.51
648.154	-0.48
648.567	1.9
648.98	3.04
649.393	3.07
649.805	2.91
650.218	2.6
650.631	3.7
651.043	3.77
651.456	5.14
651.868	5.01
652.28	4.65
652.693	4.29
653.105	1.99
653.517	1.78
653.929	2.05
654.341	2.77
654.753	3.23
655.165	2.56
655.577	1.23
655.989	0.38
656.401	-0.73
656.813	0.21
657.224	0.15
657.636	0.24
658.047	1.36
658.459	0.63
658.87	-1.04
659.282	-0.81
659.693	0.27
660.104	0.9
660.515	0.94
660.926	1.06
661.338	1.05
661.749	0.26
662.159	0.59
662.57	-1.09
662.981	-0.62
663.392	0.32
663.803	0.81
664.213	0.18
664.624	0.43
665.035	-0.28
665.445	-0.09
665.855	0.12
666.266	1.63
666.676	0.73
667.086	0.3
667.497	0.45
667.907	0.92
668.317	0.24
668.727	2.22
669.137	1.03
669.547	1.04
669.956	0.55
670.366	-0.06
670.776	0.1
671.186	0.32
671.595	0.8
672.005	-0.7
672.414	-0.26
672.824	-0.29
673.233	-2.97
673.642	-2.26
674.052	-1.58
674.461	-0.52
674.87	-0.61
675.279	0.03
675.688	-0.97
676.097	0.4
676.506	1.69
676.915	0.89
677.323	2.01
677.732	2.5
678.141	1.82
678.549	1.53
678.958	0.08
679.366	-0.6
679.775	-2.43
680.183	-0.04
680.592	-0.75
681	-1.02
681.408	-0.25
681.816	-0.68
682.224	-1.29
682.632	1.08
683.04	1.46
683.448	1.87
683.856	3.21
684.264	4.07
684.671	2.53
685.079	1.86
685.487	2.05
685.894	0.4
686.302	-1.3
686.709	-0.64
687.116	-2.38
687.524	-1.22
687.931	-0.14
688.338	-1.06
688.745	-1.15
689.152	-0.79
689.559	0.09
689.966	1.36
690.373	2.9
690.78	4.66
691.187	5.14
691.593	5.54
692	4.97
692.407	5.47
692.813	8.33
693.22	8.84
693.626	7.78
694.032	8.66
694.439	8.02
694.845	7.47
695.251	5.55
695.657	5.78
696.063	4.12
696.469	3.28
696.875	2.79
697.281	0.99
697.687	-0.23
698.093	-0.24
698.498	-0.25
698.904	-1.38
699.31	-1.39
699.715	1.29
700.12	0.6
700.526	2.5
700.931	2.15
701.337	2.23
701.742	3.25
702.147	4.05
702.552	5.78
702.957	4.72
703.362	4.82
703.767	4.07
704.172	2.64
704.577	1.17
704.981	-0.68
705.386	-0.54
705.791	-0.71
706.195	-2.56
706.6	-2.21
707.004	-4.8
707.408	-5.81
707.813	-4.05
708.217	-2.68
708.621	-3.16
709.025	-2.44
709.43	-0.13
709.834	1.25
710.237	0.91
710.641	1.73
711.045	1.2
711.449	3.11
711.853	6.85
712.256	5.47
712.66	4.79
713.064	5.6
713.467	6.8
713.87	5.47
714.274	5.16
714.677	5.48
715.08	4.24
715.484	5.2
715.887	7.32
716.29	3.8
716.693	5.28
717.096	6.64
717.499	6.42
717.901	6.03
718.304	6.33
718.707	5.54
719.109	5.61
719.512	4.9
719.915	7.33
720.317	6.27
720.719	6.02
721.122	5.68
721.524	4.36
721.926	8.62
722.328	8.91
722.731	9.21
723.133	9.09
723.535	8.88
723.937	11.19
724.338	9.49
724.74	8.4
725.142	53.19
725.544	56.01
725.945	67.48
726.347	63.49
726.748	64.07
727.15	64.45
727.551	67.5
727.952	66.19
728.354	64.26
728.755	64.44
729.156	63.8
729.557	20.21
729.958	16.54
730.359	6.53
730.76	6.06
731.161	4.8
731.562	2.86
731.962	-0.23
732.363	0.01
732.763	1.3
733.164	-1.75
733.564	-0.51
733.965	1.14
734.365	1.71
734.766	0.89
735.166	0.05
735.566	1.56
735.966	2.54
736.366	2.77
736.766	3.97
737.166	2.72
737.566	4.03
737.966	2.68
738.365	2.28
738.765	2.97
739.165	3.54
739.564	3.71
739.964	1.51
740.363	1.32
740.763	0.48
741.162	0.89
741.561	1.01
741.96	0.92
742.36	1.09
742.759	0.9
743.158	-1.16
743.557	-1.66
743.955	-1.81
744.354	-1.81
744.753	-2.97
745.152	-1.09
745.55	-2.85
745.949	-3.18
746.348	-2.78
746.746	-3.13
747.144	-0.96
747.543	-0.52
747.941	-1.37
748.339	-0.35
748.737	1.3
749.136	2.75
749.534	0.12
749.932	2.65
750.33	2.99
750.727	2.11
751.125	2.61
751.523	0.63
751.921	3.23
752.318	3.28
752.716	4.85
753.113	4.54
753.511	3.61
753.908	5.62
754.305	8.14
754.703	8.21
755.1	9.59
755.497	9.83
755.894	9.7
756.291	7.63
756.688	9.77
757.085	7.12
757.482	7.88
757.878	10.8
758.275	11.72
758.672	5.11
759.068	4.91
759.465	3.09
759.861	1.23
760.258	-1.76
760.654	-2.16
761.05	-1.49
761.447	-0.82
761.843	-3.18
762.239	-2.5
762.635	-5.64
763.031	-7.14
763.427	-7.22
763.822	-5.76
764.218	-7.56
764.614	-4.54
765.01	-5.08
765.405	-6.51
765.801	-5.02
766.196	-3.98
766.592	-5.33
766.987	-4.38
767.382	-3.73
767.778	-2.77
768.173	-3.35
768.568	-1.08
768.963	-0.76
769.358	0.24
769.753	0.85
770.148	0.86
770.542	0.78
770.937	0.39
771.332	1.31
771.726	0.77
772.121	3.39
772.515	3.54
772.91	3.05
773.304	2.82
773.699	1.69
774.093	1.31
774.487	1.41
774.881	1.77
775.275	0.99
775.669	-0.46
776.063	-0.52
776.457	-1.81
776.851	-1.62
777.245	-0.65
777.638	-0.96
778.032	-1.16
778.425	0.08
778.819	3.64
779.212	6.13
779.606	8.9
779.999	9.11
780.392	10.84
780.786	8.45
781.179	9.25
781.572	8.42
781.965	9.61
782.358	11.18
782.751	10.09
783.143	5.75
783.536	2.35
783.929	0.49
784.322	0.78
784.714	0.08
785.107	0.37
785.499	-0.34
785.891	1.33
786.284	-0.02
786.676	-0.53
787.068	1.57
787.46	3
787.852	3.43
788.245	3.13
788.636	2.11
789.028	3.23
789.42	5.46
789.812	7.18
790.204	6.77
790.595	8.74
790.987	7.31
791.378	5.91
791.77	4.9
792.161	2.97
792.553	3.26
792.944	4.15
793.335	3.42
793.726	3.41
794.117	3.75
794.508	1.22
794.899	-1.23
795.29	-2.16
795.681	-2.68
796.072	-2.2
796.463	15.73
796.853	19.55
797.244	19.88
797.634	21.21
798.025	20.32
798.415	16.8
798.806	18.36
799.196	20.57
799.586	24.87
799.976	25.5
800.366	25.28
800.756	6.55
801.146	4.11
801.536	3.01
801.926	3.2
802.316	5.08
802.706	6.5
803.095	6.3
803.485	5.41
803.874	3.04
804.264	1.23
804.653	2.89
805.043	7.24
805.432	8.69
805.821	11.83
806.21	12.29
806.599	9.28
806.988	11.11
807.377	10.18
807.766	8.22
808.155	7.17
808.544	8.95
808.933	6.35
809.321	5.58
809.71	0.98
810.098	-1
810.487	-5.61
810.875	-5.57
811.264	-4.62
811.652	6.41
812.04	11.27
812.428	15.61
812.816	13.51
813.204	18.09
813.592	13.61
813.98	15.01
814.368	19.84
814.756	21.68
815.144	22.52
815.531	23.04
815.919	10.6
816.306	8.34
816.694	7.11
817.081	10.63
817.469	10.05
817.856	11.02
818.243	9.78
818.63	5.55
819.017	6.85
819.404	8.79
819.791	5.37
820.178	2.39
820.565	3.59
820.952	9.45
821.339	10.38
821.725	6.64
822.112	11.19
822.498	11.75
822.885	9.79
823.271	5.61
823.657	1.79
824.044	3.1
824.43	3.99
824.816	10.37
825.202	7.22
825.588	1.75
825.974	5.07
826.36	2.43
826.746	3.18
827.132	4.96
827.517	13.01
827.903	14.46
828.289	19.73
828.674	20.84
829.06	15.33
829.445	9.88
829.83	9.14
830.216	5.21
830.601	6.76
830.986	12.8
831.371	13.42
831.756	15.69
832.141	21.77
832.526	21.09
832.911	25.28
833.295	23.24
833.68	25.86
834.065	29.89
834.449	31.49
834.834	32.56
835.218	31.77
835.603	33.94
835.987	28.73
836.371	23.19
836.755	23.32
837.139	18.75
837.524	17.92
837.908	16.22
838.291	17.98
838.675	17.07
839.059	15.95
839.443	11.09
839.827	7.01
840.21	2.04
840.594	7.09
840.977	3.91
841.361	5.88
841.744	3.27
842.127	2.91
842.511	-0.8
842.894	-3.87
843.277	-5.31
843.66	-7.71
844.043	-7.33
844.426	0.78
844.809	-5.18
845.191	-5.47
845.574	-6.4
845.957	-4.92
846.339	-1.96
846.722	2.61
847.104	4.23
847.487	2.2
847.869	6.85
848.252	9.03
848.634	7.48
849.016	7.9
849.398	6.93
849.78	7.49
850.162	8.12
850.544	5.89
850.926	-1.25
851.307	-0.88
851.689	3.26
852.071	-1.98
852.452	-0.63
852.834	-0.76
853.215	3.49
853.597	2.19
853.978	6.88
854.359	8.82
854.741	15.34
855.122	18.58
855.503	14.98
855.884	12.15
856.265	15.76
856.646	8.87
857.026	11.18
857.407	11.32
857.788	12.29
858.169	2.38
858.549	6.89
858.93	3.68
859.31	5.69
859.69	13.27
860.071	16.38
860.451	16.16
860.831	17.2
861.211	13.07
861.591	8.24
861.971	5.64
862.351	10.03
862.731	4.47
863.111	5.72
863.491	5.37
863.87	3.08
864.25	-3.56
864.629	3.96
865.009	4.32
865.388	9.11
865.768	9.71
866.147	16.97
866.526	20.01
866.905	19.13
867.284	11.66
867.663	6.85
868.042	3.9
868.421	6.49
868.8	-0.53
869.179	3.88
869.558	0.58
869.936	3.07
870.315	-3.57
870.693	-2.07
871.072	-4.4
871.45	-1.99
871.828	0.08
872.207	3.49
872.585	8.99
872.963	8.15
873.341	18.08
873.719	26.65
874.097	27.92
874.475	28.44
874.853	25.32
875.23	28.43
875.608	31.39
875.986	34.2
876.363	32.37
876.741	38.84
877.118	46.44
877.495	42.87
877.873	34.06
878.25	32.47
878.627	34.12
879.004	36.38
879.381	33.26
879.758	32.48
880.135	28.86
880.512	19.6
880.889	4.89
881.265	3
881.642	-6.32
882.019	-3.53
882.395	4.45
882.772	11.55
883.148	6.5
883.524	10.63
883.901	8.56
884.277	8.3
884.653	11.84
885.029	19.34
885.405	22.53
885.781	23.69
886.157	18.76
886.532	11.93
886.908	8.59
887.284	6.97
887.659	5.2
888.035	7.05
888.411	8.47
888.786	15.17
889.161	10.88
889.537	-1.62
889.912	-0.35
890.287	-0.03
890.662	-7.85
891.037	-14.28
891.412	-12.34
891.787	-16.04
892.162	-12.04
892.536	-7.56
892.911	-7.64
893.286	-8.11
893.66	-1.77
894.035	-0.18
894.409	-0.2
894.784	10.7
895.158	10.66
895.532	15.05
895.906	23.44
896.281	20.8
896.655	22.21
897.029	22.65
897.402	24.2
897.776	22.46
898.15	22.46
898.524	25.02
898.898	17.93
899.271	33.88
899.645	35.09
900.018	26.1
900.392	30.76
900.765	21.73
901.138	18.33
901.511	13.79
901.884	28.75
902.258	26.35
902.631	35.37
903.003	38.84
903.376	30.19
903.749	35.15
904.122	37.45
904.495	24.57
904.867	17.74
905.24	26.01
905.612	27.09
905.985	-0
906.357	-3.13
906.729	-10.67
907.102	-4.55
907.474	-9.45
907.846	-9.55
908.218	-8.79
908.59	13.56
908.962	16.9
909.334	14.49
909.705	20.69
910.077	24.83
910.449	27.39
910.82	32.34
911.192	28.46
911.563	37.84
911.935	21.42
912.306	16.44
912.677	-2.74
913.048	8.96
913.419	16.99
913.79	8.89
914.161	8.69
914.532	25.13
914.903	15.23
915.274	19.97
915.645	21.36
916.015	25.99
916.386	26.85
916.756	24.21
917.127	9.68
917.497	8.38
917.868	18.66
918.238	12.87
918.608	-1.66
918.978	-2
919.348	-13.09
919.718	-16.17
920.088	-21.32
920.458	-17.44
920.828	-21.44
921.198	-15.48
921.567	-14.21
921.937	-9.68
922.306	-6.29
922.676	-11.24
923.045	14.23
923.415	31.82
923.784	33.38
924.153	49.51
924.522	52.57
924.891	56.28
925.26	64.07
925.629	59.27
925.998	53.96
926.367	59.69
926.736	78.67
927.104	70.54
927.473	51.9
927.842	44.65
928.21	20.46
928.578	3.85
928.947	17.16
929.315	28.88
929.683	29.63
930.051	31.65
930.42	26.33
930.788	12.31
931.156	4.56
931.523	50.94
931.891	66.71
932.259	81.98
932.627	108.48
932.994	132.54
933.362	128.53
933.729	108.78
934.097	102.61
934.464	109.78
934.831	111.18
935.199	108.62
935.566	81.18
935.933	40.3
936.3	40.91
936.667	42.15
937.034	99.59
937.401	73.27
937.767	76.11
938.134	76.81
938.501	70.27
938.867	85.82
939.234	142.59
939.6	102.87
939.967	149.68
940.333	125.07
940.699	80.43
941.065	-11.28
941.431	-31.54
941.798	5.1
942.163	24.13
942.529	14.68
942.895	2.51
943.261	7.23
943.627	10.79
943.992	32.62
944.358	16.79
944.723	61.14
945.089	65.73
945.454	72.51
945.82	61.04
946.185	44.03
946.55	67.32
946.915	63.82
947.28	72.57
947.645	60.03
948.01	72.23
948.375	91.17
948.74	48.99
949.104	43.45
949.469	15.09
949.834	-28.67
950.198	70.82
950.562	85.41
950.927	73.07
951.291	101.82
951.655	90.29
952.02	22.11
952.384	14.29
952.748	45.31
953.112	90.21
953.476	102.92
953.839	88.16
954.203	95.07
954.567	83.79
954.931	79.41
955.294	68.41
955.658	80.71
956.021	163.41
956.385	153.16
956.748	201.55
957.111	-14.15
957.474	-302.89
957.837	-251.53
958.2	-376.5
958.563	-86.56
958.926	-1.31
959.289	-50.87
959.652	-94.59
960.015	-47.85
960.377	23.85
960.74	-31.08
961.102	-168.89
961.465	26.38
961.827	382.36
962.189	738.2
962.552	500.69
962.914	351.93
963.276	215.73
963.638	194.38
964	140.12
964.362	107.81
964.724	114.64
965.085	92.4
965.447	91.07
965.809	1.7
966.17	-16.28
966.532	-9.56
966.893	-8.31
967.255	5.23
967.616	-15.88
967.977	13.05
968.338	3.38
968.699	18.62
969.061	15.46
969.421	11.62
969.782	19.96
970.143	40.59
970.504	64.02
970.865	79.92
971.225	92.68
971.586	115.42
971.946	143.2
972.307	113.42
972.667	104.32
973.027	128.69
973.388	93.98
973.748	87.09
974.108	91.68
974.468	19.37
974.828	97.04
975.188	63.63
975.548	47.07
975.907	42.81
976.267	38.83
976.627	63.88
976.986	47.61
977.346	46.16
977.705	37.49
978.064	20.66
978.424	26.84
978.783	-15.14
979.142	-13.11
979.501	-4.99
979.86	-4.65
980.219	-4.19
980.578	-34.2
980.937	-50.5
981.296	-25.55
981.654	-17.71
982.013	-33.76
982.371	7.25
982.73	37.48
983.088	13.12
983.447	18.24
983.805	64.01
984.163	236.12
984.521	161.54
984.879	200.76
985.237	-225.52
985.595	569.6
985.953	81.89
986.311	-76.39
986.669	-47.45
987.026	-54.29
987.384	-132.02
987.741	-214.09
988.099	-90.33
988.456	-48.1
988.814	-12.37
989.171	-9.3
989.528	-56.88
989.885	-69.69
990.242	-16.25
990.599	-49.67
990.956	-28.45
991.313	-4.36
991.67	16.78
992.027	36.75
992.383	38.25
992.74	34.75
993.096	38.29
993.453	40.88
993.809	48.72
994.165	50.57
994.522	107.69
994.878	124.8
995.234	154.44
995.59	144.71
995.946	77.11
996.302	70.83
996.658	63.64
997.013	46.62
997.369	88.27
997.725	124.08
998.08	77.72
998.436	-60.58
998.791	-143.34
999.147	-143.11
999.502	-122.89
999.857	-86.47
1000.212	-158.04
1000.567	-51.92
1000.922	66.65
1001.277	55.16
1001.632	37.17
1001.987	36.3
1002.342	54.01
1002.696	57.38
1003.051	59.52
1003.406	77.33
1003.76	54.65
1004.114	69.96
1004.469	59.45
1004.823	44.39
1005.177	32.35
1005.531	36.45
1005.885	54.17
1006.239	71.82
1006.593	102.93
1006.947	130.35
1007.301	71.91
1007.655	107.17
1008.008	88.84
1008.362	85.07
1008.715	111.36
1009.069	111.04
1009.422	250.17
1009.776	315.3
1010.129	184.27
1010.482	137.41
1010.835	68.26
1011.188	94.28
1011.541	71.69
1011.894	-314.8
1012.247	550.02
1012.6	22.74
1012.952	60.81
1013.305	-89.4
1013.657	-19.26
1014.01	-22.22
1014.362	-28.92
1014.715	26.68
1015.067	54.19
1015.419	44.98
1015.771	48.27
1016.123	62.78
1016.475	64.79
1016.827	54.51
1017.179	95.8
1017.531	81.45
1017.883	71.36
1018.234	112.71
1018.586	132.91
1018.938	174.62
1019.289	265.73
1019.64	259.09
1019.992	216.11
1020.343	200.13
1020.694	212.2
1021.045	185.31
1021.396	222.19
1021.747	269.96
1022.098	255.53
1022.449	168.06
1022.8	151.1
1023.151	128.79
1023.501	137.1
1023.852	135.06
1024.202	154.75
1024.553	147.19
1024.903	172.35
1025.253	172.58
1025.604	181.58
1025.954	207.34
1026.304	240.87
1026.654	239.52
1027.004	278.72
1027.354	339.61
1027.703	384.4
1028.053	422.74
1028.403	594.5
1028.753	407.06
1029.102	12.95
1029.452	-3679.33
1029.801	-130.83
1030.15	-89.03
1030.499	-118.66
897.758	1600.48
901.051	1544.11
904.343	1572.03
907.636	1576.56
910.928	1620.11
914.22	1564.68
917.511	1570.03
920.803	1601.39
924.094	1594
927.384	1600.18
930.675	1571.94
933.965	1549.07
937.255	1574.44
940.544	1553.8
943.834	1547.33
947.123	1506.04
950.411	1569.42
953.7	1558.44
956.988	1549.6
960.276	1496.79
963.563	1527.23
966.851	1536.39
970.138	1562.5
973.424	1565.22
976.711	1525.68
979.997	1563.05
983.283	1592.16
986.568	1544.42
989.853	1532.1
993.138	1547.39
996.423	1614.92
999.708	1585.99
1002.992	1605.99
1006.275	1540.84
1009.559	1541.57
1012.842	1613.82
1016.125	1580.56
1019.408	1565.56
1022.69	1599.69
1025.972	1623.59
1029.254	1609.12
1032.536	1584.52
1035.817	1586.56
1039.098	1564.7
1042.379	1596.75
1045.659	1615.48
1048.939	1575.87
1052.219	1576.31
1055.498	1568.75
1058.778	1562.58
1062.057	1547.39
1065.335	1564.78
1068.614	1568.56
1071.892	1564.09
1075.17	1600.76
1078.447	1606.61
1081.724	1601.64
1085.001	1618.22
1088.278	1600.15
1091.554	1602.48
1094.83	1602.5
1098.106	1623.03
1101.382	1642.58
1104.657	1642.21
1107.932	1641.78
1111.206	1624.17
1114.481	1587.07
1117.755	1589.94
1121.029	1584.29
1124.302	1629.22
1127.575	1605.64
1130.848	1603.76
1134.121	1584.47
1137.393	1554.27
1140.665	1596.62
1143.937	1581.45
1147.208	1547.06
1150.48	1589.71
1153.75	1579.11
1157.021	1579.93
1160.291	1563.42
1163.561	1601.94
1166.831	1576.02
1170.101	1591.29
1173.37	1563.52
1176.639	1534.22
1179.907	1566.21
1183.176	1581.01
1186.444	1583.67
1189.711	1599.15
1192.979	1616.78
1196.246	1587.07
1199.513	1596.08
1202.78	1599.15
1206.046	1605.89
1209.312	1627.32
1212.578	1634.35
1215.843	1608.49
1219.108	1589.49
1222.373	1605.52
1225.638	1588.12
1228.902	1582.09
1232.166	1552.42
1235.43	1546.28
1238.693	1569.64
1241.956	1564.62
1245.219	1599.29
1248.482	1588.39
1251.744	1591.58
1255.006	1670.86
1258.268	1633.16
1261.529	1607.43
1264.79	1605.01
1268.051	1672.25
1271.312	1676.38
1274.572	1650.56
1277.832	1639.27
1281.092	1626.12
1284.351	1622.96
1287.61	1612.07
1290.869	1572.08
1294.128	1572.26
1297.386	1597.02
1300.644	1593.27
1303.902	1599.06
1307.159	1509.28
1310.416	1545.16
1313.673	1566.37
1316.93	1566.5
1320.186	1583.13
1323.442	1604.65
1326.697	1605.48
1329.953	1585.24
1333.208	1614
1336.463	1597.97
1339.717	1576.32
1342.972	1648.53
1346.226	1630.65
1349.479	1602.94
1352.733	1587.29
1355.986	1596.21
1359.238	1583.09
1362.491	1586.03
1365.743	1587.69
1368.995	1583.87
1372.247	1593
1375.498	1604.12
1378.749	1637.33
1382	1604.84
1385.251	1624.3
1388.501	1596.09
1391.751	1594.85
1395	1576.33
1398.25	1595.5
1401.499	1617.13
1404.748	1584.45
1407.996	1571.06
1411.244	1568.89
1414.492	1558.43
1417.74	1548.98
1420.987	1553.59
1424.234	1595.08
1427.481	1567.86
1430.728	1605.93
1433.974	1592.49
1437.22	1587.37
1440.465	1583.43
1443.711	1588.44
1446.956	1598.7
1450.201	1579.34
1453.445	1607.38
1456.689	1599.38
1459.933	1607.2
1463.177	1634.19
1466.42	1617.46
1469.663	1599.37
1472.906	1612.86
1476.148	1645.39
1479.391	1613.96
1482.633	1601.36
1485.874	1617.66
1489.115	1625.05
1492.356	1611.08
1495.597	1593.16
1498.838	1589.01
1502.078	1579.69
1505.318	1566
1508.557	1584.05
1511.797	1582.78
1515.036	1621.27
1518.274	1591.93
1521.513	1553.63
1524.751	1559.44
1527.989	1576.58
1531.227	1589.45
1534.464	1594.49
1537.701	1586.34
1540.938	1591.03
1544.174	1553.35
1547.41	1543.54
1550.646	1569.21
1553.882	1602.74
1557.117	1645.01
1560.352	1648.9
1563.587	1617.68
1566.821	1596.56
1570.055	1608.87
1573.289	1591.82
1576.523	1629.69
1579.756	1639.77
1582.989	1652.53
1586.222	1620.25
1589.454	1642.9
1592.686	1634.66
1595.918	1651.9
1599.15	1652.9
1602.381	1680.32
1605.612	1669.41
1608.843	1732.62
1612.073	1677.22
1615.303	1673.44
1618.533	1670.99
1621.762	1669.49
1624.992	1647.83
1628.221	1644.25
1631.449	1637.01
1634.678	1654.65
1637.906	1632.69
1641.134	1645.99
1644.361	1623.5
1647.588	1618.69
1650.815	1634.01
1654.042	1608.52
1657.269	1627.86
1660.495	1616.76
1663.72	1605.03
1666.946	1582.53
1670.171	1569.26
1673.396	1547.61
1676.621	1538.38
1679.845	1533.77
1683.069	1536.25
1686.293	1553.96
1689.517	1548.85
1692.74	1521.43
1695.963	1535.2
1699.185	1563.16
1702.408	1546.43
1705.63	1565.83
1708.852	1580.16
1712.073	1557.11
1715.294	1571.26
1718.515	1603.22
1721.736	1574.47
1724.956	1562.91
1728.176	1577.77
1731.396	1591.02
1734.616	1586.32
1737.835	1616.03
1741.054	1593.13
1744.272	1589.22
1747.491	1621.57
1750.709	1633.14
1753.927	1603.57
1757.144	1621.48
1760.361	1660.8
1763.578	1642.04
1766.795	1608.23
1770.011	1597.87
1773.227	1612.51
1776.443	1642.43
1779.658	1672.95
1782.874	1630.72
1786.089	1626.8
1789.303	1627.36
1792.518	1628.11
1795.732	1618.98
1798.945	1629.55
1802.159	1661.41
1805.372	1623.77
1808.585	1620.55
1811.797	1621.02
1815.01	1636.15
1818.222	1658.4
1821.434	1628.85
1824.645	1655.59
1827.856	1662.03
1831.067	1682.81
1834.278	1640.84
1837.488	1629.5
1840.698	1713.28
1843.908	1679.32
1847.117	1658.88
1850.326	1611.58
1853.535	1650.45
1856.744	1678.64
1859.952	1627.21
1863.16	1629.24
1866.368	1646.27
1869.575	1728.4
1872.782	1645.8
1875.989	1602.76
1879.196	1635.71
1882.402	1632.89
1885.608	1656.33
1888.814	1619.3
1892.019	1560.07
1895.224	1601.07
1898.429	1577.13
1901.634	1564.42
1904.838	1548.89
1908.042	1594.27
1911.246	1606.22
1914.449	1581.83
1917.652	1567.16
1920.855	1553.58
1924.058	1569.16
1927.26	1605.28
1930.462	1618.34
1933.664	1646.76
1936.865	1608.77
1940.066	1619.88
1943.267	1579.35
1946.467	1585.66
1949.668	1595.27
1952.868	1646.46
1956.067	1645.16
1959.267	1600.9
1962.466	1617.34
1965.665	1603.22
1968.863	1602.59
1972.061	1598.42
1975.259	1592.29
1978.457	1645.67
1981.654	1616.67
1984.852	1620.22
1988.048	1590.78
1991.245	1577.32
1994.441	1641.16
1997.637	1603.74
2000.833	1592.06
2004.028	1614.54
2007.223	1665.17
2010.418	1655.89
2013.613	1618.73
2016.807	1618.2
2020.001	1613.2
2023.194	1625.9
2026.388	1612.67
2029.581	1572.67
2032.774	1621.76
2035.966	1628.7
2039.158	1591.02
2042.35	1603.84
2045.542	1551.93
2048.733	1608.16
2051.924	1595.32
2055.115	1605.22
2058.306	1583.52
2061.496	1623.18
2064.686	1659.23
2067.875	1588.57
2071.065	1588.78
2074.254	1601.69
2077.442	1568.33
2080.631	1626.14
2083.819	1585.16
2087.007	1581.68
2090.195	1571.87
2093.382	1577.24
2096.569	1570.65
2099.756	1542.6
2102.942	1583.22
2106.128	1592.79
2109.314	1585.55
2112.5	1577.62
2115.685	1552.93
2118.87	1558.73
2122.055	1604.32
2125.239	1590.7
2128.424	1583.43
2131.608	1617.43
2134.791	1605.85
2137.974	1631.17
2141.157	1623.07
2144.34	1605.29
2147.523	1594.55
2150.705	1618.39
2153.887	1590.29
2157.068	1574.36
2160.25	1555.98
2163.431	1574.03
2166.611	1555.45
2169.792	1572.4
2172.972	1507.07
2176.152	1545.28
2179.331	1562.26
2182.511	1564.69
2185.69	1578.06
2188.868	1582.64
2192.047	1605.78
2195.225	1626.78
2198.403	1584.24
2201.58	1573.18
2204.758	1561.62
2207.935	1614.77
2211.111	1556.88
2214.288	1547.41
2217.464	1572.07
2220.64	1540.51
2223.815	1576.6
2226.991	1525.99
2230.166	1533.23
2233.34	1568.8
2236.515	1577.08
2239.689	1625.29
2242.863	1589.12
2246.036	1626.82
2249.209	1613.44
2252.382	1627.26
2255.555	1633.44
2258.727	1601.57
2261.9	1622.71
2265.071	1618.33
2268.243	1617.86
2271.414	1585.43
2274.585	1572.72
2277.756	1616.6
2280.926	1586.04
2284.096	1607.48
2287.266	1558.48
2290.436	1595.2
2293.605	1605.56
2296.774	1633.71
2299.942	1638.86
2303.111	1647.71
2306.279	1684.57
2309.447	1676.3
2312.614	1656.95
2315.781	1673.07
2318.948	1657
2322.115	1685.31
2325.281	1605.57
2328.447	1609.4
2331.613	1589.56
2334.779	1584.63
2337.944	1582.77
2341.109	1583.58
2344.274	1574.98
2347.438	1552.8
2350.602	1568.31
2353.766	1573.23
2356.929	1567.29
2360.092	1597.14
2363.255	1576.61
2366.418	1557.92
2369.58	1587.71
2372.742	1558.64
2375.904	1542.31
2379.066	1538.26
2382.227	1554.58
2385.388	1527.07
2388.548	1498.55
2391.709	1522.71
2394.869	1518.71
2398.029	1551.54
2401.188	1541.04
2404.347	1528.37
2407.506	1528.73
2410.665	1572.17
2413.823	1553.44
2416.981	1542.17
2420.139	1552.1
2423.296	1580.1
2426.453	1560.68
2429.61	1577.53
2432.767	1563.24
2435.923	1592.2
2439.079	1551.02
2442.235	1573.18
2445.391	1530.4
2448.546	1564.54
2451.701	1588.17
2454.855	1586.97
2458.009	1600.93
2461.163	1591.98
2464.317	1570.76
2467.471	1589.07
2470.624	1610.27
2473.777	1604.96
2476.929	1619.06
2480.082	1634.52
2483.234	1621.5
2486.385	1576.61
2489.537	1572.5
2492.688	1571.06
2495.839	1586.54
2498.989	1596.77
2502.14	1586.46
2505.29	1581.42
2508.439	1597.97
2511.589	1558.96
2514.738	1557.76
2517.887	1569.53
2521.035	1625.89
2524.183	1593.34
2527.331	1586.73
2530.479	1582.33
2533.627	1584.79
