Data from N_1_DEC_OH_4N_Splice17_11-20-50-977.txt Node
Date: Sat Mar 14 11:20:50 EDT 2020
User: sa697716
Spectrometer: FLMS03696
Trigger mode: 0
Integration Time (sec): 3.180400E-1
Scans to average: 20
Electric dark correction enabled: true
Nonlinearity correction enabled: true
Boxcar width: 5
XAxis mode: Wavelengths
Number of Pixels in Spectrum: 2048
>>>>>Begin Spectral Data<<<<<
187.83	-92087.34
188.298	887.29
188.766	510.12
189.233	484.01
189.701	648.42
190.169	822.06
190.636	369.93
191.104	353.29
191.571	104.16
192.039	11.98
192.506	65.53
192.974	545.89
193.441	-386.35
193.908	-39.42
194.375	27.02
194.842	76.95
195.31	77.37
195.777	115.94
196.244	190.98
196.711	152.5
197.177	148.14
197.644	169.9
198.111	301.05
198.578	315.2
199.045	237.1
199.511	363.91
199.978	361.97
200.445	337.74
200.911	359.44
201.378	371.17
201.844	353.61
202.31	604.4
202.777	638.03
203.243	337.82
203.709	362.3
204.176	442.94
204.642	375.21
205.108	370.68
205.574	291.96
206.04	257.77
206.506	243.15
206.972	208.11
207.438	190.57
207.903	212.5
208.369	213.43
208.835	208.26
209.301	215.7
209.766	196.89
210.232	187
210.697	235.2
211.163	288.82
211.628	401.71
212.094	374.39
212.559	486.78
213.024	301.76
213.49	358.46
213.955	330.65
214.42	285.34
214.885	271.95
215.35	274.83
215.815	289.66
216.28	287.3
216.745	234.7
217.21	255.27
217.675	210.03
218.14	228.77
218.604	224.52
219.069	249.51
219.534	270.21
219.998	291.91
220.463	306.99
220.927	274.01
221.392	253.16
221.856	247.1
222.32	260.45
222.785	307.15
223.249	341.14
223.713	361.83
224.177	341.82
224.642	369.7
225.106	399.77
225.57	393.98
226.034	347.16
226.497	495.96
226.961	481.05
227.425	538.11
227.889	514.67
228.353	477.24
228.816	858.62
229.28	806.2
229.744	642.74
230.207	437.14
230.671	429.9
231.134	585.7
231.597	682.13
232.061	523.66
232.524	461.01
232.987	353.42
233.45	355.74
233.914	311.48
234.377	262.47
234.84	238.47
235.303	266.34
235.766	295.8
236.229	316.18
236.691	177.33
237.154	197.76
237.617	159.25
238.08	150.96
238.542	170.95
239.005	118.88
239.468	132.03
239.93	132.82
240.393	123.13
240.855	107.62
241.317	98.46
241.78	113.71
242.242	131.07
242.704	166.25
243.166	161.9
243.629	159.57
244.091	186.93
244.553	200.3
245.015	220.06
245.477	260.13
245.939	340.83
246.4	382.81
246.862	353.06
247.324	313.51
247.786	306.21
248.247	307.37
248.709	241.25
249.17	207.12
249.632	271.35
250.093	343.6
250.555	298.66
251.016	227.37
251.477	226.25
251.939	242.56
252.4	253.78
252.861	300.01
253.322	325.92
253.783	343.19
254.244	439.75
254.705	292.33
255.166	229.76
255.627	212.35
256.088	281.95
256.549	259.71
257.009	223.92
257.47	268.71
257.931	174.05
258.391	134.31
258.852	170.07
259.312	175.8
259.773	209.72
260.233	230.57
260.694	222.19
261.154	246.61
261.614	247.49
262.074	219.7
262.534	231.91
262.994	251.04
263.455	310.2
263.915	272.5
264.374	246.89
264.834	284.24
265.294	279
265.754	296.85
266.214	283.2
266.673	243.21
267.133	293.95
267.593	278.66
268.052	331.48
268.512	280.2
268.971	371.92
269.431	412.6
269.89	363.19
270.349	546.2
270.809	622.39
271.268	552.68
271.727	1126.43
272.186	770.56
272.645	569.08
273.104	354.55
273.563	497.34
274.022	310.86
274.481	310.61
274.94	240
275.399	152.76
275.857	139.19
276.316	170.84
276.775	162.06
277.233	155.35
277.692	178.01
278.15	227.66
278.609	286.26
279.067	279.59
279.525	262.23
279.984	316.18
280.442	408.33
280.9	437.19
281.358	288.77
281.816	258.17
282.274	248.26
282.732	211.04
283.19	202.69
283.648	155.09
284.106	148.43
284.564	121.21
285.021	118.6
285.479	92.47
285.937	73.79
286.394	74.88
286.852	76.56
287.309	75.41
287.767	114.79
288.224	122.88
288.682	130.54
289.139	158.33
289.596	171.87
290.053	169.64
290.511	191.16
290.968	236.96
291.425	321.87
291.882	324.14
292.339	312.38
292.796	286.83
293.252	248.07
293.709	221.62
294.166	203.8
294.623	189.41
295.079	168.47
295.536	201.29
295.992	185.3
296.449	178.24
296.905	186.83
297.362	196.18
297.818	179.79
298.274	201.24
298.731	193.97
299.187	190.22
299.643	218.91
300.099	289.81
300.555	306.66
301.011	262.03
301.467	293.03
301.923	298.7
302.379	274.74
302.835	290.94
303.291	302.19
303.746	310.32
304.202	369.22
304.658	361.52
305.113	247.26
305.569	237.48
306.024	242.78
306.479	193.23
306.935	188.09
307.39	196.53
307.845	174.47
308.301	198.81
308.756	198.6
309.211	199.07
309.666	194.69
310.121	248.81
310.576	254.03
311.031	241.97
311.486	237.15
311.94	204.48
312.395	242.08
312.85	398.62
313.305	636.19
313.759	7722.23
314.214	650.34
314.668	580.15
315.123	638.52
315.577	255.29
316.032	236.51
316.486	322.87
316.94	277.65
317.394	221.32
317.849	199.56
318.303	202.19
318.757	174.23
319.211	179.39
319.665	158.64
320.119	141.99
320.572	176.49
321.026	191.21
321.48	159.64
321.934	164.39
322.387	145.51
322.841	159.67
323.295	185
323.748	183.29
324.202	182.74
324.655	233.19
325.108	359.57
325.562	279.3
326.015	307.01
326.468	243.04
326.921	275.2
327.374	286.72
327.827	299.24
328.28	295.94
328.733	248.02
329.186	238.07
329.639	224.43
330.092	179.87
330.545	173.84
330.997	191.95
331.45	231.45
331.903	285.59
332.355	440.4
332.808	403.15
333.26	324.86
333.713	335.13
334.165	315.34
334.617	399.29
335.069	260.72
335.522	408.13
335.974	400.42
336.426	316.42
336.878	151.82
337.33	108.02
337.782	111.46
338.234	170.36
338.686	176.15
339.137	197.32
339.589	199.69
340.041	192.77
340.493	170.21
340.944	146
341.396	146.3
341.847	170.4
342.299	229.36
342.75	317.21
343.201	259.06
343.653	290.12
344.104	342.11
344.555	252.41
345.006	355.96
345.457	363.95
345.908	301.36
346.359	302.01
346.81	239.12
347.261	213.76
347.712	184.92
348.163	191.01
348.613	248.08
349.064	254.7
349.515	225.09
349.965	243.48
350.416	255.64
350.866	280.15
351.317	300.27
351.767	487.76
352.217	627.94
352.668	524.72
353.118	466.79
353.568	329.74
354.018	276.73
354.468	338.36
354.918	240.84
355.368	182.16
355.818	225.41
356.268	558.05
356.718	2384.93
357.168	687.45
357.617	325.44
358.067	331.77
358.517	291.87
358.966	347.22
359.416	423.71
359.865	476.75
360.315	538.51
360.764	277.83
361.213	156.25
361.663	119.36
362.112	117.32
362.561	181.07
363.01	185.91
363.459	161.83
363.908	112.72
364.357	129.64
364.806	177.56
365.255	131.04
365.703	169.28
366.152	191.69
366.601	175.63
367.05	149.98
367.498	161.16
367.947	139.59
368.395	157.13
368.844	167.84
369.292	139.49
369.74	113.31
370.189	159.64
370.637	189.12
371.085	152.25
371.533	173.76
371.981	158.69
372.429	171.71
372.877	191.88
373.325	177.44
373.773	182.71
374.221	148.6
374.669	187.06
375.116	173.03
375.564	163.35
376.012	190.7
376.459	177.88
376.907	177.18
377.354	177.31
377.801	182.29
378.249	229.56
378.696	243.41
379.143	300
379.591	286.27
380.038	445.36
380.485	309.95
380.932	288.23
381.379	308.24
381.826	347.08
382.273	245.06
382.72	181.21
383.166	160.22
383.613	133.22
384.06	136.04
384.506	147.39
384.953	123.72
385.4	119.04
385.846	117.61
386.292	96.93
386.739	74.39
387.185	78.44
387.631	83.49
388.078	92.05
388.524	87.98
388.97	76.74
389.416	75.48
389.862	84.77
390.308	86.73
390.754	86.69
391.2	93.51
391.645	92.04
392.091	99.18
392.537	102.97
392.983	87.1
393.428	107.25
393.874	113.88
394.319	129.18
394.765	126.69
395.21	124.38
395.655	116.49
396.101	109.98
396.546	103.27
396.991	89.37
397.436	81.22
397.881	75.29
398.326	53.56
398.771	54.08
399.216	42.55
399.661	34.31
400.106	39.62
400.551	40.69
400.995	34.91
401.44	38.54
401.885	40.11
402.329	38.94
402.774	39.75
403.218	49.29
403.663	46.71
404.107	44.94
404.551	49.71
404.995	40.65
405.44	35.94
405.884	35.09
406.328	28.8
406.772	23.53
407.216	26.03
407.66	24.73
408.104	18.13
408.547	16.07
408.991	16.36
409.435	12.93
409.879	17.77
410.322	18.18
410.766	19.87
411.209	23.25
411.653	25.32
412.096	27.02
412.54	25.7
412.983	25.39
413.426	29.34
413.869	26.04
414.312	29.58
414.756	24.97
415.199	24.11
415.642	24.52
416.085	23.1
416.527	20.76
416.97	17.28
417.413	19.44
417.856	16.86
418.298	15.44
418.741	16.32
419.184	11.86
419.626	9.91
420.069	10.13
420.511	10.32
420.953	13.19
421.396	14.58
421.838	13.61
422.28	13.28
422.722	17.32
423.164	16.16
423.606	16.62
424.048	15.45
424.49	17.23
424.932	17.11
425.374	15.32
425.816	13.32
426.258	12.59
426.699	13.85
427.141	17.42
427.582	15.44
428.024	13.41
428.465	10.95
428.907	12.32
429.348	12.71
429.789	14.31
430.231	15.85
430.672	16.53
431.113	16.88
431.554	15.85
431.995	10.91
432.436	12.98
432.877	13.56
433.318	17.48
433.759	15.59
434.2	12.57
434.64	10.56
435.081	11.56
435.522	11.84
435.962	11.23
436.403	13.13
436.843	11.27
437.284	9.48
437.724	9.43
438.164	5.49
438.604	6.47
439.045	10.06
439.485	13.2
439.925	13.57
440.365	11.89
440.805	11.12
441.245	10.72
441.685	12.92
442.125	11.54
442.564	11.31
443.004	12.18
443.444	12.69
443.883	12.31
444.323	8.43
444.762	2.97
445.202	3.01
445.641	5.56
446.081	4.22
446.52	3.65
446.959	4.6
447.398	6.24
447.837	5.93
448.276	5.63
448.716	5.89
449.154	6
449.593	9.12
450.032	9.29
450.471	5.95
450.91	4.71
451.349	7.21
451.787	7.02
452.226	6.03
452.664	6.37
453.103	6.15
453.541	4.5
453.98	6.97
454.418	7.86
454.856	9.61
455.295	10.04
455.733	11.26
456.171	9.47
456.609	10.78
457.047	11.45
457.485	12.86
457.923	14.7
458.361	14.73
458.798	12.95
459.236	12.26
459.674	9.69
460.111	9.8
460.549	9.96
460.987	8.33
461.424	7.94
461.862	7.36
462.299	7.57
462.736	7.51
463.173	7.41
463.611	11.16
464.048	11.84
464.485	13.46
464.922	13.11
465.359	12.25
465.796	20.5
466.233	20.97
466.67	23.08
467.106	24.24
467.543	22.87
467.98	21.86
468.416	19.36
468.853	18.46
469.29	17.28
469.726	18.08
470.162	18.28
470.599	12.05
471.035	10.46
471.471	9.52
471.907	6.81
472.344	6.19
472.78	7.62
473.216	6.55
473.652	6.56
474.088	5.46
474.523	5.95
474.959	5.12
475.395	4.68
475.831	5.62
476.266	4.86
476.702	5.39
477.138	5.62
477.573	4.88
478.008	5.16
478.444	5.9
478.879	7.53
479.314	7.34
479.75	7.87
480.185	7.91
480.62	7.11
481.055	6.87
481.49	6.45
481.925	6.52
482.36	8.36
482.795	7.9
483.229	6.88
483.664	6.21
484.099	5.94
484.534	6.39
484.968	7
485.403	6.61
485.837	5.87
486.271	6.41
486.706	6.74
487.14	5.3
487.574	5.29
488.009	5.29
488.443	5.39
488.877	5.8
489.311	4.8
489.745	4.52
490.179	5.01
490.613	6.88
491.046	6.27
491.48	5.68
491.914	6.2
492.348	6.45
492.781	6.48
493.215	5.91
493.648	4.82
494.082	5.3
494.515	5.37
494.948	6.35
495.382	5.15
495.815	5.33
496.248	5.97
496.681	4.98
497.114	4.96
497.547	5.6
497.98	7.01
498.413	8.92
498.846	9.57
499.279	9.43
499.711	8.42
500.144	8.15
500.577	9.33
501.009	8.83
501.442	10.29
501.874	10.49
502.306	9.72
502.739	10.9
503.171	10.26
503.603	10.25
504.036	10.61
504.468	11.12
504.9	11.21
505.332	10.51
505.764	11.36
506.196	10.64
506.627	10.8
507.059	10.73
507.491	8.55
507.923	8.18
508.354	8.16
508.786	7.92
509.217	7.81
509.649	8.27
510.08	8.12
510.512	8.49
510.943	8.84
511.374	9.14
511.805	9.66
512.237	10.34
512.668	10.25
513.099	9.55
513.53	9.96
513.961	10.61
514.391	10.27
514.822	11.43
515.253	11.42
515.684	11.5
516.114	11.87
516.545	12.33
516.975	12.34
517.406	12.63
517.836	12.59
518.267	12.64
518.697	13.16
519.127	13.49
519.558	12.7
519.988	12.2
520.418	11.59
520.848	10.85
521.278	10.43
521.708	26.78
522.138	27.13
522.567	27.25
522.997	27.33
523.427	26.67
523.857	26.95
524.286	27.35
524.716	27.78
525.145	28.73
525.575	29.67
526.004	29.62
526.433	13.99
526.863	14.08
527.292	15.31
527.721	15.39
528.15	15.53
528.579	15.65
529.008	15.73
529.437	15.02
529.866	14.63
530.295	13.61
530.724	14.54
531.152	14.19
531.581	14.96
532.01	14.6
532.438	14.42
532.867	14.39
533.295	15.05
533.723	14.63
534.152	15.05
534.58	15.73
535.008	16.45
535.436	16.95
535.865	16.87
536.293	15.8
536.721	15.53
537.149	15.69
537.576	16.05
538.004	15.43
538.432	15.45
538.86	16.14
539.287	15.34
539.715	15.33
540.143	14.38
540.57	14.96
540.998	15.07
541.425	16.53
541.852	16.5
542.28	16.61
542.707	16.25
543.134	17.03
543.561	17.17
543.988	17.74
544.415	17.34
544.842	16.92
545.269	16.58
545.696	17.2
546.123	16.71
546.549	17.38
546.976	17.28
547.403	17.81
547.829	17.08
548.256	16.33
548.682	16.25
549.108	16.94
549.535	17.36
549.961	17.68
550.387	17.39
550.813	17.93
551.24	17.82
551.666	17.61
552.092	17.38
552.518	16.82
552.943	17.46
553.369	17.32
553.795	18.11
554.221	18.38
554.646	18.04
555.072	18.45
555.498	16.95
555.923	16.28
556.349	16.1
556.774	15.84
557.199	16.17
557.625	15.66
558.05	16.2
558.475	15.19
558.9	14.75
559.325	15.52
559.75	15.75
560.175	16.16
560.6	16.1
561.025	15.63
561.449	15.81
561.874	15.92
562.299	16.02
562.723	14.99
563.148	14.87
563.572	14.44
563.997	13.55
564.421	12.47
564.846	12.14
565.27	12.16
565.694	12.62
566.118	12.35
566.542	13.08
566.966	13.28
567.39	13.65
567.814	13.19
568.238	13.84
568.662	13.81
569.086	13.87
569.509	13.47
569.933	14.76
570.357	14.51
570.78	14.92
571.204	15.11
571.627	14.42
572.05	14.67
572.474	16.12
572.897	16.3
573.32	16.66
573.743	16.47
574.166	17.06
574.589	15.7
575.012	15.5
575.435	14.83
575.858	14.47
576.281	14.84
576.704	14.35
577.126	12.99
577.549	12.29
577.972	11.48
578.394	11.58
578.817	12.93
579.239	12.93
579.661	13.13
580.084	14.43
580.506	14.43
580.928	14.29
581.35	14.49
581.772	14.79
582.194	14.88
582.616	14.77
583.038	14.43
583.46	12.95
583.882	12.79
584.303	11.8
584.725	10.74
585.147	13.53
585.568	13.59
585.99	13.92
586.411	14.26
586.833	15.14
587.254	15.27
587.675	15.28
588.096	15.39
588.518	15.48
588.939	16.2
589.36	16.27
589.781	12.21
590.202	14.07
590.623	13.51
591.043	12.79
591.464	12.16
591.885	12.73
592.305	12.43
592.726	12.17
593.147	11.96
593.567	12.07
593.987	11.91
594.408	11.75
594.828	9.61
595.248	10.59
595.669	11.49
596.089	11.81
596.509	11.25
596.929	11.11
597.349	11.69
597.769	12.01
598.189	11.9
598.608	12.42
599.028	13.12
599.448	12.79
599.867	11.52
600.287	10.69
600.706	10.57
601.126	10.99
601.545	12.15
601.965	11.8
602.384	11.25
602.803	10.99
603.222	11.01
603.641	10.76
604.061	11.22
604.48	11.53
604.898	11.28
605.317	10.91
605.736	10.2
606.155	10.14
606.574	9.76
606.992	9.8
607.411	10.23
607.829	8.91
608.248	8.47
608.666	7.97
609.085	8.03
609.503	8.38
609.921	8.8
610.339	9.26
610.758	8.6
611.176	8.81
611.594	9.44
612.012	9.15
612.43	10.12
612.847	10.42
613.265	11.18
613.683	11.3
614.101	11.17
614.518	10.63
614.936	10.5
615.353	11.09
615.771	11.36
616.188	11.36
616.606	11.54
617.023	11.73
617.44	11.32
617.857	10.12
618.274	9.56
618.691	9.74
619.108	9.4
619.525	8.7
619.942	8.13
620.359	8.04
620.776	8.42
621.192	8.85
621.609	9.06
622.026	9.75
622.442	10.08
622.859	9.84
623.275	9.26
623.691	9.83
624.108	10.7
624.524	11.13
624.94	10.84
625.356	10.15
625.772	9.52
626.188	9.11
626.604	8.65
627.02	8.7
627.436	9.4
627.852	10.86
628.268	10.95
628.683	10.18
629.099	9.73
629.514	9.28
629.93	9.21
630.345	9.51
630.761	9.29
631.176	9.1
631.591	11.08
632.007	11.49
632.422	9.7
632.837	9.22
633.252	10.76
633.667	10.45
634.082	10.56
634.497	10.86
634.911	11.77
635.326	12.01
635.741	12.75
636.155	11.42
636.57	11.76
636.984	12.34
637.399	12.92
637.813	11.82
638.228	11.93
638.642	11.78
639.056	11.35
639.47	10
639.884	9.52
640.298	8.75
640.712	9.19
641.126	8.45
641.54	8.67
641.954	7.17
642.368	7.59
642.781	9.67
643.195	9.88
643.609	10.03
644.022	10.2
644.436	9.93
644.849	9.65
645.262	8.89
645.676	8.02
646.089	7.26
646.502	8.34
646.915	7.54
647.328	5.86
647.741	5.97
648.154	6.31
648.567	7.63
648.98	8.36
649.393	8.66
649.805	9.43
650.218	9.62
650.631	10.13
651.043	11.1
651.456	12.01
651.868	11.97
652.28	11.91
652.693	11.23
653.105	10.04
653.517	8.93
653.929	9.56
654.341	9.19
654.753	10.18
655.165	9.8
655.577	8.81
655.989	8.7
656.401	7.25
656.813	7.82
657.224	7.65
657.636	7.48
658.047	9.07
658.459	8.21
658.87	6.89
659.282	6.31
659.693	7.56
660.104	7.84
660.515	7.19
660.926	7.63
661.338	7.13
661.749	6.96
662.159	7.56
662.57	5.82
662.981	5.97
663.392	6.75
663.803	6.71
664.213	5.97
664.624	5.93
665.035	5.55
665.445	6.21
665.855	7.21
666.266	8.08
666.676	8.29
667.086	8.98
667.497	9.76
667.907	9.87
668.317	9.6
668.727	12.38
669.137	11.71
669.547	12.16
669.956	11.01
670.366	10.93
670.776	10.88
671.186	10.01
671.595	10.24
672.005	8.8
672.414	8.43
672.824	9.03
673.233	5.43
673.642	5.48
674.052	5.27
674.461	6.89
674.87	6.57
675.279	7.74
675.688	7.22
676.097	8.12
676.506	8.98
676.915	8.69
677.323	8.86
677.732	10.34
678.141	9.63
678.549	9.88
678.958	9.14
679.366	7.66
679.775	6.29
680.183	7.84
680.592	7.24
681	7.11
681.408	7.53
681.816	7.49
682.224	6.69
682.632	8.63
683.04	8.69
683.448	8.88
683.856	11.05
684.264	10.74
684.671	9.31
685.079	9.26
685.487	9.74
685.894	9.68
686.302	9.24
686.709	9.08
687.116	7.98
687.524	9.02
687.931	10.21
688.338	9.8
688.745	10.44
689.152	11.8
689.559	11.67
689.966	12.94
690.373	13.81
690.78	14.83
691.187	15.59
691.593	16.83
692	16.38
692.407	16.15
692.813	18.52
693.22	18.79
693.626	17.91
694.032	18.34
694.439	18.48
694.845	18.18
695.251	17.86
695.657	18.44
696.063	16.91
696.469	16.87
696.875	16.77
697.281	14.38
697.687	14.31
698.093	14.89
698.498	16.23
698.904	15.39
699.31	16.44
699.715	17.77
700.12	17.76
700.526	18.86
700.931	18.83
701.337	19.88
701.742	20.94
702.147	20.82
702.552	21.12
702.957	20.44
703.362	21.02
703.767	20.43
704.172	19.7
704.577	19.44
704.981	18.47
705.386	19.39
705.791	19.13
706.195	18.61
706.6	19.99
707.004	18.83
707.408	18.2
707.813	19.48
708.217	20.49
708.621	19.97
709.025	19.66
709.43	22.06
709.834	21.63
710.237	20.81
710.641	21.21
711.045	20.62
711.449	22.77
711.853	25.57
712.256	23.67
712.66	22.28
713.064	23.66
713.467	25.21
713.87	24.37
714.274	25.05
714.677	26.04
715.08	26.8
715.484	27.73
715.887	29.62
716.29	27.38
716.693	29.43
717.096	31.43
717.499	31.87
717.901	30.91
718.304	31.59
718.707	31.42
719.109	31.14
719.512	30
719.915	31.32
720.317	30.09
720.719	29.12
721.122	28.38
721.524	28.59
721.926	30.85
722.328	31.28
722.731	30.55
723.133	30.87
723.535	30.44
723.937	31.14
724.338	32.38
724.74	32.43
725.142	72.15
725.544	75.55
725.945	83.87
726.347	81.11
726.748	81.4
727.15	83.3
727.551	85.66
727.952	85.38
728.354	84.04
728.755	81.87
729.156	79.92
729.557	41.83
729.958	38.19
730.359	30.38
730.76	30.24
731.161	29.86
731.562	27.87
731.962	24.1
732.363	24.36
732.763	26.05
733.164	24.54
733.564	25.86
733.965	27.57
734.365	28.69
734.766	28.94
735.166	28.14
735.566	28.55
735.966	29.15
736.366	30.44
736.766	30.83
737.166	28.69
737.566	28.89
737.966	27.56
738.365	26.74
738.765	26.61
739.165	25.93
739.564	26.2
739.964	25.43
740.363	24.84
740.763	23.89
741.162	25.46
741.561	26.04
741.96	27.51
742.36	27.81
742.759	27.34
743.158	26.07
743.557	26.11
743.955	25.61
744.354	25.09
744.753	24.6
745.152	26.78
745.55	24.71
745.949	24.11
746.348	23.52
746.746	23.61
747.144	26.69
747.543	26.46
747.941	25.88
748.339	26
748.737	26.75
749.136	28.27
749.534	26.4
749.932	28.34
750.33	28.55
750.727	28.59
751.125	28.97
751.523	26.72
751.921	29.25
752.318	30.02
752.716	31.51
753.113	31.73
753.511	30.8
753.908	31.5
754.305	33.95
754.703	34.42
755.1	34.73
755.497	35.35
755.894	35.15
756.291	33.99
756.688	34.28
757.085	33.34
757.482	35.79
757.878	39.75
758.275	41.09
758.672	34.98
759.068	34.9
759.465	34.61
759.861	34.44
760.258	36.23
760.654	36.75
761.05	38.68
761.447	36.29
761.843	31.39
762.239	28.31
762.635	27.2
763.031	26.15
763.427	25.97
763.822	28.47
764.218	27.8
764.614	26.14
765.01	24.14
765.405	21.92
765.801	24.02
766.196	24.13
766.592	23.46
766.987	24.53
767.382	25.33
767.778	25.78
768.173	23.94
768.568	23.96
768.963	25.25
769.358	26.58
769.753	27.93
770.148	27.84
770.542	27.13
770.937	27.34
771.332	27.35
771.726	26.86
772.121	29.74
772.515	30.81
772.91	30.75
773.304	30.52
773.699	29.65
774.093	29.43
774.487	30.07
774.881	30.59
775.275	29.84
775.669	27.99
776.063	29.15
776.457	27.81
776.851	27.79
777.245	27.75
777.638	27.47
778.032	25.79
778.425	27.4
778.819	29.17
779.212	30.9
779.606	33.17
779.999	33.18
780.392	33.46
780.786	31.71
781.179	32.04
781.572	32.75
781.965	34.42
782.358	36.51
782.751	34.68
783.143	32.36
783.536	32.74
783.929	29.92
784.322	32.3
784.714	32.34
785.107	33.76
785.499	33.71
785.891	34.32
786.284	33.35
786.676	33.04
787.068	34.88
787.46	35.22
787.852	33.59
788.245	34.66
788.636	31.98
789.028	31.09
789.42	32
789.812	32.18
790.204	32.92
790.595	34.84
790.987	35.91
791.378	35.51
791.77	35.82
792.161	35.55
792.553	35.79
792.944	36.96
793.335	36.67
793.726	35.3
794.117	36.21
794.508	32.81
794.899	29.33
795.29	28.32
795.681	27.86
796.072	27.04
796.463	41.85
796.853	46.44
797.244	47.23
797.634	49.89
798.025	50.97
798.415	50.32
798.806	53.61
799.196	56.68
799.586	59.39
799.976	60.38
800.366	61.06
800.756	43.45
801.146	38.1
801.536	37.7
801.926	34.47
802.316	32.43
802.706	31.47
803.095	30.28
803.485	29.86
803.874	26.01
804.264	25.77
804.653	25.36
805.043	30.21
805.432	32.17
805.821	35.06
806.21	36.21
806.599	37.56
806.988	37.81
807.377	35.66
807.766	33.95
808.155	35.65
808.544	33.58
808.933	33.64
809.321	35
809.71	33.88
810.098	33.54
810.487	32.91
810.875	31.81
811.264	33.16
811.652	42.9
812.04	43.18
812.428	47.08
812.816	46.84
813.204	50.5
813.592	46.13
813.98	47.39
814.368	49.44
814.756	51.75
815.144	54.62
815.531	56.26
815.919	47.6
816.306	47.04
816.694	46.2
817.081	49.85
817.469	51.2
817.856	50.82
818.243	47.83
818.63	41.54
819.017	43.21
819.404	42.04
819.791	40.38
820.178	35.24
820.565	39.85
820.952	46.49
821.339	47.07
821.725	47.09
822.112	46.91
822.498	50.51
822.885	52.79
823.271	49.55
823.657	48.25
824.044	50.6
824.43	55.03
824.816	62.03
825.202	58.75
825.588	56.64
825.974	56.15
826.36	59.93
826.746	58.62
827.132	59.88
827.517	64.12
827.903	63.73
828.289	66.58
828.674	66.44
829.06	60.48
829.445	55.89
829.83	52.72
830.216	52.7
830.601	55.93
830.986	60.81
831.371	58.51
831.756	60.74
832.141	66.86
832.526	66.16
832.911	68.09
833.295	66.47
833.68	67.57
834.065	73.04
834.449	72.24
834.834	70.35
835.218	68.08
835.603	70.17
835.987	65.19
836.371	61.7
836.755	59.68
837.139	55.58
837.524	51.8
837.908	47.7
838.291	49.87
838.675	46
839.059	45.67
839.443	40.91
839.827	40.53
840.21	39.16
840.594	39.83
840.977	38.54
841.361	39.08
841.744	40.39
842.127	42.9
842.511	37.92
842.894	36.97
843.277	35.64
843.66	39.97
844.043	38.41
844.426	43.57
844.809	38.9
845.191	39.63
845.574	42.31
845.957	45.08
846.339	47.71
846.722	50.78
847.104	50.91
847.487	48.77
847.869	47.64
848.252	50.26
848.634	49.06
849.016	49.66
849.398	48.63
849.78	47.61
850.162	46.14
850.544	41.92
850.926	37.53
851.307	38.51
851.689	39.82
852.071	35.91
852.452	35.91
852.834	32.42
853.215	39.69
853.597	39.51
853.978	43.62
854.359	45.34
854.741	48.32
855.122	49.21
855.503	47.24
855.884	44.16
856.265	45.02
856.646	39.23
857.026	44.17
857.407	41.24
857.788	39.75
858.169	33.81
858.549	38.25
858.93	38.68
859.31	39.02
859.69	45.74
860.071	50.63
860.451	49.67
860.831	52
861.211	47.49
861.591	43.19
861.971	41.74
862.351	45.35
862.731	36.6
863.111	40.68
863.491	42.23
863.87	37.8
864.25	33.81
864.629	44.03
865.009	43.47
865.388	50.21
865.768	54.9
866.147	61.7
866.526	62.56
866.905	64.17
867.284	57.01
867.663	50.63
868.042	48.09
868.421	50.07
868.8	43.65
869.179	52.59
869.558	46.52
869.936	45.88
870.315	43.86
870.693	45.55
871.072	49.18
871.45	46.93
871.828	52.4
872.207	54.97
872.585	55.58
872.963	52.38
873.341	49.73
873.719	55.77
874.097	56.52
874.475	55.46
874.853	50.87
875.23	49.72
875.608	52.22
875.986	55.83
876.363	56.3
876.741	67.24
877.118	79.47
877.495	81.11
877.873	78.65
878.25	79.34
878.627	77.1
879.004	75.68
879.381	74.1
879.758	77.64
880.135	75.92
880.512	75.51
880.889	59.41
881.265	53.19
881.642	44.77
882.019	44.57
882.395	51.08
882.772	56.1
883.148	58.79
883.524	60.3
883.901	61.55
884.277	58.92
884.653	58.68
885.029	69.35
885.405	82.61
885.781	86.29
886.157	82.52
886.532	76.33
886.908	72.38
887.284	68.48
887.659	67.4
888.035	59.38
888.411	54.99
888.786	55.71
889.161	52.8
889.537	38.61
889.912	38.46
890.287	37.85
890.662	37.03
891.037	33.3
891.412	36.19
891.787	32.15
892.162	37.29
892.536	42.03
892.911	44.49
893.286	39.3
893.66	41.24
894.035	43.86
894.409	41.61
894.784	44.55
895.158	49.62
895.532	51.43
895.906	55.13
896.281	57.86
896.655	59.97
897.029	62.1
897.402	70.77
897.776	71.25
898.15	72.52
898.524	75.33
898.898	74.47
899.271	85.15
899.645	89.14
900.018	87.34
900.392	90.88
900.765	79.88
901.138	79.06
901.511	74.79
901.884	84.96
902.258	82.41
902.631	87.34
903.003	95.05
903.376	84.17
903.749	88.22
904.122	87.77
904.495	79.19
904.867	85.13
905.24	78.27
905.612	75.28
905.985	54.52
906.357	48.55
906.729	51.85
907.102	50.57
907.474	49.16
907.846	56.96
908.218	65.07
908.59	77.24
908.962	78.44
909.334	79.3
909.705	81.56
910.077	91.12
910.449	96.86
910.82	109.8
911.192	117.15
911.563	123.8
911.935	116.33
912.306	112.45
912.677	106.84
913.048	111.05
913.419	126.13
913.79	118.62
914.161	126.62
914.532	129.38
914.903	96.41
915.274	91.79
915.645	92.05
916.015	79.24
916.386	72.49
916.756	72.53
917.127	62.8
917.497	65.22
917.868	76.79
918.238	65.6
918.608	57.95
918.978	69.45
919.348	70.64
919.718	81.7
920.088	82.9
920.458	92.61
920.828	89.35
921.198	95.41
921.567	82.36
921.937	64.18
922.306	61.41
922.676	60.22
923.045	63.91
923.415	72.58
923.784	62.26
924.153	79.37
924.522	83.29
924.891	81.57
925.26	87.73
925.629	84.45
925.998	95.87
926.367	97.73
926.736	112.84
927.104	119.38
927.473	113.48
927.842	126.95
928.21	109.14
928.578	92.38
928.947	95.84
929.315	94.84
929.683	126.06
930.051	129.76
930.42	161.85
930.788	123.02
931.156	113.74
931.523	131.4
931.891	125.48
932.259	126.54
932.627	176.5
932.994	231.71
933.362	233.59
933.729	207.28
934.097	199.42
934.464	164.27
934.831	191.74
935.199	204.36
935.566	199.51
935.933	178.67
936.3	195.84
936.667	163.15
937.034	215.97
937.401	185.18
937.767	172.71
938.134	149.95
938.501	188.7
938.867	205.55
939.234	301.66
939.6	203.16
939.967	300.88
940.333	228.7
940.699	163.74
941.065	57.75
941.431	113.75
941.798	131.53
942.163	255.46
942.529	182.41
942.895	157.09
943.261	118.77
943.627	172.79
943.992	143.97
944.358	130.8
944.723	169.49
945.089	181.45
945.454	154.51
945.82	145.84
946.185	112.15
946.55	122.57
946.915	116.42
947.28	115.24
947.645	96.14
948.01	111.23
948.375	135
948.74	113.9
949.104	112.78
949.469	86.81
949.834	135.54
950.198	212.2
950.562	186.88
950.927	158.43
951.291	224.59
951.655	207.24
952.02	155.59
952.384	128.41
952.748	144.15
953.112	169.84
953.476	168.29
953.839	151.8
954.203	155.76
954.567	192.05
954.931	271.44
955.294	242.78
955.658	233.78
956.021	416
956.385	601.7
956.748	873.85
957.111	1096.22
957.474	1223.64
957.837	1255.51
958.2	717.12
958.563	226.32
958.926	212.43
959.289	287.02
959.652	344.85
960.015	235.28
960.377	354.5
960.74	358.7
961.102	517.34
961.465	671.31
961.827	702.86
962.189	1348.6
962.552	966.2
962.914	727.39
963.276	489.34
963.638	375.32
964	375.93
964.362	268.66
964.724	230.78
965.085	194.17
965.447	163.51
965.809	117.24
966.17	115.64
966.532	95.05
966.893	88.82
967.255	56.22
967.616	76.1
967.977	63.55
968.338	58.83
968.699	72.4
969.061	72.96
969.421	71.49
969.782	75.08
970.143	73.53
970.504	115.14
970.865	130.87
971.225	157.4
971.586	152.89
971.946	180.78
972.307	153.72
972.667	165.81
973.027	159.62
973.388	176.17
973.748	146.12
974.108	153.77
974.468	128.84
974.828	146.96
975.188	110.62
975.548	97.79
975.907	115.94
976.267	122.08
976.627	122.44
976.986	138.36
977.346	120.41
977.705	109.79
978.064	117.25
978.424	109.25
978.783	88.81
979.142	95.3
979.501	95.77
979.86	91.28
980.219	89.87
980.578	94.71
980.937	69.73
981.296	78.88
981.654	83.95
982.013	67.95
982.371	101.78
982.73	93.74
983.088	72.42
983.447	73.51
983.805	199.12
984.163	485.59
984.521	665.79
984.879	890.02
985.237	-1457.9
985.595	1565.54
985.953	375.52
986.311	155.18
986.669	124.81
987.026	143.43
987.384	157.1
987.741	68.17
988.099	118.65
988.456	114.2
988.814	132.4
989.171	121.06
989.528	102.31
989.885	111.66
990.242	125.65
990.599	116.03
990.956	87.34
991.313	73.44
991.67	80.34
992.027	95.39
992.383	80.33
992.74	73.54
993.096	80.76
993.453	84.29
993.809	80.28
994.165	74.73
994.522	127.03
994.878	151.89
995.234	181.11
995.59	164.98
995.946	113.6
996.302	128.42
996.658	153.75
997.013	139.03
997.369	167.15
997.725	271.79
998.08	214.34
998.436	180.21
998.791	180.08
999.147	205.33
999.502	270.35
999.857	190.51
1000.212	287.57
1000.567	347.3
1000.922	249.5
1001.277	188.5
1001.632	137.44
1001.987	109.4
1002.342	33.38
1002.696	57.97
1003.051	74.26
1003.406	97.51
1003.76	95.5
1004.114	109
1004.469	107.18
1004.823	91.83
1005.177	93.38
1005.531	81.28
1005.885	89.87
1006.239	141.75
1006.593	166.28
1006.947	200.75
1007.301	129.14
1007.655	149.09
1008.008	110.85
1008.362	128.3
1008.715	191.71
1009.069	177.06
1009.422	309.81
1009.776	609.68
1010.129	315.69
1010.482	253.58
1010.835	174.94
1011.188	396.16
1011.541	336.45
1011.894	-1795.42
1012.247	5524.2
1012.6	253.03
1012.952	178.19
1013.305	38.35
1013.657	53.79
1014.01	80.62
1014.362	64.44
1014.715	125.89
1015.067	129.59
1015.419	119.6
1015.771	118.37
1016.123	123.76
1016.475	152.29
1016.827	157.04
1017.179	188.93
1017.531	176.02
1017.883	181.46
1018.234	221.61
1018.586	248.05
1018.938	280.8
1019.289	404.99
1019.64	434.49
1019.992	352.81
1020.343	273.54
1020.694	262.84
1021.045	225.13
1021.396	272.56
1021.747	314.99
1022.098	317.59
1022.449	238.26
1022.8	207.71
1023.151	172.18
1023.501	172.88
1023.852	190.34
1024.202	227.68
1024.553	220.48
1024.903	252.69
1025.253	241.15
1025.604	232.71
1025.954	281.17
1026.304	323.82
1026.654	366.05
1027.004	493.37
1027.354	722.8
1027.703	719.23
1028.053	776.03
1028.403	1364.13
1028.753	1443.83
1029.102	1187.8
1029.452	1805.36
1029.801	29.6
1030.15	-4.59
1030.499	-42.34
897.758	1354.25
901.051	1311.87
904.343	1336.15
907.636	1335.21
910.928	1372.85
914.22	1327.59
917.511	1333.05
920.803	1359.91
924.094	1353.21
927.384	1359.54
930.675	1335.46
933.965	1318.05
937.255	1336.12
940.544	1318.15
943.834	1320.38
947.123	1285.21
950.411	1335.58
953.7	1326.92
956.988	1318.5
960.276	1275.83
963.563	1300.06
966.851	1306.52
970.138	1328.27
973.424	1329.96
976.711	1298.71
979.997	1326.27
983.283	1349.02
986.568	1311.47
989.853	1301.33
993.138	1314.86
996.423	1371.26
999.708	1347.05
1002.992	1363.69
1006.275	1310.44
1009.559	1313.62
1012.842	1371.49
1016.125	1343.03
1019.408	1330.54
1022.69	1360.1
1025.972	1376.17
1029.254	1365.27
1032.536	1343.25
1035.817	1347.95
1039.098	1328.36
1042.379	1356.36
1045.659	1369.35
1048.939	1337.13
1052.219	1341.08
1055.498	1336.02
1058.778	1329.26
1062.057	1317.47
1065.335	1332.61
1068.614	1332.86
1071.892	1326.84
1075.17	1360.89
1078.447	1362.72
1081.724	1356.74
1085.001	1370.52
1088.278	1353.45
1091.554	1356.67
1094.83	1357.17
1098.106	1376.7
1101.382	1391.56
1104.657	1392.49
1107.932	1392.52
1111.206	1379.12
1114.481	1349.97
1117.755	1353.57
1121.029	1347.59
1124.302	1381.22
1127.575	1363.94
1130.848	1362.69
1134.121	1345.82
1137.393	1319.41
1140.665	1354.77
1143.937	1340.7
1147.208	1312.66
1150.48	1344.98
1153.75	1337.99
1157.021	1341.4
1160.291	1328.82
1163.561	1356.32
1166.831	1335.91
1170.101	1348.11
1173.37	1327.5
1176.639	1304.59
1179.907	1332.69
1183.176	1341.04
1186.444	1346.29
1189.711	1358.1
1192.979	1373.37
1196.246	1347.87
1199.513	1355.5
1202.78	1358.02
1206.046	1362.97
1209.312	1380.18
1212.578	1383.99
1215.843	1361.16
1219.108	1351.17
1222.373	1360.12
1225.638	1346
1228.902	1336.59
1232.166	1318.64
1235.43	1310.97
1238.693	1329.28
1241.956	1325.23
1245.219	1353.54
1248.482	1347.12
1251.744	1349.33
1255.006	1410.86
1258.268	1382.97
1261.529	1362.74
1264.79	1362.8
1268.051	1414.7
1271.312	1423.26
1274.572	1401.1
1277.832	1395.88
1281.092	1382.25
1284.351	1378.52
1287.61	1371.48
1290.869	1338.22
1294.128	1337.66
1297.386	1359.39
1300.644	1356.37
1303.902	1360.58
1307.159	1284.37
1310.416	1313.65
1313.673	1327.63
1316.93	1330.22
1320.186	1344.62
1323.442	1361.93
1326.697	1358.44
1329.953	1346.19
1333.208	1366.17
1336.463	1350.68
1339.717	1333.14
1342.972	1396.42
1346.226	1382.34
1349.479	1361.09
1352.733	1346.32
1355.986	1357.16
1359.238	1344.28
1362.491	1348.53
1365.743	1346.63
1368.995	1344.48
1372.247	1356.62
1375.498	1362.53
1378.749	1383.51
1382	1362.13
1385.251	1374.18
1388.501	1354.8
1391.751	1348.89
1395	1337.29
1398.25	1351.25
1401.499	1367.26
1404.748	1340.7
1407.996	1333.27
1411.244	1333.27
1414.492	1325.11
1417.74	1312.3
1420.987	1323.99
1424.234	1351.9
1427.481	1333.28
1430.728	1362.14
1433.974	1352.31
1437.22	1351.33
1440.465	1347.77
1443.711	1347.42
1446.956	1355.95
1450.201	1340.9
1453.445	1369.65
1456.689	1356.39
1459.933	1366.2
1463.177	1387.46
1466.42	1374.64
1469.663	1362.25
1472.906	1369.56
1476.148	1397.81
1479.391	1372.6
1482.633	1363.61
1485.874	1376.95
1489.115	1379.55
1492.356	1371.25
1495.597	1354.8
1498.838	1350.45
1502.078	1344.32
1505.318	1332.7
1508.557	1347.73
1511.797	1343.82
1515.036	1373.6
1518.274	1352.1
1521.513	1320.33
1524.751	1324.58
1527.989	1336.67
1531.227	1348.15
1534.464	1351.46
1537.701	1344.58
1540.938	1348.93
1544.174	1320.05
1547.41	1311.18
1550.646	1333.73
1553.882	1355.81
1557.117	1392.39
1560.352	1394.5
1563.587	1370.96
1566.821	1355.68
1570.055	1366.87
1573.289	1349.76
1576.523	1378.78
1579.756	1387.87
1582.989	1401.2
1586.222	1374.03
1589.454	1397.86
1592.686	1387.41
1595.918	1401.86
1599.15	1400.25
1602.381	1426.29
1605.612	1416.7
1608.843	1467.44
1612.073	1423.44
1615.303	1418.99
1618.533	1415.89
1621.762	1414.86
1624.992	1397.88
1628.221	1395.66
1631.449	1389.84
1634.678	1404.91
1637.906	1382.97
1641.134	1393.34
1644.361	1376.4
1647.588	1372.7
1650.815	1385.08
1654.042	1364.62
1657.269	1379.61
1660.495	1367.22
1663.72	1363.14
1666.946	1343.91
1670.171	1333.43
1673.396	1316.98
1676.621	1310.84
1679.845	1307.61
1683.069	1309.06
1686.293	1323.73
1689.517	1318.81
1692.74	1296.88
1695.963	1305.91
1699.185	1325.21
1702.408	1312.39
1705.63	1326.8
1708.852	1336.41
1712.073	1319.27
1715.294	1331.66
1718.515	1358.93
1721.736	1334.61
1724.956	1328.33
1728.176	1341.27
1731.396	1352.03
1734.616	1348.53
1737.835	1373.56
1741.054	1355.09
1744.272	1355.26
1747.491	1376.03
1750.709	1384.8
1753.927	1359.52
1757.144	1374.59
1760.361	1404.25
1763.578	1386.88
1766.795	1360.74
1770.011	1353.05
1773.227	1365.37
1776.443	1390.34
1779.658	1408.91
1782.874	1380.51
1786.089	1377.31
1789.303	1376.9
1792.518	1378.87
1795.732	1371.91
1798.945	1378.92
1802.159	1407.41
1805.372	1374.63
1808.585	1368.69
1811.797	1367.06
1815.01	1386.29
1818.222	1401.73
1821.434	1380.8
1824.645	1404.02
1827.856	1405.32
1831.067	1419.53
1834.278	1392.14
1837.488	1378.25
1840.698	1447.05
1843.908	1421.62
1847.117	1405.54
1850.326	1362.82
1853.535	1398.57
1856.744	1418.11
1859.952	1375.83
1863.16	1378.32
1866.368	1394.1
1869.575	1456.31
1872.782	1393.46
1875.989	1358.79
1879.196	1387.98
1882.402	1384.06
1885.608	1401.53
1888.814	1368.04
1892.019	1319.58
1895.224	1352.52
1898.429	1337.56
1901.634	1326.51
1904.838	1314.05
1908.042	1347.68
1911.246	1358.54
1914.449	1336.84
1917.652	1327.23
1920.855	1317.45
1924.058	1329.98
1927.26	1360.59
1930.462	1371.61
1933.664	1392.42
1936.865	1362.53
1940.066	1369.35
1943.267	1339.69
1946.467	1345.38
1949.668	1350.63
1952.868	1394.21
1956.067	1392.78
1959.267	1358.71
1962.466	1372.34
1965.665	1359.72
1968.863	1357.8
1972.061	1357.69
1975.259	1354.92
1978.457	1396.98
1981.654	1376.79
1984.852	1378.6
1988.048	1354.44
1991.245	1344.52
1994.441	1394.83
1997.637	1365.49
2000.833	1354.96
2004.028	1374.14
2007.223	1412.79
2010.418	1402.92
2013.613	1376.48
2016.807	1370.94
2020.001	1368.6
2023.194	1378.21
2026.388	1367.29
2029.581	1337.82
2032.774	1373.91
2035.966	1382.83
2039.158	1351.14
2042.35	1361.39
2045.542	1319.71
2048.733	1365.25
2051.924	1357.41
2055.115	1365.44
2058.306	1349.95
2061.496	1379.6
2064.686	1406.83
2067.875	1350.13
2071.065	1350.37
2074.254	1359.59
2077.442	1334.72
2080.631	1382.93
2083.819	1346.67
2087.007	1338.87
2090.195	1332.71
2093.382	1334.27
2096.569	1330.62
2099.756	1308.57
2102.942	1343.08
2106.128	1347
2109.314	1344.23
2112.5	1336.15
2115.685	1317.02
2118.87	1320.94
2122.055	1362.9
2125.239	1348.4
2128.424	1344.9
2131.608	1374.44
2134.791	1362.95
2137.974	1383.24
2141.157	1378.86
2144.34	1362.4
2147.523	1352.69
2150.705	1371.99
2153.887	1350.23
2157.068	1334.97
2160.25	1321.63
2163.431	1335.71
2166.611	1317.97
2169.792	1334
2172.972	1278.46
2176.152	1312.77
2179.331	1324.91
2182.511	1325.02
2185.69	1332.7
2188.868	1335.83
2192.047	1359.24
2195.225	1377.21
2198.403	1344.09
2201.58	1334.56
2204.758	1324.52
2207.935	1368.8
2211.111	1318.64
2214.288	1312.63
2217.464	1332.04
2220.64	1311.52
2223.815	1339.12
2226.991	1297.94
2230.166	1303.41
2233.34	1329.57
2236.515	1340.37
2239.689	1379.88
2242.863	1350.74
2246.036	1379.03
2249.209	1371.78
2252.382	1385.57
2255.555	1387.55
2258.727	1362.73
2261.9	1377.78
2265.071	1374.6
2268.243	1374.44
2271.414	1344.47
2274.585	1331.93
2277.756	1367.98
2280.926	1347.53
2284.096	1362.89
2287.266	1322.74
2290.436	1354.22
2293.605	1361.56
2296.774	1382.92
2299.942	1387.34
2303.111	1396.94
2306.279	1428.64
2309.447	1420.74
2312.614	1406.63
2315.781	1415.02
2318.948	1404.2
2322.115	1426.68
2325.281	1362.11
2328.447	1368.07
2331.613	1349.12
2334.779	1345.78
2337.944	1342.42
2341.109	1342.54
2344.274	1338.08
2347.438	1316.89
2350.602	1331.11
2353.766	1334.9
2356.929	1330.47
2360.092	1356.48
2363.255	1334.82
2366.418	1322.38
2369.58	1343.68
2372.742	1324.54
2375.904	1311.37
2379.066	1306.31
2382.227	1321.85
2385.388	1297.15
2388.548	1270.82
2391.709	1289.18
2394.869	1285.68
2398.029	1317.34
2401.188	1307.64
2404.347	1296.45
2407.506	1291.53
2410.665	1327.06
2413.823	1315.32
2416.981	1305.78
2420.139	1316.71
2423.296	1338.18
2426.453	1324.57
2429.61	1335.53
2432.767	1321.75
2435.923	1343.32
2439.079	1314.76
2442.235	1337.33
2445.391	1301.44
2448.546	1325.59
2451.701	1346.26
2454.855	1345.01
2458.009	1360.49
2461.163	1351.42
2464.317	1335.26
2467.471	1348.97
2470.624	1368.42
2473.777	1361.83
2476.929	1369.62
2480.082	1382.41
2483.234	1373.06
2486.385	1337.16
2489.537	1332.66
2492.688	1329.3
2495.839	1342.31
2498.989	1349.31
2502.14	1341.5
2505.29	1336.34
2508.439	1348.33
2511.589	1317.3
2514.738	1316.06
2517.887	1325.39
2521.035	1370.43
2524.183	1344.27
2527.331	1337.52
2530.479	1332.91
2533.627	1334.98
