Data from N_1_DEC_VA_2N_Splice17_11-18-46-719.txt Node
Date: Sat Mar 14 11:18:46 EDT 2020
User: sa697716
Spectrometer: FLMS03696
Trigger mode: 0
Integration Time (sec): 3.180400E-1
Scans to average: 20
Electric dark correction enabled: true
Nonlinearity correction enabled: true
Boxcar width: 5
XAxis mode: Wavelengths
Number of Pixels in Spectrum: 2048
>>>>>Begin Spectral Data<<<<<
187.83	-185331.98
188.298	1325.75
188.766	676.81
189.233	638.28
189.701	854.34
190.169	1155.43
190.636	436.92
191.104	435.32
191.571	72.91
192.039	26.33
192.506	60.62
192.974	334.81
193.441	-483.61
193.908	-220.56
194.375	-45.27
194.842	24.58
195.31	9.81
195.777	99.74
196.244	224.34
196.711	151.5
197.177	150.71
197.644	174.25
198.111	276.23
198.578	338
199.045	270.92
199.511	393.46
199.978	383.4
200.445	376.17
200.911	382.53
201.378	374.69
201.844	390.29
202.31	661.65
202.777	632.3
203.243	354.62
203.709	335.26
204.176	388.01
204.642	355.11
205.108	345.28
205.574	266.01
206.04	221.73
206.506	213.72
206.972	172.53
207.438	155.68
207.903	191.19
208.369	185.9
208.835	198.94
209.301	202.25
209.766	184.09
210.232	171.89
210.697	184.96
211.163	231.51
211.628	323.91
212.094	306.64
212.559	448.81
213.024	288.5
213.49	328.71
213.955	311
214.42	270.92
214.885	264.12
215.35	263.56
215.815	327.42
216.28	345.56
216.745	284.55
217.21	316.6
217.675	247.89
218.14	257.78
218.604	261.73
219.069	274.84
219.534	293.92
219.998	298.29
220.463	322.61
220.927	273.46
221.392	235.51
221.856	221.25
222.32	196.85
222.785	235.84
223.249	238.11
223.713	247.05
224.177	226.04
224.642	217.84
225.106	236.67
225.57	227.35
226.034	241.63
226.497	333.79
226.961	336.33
227.425	417.19
227.889	438.6
228.353	461.19
228.816	849.43
229.28	815.48
229.744	728.47
230.207	492.5
230.671	484.62
231.134	661.67
231.597	811.88
232.061	694.44
232.524	581.32
232.987	376.44
233.45	345.9
233.914	322.55
234.377	284.75
234.84	235.61
235.303	242.37
235.766	274.15
236.229	293.45
236.691	170.79
237.154	193.11
237.617	172.27
238.08	167.78
238.542	194.44
239.005	154.52
239.468	173.23
239.93	161.43
240.393	159.57
240.855	138.91
241.317	126.73
241.78	145.56
242.242	159.62
242.704	199.52
243.166	193.45
243.629	194.52
244.091	213.05
244.553	231.3
245.015	275.77
245.477	313.99
245.939	437.7
246.4	481.57
246.862	433.98
247.324	401.39
247.786	382.93
248.247	429.63
248.709	314.52
249.17	248.05
249.632	271.25
250.093	335.75
250.555	321.12
251.016	235.25
251.477	227.8
251.939	260.71
252.4	277.78
252.861	304.62
253.322	312.01
253.783	356.9
254.244	415.16
254.705	299.96
255.166	223.97
255.627	210.65
256.088	299.42
256.549	304.57
257.009	238.33
257.47	256.31
257.931	242.17
258.391	178.97
258.852	209.43
259.312	247.28
259.773	277.09
260.233	283.19
260.694	259.81
261.154	260.22
261.614	257.36
262.074	250.74
262.534	271.37
262.994	256.9
263.455	330.96
263.915	277.53
264.374	243.14
264.834	281.13
265.294	267.98
265.754	272.3
266.214	258.71
266.673	214.54
267.133	230.93
267.593	211.92
268.052	262.45
268.512	206.7
268.971	308.39
269.431	346.2
269.89	285.27
270.349	460.57
270.809	517.76
271.268	451.51
271.727	988.93
272.186	659.31
272.645	516.42
273.104	328.74
273.563	453.76
274.022	282.87
274.481	275.87
274.94	233.17
275.399	162.85
275.857	164.15
276.316	217.02
276.775	181.56
277.233	189.51
277.692	166.42
278.15	213.6
278.609	273.66
279.067	255.24
279.525	257.46
279.984	301.66
280.442	362.94
280.9	431.34
281.358	279.62
281.816	265.39
282.274	243.86
282.732	241.34
283.19	219.75
283.648	173.75
284.106	161.85
284.564	149.24
285.021	145.69
285.479	108.08
285.937	69.54
286.394	89.87
286.852	88.95
287.309	105.39
287.767	132.27
288.224	148.41
288.682	159.69
289.139	209.88
289.596	195
290.053	205.23
290.511	238.12
290.968	310.89
291.425	365.36
291.882	342.86
292.339	310.31
292.796	276.45
293.252	247.01
293.709	224.63
294.166	198.79
294.623	202.72
295.079	180.47
295.536	207.09
295.992	187.12
296.449	181.25
296.905	186.79
297.362	193.74
297.818	198.8
298.274	207.81
298.731	190.37
299.187	183.03
299.643	216.29
300.099	273.52
300.555	284.41
301.011	242.48
301.467	300.85
301.923	299.8
302.379	301.11
302.835	290.46
303.291	290.37
303.746	315.94
304.202	351.23
304.658	281.85
305.113	200.14
305.569	190.03
306.024	187.7
306.479	122.7
306.935	142.09
307.39	116.55
307.845	131.82
308.301	148.19
308.756	150.64
309.211	168.01
309.666	185.28
310.121	228.07
310.576	242.87
311.031	214.87
311.486	229.19
311.94	209.84
312.395	250.7
312.85	355.17
313.305	969.06
313.759	9662.31
314.214	781.69
314.668	650.49
315.123	673.27
315.577	249.68
316.032	250.27
316.486	271.11
316.94	246.11
317.394	195.57
317.849	178.89
318.303	175.59
318.757	164.04
319.211	176.24
319.665	166.29
320.119	164.74
320.572	209.68
321.026	220.81
321.48	203.26
321.934	186.32
322.387	188.73
322.841	196.77
323.295	213.98
323.748	199.5
324.202	197.39
324.655	215.9
325.108	321.04
325.562	264.06
326.015	262.98
326.468	197.96
326.921	249.09
327.374	243.74
327.827	280.79
328.28	309.35
328.733	234.7
329.186	204.69
329.639	201.64
330.092	172.05
330.545	173.01
330.997	185.09
331.45	214.19
331.903	262.37
332.355	395.64
332.808	347.07
333.26	282.69
333.713	303.08
334.165	307.59
334.617	397.19
335.069	241.35
335.522	339.6
335.974	349.42
336.426	304.44
336.878	156.86
337.33	124.82
337.782	114.35
338.234	150.25
338.686	134.11
339.137	154.75
339.589	131.24
340.041	147.64
340.493	153.22
340.944	182.63
341.396	193.49
341.847	186.26
342.299	222.92
342.75	316.02
343.201	247.1
343.653	310.92
344.104	360.12
344.555	295.92
345.006	368.27
345.457	317.15
345.908	246.4
346.359	241.09
346.81	187.35
347.261	160.28
347.712	112.98
348.163	126.09
348.613	178.4
349.064	188.62
349.515	173
349.965	203.41
350.416	223.37
350.866	220.51
351.317	223.12
351.767	361.71
352.217	515.49
352.668	523.27
353.118	454.78
353.568	329.27
354.018	263.56
354.468	297.73
354.918	233.94
355.368	201.01
355.818	309.36
356.268	842.61
356.718	3659.98
357.168	941.59
357.617	420.55
358.067	456.69
358.517	460.18
358.966	593.27
359.416	771.57
359.865	786.95
360.315	814.06
360.764	374.17
361.213	235.95
361.663	203.19
362.112	222.12
362.561	354.79
363.01	273.12
363.459	252.34
363.908	222.39
364.357	173
364.806	265.18
365.255	208.92
365.703	219.87
366.152	205.99
366.601	194.09
367.05	188.78
367.498	188.42
367.947	192.68
368.395	169.29
368.844	171.95
369.292	166.84
369.74	130.01
370.189	179.77
370.637	197.67
371.085	159.5
371.533	173.81
371.981	106.77
372.429	140.12
372.877	153.07
373.325	149.48
373.773	125.83
374.221	107.13
374.669	128.9
375.116	122.22
375.564	122.21
376.012	140.41
376.459	129.29
376.907	181.48
377.354	189.54
377.801	189.91
378.249	231.22
378.696	283.19
379.143	365.62
379.591	415.6
380.038	655.18
380.485	487.05
380.932	530.59
381.379	601.94
381.826	506.26
382.273	317.19
382.72	251.15
383.166	237.01
383.613	184.34
384.06	165.3
384.506	182.01
384.953	143.27
385.4	128.78
385.846	119.89
386.292	80.44
386.739	60.63
387.185	50.69
387.631	48.2
388.078	61.64
388.524	54.09
388.97	51.7
389.416	44.76
389.862	51.88
390.308	49.92
390.754	47.08
391.2	56.29
391.645	39.75
392.091	69.96
392.537	83.39
392.983	71.86
393.428	98.25
393.874	101.74
394.319	115.03
394.765	118.87
395.21	121.33
395.655	108.45
396.101	114.87
396.546	118.13
396.991	99.74
397.436	89.07
397.881	79
398.326	58.95
398.771	62.03
399.216	52.08
399.661	42.84
400.106	50.15
400.551	57.01
400.995	45.59
401.44	46.01
401.885	47.58
402.329	47.07
402.774	49.77
403.218	57.48
403.663	54.55
404.107	54.46
404.551	59.04
404.995	51.25
405.44	42.86
405.884	41.83
406.328	35.16
406.772	29.8
407.216	30.6
407.66	27.39
408.104	18.33
408.547	16.43
408.991	12.37
409.435	8.68
409.879	12.25
410.322	15.94
410.766	17.43
411.209	20.95
411.653	21.95
412.096	21.92
412.54	22
412.983	21.18
413.426	24.64
413.869	25.09
414.312	28.06
414.756	23.82
415.199	23.17
415.642	25.63
416.085	27.2
416.527	26.85
416.97	24.65
417.413	23.49
417.856	22.37
418.298	19.34
418.741	18.53
419.184	15.09
419.626	12.35
420.069	11.22
420.511	8.14
420.953	9.19
421.396	9.23
421.838	9.83
422.28	9.38
422.722	12.41
423.164	11.97
423.606	12.67
424.048	11.86
424.49	15.2
424.932	14.37
425.374	14.83
425.816	11.93
426.258	11.79
426.699	11.45
427.141	14.49
427.582	12.56
428.024	11.14
428.465	8.65
428.907	9.22
429.348	6.97
429.789	8.81
430.231	10
430.672	8.79
431.113	8.54
431.554	8.52
431.995	5.84
432.436	7.91
432.877	9.76
433.318	13.19
433.759	12.95
434.2	13.42
434.64	13.59
435.081	12.01
435.522	13.56
435.962	13.31
436.403	14.83
436.843	11.8
437.284	11.4
437.724	10.21
438.164	6.36
438.604	6.84
439.045	7.89
439.485	9.52
439.925	9.34
440.365	7.97
440.805	7.55
441.245	7.57
441.685	9.63
442.125	8.45
442.564	7.27
443.004	9.43
443.444	9.18
443.883	9.91
444.323	6.92
444.762	4.8
445.202	4.5
445.641	7.15
446.081	5.54
446.52	6.94
446.959	7.75
447.398	9.52
447.837	9.55
448.276	8.7
448.716	8.71
449.154	8.16
449.593	10.06
450.032	11.26
450.471	8.67
450.91	7.99
451.349	8.54
451.787	7.29
452.226	6.05
452.664	4.92
453.103	4.97
453.541	3.71
453.98	6.4
454.418	5.17
454.856	5.98
455.295	6.81
455.733	7.65
456.171	7.08
456.609	8.63
457.047	10.04
457.485	12.07
457.923	13.11
458.361	13.11
458.798	11.6
459.236	12.63
459.674	11.02
460.111	11.03
460.549	10.74
460.987	8.92
461.424	8.11
461.862	7.91
462.299	6.76
462.736	7.41
463.173	6.94
463.611	9.64
464.048	10.29
464.485	11.31
464.922	11
465.359	10.46
465.796	17.27
466.233	17.81
466.67	19.55
467.106	20.69
467.543	20.11
467.98	19.76
468.416	17.58
468.853	16.59
469.29	15.89
469.726	15.09
470.162	15.05
470.599	10.03
471.035	9.1
471.471	7.43
471.907	5.12
472.344	4.43
472.78	5.75
473.216	5.05
473.652	4.23
474.088	3.33
474.523	3.36
474.959	2.95
475.395	3.33
475.831	3.5
476.266	3.3
476.702	4.27
477.138	4
477.573	3.17
478.008	3.35
478.444	5.03
478.879	5.9
479.314	6.7
479.75	6.5
480.185	5.93
480.62	5.22
481.055	5.24
481.49	5.79
481.925	6.1
482.36	7.61
482.795	7.22
483.229	5.74
483.664	6.13
484.099	6.12
484.534	7.07
484.968	7.04
485.403	6.77
485.837	6.12
486.271	5.17
486.706	5.15
487.14	3.62
487.574	3.89
488.009	4.04
488.443	3.39
488.877	3.55
489.311	2.59
489.745	2.64
490.179	2.87
490.613	4.26
491.046	4.24
491.48	4.16
491.914	4.45
492.348	3.88
492.781	4.14
493.215	4.42
493.648	3.43
494.082	3.66
494.515	3.7
494.948	4.5
495.382	2.98
495.815	3.71
496.248	4.34
496.681	4.55
497.114	4.43
497.547	4.48
497.98	5.24
498.413	6.83
498.846	7.57
499.279	7.46
499.711	7.13
500.144	7.32
500.577	7.69
501.009	6.77
501.442	7
501.874	7.87
502.306	7.96
502.739	9.02
503.171	8.26
503.603	7.95
504.036	8.07
504.468	8.26
504.9	8.26
505.332	7.26
505.764	7.23
506.196	7.09
506.627	6.93
507.059	6.87
507.491	4.95
507.923	4.81
508.354	4.88
508.786	4.76
509.217	4.41
509.649	4.12
510.08	3.99
510.512	5.2
510.943	5.43
511.374	5.63
511.805	5.32
512.237	4.91
512.668	4.48
513.099	4.13
513.53	4.62
513.961	4.82
514.391	5.07
514.822	6.43
515.253	5.96
515.684	5.57
516.114	5.41
516.545	5.52
516.975	5.59
517.406	5.51
517.836	4.72
518.267	4.27
518.697	5.24
519.127	5.44
519.558	4.29
519.988	3.46
520.418	2.72
520.848	2.36
521.278	1.97
521.708	18.17
522.138	18.21
522.567	17.75
522.997	17.33
523.427	16.29
523.857	16.2
524.286	16.6
524.716	17.11
525.145	18.04
525.575	18.39
526.004	18.19
526.433	2.83
526.863	3.03
527.292	4.63
527.721	5.4
528.15	5.6
528.579	5.87
529.008	5.8
529.437	4.92
529.866	4.21
530.295	3.56
530.724	4.8
531.152	4.54
531.581	4.95
532.01	4.76
532.438	4.13
532.867	3.8
533.295	3.89
533.723	4.04
534.152	4.83
534.58	5.22
535.008	5.72
535.436	6.26
535.865	5.62
536.293	5.18
536.721	4.56
537.149	4.64
537.576	5.43
538.004	5.66
538.432	4.9
538.86	4.75
539.287	4.47
539.715	4.23
540.143	2.9
540.57	3.64
540.998	3.87
541.425	5.35
541.852	4.82
542.28	4.09
542.707	3.28
543.134	3.71
543.561	3.93
543.988	4.01
544.415	4.05
544.842	3.98
545.269	3.65
545.696	3.93
546.123	3.58
546.549	4.63
546.976	5.04
547.403	5.69
547.829	5.35
548.256	4.77
548.682	5.03
549.108	5.47
549.535	5.48
549.961	5.79
550.387	5.61
550.813	5.83
551.24	5.65
551.666	5.26
552.092	5.13
552.518	5.61
552.943	6.33
553.369	6.12
553.795	5.71
554.221	6.03
554.646	6.13
555.072	6.38
555.498	5.31
555.923	4.78
556.349	4.83
556.774	5.22
557.199	4.55
557.625	4.08
558.05	4.22
558.475	4.37
558.9	4.35
559.325	3.86
559.75	4.06
560.175	4.13
560.6	3.61
561.025	2.96
561.449	2.27
561.874	1.99
562.299	2.47
562.723	2.15
563.148	2.28
563.572	2.05
563.997	2.39
564.421	1.75
564.846	0.96
565.27	1.52
565.694	1.96
566.118	1.93
566.542	2.96
566.966	2.77
567.39	2.99
567.814	3.5
568.238	3.51
568.662	2.61
569.086	3.02
569.509	3.2
569.933	4.55
570.357	4.41
570.78	4.26
571.204	4.78
571.627	4.8
572.05	5.26
572.474	5.44
572.897	5.91
573.32	7.5
573.743	6.66
574.166	7.9
574.589	6.7
575.012	6.56
575.435	6.58
575.858	6
576.281	6
576.704	5.47
577.126	4.46
577.549	3.92
577.972	2.63
578.394	2.78
578.817	3.79
579.239	3.57
579.661	4.14
580.084	4.79
580.506	5.31
580.928	5.3
581.35	5.47
581.772	6.05
582.194	6.45
582.616	6.25
583.038	5.96
583.46	4.59
583.882	5.05
584.303	4.36
584.725	3.61
585.147	6.67
585.568	6.54
585.99	6.58
586.411	6.82
586.833	7.07
587.254	7.65
587.675	7.92
588.096	7.77
588.518	7.61
588.939	8.5
589.36	9.04
589.781	4.64
590.202	7.04
590.623	7.08
591.043	6.22
591.464	6.54
591.885	7.17
592.305	6.7
592.726	6.1
593.147	6.42
593.567	5.95
593.987	6.33
594.408	6.43
594.828	3.42
595.248	4
595.669	4.62
596.089	3.93
596.509	2.87
596.929	2.74
597.349	3.53
597.769	2.88
598.189	2.94
598.608	2.68
599.028	3.18
599.448	3.52
599.867	3.07
600.287	2.25
600.706	2.66
601.126	3.55
601.545	4.5
601.965	4.38
602.384	4.87
602.803	5.08
603.222	4.95
603.641	4.16
604.061	4.92
604.48	4.66
604.898	4.91
605.317	4.38
605.736	4.27
606.155	4.51
606.574	3.96
606.992	3.67
607.411	3.76
607.829	3.3
608.248	3.82
608.666	3.06
609.085	3.24
609.503	3.18
609.921	3.55
610.339	3.3
610.758	2.33
611.176	2.46
611.594	2.89
612.012	3.21
612.43	3.99
612.847	3.93
613.265	4.84
613.683	5.17
614.101	5.56
614.518	5.32
614.936	5.89
615.353	6.87
615.771	7.58
616.188	7.64
616.606	6.79
617.023	6.42
617.44	6.22
617.857	5.6
618.274	5.37
618.691	5.22
619.108	4.78
619.525	4.45
619.942	4.12
620.359	3.95
620.776	3.66
621.192	4.27
621.609	4.86
622.026	5.44
622.442	5.65
622.859	4.59
623.275	4.7
623.691	5.02
624.108	5.22
624.524	5.29
624.94	5.5
625.356	5.17
625.772	4.52
626.188	4.19
626.604	4.09
627.02	3.63
627.436	4.44
627.852	5.06
628.268	5.63
628.683	4.93
629.099	4.92
629.514	4.04
629.93	4.45
630.345	4.35
630.761	4.21
631.176	3.98
631.591	5.54
632.007	6.01
632.422	5.31
632.837	4.45
633.252	5.71
633.667	5.5
634.082	6.19
634.497	6.78
634.911	8.57
635.326	8.42
635.741	8.49
636.155	7.35
636.57	7.87
636.984	8
637.399	9.38
637.813	8.34
638.228	7.62
638.642	6.78
639.056	6.04
639.47	4.85
639.884	5.39
640.298	4.96
640.712	5.75
641.126	5.07
641.54	5.05
641.954	2.95
642.368	3.37
642.781	6.02
643.195	6.11
643.609	6.62
644.022	6.37
644.436	5.75
644.849	5.41
645.262	4.54
645.676	3.81
646.089	3.23
646.502	4.83
646.915	4.15
647.328	3.95
647.741	5.05
648.154	5.04
648.567	6.82
648.98	7.41
649.393	7.9
649.805	7.66
650.218	7.95
650.631	8.64
651.043	8.72
651.456	9.34
651.868	8.27
652.28	7.37
652.693	6.75
653.105	6.14
653.517	6
653.929	6.52
654.341	7.01
654.753	7.96
655.165	7.6
655.577	7
655.989	6.79
656.401	5.3
656.813	6.14
657.224	6.61
657.636	5.61
658.047	6.43
658.459	5.91
658.87	4.85
659.282	4
659.693	4.68
660.104	6.06
660.515	6.16
660.926	7.08
661.338	7.15
661.749	6.26
662.159	7.55
662.57	5.96
662.981	6.6
663.392	7.4
663.803	7.69
664.213	7.52
664.624	6.5
665.035	5.69
665.445	5.65
665.855	6.52
666.266	7.98
666.676	7.88
667.086	7.74
667.497	8.17
667.907	8.59
668.317	7.99
668.727	9.95
669.137	9.34
669.547	10.14
669.956	9.34
670.366	8.13
670.776	7.98
671.186	6.84
671.595	7.5
672.005	6.52
672.414	6.07
672.824	7.39
673.233	5.48
673.642	4.99
674.052	5.1
674.461	6.38
674.87	6.38
675.279	7.18
675.688	6.58
676.097	7.88
676.506	7.13
676.915	6.85
677.323	6.53
677.732	6.43
678.141	7.43
678.549	7.4
678.958	6.85
679.366	6.57
679.775	4.58
680.183	6.63
680.592	5.21
681	6.14
681.408	6.24
681.816	5.83
682.224	5.49
682.632	6.06
683.04	5.88
683.448	5.81
683.856	6.65
684.264	8.02
684.671	6.29
685.079	6.02
685.487	6.31
685.894	6.17
686.302	6.14
686.709	6.32
687.116	6.21
687.524	6.6
687.931	6.87
688.338	6.65
688.745	6.58
689.152	6.9
689.559	7.43
689.966	8.04
690.373	9.08
690.78	10.09
691.187	10.84
691.593	11.23
692	11.35
692.407	11.8
692.813	13.7
693.22	13.45
693.626	12.84
694.032	13.24
694.439	13.08
694.845	12.77
695.251	11.33
695.657	10.84
696.063	9
696.469	7.89
696.875	7.29
697.281	5.66
697.687	4.93
698.093	6.18
698.498	6.43
698.904	4.72
699.31	3.89
699.715	6.65
700.12	6.26
700.526	7.51
700.931	8.26
701.337	9.51
701.742	9.45
702.147	9.57
702.552	9.32
702.957	8.29
703.362	8.82
703.767	9.46
704.172	7.32
704.577	7.17
704.981	5.61
705.386	5.33
705.791	4.47
706.195	4.08
706.6	4.6
707.004	3.46
707.408	3.92
707.813	4.62
708.217	4.91
708.621	5.03
709.025	5.16
709.43	7.83
709.834	8.73
710.237	8.95
710.641	9.2
711.045	9.62
711.449	11.13
711.853	13.07
712.256	12.81
712.66	12.22
713.064	11.54
713.467	13.41
713.87	12.22
714.274	12.51
714.677	13.28
715.08	14.04
715.484	14.29
715.887	15.16
716.29	13.66
716.693	14.67
717.096	15.91
717.499	17.25
717.901	15.42
718.304	16.1
718.707	14.83
719.109	13.95
719.512	12.19
719.915	14.46
720.317	14.37
720.719	13.38
721.122	12.28
721.524	12.36
721.926	15.53
722.328	16.38
722.731	15.39
723.133	15.9
723.535	14.71
723.937	16.71
724.338	16.25
724.74	15.96
725.142	53.74
725.544	56.79
725.945	65.53
726.347	62.89
726.748	62.73
727.15	64.01
727.551	66.14
727.952	66.3
728.354	64.03
728.755	63.29
729.156	62.75
729.557	26.53
729.958	23.31
730.359	14.88
730.76	14.27
731.161	13.5
731.562	11.43
731.962	9.22
732.363	10.22
732.763	10.99
733.164	8.56
733.564	9.3
733.965	9.82
734.365	11.56
734.766	11.37
735.166	10.84
735.566	11.52
735.966	13.09
736.366	13.53
736.766	13.07
737.166	12.26
737.566	12.94
737.966	11.87
738.365	12.58
738.765	12.63
739.165	12.66
739.564	13.01
739.964	12.2
740.363	11.43
740.763	10.06
741.162	10.73
741.561	11.72
741.96	11.78
742.36	11.19
742.759	10.97
743.158	9.79
743.557	8.67
743.955	7.95
744.354	8.54
744.753	7.89
745.152	9.35
745.55	8.32
745.949	7.31
746.348	8.03
746.746	7.63
747.144	8.16
747.543	8.08
747.941	7.72
748.339	8.05
748.737	7.64
749.136	8.73
749.534	6.73
749.932	8.71
750.33	8.92
750.727	7.8
751.125	8.44
751.523	7.9
751.921	10.04
752.318	11.74
752.716	13.13
753.113	13.25
753.511	12.95
753.908	15.06
754.305	17.18
754.703	17.3
755.1	18.56
755.497	17.71
755.894	16.65
756.291	15.22
756.688	15.4
757.085	15.32
757.482	17.07
757.878	20.02
758.275	20.82
758.672	17.07
759.068	19.03
759.465	21.17
759.861	23.05
760.258	26.57
760.654	28.21
761.05	30.37
761.447	28.24
761.843	24.16
762.239	22.81
762.635	19.81
763.031	17.04
763.427	15.67
763.822	13.88
764.218	13.97
764.614	13.21
765.01	10.73
765.405	9.5
765.801	10.46
766.196	10.55
766.592	9.14
766.987	10.18
767.382	9.49
767.778	9.39
768.173	8.59
768.568	8.74
768.963	9.63
769.358	9.95
769.753	10.88
770.148	11.04
770.542	11.13
770.937	9.83
771.332	9.58
771.726	10.53
772.121	13.06
772.515	13.48
772.91	13.17
773.304	12.96
773.699	12.61
774.093	10.99
774.487	11.04
774.881	10.66
775.275	12.25
775.669	11.44
776.063	11.53
776.457	11.12
776.851	10.95
777.245	12.72
777.638	12.88
778.032	14.05
778.425	15.84
778.819	18.27
779.212	20.82
779.606	22.24
779.999	21.54
780.392	22.39
780.786	19.12
781.179	19.8
781.572	19.82
781.965	19.62
782.358	20.78
782.751	19.96
783.143	16.63
783.536	15.75
783.929	13.23
784.322	13.95
784.714	12.57
785.107	14.91
785.499	17.73
785.891	18.14
786.284	18.28
786.676	16.61
787.068	17.84
787.46	19.16
787.852	17.89
788.245	18.1
788.636	16.08
789.028	17.53
789.42	18.75
789.812	17.65
790.204	16.62
790.595	18.01
790.987	19.93
791.378	19.15
791.77	18.01
792.161	17.59
792.553	18.85
792.944	22.15
793.335	20.8
793.726	19.83
794.117	19.02
794.508	17.27
794.899	15.38
795.29	13.72
795.681	13.47
796.072	13.76
796.463	28.52
796.853	32.27
797.244	32.92
797.634	33.46
798.025	35.14
798.415	33.16
798.806	34.58
799.196	36.15
799.586	38.65
799.976	40.05
800.366	40.05
800.756	25.1
801.146	22.28
801.536	22.26
801.926	22.29
802.316	20.24
802.706	22.04
803.095	24.15
803.485	22.92
803.874	20.69
804.264	19.23
804.653	21.06
805.043	22.29
805.432	23.77
805.821	24.37
806.21	24.78
806.599	24.59
806.988	25.81
807.377	23.36
807.766	23.09
808.155	23.61
808.544	23.93
808.933	23.79
809.321	24.16
809.71	20.6
810.098	19.9
810.487	18.34
810.875	18.3
811.264	17.88
811.652	26.06
812.04	28.64
812.428	31.21
812.816	29.46
813.204	31.87
813.592	29.19
813.98	29.8
814.368	32.53
814.756	33.11
815.144	33.98
815.531	38.69
815.919	29.71
816.306	32
816.694	31.05
817.081	37.4
817.469	37.18
817.856	37.67
818.243	36.08
818.63	31.12
819.017	34.23
819.404	37.19
819.791	32.79
820.178	29.52
820.565	29.7
820.952	37.63
821.339	36.95
821.725	37.06
822.112	39.93
822.498	39.51
822.885	40.25
823.271	39.34
823.657	31.46
824.044	33.18
824.43	36
824.816	39.87
825.202	35.59
825.588	32.11
825.974	35.36
826.36	34.48
826.746	39.4
827.132	40.2
827.517	41.99
827.903	46.52
828.289	49.43
828.674	50.33
829.06	48.82
829.445	44.21
829.83	43.8
830.216	40.37
830.601	43.6
830.986	46.33
831.371	47.08
831.756	48.68
832.141	52.34
832.526	49.79
832.911	48.52
833.295	44.28
833.68	45.3
834.065	46.54
834.449	44.47
834.834	44.41
835.218	43.52
835.603	43.55
835.987	39.6
836.371	38.8
836.755	40.33
837.139	40.04
837.524	37.19
837.908	34.94
838.291	37.98
838.675	38.21
839.059	36.09
839.443	31.93
839.827	29.93
840.21	29.39
840.594	29.66
840.977	27.8
841.361	27.17
841.744	27.88
842.127	30.2
842.511	25.9
842.894	22.26
843.277	21.22
843.66	19.32
844.043	22.54
844.426	24.8
844.809	20.92
845.191	20.72
845.574	20.34
845.957	20.38
846.339	24.03
846.722	25.36
847.104	26.56
847.487	22.08
847.869	24.35
848.252	23.12
848.634	23.4
849.016	24.94
849.398	22.69
849.78	24.8
850.162	27.88
850.544	24.36
850.926	22.87
851.307	24.12
851.689	30.77
852.071	27.97
852.452	29.82
852.834	31.26
853.215	33.06
853.597	33.12
853.978	38.66
854.359	35.94
854.741	37.91
855.122	37.98
855.503	35.32
855.884	32.23
856.265	32.58
856.646	26.93
857.026	28.53
857.407	29.64
857.788	28.19
858.169	20.7
858.549	28.55
858.93	26.75
859.31	28.49
859.69	33.53
860.071	36.27
860.451	38.67
860.831	42.21
861.211	36.03
861.591	33.2
861.971	34.4
862.351	35.84
862.731	26.68
863.111	28.69
863.491	32.42
863.87	33.49
864.25	27.69
864.629	35.57
865.009	36.32
865.388	44.57
865.768	42.46
866.147	46.34
866.526	45.73
866.905	52.23
867.284	46.78
867.663	36.29
868.042	32.51
868.421	34
868.8	25.12
869.179	27.76
869.558	19.95
869.936	23.6
870.315	19.86
870.693	22.2
871.072	20.66
871.45	23.48
871.828	30.82
872.207	32.57
872.585	39.73
872.963	40.84
873.341	40.13
873.719	49.93
874.097	50.12
874.475	47.25
874.853	46.84
875.23	41.85
875.608	43.94
875.986	42.66
876.363	43.89
876.741	47.33
877.118	51.1
877.495	56.1
877.873	54.15
878.25	51.56
878.627	53.71
879.004	51.95
879.381	57.26
879.758	58.66
880.135	58.99
880.512	55.98
880.889	45.32
881.265	41.87
881.642	34.7
882.019	32.08
882.395	38.34
882.772	48.84
883.148	51.19
883.524	48.79
883.901	48.84
884.277	44.46
884.653	44.1
885.029	51.87
885.405	56.53
885.781	56.55
886.157	54.75
886.532	47.95
886.908	40.02
887.284	37.17
887.659	39.82
888.035	33.67
888.411	32.32
888.786	37.12
889.161	36.98
889.537	32.11
889.912	35.23
890.287	34.78
890.662	39.05
891.037	33.31
891.412	31.74
891.787	25.42
892.162	33.6
892.536	35.82
892.911	33.52
893.286	28.93
893.66	32.53
894.035	32.49
894.409	31.24
894.784	32.5
895.158	39.36
895.532	47.57
895.906	57.5
896.281	57.19
896.655	61
897.029	66
897.402	71.91
897.776	70.25
898.15	61.97
898.524	64.61
898.898	67.44
899.271	77.38
899.645	70.02
900.018	58.02
900.392	58.09
900.765	55.94
901.138	55.42
901.511	51.49
901.884	63.18
902.258	70.19
902.631	77.92
903.003	80.05
903.376	76.04
903.749	81.01
904.122	89.98
904.495	86.81
904.867	82.54
905.24	72.8
905.612	64.46
905.985	56.97
906.357	54.32
906.729	53.55
907.102	52.45
907.474	49.71
907.846	57.73
908.218	61.29
908.59	67.2
908.962	67.76
909.334	79.95
909.705	90.41
910.077	88.08
910.449	92.62
910.82	97.71
911.192	117.22
911.563	120.9
911.935	113.21
912.306	105.28
912.677	108.61
913.048	118.9
913.419	121.13
913.79	113.14
914.161	131.7
914.532	142.25
914.903	121.09
915.274	106.54
915.645	107.48
916.015	96.01
916.386	99.88
916.756	93.63
917.127	84.71
917.497	79.33
917.868	96.11
918.238	82.48
918.608	74.85
918.978	78.98
919.348	73.12
919.718	72.31
920.088	69.73
920.458	69.35
920.828	70.33
921.198	70.84
921.567	69.4
921.937	55.2
922.306	58.35
922.676	67.57
923.045	72.38
923.415	77.49
923.784	70.82
924.153	78.98
924.522	78.47
924.891	80.43
925.26	88.92
925.629	86.48
925.998	93.91
926.367	94.67
926.736	104.41
927.104	105.74
927.473	106.63
927.842	119.52
928.21	106.26
928.578	103.82
928.947	108.84
929.315	117.03
929.683	146.08
930.051	155.21
930.42	178.51
930.788	137.73
931.156	147.96
931.523	172.95
931.891	168.05
932.259	184.43
932.627	220.74
932.994	287
933.362	262.36
933.729	242.08
934.097	227.72
934.464	197.29
934.831	203.81
935.199	190.5
935.566	177.2
935.933	166.65
936.3	185.84
936.667	145.17
937.034	196.41
937.401	176.23
937.767	126.54
938.134	116
938.501	138.4
938.867	188.55
939.234	290.15
939.6	202.55
939.967	271.54
940.333	207.44
940.699	152.41
941.065	64.72
941.431	86.41
941.798	159.59
942.163	219
942.529	149.68
942.895	88.95
943.261	74.68
943.627	102.63
943.992	91.74
944.358	96.31
944.723	143.29
945.089	141.92
945.454	139.87
945.82	138.67
946.185	130.71
946.55	157.05
946.915	166.45
947.28	206.98
947.645	189.41
948.01	189.79
948.375	207.95
948.74	213.23
949.104	232.55
949.469	228.79
949.834	316.73
950.198	406.82
950.562	306.73
950.927	255.56
951.291	297.12
951.655	248.77
952.02	188.38
952.384	132.03
952.748	137.55
953.112	169.17
953.476	180.5
953.839	176.62
954.203	168.93
954.567	182.01
954.931	251.68
955.294	212.41
955.658	209.28
956.021	383.71
956.385	571.21
956.748	837.98
957.111	1089.16
957.474	1118.23
957.837	1182.56
958.2	729.97
958.563	277.3
958.926	227.66
959.289	298.06
959.652	379.92
960.015	282.5
960.377	419.49
960.74	423.84
961.102	609.54
961.465	764.43
961.827	687.04
962.189	1226.91
962.552	846.47
962.914	631.14
963.276	459.6
963.638	376.32
964	380.04
964.362	296.71
964.724	274.47
965.085	211.74
965.447	177.7
965.809	147.16
966.17	152.33
966.532	174.23
966.893	169.73
967.255	138.21
967.616	130.78
967.977	110.84
968.338	95.19
968.699	102.53
969.061	107.48
969.421	110.8
969.782	103.18
970.143	98.3
970.504	112.92
970.865	128.88
971.225	160.91
971.586	164.13
971.946	203.6
972.307	188.12
972.667	192.14
973.027	196.16
973.388	192
973.748	148.56
974.108	155.28
974.468	130.9
974.828	164.02
975.188	104.27
975.548	114.53
975.907	118.88
976.267	121.46
976.627	142.98
976.986	141.11
977.346	133.2
977.705	143.37
978.064	132.38
978.424	123.03
978.783	91.1
979.142	105.72
979.501	90.66
979.86	91.05
980.219	86.27
980.578	69.43
980.937	64.42
981.296	76.51
981.654	68.43
982.013	61.75
982.371	119.36
982.73	140.52
983.088	136.76
983.447	166.57
983.805	263.23
984.163	632.44
984.521	712.47
984.879	950.95
985.237	-1605.24
985.595	1579.45
985.953	540.91
986.311	228.72
986.669	144.53
987.026	130.31
987.384	151.35
987.741	138.5
988.099	130.73
988.456	116.3
988.814	123.09
989.171	100.54
989.528	86.61
989.885	66.84
990.242	75.15
990.599	70.58
990.956	55.72
991.313	54.15
991.67	53.94
992.027	86.18
992.383	82.93
992.74	85.05
993.096	95.56
993.453	101.38
993.809	104.91
994.165	131.31
994.522	173.66
994.878	197.28
995.234	241.63
995.59	218.75
995.946	132.42
996.302	150.6
996.658	140.61
997.013	144.92
997.369	216.75
997.725	261.59
998.08	172.77
998.436	85.01
998.791	128.09
999.147	115.15
999.502	107.74
999.857	109.84
1000.212	125.41
1000.567	181.44
1000.922	138.75
1001.277	35.19
1001.632	46.6
1001.987	39.6
1002.342	74.75
1002.696	93.14
1003.051	114.94
1003.406	164.59
1003.76	165.72
1004.114	196.6
1004.469	204.47
1004.823	165.85
1005.177	174.66
1005.531	157.05
1005.885	154.07
1006.239	174.08
1006.593	209.25
1006.947	251.18
1007.301	178.45
1007.655	193.38
1008.008	134.32
1008.362	121.63
1008.715	178.17
1009.069	164.16
1009.422	287.61
1009.776	568.03
1010.129	367.19
1010.482	259.2
1010.835	171.84
1011.188	365.19
1011.541	330.66
1011.894	-1733.88
1012.247	6612.59
1012.6	432.94
1012.952	305.29
1013.305	128.2
1013.657	113.05
1014.01	86.59
1014.362	80.79
1014.715	124.81
1015.067	131.79
1015.419	127.34
1015.771	133.01
1016.123	135.18
1016.475	143.27
1016.827	152.53
1017.179	173.92
1017.531	167.64
1017.883	185
1018.234	225.82
1018.586	253.83
1018.938	265.5
1019.289	372.19
1019.64	376.06
1019.992	330.12
1020.343	293.23
1020.694	275.01
1021.045	249.42
1021.396	277.28
1021.747	306.45
1022.098	323.74
1022.449	237.59
1022.8	225.39
1023.151	192.55
1023.501	196.54
1023.852	200.19
1024.202	232.13
1024.553	226.77
1024.903	253.07
1025.253	225.76
1025.604	213.07
1025.954	239.25
1026.304	277.29
1026.654	301.86
1027.004	371.19
1027.354	588.52
1027.703	600.5
1028.053	529.5
1028.403	855.52
1028.753	918.65
1029.102	759.25
1029.452	834.2
1029.801	-34.32
1030.15	-15.42
1030.499	-39.63
897.758	1308.7
901.051	1271.28
904.343	1293.97
907.636	1293.81
910.928	1329.3
914.22	1285.47
917.511	1291.54
920.803	1317.52
924.094	1309.58
927.384	1315.49
930.675	1293.39
933.965	1277.81
937.255	1294.12
940.544	1276.62
943.834	1277.6
947.123	1244.89
950.411	1293.35
953.7	1283.69
956.988	1275.48
960.276	1235.92
963.563	1257.49
966.851	1264.41
970.138	1283.69
973.424	1285.72
976.711	1255.64
979.997	1283.11
983.283	1305.36
986.568	1268.83
989.853	1260.43
993.138	1270.66
996.423	1327.84
999.708	1305.74
1002.992	1318.22
1006.275	1272.47
1009.559	1273.67
1012.842	1329.7
1016.125	1302.29
1019.408	1288.61
1022.69	1318.22
1025.972	1333.3
1029.254	1321.21
1032.536	1296.63
1035.817	1300.85
1039.098	1286.68
1042.379	1309.34
1045.659	1321.48
1048.939	1292.71
1052.219	1294.73
1055.498	1290.44
1058.778	1282.98
1062.057	1272.55
1065.335	1290.24
1068.614	1290.27
1071.892	1284.99
1075.17	1315.45
1078.447	1316.9
1081.724	1312.58
1085.001	1323.41
1088.278	1308.62
1091.554	1310.02
1094.83	1311.74
1098.106	1327.85
1101.382	1343.9
1104.657	1344.21
1107.932	1344.13
1111.206	1331.47
1114.481	1304.23
1117.755	1307.55
1121.029	1302.07
1124.302	1336
1127.575	1318.43
1130.848	1317.61
1134.121	1301.71
1137.393	1275.11
1140.665	1310.46
1143.937	1296.54
1147.208	1269.09
1150.48	1301.2
1153.75	1293.91
1157.021	1296.84
1160.291	1281.23
1163.561	1311.64
1166.831	1289.23
1170.101	1301.6
1173.37	1284.25
1176.639	1261.72
1179.907	1290.18
1183.176	1299.19
1186.444	1302.35
1189.711	1315.16
1192.979	1328.61
1196.246	1306.74
1199.513	1314.14
1202.78	1317.67
1206.046	1322.83
1209.312	1336.05
1212.578	1340.82
1215.843	1316.85
1219.108	1307.46
1222.373	1316.79
1225.638	1301.4
1228.902	1294.53
1232.166	1276.44
1235.43	1268.19
1238.693	1283.3
1241.956	1281.51
1245.219	1309.3
1248.482	1302.42
1251.744	1306.59
1255.006	1366.03
1258.268	1338.91
1261.529	1320.9
1264.79	1318.95
1268.051	1369.77
1271.312	1378.06
1274.572	1360.21
1277.832	1351.64
1281.092	1340.25
1284.351	1337.29
1287.61	1329.49
1290.869	1294.88
1294.128	1294.62
1297.386	1315.39
1300.644	1314.1
1303.902	1317.67
1307.159	1244.34
1310.416	1270.51
1313.673	1284.85
1316.93	1285.87
1320.186	1299.18
1323.442	1314.97
1326.697	1314.45
1329.953	1300.03
1333.208	1319.98
1336.463	1305.13
1339.717	1287.54
1342.972	1348.45
1346.226	1336.41
1349.479	1315.89
1352.733	1301.3
1355.986	1311.75
1359.238	1301.89
1362.491	1303.28
1365.743	1304.42
1368.995	1302.08
1372.247	1314.38
1375.498	1321.76
1378.749	1340.82
1382	1320.91
1385.251	1332.82
1388.501	1311.89
1391.751	1307.08
1395	1295.13
1398.25	1312.19
1401.499	1325.98
1404.748	1299.93
1407.996	1290.37
1411.244	1289.18
1414.492	1280.73
1417.74	1270.1
1420.987	1279.68
1424.234	1309.41
1427.481	1290.27
1430.728	1317.29
1433.974	1306.73
1437.22	1306.83
1440.465	1302.02
1443.711	1303.15
1446.956	1312.17
1450.201	1298.43
1453.445	1321.65
1456.689	1310.15
1459.933	1320.6
1463.177	1342.91
1466.42	1330.66
1469.663	1317.63
1472.906	1325.11
1476.148	1351.91
1479.391	1328.57
1482.633	1318.61
1485.874	1332.61
1489.115	1337.28
1492.356	1327.86
1495.597	1312.09
1498.838	1305.19
1502.078	1299.55
1505.318	1289.28
1508.557	1302.2
1511.797	1299.88
1515.036	1329.55
1518.274	1306.38
1521.513	1276.6
1524.751	1279.4
1527.989	1293.66
1531.227	1302.77
1534.464	1307.46
1537.701	1300.18
1540.938	1303.31
1544.174	1278.76
1547.41	1270.57
1550.646	1288.95
1553.882	1313.05
1557.117	1346.04
1560.352	1352.39
1563.587	1326.19
1566.821	1311.49
1570.055	1322.86
1573.289	1307.94
1576.523	1334.35
1579.756	1341.78
1582.989	1355.12
1586.222	1329.33
1589.454	1352.77
1592.686	1343.73
1595.918	1355.67
1599.15	1356.65
1602.381	1381.25
1605.612	1371.47
1608.843	1419.37
1612.073	1379.85
1615.303	1373.17
1618.533	1366.93
1621.762	1370.07
1624.992	1351.15
1628.221	1349.43
1631.449	1343.09
1634.678	1356.39
1637.906	1337.11
1641.134	1347.63
1644.361	1330.78
1647.588	1325.24
1650.815	1338.77
1654.042	1321.24
1657.269	1335.56
1660.495	1325.59
1663.72	1319.87
1666.946	1301.52
1670.171	1292.03
1673.396	1274.08
1676.621	1268.44
1679.845	1264.5
1683.069	1266.79
1686.293	1281.63
1689.517	1277.54
1692.74	1254.44
1695.963	1263.84
1699.185	1282.73
1702.408	1269.8
1705.63	1285.52
1708.852	1296.35
1712.073	1277.31
1715.294	1291
1718.515	1316.43
1721.736	1292.44
1724.956	1285.41
1728.176	1297.68
1731.396	1306.86
1734.616	1304.12
1737.835	1329.74
1741.054	1308.87
1744.272	1309.51
1747.491	1331.09
1750.709	1339.85
1753.927	1316.44
1757.144	1330.26
1760.361	1359.67
1763.578	1343.31
1766.795	1317.09
1770.011	1309.92
1773.227	1321.39
1776.443	1346.76
1779.658	1362.76
1782.874	1336.61
1786.089	1332.85
1789.303	1332.46
1792.518	1334.06
1795.732	1326.53
1798.945	1333.33
1802.159	1361.53
1805.372	1329.35
1808.585	1323
1811.797	1321.27
1815.01	1340.85
1818.222	1354.96
1821.434	1335.61
1824.645	1357.35
1827.856	1361.73
1831.067	1374.85
1834.278	1348.39
1837.488	1334.73
1840.698	1402.02
1843.908	1378.41
1847.117	1362.38
1850.326	1321.48
1853.535	1353.91
1856.744	1372.74
1859.952	1330.35
1863.16	1330.52
1866.368	1348.45
1869.575	1407.88
1872.782	1346.51
1875.989	1313.12
1879.196	1340.64
1882.402	1336.98
1885.608	1354.46
1888.814	1322.52
1892.019	1274.89
1895.224	1309.46
1898.429	1293.76
1901.634	1281.32
1904.838	1268.7
1908.042	1301.34
1911.246	1313.68
1914.449	1292.41
1917.652	1284.57
1920.855	1274.69
1924.058	1288.4
1927.26	1318.8
1930.462	1327.96
1933.664	1350.77
1936.865	1321.36
1940.066	1329.81
1943.267	1302.14
1946.467	1303.92
1949.668	1310.53
1952.868	1350.98
1956.067	1349.25
1959.267	1317.17
1962.466	1329.71
1965.665	1316.93
1968.863	1316.17
1972.061	1314.49
1975.259	1311.89
1978.457	1353.11
1981.654	1334.38
1984.852	1333.95
1988.048	1312.1
1991.245	1302.01
1994.441	1349.77
1997.637	1319.8
2000.833	1311.4
2004.028	1327.68
2007.223	1364.3
2010.418	1353.88
2013.613	1328.45
2016.807	1323.93
2020.001	1322.76
2023.194	1332.95
2026.388	1320.86
2029.581	1291.8
2032.774	1329.11
2035.966	1336.25
2039.158	1305.59
2042.35	1317.91
2045.542	1277.48
2048.733	1320.63
2051.924	1309.5
2055.115	1319.54
2058.306	1302.89
2061.496	1331.77
2064.686	1359.95
2067.875	1303.8
2071.065	1303.75
2074.254	1313.23
2077.442	1288.56
2080.631	1335.11
2083.819	1301.18
2087.007	1297.11
2090.195	1291.5
2093.382	1292.22
2096.569	1289.84
2099.756	1266.4
2102.942	1301.91
2106.128	1306.94
2109.314	1302.71
2112.5	1295.31
2115.685	1276.57
2118.87	1279.82
2122.055	1320.39
2125.239	1303.42
2128.424	1300.43
2131.608	1331.78
2134.791	1319.53
2137.974	1337.89
2141.157	1332.79
2144.34	1318.58
2147.523	1308.74
2150.705	1327.16
2153.887	1306.43
2157.068	1291.2
2160.25	1278.14
2163.431	1293.13
2166.611	1273.51
2169.792	1288.24
2172.972	1235.12
2176.152	1267.72
2179.331	1278.96
2182.511	1279.95
2185.69	1287.9
2188.868	1292.65
2192.047	1312.19
2195.225	1329.44
2198.403	1296.4
2201.58	1288.78
2204.758	1280.33
2207.935	1323.7
2211.111	1276.31
2214.288	1269.14
2217.464	1287.4
2220.64	1267.33
2223.815	1291.11
2226.991	1251.78
2230.166	1257.15
2233.34	1281.8
2236.515	1290.82
2239.689	1331.02
2242.863	1302.14
2246.036	1329.03
2249.209	1321.67
2252.382	1335.21
2255.555	1338.29
2258.727	1314.47
2261.9	1332.25
2265.071	1329.08
2268.243	1331.2
2271.414	1302.03
2274.585	1290.18
2277.756	1323.67
2280.926	1304.12
2284.096	1321.46
2287.266	1282.04
2290.436	1311.1
2293.605	1317.64
2296.774	1338.77
2299.942	1345.01
2303.111	1352.57
2306.279	1382.67
2309.447	1374.32
2312.614	1362.01
2315.781	1370.19
2318.948	1360.04
2322.115	1382.9
2325.281	1322.04
2328.447	1328.42
2331.613	1310.98
2334.779	1306.97
2337.944	1302.09
2341.109	1302.71
2344.274	1296.96
2347.438	1277.8
2350.602	1290.47
2353.766	1295.92
2356.929	1292.35
2360.092	1313.37
2363.255	1292.28
2366.418	1278.41
2369.58	1299.02
2372.742	1283.83
2375.904	1270.81
2379.066	1267.43
2382.227	1277.93
2385.388	1257.13
2388.548	1230.85
2391.709	1247.54
2394.869	1246.67
2398.029	1278.01
2401.188	1267.07
2404.347	1257.11
2407.506	1251.47
2410.665	1286.13
2413.823	1273.09
2416.981	1266.8
2420.139	1276.93
2423.296	1295.82
2426.453	1282.38
2429.61	1293.22
2432.767	1278.35
2435.923	1300.59
2439.079	1272.15
2442.235	1291.16
2445.391	1255.69
2448.546	1279.99
2451.701	1297.16
2454.855	1294.68
2458.009	1310.7
2461.163	1303.18
2464.317	1285.39
2467.471	1298.6
2470.624	1319.81
2473.777	1312.06
2476.929	1321.66
2480.082	1334.16
2483.234	1324.13
2486.385	1292.75
2489.537	1287.61
2492.688	1282.38
2495.839	1296.03
2498.989	1303.05
2502.14	1297.09
2505.29	1289.77
2508.439	1303.3
2511.589	1272.75
2514.738	1273.39
2517.887	1282.93
2521.035	1327.09
2524.183	1300.67
2527.331	1294.41
2530.479	1288.02
2533.627	1292.11
