Data from N_1_DEC_VA_2N_Splice17_11-18-31-470.txt Node
Date: Sat Mar 14 11:18:31 EDT 2020
User: sa697716
Spectrometer: FLMS03696
Trigger mode: 0
Integration Time (sec): 3.180400E-1
Scans to average: 20
Electric dark correction enabled: true
Nonlinearity correction enabled: true
Boxcar width: 5
XAxis mode: Wavelengths
Number of Pixels in Spectrum: 2048
>>>>>Begin Spectral Data<<<<<
187.83	-49402.59
188.298	449.28
188.766	307.85
189.233	245.01
189.701	250.03
190.169	360.46
190.636	107.17
191.104	30.52
191.571	-73.14
192.039	-101.13
192.506	-154.87
192.974	155.93
193.441	-22.48
193.908	51.46
194.375	-13.88
194.842	-77.93
195.31	-145.12
195.777	41.21
196.244	106.29
196.711	75.78
197.177	104.36
197.644	83.1
198.111	141.01
198.578	164.27
199.045	156.14
199.511	282.12
199.978	317.73
200.445	292.67
200.911	290.96
201.378	302.31
201.844	316.29
202.31	468.21
202.777	543.36
203.243	322.53
203.709	289.51
204.176	358.45
204.642	280.73
205.108	256.33
205.574	231.98
206.04	191.78
206.506	163.58
206.972	124.66
207.438	118.26
207.903	132.78
208.369	135.71
208.835	163.18
209.301	157.32
209.766	155.29
210.232	162.26
210.697	178.5
211.163	212.73
211.628	331.46
212.094	317.74
212.559	454.52
213.024	302.83
213.49	363.24
213.955	318.01
214.42	299.05
214.885	287.1
215.35	265.52
215.815	294.47
216.28	310.12
216.745	256.44
217.21	278.67
217.675	222.43
218.14	220.46
218.604	220.02
219.069	251.93
219.534	268.68
219.998	272.45
220.463	310.26
220.927	304.39
221.392	273.86
221.856	250.75
222.32	241.7
222.785	282.55
223.249	332.31
223.713	337.55
224.177	302.54
224.642	318.84
225.106	336.78
225.57	321.69
226.034	277.04
226.497	386.57
226.961	349.86
227.425	432.82
227.889	448.39
228.353	435.11
228.816	787.85
229.28	732.42
229.744	570.24
230.207	421.2
230.671	409.06
231.134	524.15
231.597	642.81
232.061	585.24
232.524	507.6
232.987	358.87
233.45	340.73
233.914	314.63
234.377	291.81
234.84	287.46
235.303	288.43
235.766	310.82
236.229	299.23
236.691	158.34
237.154	157.96
237.617	136.71
238.08	129.92
238.542	120.9
239.005	87.76
239.468	93.93
239.93	85.74
240.393	95.77
240.855	87.58
241.317	88.22
241.78	102.63
242.242	125.3
242.704	170.37
243.166	148.82
243.629	156.04
244.091	186.66
244.553	188.69
245.015	205.6
245.477	239.38
245.939	309.67
246.4	340.86
246.862	288.33
247.324	286.69
247.786	244.72
248.247	286.89
248.709	210.01
249.17	162.42
249.632	233.75
250.093	311.45
250.555	250.71
251.016	195.32
251.477	185.15
251.939	233.17
252.4	219.99
252.861	242.95
253.322	262.38
253.783	285.6
254.244	331.42
254.705	228.14
255.166	164.82
255.627	183.12
256.088	238.18
256.549	281.99
257.009	221.84
257.47	267.64
257.931	227.15
258.391	157.68
258.852	196.74
259.312	219.47
259.773	240.6
260.233	246.15
260.694	220.71
261.154	246.97
261.614	223
262.074	198.7
262.534	218.73
262.994	211.08
263.455	249.93
263.915	199.37
264.374	179.15
264.834	209.73
265.294	196.8
265.754	190.5
266.214	172.03
266.673	145.87
267.133	173.3
267.593	141.09
268.052	176.74
268.512	139.63
268.971	222.18
269.431	263.93
269.89	196.93
270.349	334.89
270.809	409.37
271.268	378.98
271.727	736.18
272.186	504.43
272.645	391.53
273.104	258.42
273.563	429.56
274.022	281.34
274.481	255.08
274.94	211.88
275.399	133.95
275.857	123.37
276.316	150.85
276.775	137.67
277.233	122.78
277.692	144.33
278.15	176.7
278.609	219.38
279.067	177.57
279.525	170.75
279.984	227.49
280.442	243.37
280.9	309.69
281.358	208.38
281.816	201.22
282.274	209.09
282.732	187.31
283.19	172.77
283.648	129.77
284.106	130.33
284.564	122.84
285.021	138.42
285.479	125.86
285.937	80.44
286.394	81.7
286.852	77.8
287.309	65.59
287.767	101.15
288.224	114.29
288.682	116.99
289.139	163.91
289.596	162.95
290.053	151.82
290.511	175.59
290.968	232.8
291.425	305.86
291.882	308.34
292.339	299.01
292.796	248.12
293.252	216.49
293.709	202.23
294.166	182.15
294.623	180.83
295.079	151.09
295.536	178.24
295.992	169.89
296.449	166.87
296.905	169.78
297.362	180.36
297.818	180.28
298.274	198
298.731	181.49
299.187	167.16
299.643	175.71
300.099	238.69
300.555	240.85
301.011	213.87
301.467	253.58
301.923	246.9
302.379	249.51
302.835	236.63
303.291	234.59
303.746	265.2
304.202	305.26
304.658	295.6
305.113	207.19
305.569	203.54
306.024	184.95
306.479	114.68
306.935	117.58
307.39	89.92
307.845	108.7
308.301	127.25
308.756	109.38
309.211	147.66
309.666	147.46
310.121	200.46
310.576	195.29
311.031	184.58
311.486	220.7
311.94	206.5
312.395	256.52
312.85	427.88
313.305	1481.05
313.759	12958.52
314.214	694.4
314.668	632.09
315.123	552.53
315.577	246.52
316.032	233.95
316.486	271.68
316.94	246.94
317.394	196.14
317.849	162.55
318.303	146.22
318.757	131.88
319.211	160.71
319.665	160.89
320.119	171.88
320.572	221.13
321.026	229.31
321.48	188.37
321.934	193.91
322.387	185.52
322.841	205.88
323.295	219.08
323.748	201.74
324.202	215.67
324.655	258.42
325.108	376.18
325.562	291.92
326.015	318.43
326.468	261.57
326.921	307.13
327.374	309.5
327.827	326.62
328.28	356.52
328.733	256.88
329.186	214.34
329.639	183.97
330.092	148.99
330.545	136.23
330.997	148.82
331.45	184.99
331.903	212.94
332.355	313.48
332.808	298.86
333.26	247.35
333.713	282.3
334.165	282.4
334.617	352.68
335.069	207.85
335.522	340.07
335.974	335.44
336.426	209.25
336.878	111.66
337.33	86.91
337.782	86.64
338.234	129.71
338.686	129.86
339.137	164.9
339.589	175.78
340.041	198.27
340.493	167.72
340.944	164.67
341.396	179.45
341.847	183.68
342.299	219.17
342.75	274.5
343.201	214.43
343.653	260.47
344.104	284.88
344.555	232.4
345.006	304.99
345.457	283.66
345.908	239.33
346.359	259.87
346.81	205.88
347.261	214.02
347.712	179.61
348.163	164.74
348.613	224.87
349.064	203.21
349.515	186.59
349.965	195.65
350.416	219.8
350.866	244.21
351.317	220.07
351.767	314.29
352.217	321.44
352.668	345.36
353.118	335.76
353.568	210.78
354.018	227.43
354.468	260.35
354.918	205.37
355.368	161.86
355.818	189.74
356.268	393.52
356.718	2180.13
357.168	681.57
357.617	332.37
358.067	358.14
358.517	317.41
358.966	346.34
359.416	394.14
359.865	353.23
360.315	393.46
360.764	203.62
361.213	159.6
361.663	115.4
362.112	117.85
362.561	133.35
363.01	127.63
363.459	122.76
363.908	117.78
364.357	128.07
364.806	211.3
365.255	170.32
365.703	193.22
366.152	205.5
366.601	167.13
367.05	162.68
367.498	172.62
367.947	164.74
368.395	159.72
368.844	149.21
369.292	123.48
369.74	109.97
370.189	150.13
370.637	142.73
371.085	110.14
371.533	144.89
371.981	104.13
372.429	120.36
372.877	126.43
373.325	121.84
373.773	113.26
374.221	111.3
374.669	125.8
375.116	112.68
375.564	137.62
376.012	168.59
376.459	153.98
376.907	185.66
377.354	187.96
377.801	201.99
378.249	248.47
378.696	281.77
379.143	337.58
379.591	307.47
380.038	477.89
380.485	344.3
380.932	286.41
381.379	313.32
381.826	293.78
382.273	185.77
382.72	129.8
383.166	112.2
383.613	116.89
384.06	103.19
384.506	121.86
384.953	92.4
385.4	78.13
385.846	66.67
386.292	44.57
386.739	23.2
387.185	25.83
387.631	35.17
388.078	54.44
388.524	41.03
388.97	45.43
389.416	40.9
389.862	48.94
390.308	49.16
390.754	63.12
391.2	71.21
391.645	71.07
392.091	96.77
392.537	92.43
392.983	70.61
393.428	87.12
393.874	84.86
394.319	99.87
394.765	110.74
395.21	103.89
395.655	93.86
396.101	87.23
396.546	83.35
396.991	62.74
397.436	60.82
397.881	62.88
398.326	46.04
398.771	47.45
399.216	33.16
399.661	25.05
400.106	34.25
400.551	39.21
400.995	37.5
401.44	37.52
401.885	41.51
402.329	38.93
402.774	39.13
403.218	52.67
403.663	49.92
404.107	56.69
404.551	58.39
404.995	49.78
405.44	43.25
405.884	41.44
406.328	35.72
406.772	29.15
407.216	26.31
407.66	20.68
408.104	9.42
408.547	8.69
408.991	5.43
409.435	4.58
409.879	8.85
410.322	11.15
410.766	13.42
411.209	18.75
411.653	16.52
412.096	19.98
412.54	20.43
412.983	22.13
413.426	26.59
413.869	25.08
414.312	25.63
414.756	20.87
415.199	19.51
415.642	18.82
416.085	19.24
416.527	20.84
416.97	18.54
417.413	18.72
417.856	16.29
418.298	13.73
418.741	13.31
419.184	10.07
419.626	7.03
420.069	6.4
420.511	5.32
420.953	5.55
421.396	5.26
421.838	4.6
422.28	4.54
422.722	6.43
423.164	5.51
423.606	6.17
424.048	6.66
424.49	10.16
424.932	9.37
425.374	9.6
425.816	5.72
426.258	7.84
426.699	9.42
427.141	12.81
427.582	11.14
428.024	8.19
428.465	5.44
428.907	5.83
429.348	5.77
429.789	8.49
430.231	11.59
430.672	12.22
431.113	10.88
431.554	9.96
431.995	7.52
432.436	8.85
432.877	11.04
433.318	15.52
433.759	13.22
434.2	13.18
434.64	9.83
435.081	9.24
435.522	10.48
435.962	9.6
436.403	10.54
436.843	8.63
437.284	7.63
437.724	5.59
438.164	0.4
438.604	1.28
439.045	2.79
439.485	6.34
439.925	5.35
440.365	5.93
440.805	6.46
441.245	6.45
441.685	7.65
442.125	6.29
442.564	6.47
443.004	9.68
443.444	10.35
443.883	9.15
444.323	6.05
444.762	4.01
445.202	1.51
445.641	1.89
446.081	0.88
446.52	0.85
446.959	3.21
447.398	4.65
447.837	3.24
448.276	3.4
448.716	5.52
449.154	4.56
449.593	5.59
450.032	6.24
450.471	4.82
450.91	4.89
451.349	6.27
451.787	4.29
452.226	3.18
452.664	3.29
453.103	2.17
453.541	-0.05
453.98	4.17
454.418	4.35
454.856	6
455.295	6.91
455.733	6.69
456.171	5.01
456.609	8.03
457.047	8.86
457.485	10.25
457.923	12.4
458.361	11.86
458.798	9.87
459.236	9.54
459.674	8.39
460.111	8.23
460.549	8.9
460.987	8.35
461.424	6.47
461.862	6.32
462.299	6.47
462.736	5.76
463.173	6.24
463.611	8.18
464.048	7.82
464.485	8.53
464.922	8.21
465.359	7.48
465.796	13.19
466.233	14.31
466.67	16.18
467.106	16.46
467.543	15.3
467.98	14.41
468.416	12.27
468.853	11.87
469.29	10.7
469.726	10.29
470.162	10.57
470.599	5.92
471.035	4.64
471.471	2.96
471.907	0.69
472.344	1.21
472.78	1.6
473.216	1.36
473.652	2.68
474.088	2.49
474.523	2.33
474.959	1.86
475.395	2.11
475.831	2.36
476.266	3.12
476.702	3.92
477.138	3.83
477.573	4.53
478.008	5.16
478.444	5.11
478.879	6.29
479.314	6.63
479.75	7.36
480.185	7.13
480.62	6.54
481.055	5.86
481.49	6.68
481.925	6.85
482.36	7.13
482.795	5.66
483.229	5.24
483.664	4.93
484.099	4.9
484.534	4.86
484.968	5.3
485.403	5.28
485.837	5.16
486.271	4.2
486.706	3.92
487.14	3.15
487.574	3.72
488.009	3.25
488.443	2.39
488.877	2.94
489.311	1.52
489.745	0.69
490.179	1.36
490.613	2.48
491.046	1.69
491.48	1.79
491.914	2.36
492.348	2.43
492.781	2.84
493.215	2.95
493.648	1.68
494.082	1.99
494.515	2.78
494.948	2.9
495.382	1.64
495.815	2.56
496.248	2.82
496.681	2.13
497.114	1.88
497.547	2.14
497.98	2.76
498.413	4.15
498.846	4.86
499.279	4.41
499.711	3.84
500.144	3.92
500.577	4.79
501.009	3.75
501.442	4.09
501.874	5.06
502.306	4.44
502.739	5.98
503.171	5.9
503.603	5.87
504.036	5.72
504.468	6.34
504.9	6.36
505.332	5.73
505.764	7.54
506.196	7.19
506.627	6.71
507.059	6.93
507.491	4.96
507.923	4.97
508.354	5.03
508.786	4.99
509.217	4.63
509.649	4.97
510.08	4.43
510.512	4.44
510.943	4.92
511.374	5.05
511.805	4.73
512.237	4.94
512.668	4.32
513.099	2.91
513.53	2.93
513.961	3.01
514.391	2.57
514.822	3.7
515.253	3.15
515.684	3.23
516.114	3.47
516.545	4.02
516.975	3.65
517.406	3.22
517.836	3.86
518.267	4.3
518.697	4.51
519.127	4.5
519.558	3.46
519.988	2.71
520.418	1.87
520.848	0.82
521.278	0.42
521.708	16.6
522.138	17.24
522.567	16.43
522.997	16.05
523.427	15.33
523.857	15.47
524.286	15.66
524.716	16.01
525.145	16.7
525.575	17.73
526.004	17.14
526.433	1.56
526.863	1.22
527.292	2.89
527.721	3.16
528.15	2.97
528.579	3.41
529.008	3.49
529.437	3.03
529.866	2.73
530.295	1.46
530.724	2.04
531.152	2.03
531.581	2.95
532.01	2.74
532.438	1.99
532.867	2.19
533.295	1.96
533.723	2.12
534.152	2.3
534.58	2.81
535.008	3.92
535.436	4.73
535.865	4.27
536.293	3.11
536.721	2.94
537.149	3.53
537.576	4.37
538.004	4.47
538.432	3.85
538.86	4.04
539.287	3.27
539.715	3.08
540.143	2.71
540.57	3.32
540.998	3.5
541.425	4.36
541.852	4.25
542.28	3.8
542.707	3.52
543.134	3.86
543.561	4.11
543.988	4.8
544.415	4.54
544.842	3.8
545.269	3.94
545.696	4.67
546.123	4.49
546.549	5.24
546.976	5.67
547.403	5.65
547.829	5.13
548.256	4.56
548.682	4.13
549.108	4.89
549.535	5.4
549.961	4.81
550.387	4.21
550.813	4.63
551.24	4.55
551.666	3.74
552.092	3.35
552.518	3.5
552.943	4.45
553.369	4.55
553.795	3.9
554.221	3.78
554.646	3.7
555.072	4.3
555.498	2.85
555.923	1.67
556.349	1.72
556.774	1.89
557.199	1.75
557.625	1.03
558.05	1.38
558.475	1.1
558.9	1.31
559.325	2.11
559.75	2.26
560.175	2.78
560.6	3.33
561.025	2.95
561.449	3.17
561.874	2.83
562.299	3.29
562.723	2.71
563.148	3.03
563.572	2.83
563.997	2.09
564.421	1.47
564.846	0.49
565.27	0.48
565.694	1.04
566.118	1.29
566.542	2.16
566.966	1.9
567.39	2.15
567.814	2.29
568.238	2.17
568.662	1.96
569.086	1.91
569.509	2.78
569.933	3.78
570.357	3.34
570.78	2.91
571.204	3.78
571.627	3.77
572.05	3.84
572.474	4.49
572.897	4.62
573.32	5.36
573.743	5.03
574.166	5.09
574.589	4.14
575.012	4.32
575.435	3.88
575.858	3.08
576.281	3.22
576.704	3.11
577.126	2.23
577.549	1.87
577.972	1.23
578.394	1.62
578.817	2.86
579.239	3.14
579.661	3.9
580.084	5.33
580.506	5.44
580.928	4.92
581.35	4.97
581.772	5.13
582.194	5.47
582.616	5.11
583.038	4.59
583.46	3.52
583.882	3.45
584.303	2.43
584.725	1.37
585.147	4.52
585.568	5.23
585.99	5.3
586.411	5.47
586.833	5.81
587.254	6.77
587.675	6.66
588.096	6.34
588.518	6.13
588.939	6.62
589.36	7.42
589.781	3.39
590.202	4.93
590.623	4.61
591.043	4.09
591.464	3.77
591.885	3.51
592.305	3.25
592.726	3.18
593.147	3.7
593.567	3.81
593.987	3.36
594.408	3.47
594.828	1.53
595.248	2.27
595.669	3.33
596.089	3
596.509	2.54
596.929	2.85
597.349	3.44
597.769	2.94
598.189	2.96
598.608	3.03
599.028	3
599.448	2.73
599.867	2.47
600.287	1.75
600.706	2.18
601.126	2.74
601.545	3.33
601.965	3
602.384	3.06
602.803	2.39
603.222	2.47
603.641	2.04
604.061	2.82
604.48	2.93
604.898	2.96
605.317	3.04
605.736	2.53
606.155	2.66
606.574	2.6
606.992	2.72
607.411	3.19
607.829	2.32
608.248	2.63
608.666	2.2
609.085	2
609.503	1.81
609.921	2.14
610.339	2.56
610.758	2.49
611.176	2.18
611.594	2.43
612.012	3.05
612.43	4.25
612.847	4.86
613.265	5.44
613.683	5.43
614.101	5.22
614.518	4.62
614.936	4.08
615.353	4.63
615.771	5.2
616.188	4.91
616.606	4.5
617.023	4.53
617.44	4.35
617.857	3.34
618.274	3.54
618.691	3.93
619.108	4.08
619.525	4.42
619.942	3.55
620.359	3.29
620.776	3.37
621.192	3.93
621.609	3.96
622.026	4.08
622.442	4.32
622.859	3.51
623.275	3.8
623.691	3.84
624.108	4.28
624.524	4.6
624.94	4.65
625.356	4.29
625.772	3.8
626.188	3.07
626.604	2.85
627.02	2.9
627.436	3.79
627.852	4.61
628.268	4.45
628.683	3.36
629.099	2.75
629.514	2.55
629.93	3.01
630.345	2.56
630.761	2.52
631.176	2.01
631.591	3.06
632.007	3.55
632.422	1.96
632.837	1.32
633.252	3
633.667	3.15
634.082	3.79
634.497	3.97
634.911	5.05
635.326	5.34
635.741	6.52
636.155	5.82
636.57	5.37
636.984	5.81
637.399	6.97
637.813	6.02
638.228	5.51
638.642	4.34
639.056	4.07
639.47	3.23
639.884	3.03
640.298	2.61
640.712	3.52
641.126	3.6
641.54	3.6
641.954	2.28
642.368	2.34
642.781	5.37
643.195	6.22
643.609	6.39
644.022	6.48
644.436	5.95
644.849	4.96
645.262	3.97
645.676	3.32
646.089	3.48
646.502	4.77
646.915	4.49
647.328	2.95
647.741	3.17
648.154	3.71
648.567	5.53
648.98	6.66
649.393	7.42
649.805	7.23
650.218	7
650.631	6.75
651.043	6.34
651.456	7.11
651.868	7.09
652.28	5.92
652.693	4.79
653.105	3.11
653.517	2.62
653.929	2.9
654.341	3.68
654.753	4.84
655.165	5.56
655.577	5.83
655.989	4.94
656.401	3.56
656.813	5.64
657.224	5.72
657.636	6.05
658.047	6.92
658.459	6.96
658.87	5.43
659.282	4.9
659.693	5.02
660.104	5.24
660.515	5.68
660.926	6.06
661.338	5.55
661.749	5.11
662.159	5.46
662.57	3.65
662.981	3.65
663.392	4.8
663.803	4.87
664.213	4.06
664.624	3.78
665.035	3.54
665.445	3.45
665.855	3.51
666.266	5.49
666.676	5.25
667.086	6.17
667.497	6.66
667.907	6.74
668.317	6.53
668.727	9.29
669.137	8.23
669.547	8.14
669.956	7.95
670.366	7.8
670.776	7.56
671.186	7.06
671.595	6.74
672.005	5.08
672.414	5.43
672.824	6.33
673.233	4.18
673.642	5.07
674.052	5.35
674.461	6.75
674.87	6.44
675.279	6.33
675.688	5.18
676.097	6.8
676.506	7.82
676.915	6.56
677.323	6.5
677.732	5.99
678.141	6.16
678.549	6.21
678.958	4.92
679.366	3.68
679.775	3.25
680.183	5.68
680.592	4.69
681	4.3
681.408	5.01
681.816	4.5
682.224	4.51
682.632	5.37
683.04	5.25
683.448	5.01
683.856	7.53
684.264	8.46
684.671	7.21
685.079	7.83
685.487	8.05
685.894	7.95
686.302	7.3
686.709	8.07
687.116	7.69
687.524	8.79
687.931	10.6
688.338	8.78
688.745	7.42
689.152	7.15
689.559	6.96
689.966	8.33
690.373	9.01
690.78	10.69
691.187	11.8
691.593	12.16
692	11.07
692.407	11.86
692.813	14.27
693.22	14.98
693.626	14.99
694.032	15.06
694.439	15.15
694.845	15.58
695.251	14.68
695.657	13.94
696.063	12.87
696.469	13.04
696.875	12.33
697.281	11.09
697.687	10.51
698.093	10.58
698.498	10.72
698.904	9.27
699.31	8.89
699.715	10.11
700.12	9.68
700.526	9.83
700.931	9.5
701.337	9.39
701.742	10.53
702.147	10.45
702.552	10.43
702.957	9.35
703.362	10.07
703.767	9.84
704.172	9.22
704.577	8.93
704.981	8.63
705.386	8.52
705.791	8.61
706.195	6.71
706.6	6.5
707.004	5.46
707.408	5.12
707.813	5.56
708.217	5.87
708.621	5.54
709.025	4.79
709.43	6.59
709.834	7.31
710.237	6.98
710.641	8.3
711.045	9.67
711.449	11.35
711.853	14.4
712.256	13.19
712.66	11.93
713.064	11.41
713.467	12.71
713.87	11.59
714.274	12.76
714.677	12.66
715.08	12.33
715.484	11.44
715.887	14.25
716.29	12.03
716.693	14.02
717.096	15.79
717.499	17.62
717.901	17.04
718.304	17.84
718.707	15.04
719.109	14.87
719.512	13.69
719.915	15.18
720.317	12.64
720.719	11.61
721.122	10.57
721.524	10.95
721.926	13.59
722.328	14.37
722.731	13.91
723.133	15.12
723.535	14.44
723.937	14.88
724.338	15.45
724.74	15.8
725.142	53.35
725.544	56.59
725.945	65.23
726.347	62.7
726.748	62.25
727.15	62.99
727.551	66.13
727.952	65.57
728.354	64.25
728.755	63.77
729.156	63.33
729.557	26.84
729.958	23.16
730.359	14.55
730.76	13.01
731.161	13
731.562	11.98
731.962	9.47
732.363	10.12
732.763	10.76
733.164	7.87
733.564	8.27
733.965	9.67
734.365	10.46
734.766	10.6
735.166	10.76
735.566	12.01
735.966	12.07
736.366	11.71
736.766	12.51
737.166	12.15
737.566	13.95
737.966	12.89
738.365	13.39
738.765	14.04
739.165	13.39
739.564	13.51
739.964	11.73
740.363	11.31
740.763	10.06
741.162	10.59
741.561	11.16
741.96	9.86
742.36	8.81
742.759	7.97
743.158	6.31
743.557	6.88
743.955	6.93
744.354	7.55
744.753	7.29
745.152	8.63
745.55	6.43
745.949	5.54
746.348	5.63
746.746	4.94
747.144	6.88
747.543	6.53
747.941	4.88
748.339	5.06
748.737	4.95
749.136	6.02
749.534	4.79
749.932	7.36
750.33	7.43
750.727	7.29
751.125	8.96
751.523	7.9
751.921	10.05
752.318	10.64
752.716	11.57
753.113	11.23
753.511	10.96
753.908	11.66
754.305	14.22
754.703	14.44
755.1	15.33
755.497	14.89
755.894	13.93
756.291	13.12
756.688	14.34
757.085	14.11
757.482	16.07
757.878	18.11
758.275	20.47
758.672	15.2
759.068	16.59
759.465	16.74
759.861	18.59
760.258	19.81
760.654	19.07
761.05	20.86
761.447	18
761.843	16.43
762.239	13.23
762.635	11.45
763.031	11.17
763.427	11.53
763.822	12.3
764.218	9.85
764.614	10.5
765.01	10.54
765.405	8.44
765.801	10.85
766.196	9.67
766.592	9.83
766.987	9.97
767.382	8.93
767.778	8.21
768.173	8.28
768.568	9.51
768.963	10.09
769.358	8.91
769.753	9.95
770.148	9.05
770.542	9.89
770.937	8.68
771.332	9.18
771.726	9.39
772.121	12.02
772.515	11.35
772.91	11.67
773.304	11.16
773.699	11.05
774.093	10.55
774.487	10.75
774.881	9.89
775.275	10.52
775.669	8.71
776.063	10.02
776.457	8.6
776.851	9.59
777.245	9.38
777.638	9.28
778.032	9.99
778.425	11.44
778.819	13.84
779.212	15.47
779.606	17.68
779.999	17.83
780.392	19.19
780.786	16.7
781.179	16.68
781.572	17.69
781.965	17.67
782.358	18.14
782.751	15.58
783.143	13.09
783.536	12.33
783.929	11.78
784.322	12.31
784.714	10.33
785.107	13.68
785.499	15.12
785.891	15.65
786.284	15.35
786.676	14.57
787.068	17.91
787.46	19.08
787.852	18.06
788.245	17.19
788.636	16.59
789.028	16.75
789.42	16.26
789.812	15.75
790.204	15.02
790.595	17.19
790.987	18.94
791.378	17.41
791.77	15.64
792.161	15.13
792.553	14.82
792.944	14.94
793.335	14.99
793.726	14.46
794.117	15.97
794.508	14.29
794.899	12.12
795.29	10.42
795.681	10.64
796.072	10.99
796.463	25.19
796.853	29.12
797.244	30.99
797.634	31.71
798.025	31.77
798.415	28.72
798.806	29.86
799.196	31.98
799.586	35.31
799.976	36.48
800.366	34.47
800.756	20.35
801.146	17.94
801.536	17.49
801.926	18.22
802.316	19.95
802.706	21.27
803.095	22.35
803.485	20.62
803.874	17.97
804.264	16.33
804.653	19.54
805.043	21.23
805.432	21.69
805.821	22.53
806.21	22.38
806.599	21.56
806.988	22.48
807.377	20.23
807.766	17.62
808.155	17.63
808.544	18.42
808.933	17.89
809.321	20.51
809.71	18.23
810.098	19.35
810.487	16.35
810.875	12.74
811.264	11.22
811.652	19.75
812.04	23.06
812.428	25.37
812.816	24.74
813.204	24.22
813.592	20.31
813.98	20.17
814.368	22.78
814.756	25.22
815.144	28.01
815.531	30.16
815.919	22.15
816.306	23.96
816.694	23.42
817.081	25.69
817.469	30.18
817.856	26.06
818.243	23.57
818.63	19.46
819.017	23.15
819.404	23.92
819.791	22.68
820.178	21.88
820.565	23.61
820.952	28.91
821.339	29.6
821.725	29.06
822.112	35.14
822.498	38.12
822.885	36.66
823.271	30.52
823.657	27.85
824.044	27.09
824.43	25.54
824.816	29.94
825.202	27.47
825.588	26.62
825.974	28.44
826.36	28.17
826.746	28.71
827.132	29.18
827.517	34.74
827.903	36.61
828.289	41
828.674	40.99
829.06	35.69
829.445	31.11
829.83	27.68
830.216	24.74
830.601	29.69
830.986	36.83
831.371	38.71
831.756	40.97
832.141	46.5
832.526	42.34
832.911	43.61
833.295	42.87
833.68	45.56
834.065	47.5
834.449	46.51
834.834	41.82
835.218	36.87
835.603	36.9
835.987	30.86
836.371	27.88
836.755	29.8
837.139	26.06
837.524	23.94
837.908	23.73
838.291	25.84
838.675	24.16
839.059	24.74
839.443	22.75
839.827	19.37
840.21	18.65
840.594	17.65
840.977	20.6
841.361	22.68
841.744	23.45
842.127	27.96
842.511	24.39
842.894	21.65
843.277	19.96
843.66	18.29
844.043	22.34
844.426	24.81
844.809	21.22
845.191	18.26
845.574	20.79
845.957	22.9
846.339	20.09
846.722	23.11
847.104	23.56
847.487	20.29
847.869	24.44
848.252	25.02
848.634	26.45
849.016	27.98
849.398	27.14
849.78	26.09
850.162	24.83
850.544	23.94
850.926	19.05
851.307	21.21
851.689	25.25
852.071	18.58
852.452	17.45
852.834	17.23
853.215	20.9
853.597	23.38
853.978	25.27
854.359	27.86
854.741	31.51
855.122	30.96
855.503	30.23
855.884	25.27
856.265	30.68
856.646	25.72
857.026	29.02
857.407	28.88
857.788	27.02
858.169	21.17
858.549	24.85
858.93	22.76
859.31	26.49
859.69	32.47
860.071	37.16
860.451	36.63
860.831	40.48
861.211	34.86
861.591	29.89
861.971	28.66
862.351	33.44
862.731	24.59
863.111	22.71
863.491	26.85
863.87	21.31
864.25	19.82
864.629	24.76
865.009	19.35
865.388	24.43
865.768	25.06
866.147	24.57
866.526	24.23
866.905	26.35
867.284	21.58
867.663	13.44
868.042	14.37
868.421	13.73
868.8	10.4
869.179	15.43
869.558	11.54
869.936	14.04
870.315	16.37
870.693	20.68
871.072	21.23
871.45	21.91
871.828	26.48
872.207	29.5
872.585	33.33
872.963	26.79
873.341	37.46
873.719	45.32
874.097	47.32
874.475	43.3
874.853	39.15
875.23	42.85
875.608	45.54
875.986	47.09
876.363	45.28
876.741	50.81
877.118	63.2
877.495	54.94
877.873	50.71
878.25	46.23
878.627	46.99
879.004	45.71
879.381	40.29
879.758	42.89
880.135	43.85
880.512	42.67
880.889	35.58
881.265	28.12
881.642	23.55
882.019	23.38
882.395	29.68
882.772	35.16
883.148	38.72
883.524	40.26
883.901	41.69
884.277	39.48
884.653	39.24
885.029	42.6
885.405	52.14
885.781	56.36
886.157	53.87
886.532	50.5
886.908	45.73
887.284	42.98
887.659	45.79
888.035	46.15
888.411	46.29
888.786	43.44
889.161	39.58
889.537	29.08
889.912	22.17
890.287	22.8
890.662	23.11
891.037	18.07
891.412	18.54
891.787	11.91
892.162	16.96
892.536	15.65
892.911	20.72
893.286	19.79
893.66	23.35
894.035	31.36
894.409	28.63
894.784	32.1
895.158	35.86
895.532	42.81
895.906	50.32
896.281	44.59
896.655	52.06
897.029	56.21
897.402	64.91
897.776	63.02
898.15	55.25
898.524	53.01
898.898	59
899.271	70.66
899.645	67.3
900.018	60.3
900.392	65.85
900.765	57.96
901.138	54.31
901.511	46.45
901.884	55.58
902.258	64.8
902.631	77.94
903.003	77.27
903.376	66.28
903.749	64.42
904.122	65.22
904.495	59.9
904.867	52.53
905.24	51.24
905.612	44.46
905.985	34.26
906.357	18.04
906.729	6.13
907.102	15.99
907.474	17.69
907.846	17.82
908.218	22.87
908.59	38
908.962	44.64
909.334	46.32
909.705	57.43
910.077	60.96
910.449	63.56
910.82	74.85
911.192	74.51
911.563	78.45
911.935	76.52
912.306	69.48
912.677	59.78
913.048	61.9
913.419	66.74
913.79	54.25
914.161	45.97
914.532	58.19
914.903	45.7
915.274	54.42
915.645	66.18
916.015	59.6
916.386	58.05
916.756	51.66
917.127	40.48
917.497	40.74
917.868	54.3
918.238	60.99
918.608	63.68
918.978	72.8
919.348	54.64
919.718	44.71
920.088	42.71
920.458	52.34
920.828	54.62
921.198	59.67
921.567	58.97
921.937	47.57
922.306	34.17
922.676	24.61
923.045	25.96
923.415	34.97
923.784	34.44
924.153	41.87
924.522	45.88
924.891	45.54
925.26	42.31
925.629	33.82
925.998	29.83
926.367	46.53
926.736	66.3
927.104	73.28
927.473	73.8
927.842	79.94
928.21	72.48
928.578	49.02
928.947	51.49
929.315	72.37
929.683	88.74
930.051	95.91
930.42	93.17
930.788	69.1
931.156	69.24
931.523	97.77
931.891	116.85
932.259	132.2
932.627	184.39
932.994	244.24
933.362	221.13
933.729	209.12
934.097	210.18
934.464	184.31
934.831	178.36
935.199	187.12
935.566	161.58
935.933	110.51
936.3	122.68
936.667	85.65
937.034	142.59
937.401	121.21
937.767	120.32
938.134	101.95
938.501	132.61
938.867	173.18
939.234	231.82
939.6	209.64
939.967	295.66
940.333	215.56
940.699	174.34
941.065	96.19
941.431	120.59
941.798	124.77
942.163	175.33
942.529	104
942.895	78.68
943.261	64.01
943.627	67.66
943.992	77.6
944.358	67.91
944.723	103.3
945.089	93.32
945.454	104.34
945.82	97.66
946.185	78.42
946.55	107.96
946.915	118.24
947.28	138.35
947.645	123.1
948.01	124.13
948.375	140.52
948.74	128.67
949.104	120.99
949.469	96.43
949.834	126.97
950.198	224.8
950.562	154.42
950.927	88.11
951.291	98.3
951.655	90.95
952.02	29.38
952.384	20.46
952.748	52.53
953.112	97.96
953.476	105.26
953.839	100.76
954.203	102.49
954.567	115.8
954.931	175.94
955.294	165.84
955.658	157.49
956.021	281.61
956.385	395.98
956.748	554.68
957.111	529.15
957.474	460.86
957.837	387.72
958.2	157.34
958.563	65.5
958.926	82.8
959.289	56.94
959.652	102
960.015	80.34
960.377	126.32
960.74	63.49
961.102	49.81
961.465	199.64
961.827	397.45
962.189	741.75
962.552	576.88
962.914	421.96
963.276	290.55
963.638	188.24
964	179.16
964.362	171.65
964.724	171.74
965.085	140.97
965.447	123.44
965.809	98.63
966.17	76.33
966.532	61.2
966.893	67.64
967.255	80.3
967.616	94.9
967.977	85.05
968.338	69.66
968.699	62.41
969.061	55.27
969.421	49.37
969.782	36.54
970.143	57.52
970.504	92.22
970.865	102.58
971.225	106.13
971.586	121.15
971.946	153.18
972.307	133.44
972.667	159.64
973.027	154.81
973.388	159.18
973.748	133.43
974.108	157.53
974.468	99.43
974.828	124.62
975.188	93.26
975.548	80.17
975.907	71.18
976.267	86.26
976.627	97.84
976.986	109.89
977.346	95.47
977.705	86.64
978.064	66.85
978.424	72.11
978.783	41.66
979.142	27.53
979.501	33.21
979.86	30.96
980.219	17.08
980.578	-0.96
980.937	-20.75
981.296	-4.25
981.654	-6.12
982.013	-41.08
982.371	-39.97
982.73	-2.63
983.088	2.28
983.447	-33.42
983.805	24.37
984.163	124.32
984.521	150.45
984.879	123.81
985.237	-624.93
985.595	867.93
985.953	247.14
986.311	105.55
986.669	73.81
987.026	70.53
987.384	94.67
987.741	57.77
988.099	89.04
988.456	55.77
988.814	103.35
989.171	85.44
989.528	55.05
989.885	60.96
990.242	75.67
990.599	68.43
990.956	74.82
991.313	63.23
991.67	65.67
992.027	97.24
992.383	90.72
992.74	78.94
993.096	86
993.453	86.88
993.809	89.28
994.165	91.86
994.522	129.47
994.878	129.56
995.234	152.87
995.59	147.67
995.946	61.79
996.302	96.42
996.658	98.35
997.013	80.44
997.369	168.93
997.725	198.62
998.08	164.98
998.436	132.28
998.791	185.01
999.147	166.55
999.502	190.02
999.857	158.9
1000.212	148.05
1000.567	227.21
1000.922	192.8
1001.277	106.77
1001.632	108.27
1001.987	97.64
1002.342	85.06
1002.696	84.35
1003.051	102.22
1003.406	140.66
1003.76	143.01
1004.114	167.58
1004.469	138.33
1004.823	106.11
1005.177	85.92
1005.531	68.68
1005.885	74.66
1006.239	89.8
1006.593	102.81
1006.947	125.32
1007.301	66.29
1007.655	58.27
1008.008	43
1008.362	55.04
1008.715	100.03
1009.069	94.38
1009.422	201.84
1009.776	329.08
1010.129	227.63
1010.482	174.78
1010.835	106.59
1011.188	213.54
1011.541	276.46
1011.894	-1374.32
1012.247	4062.75
1012.6	175
1012.952	165.41
1013.305	62.57
1013.657	76.33
1014.01	51.62
1014.362	37.48
1014.715	90.34
1015.067	87.91
1015.419	80.68
1015.771	81.71
1016.123	81.78
1016.475	100
1016.827	99.27
1017.179	119.72
1017.531	106.43
1017.883	87.74
1018.234	133.66
1018.586	129.52
1018.938	179.5
1019.289	257.35
1019.64	251.74
1019.992	237.73
1020.343	194.34
1020.694	193.05
1021.045	141.28
1021.396	160.17
1021.747	235.07
1022.098	223.76
1022.449	166.73
1022.8	137.14
1023.151	112.43
1023.501	123.04
1023.852	119.95
1024.202	135.35
1024.553	131.67
1024.903	159.61
1025.253	172.39
1025.604	168.68
1025.954	203.87
1026.304	221.39
1026.654	254.34
1027.004	316.41
1027.354	387.18
1027.703	365.6
1028.053	367.86
1028.403	613.65
1028.753	610.95
1029.102	56.43
1029.452	-3681.05
1029.801	-212.28
1030.15	-126.54
1030.499	-171.92
897.758	1311.79
901.051	1273.21
904.343	1296.36
907.636	1296.77
910.928	1330.8
914.22	1286.03
917.511	1292.67
920.803	1316.22
924.094	1309.58
927.384	1315.57
930.675	1292.53
933.965	1276.81
937.255	1292.01
940.544	1273.97
943.834	1274.39
947.123	1241.93
950.411	1292.82
953.7	1283.38
956.988	1276.06
960.276	1233.87
963.563	1256.34
966.851	1262.87
970.138	1282.19
973.424	1285.47
976.711	1256.09
979.997	1282.8
983.283	1305.43
986.568	1267.14
989.853	1258.84
993.138	1269.5
996.423	1326.11
999.708	1302.84
1002.992	1315.79
1006.275	1268.92
1009.559	1270.56
1012.842	1325.93
1016.125	1298.55
1019.408	1285.03
1022.69	1315
1025.972	1329.94
1029.254	1319.9
1032.536	1297.77
1035.817	1300.71
1039.098	1286.57
1042.379	1311.41
1045.659	1322.98
1048.939	1292.53
1052.219	1296.98
1055.498	1292.45
1058.778	1284.14
1062.057	1273.64
1065.335	1289.42
1068.614	1291.41
1071.892	1286.26
1075.17	1316.63
1078.447	1315.44
1081.724	1313.55
1085.001	1324.89
1088.278	1310.23
1091.554	1312.85
1094.83	1313.92
1098.106	1328.2
1101.382	1344.06
1104.657	1343.19
1107.932	1344.38
1111.206	1330.84
1114.481	1305.53
1117.755	1307.09
1121.029	1303.35
1124.302	1334.5
1127.575	1316.76
1130.848	1317.17
1134.121	1302.98
1137.393	1277.25
1140.665	1311.47
1143.937	1296.66
1147.208	1269.93
1150.48	1301.18
1153.75	1293.12
1157.021	1296
1160.291	1281.93
1163.561	1311.38
1166.831	1289.21
1170.101	1301.32
1173.37	1282.35
1176.639	1260.06
1179.907	1289.66
1183.176	1296.65
1186.444	1301.15
1189.711	1313.03
1192.979	1325.81
1196.246	1302.74
1199.513	1308.67
1202.78	1312.91
1206.046	1318.73
1209.312	1333.96
1212.578	1337.93
1215.843	1314.07
1219.108	1305.09
1222.373	1313.48
1225.638	1299.93
1228.902	1292.51
1232.166	1274.74
1235.43	1267.82
1238.693	1282.81
1241.956	1281.21
1245.219	1307.17
1248.482	1300.31
1251.744	1303.08
1255.006	1363.66
1258.268	1336.81
1261.529	1317.69
1264.79	1317.03
1268.051	1368.66
1271.312	1377.12
1274.572	1356.24
1277.832	1347.89
1281.092	1337.15
1284.351	1334.49
1287.61	1327.46
1290.869	1291.37
1294.128	1291.8
1297.386	1311.48
1300.644	1308.41
1303.902	1312.31
1307.159	1238.69
1310.416	1267.84
1313.673	1280.85
1316.93	1281.31
1320.186	1294.45
1323.442	1310.16
1326.697	1312.13
1329.953	1297.66
1333.208	1318.27
1336.463	1305.28
1339.717	1286.77
1342.972	1349.4
1346.226	1335.73
1349.479	1315.69
1352.733	1301.53
1355.986	1312.6
1359.238	1302.04
1362.491	1303.34
1365.743	1303.36
1368.995	1303.72
1372.247	1313.4
1375.498	1321.3
1378.749	1339.49
1382	1319.06
1385.251	1331.89
1388.501	1310.84
1391.751	1305.72
1395	1294.43
1398.25	1309.39
1401.499	1324.37
1404.748	1296.18
1407.996	1289.39
1411.244	1288.03
1414.492	1279.7
1417.74	1267.48
1420.987	1278.98
1424.234	1308.43
1427.481	1289.51
1430.728	1316.27
1433.974	1307.43
1437.22	1307.71
1440.465	1302.74
1443.711	1302.98
1446.956	1311.29
1450.201	1298.43
1453.445	1324.18
1456.689	1310.41
1459.933	1321.03
1463.177	1342.29
1466.42	1329.29
1469.663	1317.58
1472.906	1323.78
1476.148	1350.86
1479.391	1327.64
1482.633	1318.3
1485.874	1331.16
1489.115	1335.12
1492.356	1326.17
1495.597	1310.54
1498.838	1304.11
1502.078	1298.61
1505.318	1286.83
1508.557	1300.47
1511.797	1297.75
1515.036	1325.9
1518.274	1303.13
1521.513	1275.53
1524.751	1278.97
1527.989	1292.11
1531.227	1302.68
1534.464	1306.19
1537.701	1301.66
1540.938	1304.47
1544.174	1277.56
1547.41	1271.53
1550.646	1290.98
1553.882	1315.54
1557.117	1346.42
1560.352	1351.65
1563.587	1326.29
1566.821	1310.9
1570.055	1324.29
1573.289	1306.92
1576.523	1334.31
1579.756	1342.89
1582.989	1352.71
1586.222	1328.71
1589.454	1349.86
1592.686	1342.04
1595.918	1353.12
1599.15	1353.09
1602.381	1379.29
1605.612	1367.27
1608.843	1415.97
1612.073	1376.37
1615.303	1369.63
1618.533	1365.26
1621.762	1365.48
1624.992	1350.45
1628.221	1348.01
1631.449	1343.54
1634.678	1356.46
1637.906	1335.33
1641.134	1347.28
1644.361	1330.6
1647.588	1324.6
1650.815	1339.77
1654.042	1321.24
1657.269	1338.17
1660.495	1325.44
1663.72	1320.1
1666.946	1301.5
1670.171	1292.97
1673.396	1276.59
1676.621	1268.78
1679.845	1266.77
1683.069	1269.25
1686.293	1282.27
1689.517	1277.55
1692.74	1253.35
1695.963	1263.35
1699.185	1281.46
1702.408	1270.36
1705.63	1284.31
1708.852	1292.29
1712.073	1277.41
1715.294	1287.21
1718.515	1314.1
1721.736	1291.91
1724.956	1285.31
1728.176	1297.07
1731.396	1305.89
1734.616	1303.67
1737.835	1327.49
1741.054	1308.27
1744.272	1309.58
1747.491	1329.29
1750.709	1339.84
1753.927	1315.14
1757.144	1328.37
1760.361	1358.6
1763.578	1340.66
1766.795	1314.68
1770.011	1308.14
1773.227	1319.73
1776.443	1346.4
1779.658	1362.57
1782.874	1336.57
1786.089	1332.29
1789.303	1331.24
1792.518	1332.45
1795.732	1325.6
1798.945	1333.61
1802.159	1363.22
1805.372	1330.34
1808.585	1324.4
1811.797	1322.49
1815.01	1341.28
1818.222	1354.7
1821.434	1334.57
1824.645	1356.77
1827.856	1360.55
1831.067	1373.01
1834.278	1347.27
1837.488	1332.66
1840.698	1398.57
1843.908	1373.84
1847.117	1357.33
1850.326	1317.5
1853.535	1350.62
1856.744	1369.89
1859.952	1329.41
1863.16	1330.16
1866.368	1345.73
1869.575	1404.43
1872.782	1344.74
1875.989	1310.99
1879.196	1339.87
1882.402	1336.38
1885.608	1353.03
1888.814	1320.97
1892.019	1274.07
1895.224	1305.63
1898.429	1291.06
1901.634	1279.87
1904.838	1269.9
1908.042	1300.38
1911.246	1312.95
1914.449	1290.24
1917.652	1282.96
1920.855	1272.86
1924.058	1286.26
1927.26	1315.51
1930.462	1325.48
1933.664	1346.16
1936.865	1318.28
1940.066	1324.17
1943.267	1296.78
1946.467	1300.53
1949.668	1307.64
1952.868	1347.25
1956.067	1347.2
1959.267	1312.94
1962.466	1325.68
1965.665	1314.53
1968.863	1314.39
1972.061	1312.55
1975.259	1309.81
1978.457	1350.93
1981.654	1329.2
1984.852	1329.82
1988.048	1306.61
1991.245	1297.3
1994.441	1345.78
1997.637	1317
2000.833	1308.88
2004.028	1324.56
2007.223	1361.74
2010.418	1350.28
2013.613	1324.97
2016.807	1322.45
2020.001	1319.48
2023.194	1331.11
2026.388	1318.85
2029.581	1291.41
2032.774	1328.13
2035.966	1334.28
2039.158	1305.22
2042.35	1315.88
2045.542	1277.5
2048.733	1321.52
2051.924	1311.18
2055.115	1321.13
2058.306	1304.12
2061.496	1331.83
2064.686	1360.6
2067.875	1303.06
2071.065	1304.67
2074.254	1313.34
2077.442	1288.91
2080.631	1334.17
2083.819	1300.45
2087.007	1297.14
2090.195	1290.16
2093.382	1291.14
2096.569	1288.73
2099.756	1264.37
2102.942	1300.35
2106.128	1302.9
2109.314	1300.04
2112.5	1292.21
2115.685	1273.75
2118.87	1276.84
2122.055	1315.72
2125.239	1300.56
2128.424	1297.22
2131.608	1327.42
2134.791	1317.26
2137.974	1336.41
2141.157	1330.97
2144.34	1316.32
2147.523	1307.1
2150.705	1325.81
2153.887	1304.96
2157.068	1288.94
2160.25	1277.07
2163.431	1292.05
2166.611	1273.61
2169.792	1286.41
2172.972	1233.73
2176.152	1267.9
2179.331	1279.19
2182.511	1280.33
2185.69	1287.51
2188.868	1291.68
2192.047	1311.54
2195.225	1328.02
2198.403	1296.16
2201.58	1288.39
2204.758	1279.33
2207.935	1320.44
2211.111	1272.08
2214.288	1264.99
2217.464	1282.75
2220.64	1264.45
2223.815	1289.29
2226.991	1249.56
2230.166	1255.31
2233.34	1278.51
2236.515	1286.84
2239.689	1327.8
2242.863	1300.84
2246.036	1327.23
2249.209	1322.16
2252.382	1334.75
2255.555	1336.47
2258.727	1313.37
2261.9	1331.64
2265.071	1327.64
2268.243	1330.39
2271.414	1303
2274.585	1290.44
2277.756	1324.08
2280.926	1304.47
2284.096	1319.67
2287.266	1281.05
2290.436	1309.56
2293.605	1315.24
2296.774	1336.79
2299.942	1341.72
2303.111	1348.56
2306.279	1378.65
2309.447	1370.57
2312.614	1357.26
2315.781	1364.85
2318.948	1353.82
2322.115	1376.86
2325.281	1316.41
2328.447	1323.43
2331.613	1304.57
2334.779	1301.69
2337.944	1299.86
2341.109	1298.39
2344.274	1293.58
2347.438	1272.21
2350.602	1286.84
2353.766	1291.81
2356.929	1288.5
2360.092	1309.4
2363.255	1288.14
2366.418	1275.61
2369.58	1296.52
2372.742	1278.12
2375.904	1266.76
2379.066	1262.53
2382.227	1277.74
2385.388	1253.64
2388.548	1228.92
2391.709	1244.77
2394.869	1244.91
2398.029	1276.3
2401.188	1266.32
2404.347	1256.68
2407.506	1252.03
2410.665	1284.86
2413.823	1273.02
2416.981	1264.79
2420.139	1276.67
2423.296	1295.14
2426.453	1282.98
2429.61	1293.71
2432.767	1278.28
2435.923	1299.31
2439.079	1271.69
2442.235	1289.78
2445.391	1256.57
2448.546	1279.69
2451.701	1296.44
2454.855	1293.98
2458.009	1309.26
2461.163	1303.81
2464.317	1286.1
2467.471	1300.34
2470.624	1320.89
2473.777	1313.22
2476.929	1322.77
2480.082	1334.72
2483.234	1324.94
2486.385	1294.72
2489.537	1289.56
2492.688	1284.6
2495.839	1295.09
2498.989	1302.34
2502.14	1295.32
2505.29	1288.74
2508.439	1299.91
2511.589	1269.48
2514.738	1270.48
2517.887	1279.54
2521.035	1323.48
2524.183	1298.15
2527.331	1292.93
2530.479	1287.08
2533.627	1290.78
