Data from N_1_HIR_IL_4N_Splice17_11-27-16-815.txt Node
Date: Sat Mar 14 11:27:16 EDT 2020
User: sa697716
Spectrometer: FLMS03696
Trigger mode: 0
Integration Time (sec): 3.180400E-1
Scans to average: 20
Electric dark correction enabled: true
Nonlinearity correction enabled: true
Boxcar width: 5
XAxis mode: Wavelengths
Number of Pixels in Spectrum: 2048
>>>>>Begin Spectral Data<<<<<
187.83	-130991.35
188.298	908.11
188.766	383.83
189.233	300.54
189.701	383.62
190.169	692.68
190.636	291.48
191.104	288.03
191.571	70.4
192.039	-29.87
192.506	-38
192.974	319.68
193.441	-559.78
193.908	-492.13
194.375	-175.58
194.842	-162.42
195.31	-68.14
195.777	86.35
196.244	212.17
196.711	176.14
197.177	186.54
197.644	213.18
198.111	374.4
198.578	480.79
199.045	358.57
199.511	555.11
199.978	579.12
200.445	507.64
200.911	547.81
201.378	575.85
201.844	552.42
202.31	900.68
202.777	945.53
203.243	523.93
203.709	471.6
204.176	597.45
204.642	493.74
205.108	478.65
205.574	378.73
206.04	335.97
206.506	303.66
206.972	265.44
207.438	235.46
207.903	257.42
208.369	239.79
208.835	258.17
209.301	254.84
209.766	252.19
210.232	240.16
210.697	278.81
211.163	315.87
211.628	442.23
212.094	396.7
212.559	561.49
213.024	359.63
213.49	437.51
213.955	422.79
214.42	382.35
214.885	345.43
215.35	347.29
215.815	383.43
216.28	408.95
216.745	332.44
217.21	357.41
217.675	295.19
218.14	319.41
218.604	303.47
219.069	316.64
219.534	328.54
219.998	334.67
220.463	356.51
220.927	328.69
221.392	275.32
221.856	261.55
222.32	267.11
222.785	302.62
223.249	343.14
223.713	361.3
224.177	333.85
224.642	355.02
225.106	429.35
225.57	452.13
226.034	386.83
226.497	573.7
226.961	541.29
227.425	637.14
227.889	679.89
228.353	636.82
228.816	1221.69
229.28	1195
229.744	1025.02
230.207	623.79
230.671	583.31
231.134	777.33
231.597	886.56
232.061	813.83
232.524	758.43
232.987	541.01
233.45	502.17
233.914	460.98
234.377	413.85
234.84	361.32
235.303	423.88
235.766	486.86
236.229	529.64
236.691	309.65
237.154	322.93
237.617	254.17
238.08	232.47
238.542	256.52
239.005	184.34
239.468	200.12
239.93	197.37
240.393	180.34
240.855	156.64
241.317	155.61
241.78	173.89
242.242	185.76
242.704	222.29
243.166	217.99
243.629	225.44
244.091	262.89
244.553	271.64
245.015	305.55
245.477	368.33
245.939	516.78
246.4	555.62
246.862	547.03
247.324	519.2
247.786	513.51
248.247	611.84
248.709	487.85
249.17	374.52
249.632	440.81
250.093	526.7
250.555	464.35
251.016	310.87
251.477	284.92
251.939	316.96
252.4	317.56
252.861	365.17
253.322	342.65
253.783	396.38
254.244	461.03
254.705	306.84
255.166	210.19
255.627	209.76
256.088	280.74
256.549	305.06
257.009	253.49
257.47	302.18
257.931	255.86
258.391	220.16
258.852	222
259.312	245.47
259.773	283.98
260.233	306.96
260.694	289.87
261.154	320.33
261.614	288.18
262.074	257.4
262.534	277.29
262.994	270.01
263.455	323.41
263.915	283.65
264.374	259.56
264.834	288.09
265.294	297.59
265.754	301.47
266.214	273.56
266.673	246.3
267.133	292.21
267.593	270.57
268.052	326.35
268.512	276.35
268.971	397.69
269.431	463.94
269.89	417.26
270.349	595.91
270.809	652.83
271.268	612.64
271.727	1337.57
272.186	856.86
272.645	667.69
273.104	422.19
273.563	598.61
274.022	398.94
274.481	350.15
274.94	286.7
275.399	211.18
275.857	218.54
276.316	247.97
276.775	206.25
277.233	210.76
277.692	207.4
278.15	271.39
278.609	328.69
279.067	309.16
279.525	306.61
279.984	349.08
280.442	432.16
280.9	513.84
281.358	362.7
281.816	322.02
282.274	315.09
282.732	299.7
283.19	294.01
283.648	229.86
284.106	234.06
284.564	219.05
285.021	237.18
285.479	176.89
285.937	127.56
286.394	136.06
286.852	152.31
287.309	161.78
287.767	189.34
288.224	201.56
288.682	220.71
289.139	265.7
289.596	245.32
290.053	231.57
290.511	285.18
290.968	376.26
291.425	464.68
291.882	409.73
292.339	385.02
292.796	350.45
293.252	311.98
293.709	277.1
294.166	235.99
294.623	248.09
295.079	233.73
295.536	255.93
295.992	233.35
296.449	232.62
296.905	256.98
297.362	256.95
297.818	262.97
298.274	280.65
298.731	279.69
299.187	275.87
299.643	293.9
300.099	368.34
300.555	389.86
301.011	343.65
301.467	398.47
301.923	395.67
302.379	381.89
302.835	372.37
303.291	354.58
303.746	376.64
304.202	458.95
304.658	461.91
305.113	310.85
305.569	301.34
306.024	279.63
306.479	184.73
306.935	187.42
307.39	188.97
307.845	179.05
308.301	205.13
308.756	193.17
309.211	195.6
309.666	196.55
310.121	293.44
310.576	263.61
311.031	254.49
311.486	293.48
311.94	273.53
312.395	351.43
312.85	641.02
313.305	2308.06
313.759	15290.26
314.214	1040.6
314.668	924.94
315.123	821.57
315.577	383.57
316.032	378.02
316.486	446.91
316.94	404.48
317.394	299.29
317.849	244.56
318.303	234.42
318.757	223.04
319.211	253.48
319.665	228.76
320.119	219.54
320.572	283.23
321.026	275.18
321.48	236.25
321.934	213.35
322.387	200.51
322.841	218.32
323.295	247.18
323.748	250.77
324.202	265.15
324.655	310.13
325.108	451.33
325.562	332.72
326.015	377.44
326.468	287.46
326.921	361.46
327.374	357.76
327.827	391.39
328.28	390.69
328.733	279.42
329.186	241.58
329.639	225.67
330.092	180.06
330.545	176.8
330.997	180.87
331.45	224.37
331.903	274.67
332.355	457.01
332.808	413.25
333.26	348.6
333.713	405.63
334.165	401.92
334.617	498.99
335.069	350.4
335.522	589.96
335.974	644.63
336.426	481.11
336.878	274.87
337.33	138.21
337.782	134.42
338.234	200.26
338.686	206.98
339.137	232.95
339.589	236.95
340.041	229.45
340.493	193.56
340.944	201.78
341.396	223.7
341.847	237.54
342.299	341.34
342.75	468.35
343.201	348.99
343.653	378.42
344.104	435.88
344.555	351.47
345.006	470.96
345.457	429.04
345.908	316.89
346.359	332.11
346.81	250.09
347.261	202.42
347.712	165.16
348.163	195.01
348.613	269.29
349.064	275.27
349.515	254.23
349.965	281.25
350.416	300.97
350.866	314.11
351.317	338.68
351.767	542.69
352.217	691.74
352.668	628.56
353.118	550.64
353.568	388.93
354.018	333.48
354.468	325.39
354.918	247.73
355.368	227.73
355.818	317.08
356.268	809.16
356.718	3894.3
357.168	1073.29
357.617	532.75
358.067	581.83
358.517	573.77
358.966	754.94
359.416	939.2
359.865	968.24
360.315	1075.5
360.764	556.31
361.213	313.17
361.663	255.15
362.112	305.14
362.561	444.64
363.01	323.65
363.459	273.23
363.908	270.54
364.357	255.93
364.806	383.5
365.255	251.27
365.703	265.35
366.152	273.74
366.601	241.45
367.05	205.31
367.498	205.96
367.947	215.47
368.395	207.03
368.844	174.04
369.292	146.21
369.74	125.23
370.189	191.4
370.637	182.87
371.085	159.68
371.533	188.62
371.981	155.21
372.429	163.25
372.877	165.23
373.325	181.32
373.773	176.89
374.221	168.91
374.669	209.42
375.116	195.23
375.564	214.55
376.012	257.17
376.459	218.82
376.907	263.95
377.354	291.09
377.801	308.51
378.249	339
378.696	436.12
379.143	554.82
379.591	558.94
380.038	853.84
380.485	641.65
380.932	634.24
381.379	667.73
381.826	581.96
382.273	394.29
382.72	315.46
383.166	310.62
383.613	210.14
384.06	191.17
384.506	222.18
384.953	162.65
385.4	136.61
385.846	123.85
386.292	88.89
386.739	57.97
387.185	47.78
387.631	56.35
388.078	74.52
388.524	72.04
388.97	65.19
389.416	62.97
389.862	80.75
390.308	88.54
390.754	95.05
391.2	107.19
391.645	109.25
392.091	134.96
392.537	129.86
392.983	110.01
393.428	133.26
393.874	150.57
394.319	162.14
394.765	163.26
395.21	151
395.655	133.22
396.101	128.01
396.546	117.99
396.991	102.67
397.436	97.54
397.881	89.78
398.326	73.61
398.771	70.14
399.216	55.94
399.661	45.57
400.106	57.19
400.551	62.01
400.995	58.16
401.44	57.06
401.885	56.78
402.329	56.57
402.774	58.77
403.218	68.59
403.663	64.39
404.107	67.12
404.551	71.08
404.995	62.98
405.44	56.76
405.884	53.71
406.328	48.46
406.772	44.53
407.216	43.29
407.66	40.33
408.104	29.77
408.547	24.73
408.991	23.44
409.435	20.66
409.879	22.08
410.322	25.04
410.766	28.58
411.209	33.79
411.653	34.02
412.096	34.34
412.54	32.33
412.983	33.25
413.426	38.4
413.869	37.37
414.312	39.22
414.756	34.13
415.199	31.19
415.642	31.2
416.085	29.73
416.527	29.27
416.97	26.13
417.413	27.33
417.856	24.41
418.298	22.6
418.741	21.51
419.184	18.15
419.626	15.92
420.069	16.74
420.511	16.29
420.953	18.88
421.396	18.83
421.838	19.5
422.28	19.17
422.722	21.18
423.164	19.35
423.606	21.08
424.048	21.04
424.49	23.69
424.932	22.16
425.374	20.55
425.816	17.28
426.258	17.66
426.699	20.23
427.141	22.63
427.582	22.01
428.024	20.86
428.465	15.54
428.907	15.91
429.348	17.04
429.789	21.01
430.231	24.36
430.672	24.39
431.113	24.22
431.554	22.14
431.995	20.14
432.436	20.7
432.877	20.59
433.318	25.52
433.759	23.95
434.2	22.81
434.64	20.47
435.081	19.46
435.522	19.62
435.962	19.18
436.403	21.47
436.843	19.56
437.284	19.33
437.724	18.54
438.164	13.63
438.604	15.42
439.045	17.83
439.485	17.43
439.925	15.6
440.365	14.37
440.805	13.19
441.245	12.5
441.685	13.15
442.125	12.35
442.564	12.09
443.004	13.8
443.444	11.77
443.883	11.11
444.323	9.24
444.762	5.89
445.202	5.87
445.641	7.23
446.081	5.28
446.52	5.34
446.959	5.22
447.398	7.31
447.837	7.91
448.276	8.55
448.716	9.37
449.154	9.59
449.593	13.08
450.032	13.07
450.471	10.41
450.91	9.85
451.349	11.71
451.787	11.26
452.226	10.51
452.664	9.11
453.103	8.95
453.541	7.52
453.98	9.96
454.418	9.09
454.856	10.47
455.295	11.29
455.733	11.97
456.171	11.12
456.609	12.22
457.047	13.09
457.485	15.16
457.923	16.02
458.361	15.58
458.798	13.73
459.236	13.22
459.674	11.34
460.111	12.29
460.549	12.45
460.987	10.74
461.424	9.08
461.862	8.19
462.299	8.07
462.736	8.86
463.173	8.25
463.611	10.91
464.048	12.04
464.485	13.95
464.922	13.67
465.359	13.27
465.796	21.13
466.233	22.62
466.67	24.06
467.106	24.36
467.543	22.63
467.98	22.1
468.416	20.33
468.853	19.54
469.29	17.66
469.726	17
470.162	15.8
470.599	9.52
471.035	8.27
471.471	6.84
471.907	5.05
472.344	5.35
472.78	6
473.216	4.13
473.652	3.22
474.088	3.15
474.523	3.3
474.959	4.37
475.395	4.49
475.831	5.14
476.266	5.4
476.702	5.44
477.138	5.32
477.573	5.16
478.008	5.97
478.444	7.79
478.879	9.1
479.314	9.37
479.75	8.66
480.185	7.95
480.62	6.65
481.055	6.27
481.49	6.76
481.925	6.64
482.36	8.18
482.795	7.69
483.229	6.02
483.664	4.97
484.099	5.03
484.534	5.86
484.968	7.04
485.403	7.79
485.837	7.73
486.271	7.41
486.706	6.99
487.14	6.17
487.574	6.66
488.009	6.97
488.443	6.57
488.877	6.57
489.311	5.68
489.745	5.63
490.179	5.51
490.613	7.03
491.046	6.93
491.48	7.05
491.914	6.97
492.348	6.42
492.781	6.57
493.215	6.8
493.648	5.89
494.082	6.03
494.515	5.95
494.948	6.46
495.382	4.74
495.815	5.01
496.248	5.16
496.681	4.88
497.114	4.61
497.547	5.16
497.98	6.15
498.413	8.1
498.846	8.23
499.279	7.63
499.711	7.18
500.144	7.12
500.577	7.87
501.009	7.61
501.442	8.08
501.874	8.69
502.306	8
502.739	9.52
503.171	8.85
503.603	9
504.036	9.12
504.468	9.18
504.9	9.82
505.332	8.99
505.764	9.77
506.196	9.37
506.627	9.67
507.059	9.1
507.491	6.34
507.923	6.17
508.354	6.49
508.786	6.12
509.217	6.12
509.649	6.02
510.08	6.11
510.512	6.43
510.943	6.71
511.374	6.52
511.805	6.75
512.237	6.69
512.668	5.83
513.099	5.07
513.53	5.37
513.961	5.51
514.391	5.22
514.822	6.16
515.253	6.03
515.684	5.64
516.114	5.3
516.545	5.08
516.975	5.13
517.406	4.9
517.836	4.67
518.267	5.04
518.697	5.4
519.127	5.53
519.558	4.77
519.988	4.41
520.418	4.18
520.848	4.04
521.278	4.13
521.708	31.78
522.138	33.26
522.567	32.86
522.997	32.5
523.427	31.99
523.857	32.21
524.286	31.85
524.716	31.81
525.145	32.23
525.575	32.92
526.004	32.7
526.433	5.92
526.863	4.57
527.292	6.11
527.721	6.22
528.15	5.95
528.579	6.27
529.008	6.6
529.437	5.87
529.866	5.33
530.295	4.42
530.724	5.44
531.152	5.74
531.581	6.96
532.01	6.15
532.438	5.7
532.867	5.36
533.295	5.21
533.723	4.26
534.152	4.77
534.58	4.85
535.008	5.36
535.436	6.02
535.865	5.61
536.293	4.44
536.721	4.58
537.149	5.12
537.576	6.07
538.004	6.4
538.432	6.61
538.86	6.86
539.287	6.66
539.715	6.93
540.143	5.94
540.57	6.06
540.998	5.87
541.425	7.43
541.852	7.37
542.28	7.22
542.707	6.6
543.134	6.87
543.561	7.34
543.988	7.31
544.415	6.72
544.842	6.3
545.269	5.98
545.696	6.48
546.123	5.57
546.549	5.62
546.976	5.78
547.403	5.63
547.829	5.22
548.256	4.34
548.682	4.84
549.108	5.59
549.535	5.69
549.961	5.18
550.387	5.36
550.813	6.08
551.24	6.11
551.666	5.57
552.092	5.71
552.518	5.65
552.943	6.44
553.369	6.07
553.795	5.76
554.221	5.8
554.646	6.2
555.072	6.93
555.498	5.73
555.923	4.82
556.349	4.66
556.774	4.52
557.199	4.43
557.625	3.39
558.05	4.2
558.475	4.04
558.9	4.16
559.325	5.07
559.75	4.54
560.175	4.45
560.6	4.65
561.025	4.26
561.449	4.44
561.874	4.41
562.299	5.19
562.723	4.18
563.148	4.17
563.572	3.91
563.997	3.04
564.421	2.14
564.846	1.69
565.27	2.52
565.694	2.77
566.118	2.07
566.542	3.23
566.966	2.77
567.39	3.46
567.814	3.69
568.238	3.8
568.662	3.42
569.086	3.82
569.509	3.97
569.933	4.65
570.357	4.96
570.78	5.47
571.204	5.58
571.627	5.3
572.05	5.33
572.474	6.24
572.897	6.26
573.32	7.36
573.743	6.75
574.166	7.38
574.589	6.13
575.012	5.95
575.435	5.78
575.858	5.55
576.281	6
576.704	5.24
577.126	4.04
577.549	3.76
577.972	3.08
578.394	3.76
578.817	4.76
579.239	4.71
579.661	5.23
580.084	6.27
580.506	6.23
580.928	6.27
581.35	6.83
581.772	6.84
582.194	6.92
582.616	6.53
583.038	6.12
583.46	4.86
583.882	5.2
584.303	4.33
584.725	3.27
585.147	6.65
585.568	6.58
585.99	6.49
586.411	7.21
586.833	7.71
587.254	8.03
587.675	7.94
588.096	7.53
588.518	7.7
588.939	8.37
589.36	8.95
589.781	5.06
590.202	7.36
590.623	7.78
591.043	6.7
591.464	6.2
591.885	6.3
592.305	6.63
592.726	6.8
593.147	6.27
593.567	6.64
593.987	6.09
594.408	5.14
594.828	2.74
595.248	3.17
595.669	4.44
596.089	4.29
596.509	3.72
596.929	3.32
597.349	3.76
597.769	4.16
598.189	3.62
598.608	4.3
599.028	4.77
599.448	4.27
599.867	3.19
600.287	2.16
600.706	2.81
601.126	3.71
601.545	4.29
601.965	3.83
602.384	3.66
602.803	3.42
603.222	3.15
603.641	3.53
604.061	4.46
604.48	4.72
604.898	5.01
605.317	4.48
605.736	4.04
606.155	4.44
606.574	4.44
606.992	4.53
607.411	5.16
607.829	4.48
608.248	4.01
608.666	3.1
609.085	3.31
609.503	3.59
609.921	4.08
610.339	4.07
610.758	3.28
611.176	3.1
611.594	3.46
612.012	2.86
612.43	3.53
612.847	3.65
613.265	4.88
613.683	4.87
614.101	4.49
614.518	4.2
614.936	4.43
615.353	5.41
615.771	6.18
616.188	6.4
616.606	7.04
617.023	7.49
617.44	7.21
617.857	6.28
618.274	6
618.691	6.53
619.108	6.81
619.525	7.13
619.942	6.47
620.359	6.34
620.776	6.19
621.192	7
621.609	7.31
622.026	8.07
622.442	8.53
622.859	8.12
623.275	7.42
623.691	7.55
624.108	7.79
624.524	7.98
624.94	8.2
625.356	7.41
625.772	6.07
626.188	5.48
626.604	5.16
627.02	4.66
627.436	5.27
627.852	6.96
628.268	7.32
628.683	6.16
629.099	5.65
629.514	5.18
629.93	5.78
630.345	5.54
630.761	4.56
631.176	4.96
631.591	6.5
632.007	7.12
632.422	5.23
632.837	4.07
633.252	5.61
633.667	6.13
634.082	6.5
634.497	6.7
634.911	8.32
635.326	8.93
635.741	8.43
636.155	7.39
636.57	7.56
636.984	8.2
637.399	9.29
637.813	8.3
638.228	7.83
638.642	7.37
639.056	7.15
639.47	6.72
639.884	7.14
640.298	7.77
640.712	8.32
641.126	8.59
641.54	7.88
641.954	6.16
642.368	6.04
642.781	8.51
643.195	8.37
643.609	8.88
644.022	8.31
644.436	7.68
644.849	6.82
645.262	5.99
645.676	4.21
646.089	4.6
646.502	6.18
646.915	6.04
647.328	4.74
647.741	4.94
648.154	4.46
648.567	6.62
648.98	7.26
649.393	7.94
649.805	8.25
650.218	8.56
650.631	8.93
651.043	8.61
651.456	9.62
651.868	9.09
652.28	9.05
652.693	8.87
653.105	7.56
653.517	7.6
653.929	7.39
654.341	7.82
654.753	8.53
655.165	8.48
655.577	8.65
655.989	8.45
656.401	7.25
656.813	8.38
657.224	8.62
657.636	8.13
658.047	8.25
658.459	8.26
658.87	7.72
659.282	8.14
659.693	8.97
660.104	9.05
660.515	8.13
660.926	8.79
661.338	8.1
661.749	7.48
662.159	8.02
662.57	7.64
662.981	7.79
663.392	7.57
663.803	6.76
664.213	6.03
664.624	5.62
665.035	5.83
665.445	5.36
665.855	6.09
666.266	7.57
666.676	6.81
667.086	6.13
667.497	6.67
667.907	6.84
668.317	7.03
668.727	9.77
669.137	9.37
669.547	8.97
669.956	8.28
670.366	7.75
670.776	7.06
671.186	7.25
671.595	8.37
672.005	7.35
672.414	7.96
672.824	8.63
673.233	6.22
673.642	6.08
674.052	6.61
674.461	8.75
674.87	8.62
675.279	9.17
675.688	8.73
676.097	9.13
676.506	8.92
676.915	8.58
677.323	8.05
677.732	6.91
678.141	7.07
678.549	7.19
678.958	6.42
679.366	5.43
679.775	3.94
680.183	4.85
680.592	4.09
681	4.78
681.408	4.39
681.816	4.45
682.224	4.8
682.632	6.53
683.04	6.32
683.448	5.95
683.856	7.69
684.264	9.7
684.671	8.73
685.079	7.76
685.487	7.79
685.894	7.5
686.302	6.7
686.709	7.5
687.116	6.01
687.524	6.75
687.931	8.49
688.338	8.43
688.745	6.8
689.152	6.75
689.559	7.73
689.966	8.34
690.373	9.38
690.78	10.49
691.187	11.09
691.593	12.44
692	12.4
692.407	12.19
692.813	14.13
693.22	14.61
693.626	13.88
694.032	14.87
694.439	14.7
694.845	14.62
695.251	14.68
695.657	14.86
696.063	12.97
696.469	12.5
696.875	12.29
697.281	9.95
697.687	9.69
698.093	10.89
698.498	11.82
698.904	10.77
699.31	11.45
699.715	12.46
700.12	10.89
700.526	12.29
700.931	11.6
701.337	11.84
701.742	12.84
702.147	13.09
702.552	12.85
702.957	10.5
703.362	10.72
703.767	10
704.172	8.55
704.577	8.75
704.981	7.22
705.386	8.44
705.791	8.24
706.195	7.04
706.6	7.3
707.004	5.99
707.408	5.57
707.813	5.96
708.217	6.21
708.621	6.32
709.025	6.36
709.43	8.35
709.834	8.04
710.237	7.64
710.641	7.58
711.045	8.08
711.449	10.39
711.853	14.24
712.256	14.11
712.66	13.81
713.064	14.41
713.467	16.36
713.87	16.08
714.274	16.4
714.677	17.65
715.08	19.38
715.484	19.87
715.887	21.71
716.29	19.03
716.693	21.32
717.096	22.65
717.499	22.93
717.901	20.65
718.304	20.45
718.707	20.87
719.109	19.11
719.512	16.87
719.915	18.81
720.317	16.94
720.719	15.12
721.122	13.67
721.524	13.43
721.926	16.98
722.328	16.89
722.731	16.06
723.133	15.02
723.535	15.44
723.937	16.87
724.338	15.86
724.74	17.09
725.142	59.62
725.544	63.17
725.945	73.3
726.347	68.98
726.748	70.74
727.15	72.34
727.551	75.32
727.952	74.64
728.354	72.8
728.755	71.95
729.156	70.3
729.557	29.96
729.958	25.8
730.359	16.22
730.76	16.21
731.161	15.92
731.562	14.19
731.962	11.25
732.363	11.58
732.763	11.78
733.164	9.81
733.564	9.52
733.965	10.19
734.365	11.34
734.766	11.37
735.166	11.31
735.566	11.68
735.966	12.55
736.366	13.12
736.766	12.5
737.166	12.45
737.566	13.69
737.966	14.38
738.365	15.11
738.765	15.84
739.165	16.16
739.564	16.41
739.964	14.35
740.363	13.63
740.763	12.88
741.162	14.91
741.561	14.49
741.96	13.59
742.36	12.59
742.759	12.87
743.158	11.46
743.557	10.5
743.955	9.73
744.354	10.52
744.753	10.41
745.152	12.43
745.55	9.46
745.949	10.12
746.348	11.19
746.746	9.72
747.144	10.1
747.543	9.25
747.941	9.11
748.339	9.48
748.737	9.66
749.136	10.81
749.534	7.64
749.932	10.84
750.33	10.99
750.727	9.56
751.125	11.21
751.523	10.95
751.921	13.67
752.318	14.73
752.716	16.62
753.113	16.45
753.511	15.74
753.908	17.67
754.305	20
754.703	19.53
755.1	21.16
755.497	20.13
755.894	19.13
756.291	18.13
756.688	17.75
757.085	16.56
757.482	17.45
757.878	20.82
758.275	21.64
758.672	16.12
759.068	17.48
759.465	16.46
759.861	18.48
760.258	17.82
760.654	15.41
761.05	19.89
761.447	16.62
761.843	17.34
762.239	15.13
762.635	13.5
763.031	13.3
763.427	13.89
763.822	16.2
764.218	15.66
764.614	16.55
765.01	15.27
765.405	13.28
765.801	15.15
766.196	13.33
766.592	12.09
766.987	12.46
767.382	13.05
767.778	11.69
768.173	10.2
768.568	10.03
768.963	10.56
769.358	11.66
769.753	12.38
770.148	12.31
770.542	13.13
770.937	13.39
771.332	14.38
771.726	14.14
772.121	18.2
772.515	18.29
772.91	18.97
773.304	19
773.699	18.84
774.093	18.2
774.487	18.7
774.881	18.5
775.275	18.28
775.669	16.7
776.063	15.5
776.457	12.41
776.851	12.29
777.245	12.11
777.638	12.14
778.032	11.36
778.425	12.67
778.819	15.52
779.212	17.89
779.606	19.18
779.999	19.16
780.392	21.73
780.786	21.57
781.179	23.62
781.572	26.24
781.965	26.69
782.358	27.2
782.751	25.43
783.143	22.46
783.536	21.82
783.929	19.78
784.322	20.86
784.714	19.77
785.107	21.21
785.499	21.69
785.891	21.76
786.284	21.66
786.676	21.67
787.068	24.21
787.46	26.4
787.852	24.08
788.245	24.79
788.636	23.69
789.028	24.05
789.42	25.18
789.812	24.25
790.204	23.25
790.595	26.72
790.987	26.09
791.378	25.58
791.77	23.05
792.161	23.21
792.553	24.31
792.944	24.87
793.335	22.94
793.726	22.44
794.117	24.37
794.508	21.86
794.899	16.55
795.29	16.42
795.681	14.53
796.072	13.92
796.463	32.09
796.853	34.93
797.244	37.09
797.634	39.22
798.025	38.59
798.415	35.19
798.806	38.78
799.196	41.68
799.586	45.82
799.976	49.91
800.366	50.38
800.756	31.8
801.146	29.54
801.536	28.97
801.926	28.46
802.316	30.01
802.706	30.06
803.095	28.19
803.485	27.07
803.874	23.27
804.264	20.01
804.653	23.51
805.043	27.73
805.432	28.59
805.821	29
806.21	31.26
806.599	28.16
806.988	29.84
807.377	28.46
807.766	27.88
808.155	29.75
808.544	30.73
808.933	28.88
809.321	30.5
809.71	28.08
810.098	26.73
810.487	22.86
810.875	23.92
811.264	25.75
811.652	35.19
812.04	37.54
812.428	39.63
812.816	39.94
813.204	43.14
813.592	36.7
813.98	40.68
814.368	45.54
814.756	48.09
815.144	48.65
815.531	52.39
815.919	44.64
816.306	44.03
816.694	41.53
817.081	42.08
817.469	41.65
817.856	41.05
818.243	34.6
818.63	28.37
819.017	30.19
819.404	34.85
819.791	28.91
820.178	25.11
820.565	30.2
820.952	39.79
821.339	40.58
821.725	38.93
822.112	42.57
822.498	46.08
822.885	45.77
823.271	42.88
823.657	36.04
824.044	37.36
824.43	39.86
824.816	45.39
825.202	42.85
825.588	41.95
825.974	43.76
826.36	42.21
826.746	44.64
827.132	47.02
827.517	52.06
827.903	50.02
828.289	53.9
828.674	51.05
829.06	43.97
829.445	39.28
829.83	37.54
830.216	37.02
830.601	39.44
830.986	44.25
831.371	44.53
831.756	44.16
832.141	52.59
832.526	52.85
832.911	54.32
833.295	50.73
833.68	48.65
834.065	52.3
834.449	53.03
834.834	53.61
835.218	51.52
835.603	52.75
835.987	49.58
836.371	47.67
836.755	47.57
837.139	44.78
837.524	43.38
837.908	42.76
838.291	44.03
838.675	40.88
839.059	39.43
839.443	35.81
839.827	31.31
840.21	28.73
840.594	28.18
840.977	28.88
841.361	30.16
841.744	31.67
842.127	32.89
842.511	27.83
842.894	25.34
843.277	25.72
843.66	22.65
844.043	27.96
844.426	35.97
844.809	28.74
845.191	27.09
845.574	29.75
845.957	30.47
846.339	34.24
846.722	36.1
847.104	34.84
847.487	32.29
847.869	35.95
848.252	38.61
848.634	36.62
849.016	38.36
849.398	35.39
849.78	35.12
850.162	36.75
850.544	34.73
850.926	31.21
851.307	34.02
851.689	39.29
852.071	33.65
852.452	30.36
852.834	27.46
853.215	30.57
853.597	27.63
853.978	30.15
854.359	28.58
854.741	29.08
855.122	31.69
855.503	27.45
855.884	22.79
856.265	24.97
856.646	21.23
857.026	18.61
857.407	23.65
857.788	25.66
858.169	20.62
858.549	24.52
858.93	26.22
859.31	26.97
859.69	35.64
860.071	39.12
860.451	41.79
860.831	41.87
861.211	43.59
861.591	36.85
861.971	34.23
862.351	36.43
862.731	35.07
863.111	34.55
863.491	34.85
863.87	32.26
864.25	28.13
864.629	35.75
865.009	37.06
865.388	41.6
865.768	41.98
866.147	48.75
866.526	50.7
866.905	51.09
867.284	50.13
867.663	44.37
868.042	40.84
868.421	43.62
868.8	39.19
869.179	45.41
869.558	43.5
869.936	46.68
870.315	44.79
870.693	48.69
871.072	49.6
871.45	46.05
871.828	53.35
872.207	56.13
872.585	53.25
872.963	48.73
873.341	50.78
873.719	60.37
874.097	58.27
874.475	58.9
874.853	51.83
875.23	45.47
875.608	48.92
875.986	50.06
876.363	53.45
876.741	69.91
877.118	77.66
877.495	75.97
877.873	67.8
878.25	70.66
878.627	71.35
879.004	68.86
879.381	70.9
879.758	77.74
880.135	70.97
880.512	70.2
880.889	52.15
881.265	47.65
881.642	43.62
882.019	40.85
882.395	48.12
882.772	51.74
883.148	54.3
883.524	55.75
883.901	49.78
884.277	51.52
884.653	51.03
885.029	59.37
885.405	69.46
885.781	70.77
886.157	69.55
886.532	61.46
886.908	54.8
887.284	62.56
887.659	64.96
888.035	63.12
888.411	57.85
888.786	55.4
889.161	52.67
889.537	39.91
889.912	40.58
890.287	44.83
890.662	42.65
891.037	38.6
891.412	33.57
891.787	32.6
892.162	38.4
892.536	41.04
892.911	42.57
893.286	38.94
893.66	38.84
894.035	42.63
894.409	35.86
894.784	43.77
895.158	49.32
895.532	53.58
895.906	57.69
896.281	58.58
896.655	65.39
897.029	70.89
897.402	77.65
897.776	87
898.15	83.95
898.524	85.32
898.898	78.51
899.271	92.69
899.645	87.43
900.018	80.08
900.392	82.74
900.765	78.91
901.138	82.89
901.511	71.41
901.884	77.54
902.258	75.52
902.631	85.33
903.003	91.19
903.376	73.59
903.749	71.98
904.122	78.91
904.495	70.03
904.867	61.95
905.24	50.64
905.612	51.63
905.985	42.87
906.357	36.3
906.729	37.41
907.102	45.04
907.474	53.34
907.846	65.41
908.218	64.91
908.59	70.91
908.962	74.16
909.334	81.56
909.705	92.51
910.077	88.53
910.449	93.64
910.82	98.15
911.192	106.8
911.563	112.31
911.935	103.23
912.306	96.59
912.677	81.42
913.048	79.8
913.419	79.84
913.79	61.6
914.161	67.04
914.532	72.24
914.903	56.63
915.274	50.57
915.645	50.38
916.015	36.7
916.386	40.16
916.756	43.35
917.127	36.46
917.497	42.85
917.868	55.45
918.238	56.71
918.608	46.96
918.978	55.26
919.348	53.24
919.718	58.57
920.088	76.15
920.458	83.23
920.828	88.2
921.198	96.93
921.567	100.08
921.937	89.26
922.306	79.07
922.676	92.5
923.045	99.22
923.415	102.39
923.784	85.53
924.153	96.31
924.522	101.9
924.891	98.33
925.26	99.46
925.629	86.62
925.998	81.55
926.367	86.44
926.736	94.44
927.104	80.04
927.473	72.42
927.842	102.28
928.21	76.36
928.578	55.42
928.947	54.58
929.315	73.04
929.683	115.94
930.051	149
930.42	161.17
930.788	138.76
931.156	153.56
931.523	189.6
931.891	178.21
932.259	185.32
932.627	231.9
932.994	319.95
933.362	274.67
933.729	219.28
934.097	198.71
934.464	189.31
934.831	192.02
935.199	189.53
935.566	163.21
935.933	137
936.3	168.49
936.667	130.71
937.034	192.23
937.401	189.4
937.767	179.04
938.134	149.2
938.501	175.59
938.867	226.56
939.234	358.28
939.6	245.32
939.967	302.44
940.333	205.42
940.699	145.7
941.065	46.76
941.431	70.08
941.798	107.69
942.163	201.99
942.529	140.94
942.895	109.66
943.261	69.63
943.627	103.12
943.992	98.44
944.358	91.95
944.723	154.27
945.089	166.22
945.454	154.65
945.82	137.97
946.185	127.06
946.55	172.01
946.915	159.17
947.28	200.51
947.645	189.86
948.01	206.62
948.375	228.61
948.74	219.52
949.104	249.9
949.469	276.35
949.834	482.34
950.198	518.65
950.562	308.76
950.927	254.8
951.291	310.67
951.655	258.74
952.02	192.93
952.384	155.31
952.748	166.65
953.112	189.33
953.476	185.03
953.839	165.19
954.203	171.05
954.567	203.28
954.931	274.45
955.294	253
955.658	252.57
956.021	416.92
956.385	593.16
956.748	770.14
957.111	866.58
957.474	815.67
957.837	979.98
958.2	548.54
958.563	211.59
958.926	189.62
959.289	197.8
959.652	263.92
960.015	208.01
960.377	318.48
960.74	358.53
961.102	534.09
961.465	827.43
961.827	766.06
962.189	1581.42
962.552	1063.32
962.914	875.98
963.276	592.17
963.638	488.24
964	465.31
964.362	335.73
964.724	304.99
965.085	254.01
965.447	206.88
965.809	158.3
966.17	132.28
966.532	143.5
966.893	133.78
967.255	124.76
967.616	127.76
967.977	108.5
968.338	113.27
968.699	119.33
969.061	111.56
969.421	107.35
969.782	122.97
970.143	121.89
970.504	153.74
970.865	178.45
971.225	185.52
971.586	176.38
971.946	233.6
972.307	208.29
972.667	249.35
973.027	258.17
973.388	285.1
973.748	213.86
974.108	242.35
974.468	258.97
974.828	242.92
975.188	193.63
975.548	173.49
975.907	151.68
976.267	154.19
976.627	136.35
976.986	126.63
977.346	118.46
977.705	104.11
978.064	81.15
978.424	74.68
978.783	48.26
979.142	45.79
979.501	70.91
979.86	68.55
980.219	53.77
980.578	36.86
980.937	38.21
981.296	60.91
981.654	54.81
982.013	76.6
982.371	91.59
982.73	98.46
983.088	111.09
983.447	78
983.805	165.59
984.163	494.37
984.521	671.04
984.879	684.62
985.237	-843.41
985.595	1117.5
985.953	180.96
986.311	90.36
986.669	52.43
987.026	51.22
987.384	32.7
987.741	20.14
988.099	83.42
988.456	91.27
988.814	125.55
989.171	122.15
989.528	99.09
989.885	109.56
990.242	108.8
990.599	126.11
990.956	104.65
991.313	89.17
991.67	78.9
992.027	109.95
992.383	102.03
992.74	96.88
993.096	111.17
993.453	119.14
993.809	131.76
994.165	157.59
994.522	191.76
994.878	211.39
995.234	262.95
995.59	261.95
995.946	182.97
996.302	193.89
996.658	203.73
997.013	180.9
997.369	266.78
997.725	331.36
998.08	212.58
998.436	136.77
998.791	195.99
999.147	162.37
999.502	195.9
999.857	151.92
1000.212	286.35
1000.567	543.08
1000.922	356.59
1001.277	164.05
1001.632	145
1001.987	213.7
1002.342	208.69
1002.696	184.48
1003.051	189.66
1003.406	216.39
1003.76	216.4
1004.114	202.04
1004.469	172.98
1004.823	141.06
1005.177	144.58
1005.531	124.66
1005.885	121.77
1006.239	143.9
1006.593	172.94
1006.947	233.01
1007.301	166.99
1007.655	175.17
1008.008	150.34
1008.362	138.61
1008.715	198.56
1009.069	186.63
1009.422	315.06
1009.776	550.19
1010.129	334.41
1010.482	278.98
1010.835	172.34
1011.188	433.31
1011.541	397.49
1011.894	-2021.45
1012.247	7140.79
1012.6	448.89
1012.952	352.81
1013.305	124.31
1013.657	106.35
1014.01	108.44
1014.362	87.18
1014.715	125.04
1015.067	116.76
1015.419	108.93
1015.771	104.72
1016.123	110.86
1016.475	122.31
1016.827	127.53
1017.179	149.12
1017.531	163.95
1017.883	157.4
1018.234	202.88
1018.586	218.84
1018.938	258.27
1019.289	373.08
1019.64	382.43
1019.992	346.1
1020.343	327.56
1020.694	302.7
1021.045	270.16
1021.396	274.88
1021.747	319.95
1022.098	303.04
1022.449	231.21
1022.8	183.25
1023.151	153.98
1023.501	162.14
1023.852	164.59
1024.202	185.34
1024.553	177.09
1024.903	200.71
1025.253	202.45
1025.604	191.28
1025.954	219.15
1026.304	236.65
1026.654	301.4
1027.004	395.71
1027.354	556.33
1027.703	605.27
1028.053	665.66
1028.403	1033.86
1028.753	1181.71
1029.102	1227.86
1029.452	5097.07
1029.801	267.95
1030.15	215.51
1030.499	148.67
897.758	1493.07
901.051	1444.23
904.343	1471.49
907.636	1473.71
910.928	1514.55
914.22	1462.38
917.511	1466.72
920.803	1498.97
924.094	1491.69
927.384	1497.54
930.675	1470.96
933.965	1450.7
937.255	1473.45
940.544	1452.89
943.834	1450.79
947.123	1411.92
950.411	1470.94
953.7	1462.12
956.988	1451.8
960.276	1402.71
963.563	1430.34
966.851	1438.7
970.138	1462.54
973.424	1462.28
976.711	1428.28
979.997	1460.54
983.283	1487.76
986.568	1444.7
989.853	1433.35
993.138	1446.03
996.423	1510.75
999.708	1483.46
1002.992	1501.08
1006.275	1442.11
1009.559	1446.28
1012.842	1509.51
1016.125	1479.17
1019.408	1463.88
1022.69	1497.43
1025.972	1515.87
1029.254	1501.81
1032.536	1476.75
1035.817	1481.16
1039.098	1462.22
1042.379	1491.91
1045.659	1507.44
1048.939	1472.54
1052.219	1472.47
1055.498	1466.23
1058.778	1459.32
1062.057	1446.25
1065.335	1464.96
1068.614	1467.45
1071.892	1461.52
1075.17	1495.66
1078.447	1496.95
1081.724	1493.79
1085.001	1504.86
1088.278	1493.01
1091.554	1494.17
1094.83	1493.46
1098.106	1516.07
1101.382	1530.76
1104.657	1529.81
1107.932	1531.91
1111.206	1517.69
1114.481	1485.74
1117.755	1485.45
1121.029	1481.85
1124.302	1518.95
1127.575	1500.52
1130.848	1499.19
1134.121	1478.86
1137.393	1452.58
1140.665	1493
1143.937	1474.63
1147.208	1442.12
1150.48	1481.73
1153.75	1474.24
1157.021	1477.65
1160.291	1460.34
1163.561	1492.88
1166.831	1468.2
1170.101	1481.47
1173.37	1459.32
1176.639	1431.69
1179.907	1463.11
1183.176	1475.46
1186.444	1476.66
1189.711	1489.66
1192.979	1505.82
1196.246	1479.32
1199.513	1489.21
1202.78	1493.4
1206.046	1500.91
1209.312	1518.94
1212.578	1524.57
1215.843	1502.26
1219.108	1483.35
1222.373	1499.17
1225.638	1483.54
1228.902	1475.81
1232.166	1452.52
1235.43	1443.69
1238.693	1462.46
1241.956	1458.53
1245.219	1489.76
1248.482	1481.51
1251.744	1481.62
1255.006	1557.16
1258.268	1523.05
1261.529	1499.95
1264.79	1497.91
1268.051	1556.83
1271.312	1563.97
1274.572	1542.88
1277.832	1534.46
1281.092	1518.45
1284.351	1516.1
1287.61	1509.03
1290.869	1467.63
1294.128	1467.29
1297.386	1491.47
1300.644	1489.19
1303.902	1493.6
1307.159	1410
1310.416	1441.58
1313.673	1459.56
1316.93	1463.64
1320.186	1479.1
1323.442	1494.37
1326.697	1497.95
1329.953	1482.18
1333.208	1506.16
1336.463	1491.83
1339.717	1472.33
1342.972	1542.19
1346.226	1524.05
1349.479	1498.57
1352.733	1482.31
1355.986	1492.29
1359.238	1482.39
1362.491	1483.54
1365.743	1483.42
1368.995	1480.72
1372.247	1489.67
1375.498	1498.71
1378.749	1525.22
1382	1498.25
1385.251	1515.51
1388.501	1489.73
1391.751	1486.39
1395	1472.36
1398.25	1489.03
1401.499	1507.79
1404.748	1476.49
1407.996	1466.16
1411.244	1465.17
1414.492	1454.46
1417.74	1445.53
1420.987	1451.65
1424.234	1489.62
1427.481	1465.29
1430.728	1499.07
1433.974	1486.54
1437.22	1484.71
1440.465	1479.62
1443.711	1482
1446.956	1492.32
1450.201	1475.46
1453.445	1505.06
1456.689	1493.35
1459.933	1503.38
1463.177	1528.99
1466.42	1511.73
1469.663	1499.06
1472.906	1507.78
1476.148	1540.26
1479.391	1512.42
1482.633	1500.76
1485.874	1515.08
1489.115	1516.75
1492.356	1507.51
1495.597	1490.45
1498.838	1481.91
1502.078	1475.25
1505.318	1461.67
1508.557	1478.44
1511.797	1476.74
1515.036	1509.16
1518.274	1482.47
1521.513	1448.38
1524.751	1454.44
1527.989	1468.45
1531.227	1478.45
1534.464	1485.55
1537.701	1477.29
1540.938	1482.21
1544.174	1450.8
1547.41	1438.39
1550.646	1464.16
1553.882	1492.5
1557.117	1533.54
1560.352	1536.76
1563.587	1508.84
1566.821	1491.02
1570.055	1503.56
1573.289	1486.46
1576.523	1518.61
1579.756	1526.01
1582.989	1542.06
1586.222	1511.39
1589.454	1534.96
1592.686	1522.72
1595.918	1538.58
1599.15	1538.18
1602.381	1564.5
1605.612	1553.11
1608.843	1612.04
1612.073	1562.16
1615.303	1556.12
1618.533	1551.85
1621.762	1552.95
1624.992	1534.1
1628.221	1532.41
1631.449	1527.39
1634.678	1542.76
1637.906	1522.16
1641.134	1535.21
1644.361	1514.45
1647.588	1508.56
1650.815	1525.15
1654.042	1501.74
1657.269	1517.73
1660.495	1507.45
1663.72	1499.36
1666.946	1476.75
1670.171	1466.07
1673.396	1447.09
1676.621	1436.2
1679.845	1434.62
1683.069	1439.04
1686.293	1453.98
1689.517	1450.87
1692.74	1424.13
1695.963	1436.42
1699.185	1459.88
1702.408	1446.29
1705.63	1462.06
1708.852	1474.19
1712.073	1455.19
1715.294	1465.87
1718.515	1495.85
1721.736	1470.1
1724.956	1459.54
1728.176	1474.88
1731.396	1485.53
1734.616	1481.52
1737.835	1508.08
1741.054	1487.75
1744.272	1485.96
1747.491	1512.89
1750.709	1524.77
1753.927	1496.52
1757.144	1513.74
1760.361	1548.29
1763.578	1530.24
1766.795	1498.52
1770.011	1490.66
1773.227	1502.43
1776.443	1531.58
1779.658	1555.85
1782.874	1521.89
1786.089	1517.8
1789.303	1517.77
1792.518	1516.61
1795.732	1512.48
1798.945	1520.15
1802.159	1550.15
1805.372	1514.14
1808.585	1511.05
1811.797	1510.7
1815.01	1528.83
1818.222	1546.32
1821.434	1518.65
1824.645	1543.62
1827.856	1552.22
1831.067	1567.44
1834.278	1532.62
1837.488	1520.41
1840.698	1597.75
1843.908	1568.31
1847.117	1549.02
1850.326	1502.07
1853.535	1537.42
1856.744	1565.4
1859.952	1517.78
1863.16	1516.71
1866.368	1533.7
1869.575	1604.54
1872.782	1534.27
1875.989	1493.92
1879.196	1525.88
1882.402	1522.35
1885.608	1541.28
1888.814	1508.84
1892.019	1452.67
1895.224	1491.54
1898.429	1471.63
1901.634	1457.89
1904.838	1446.04
1908.042	1483.95
1911.246	1495.88
1914.449	1472.1
1917.652	1460.77
1920.855	1449.25
1924.058	1466.22
1927.26	1498.59
1930.462	1507.47
1933.664	1534.35
1936.865	1501.21
1940.066	1510.74
1943.267	1474.86
1946.467	1481.88
1949.668	1489.32
1952.868	1535.31
1956.067	1535.26
1959.267	1494.98
1962.466	1511.53
1965.665	1499.79
1968.863	1498.21
1972.061	1494.02
1975.259	1488.93
1978.457	1539.28
1981.654	1511.44
1984.852	1514.28
1988.048	1488.72
1991.245	1475.09
1994.441	1532.15
1997.637	1496.23
2000.833	1488.72
2004.028	1507.34
2007.223	1552.44
2010.418	1542.68
2013.613	1507.76
2016.807	1506.24
2020.001	1503.02
2023.194	1513.45
2026.388	1502.32
2029.581	1467.95
2032.774	1512.61
2035.966	1517.12
2039.158	1483.73
2042.35	1496.92
2045.542	1449.42
2048.733	1502.15
2051.924	1491
2055.115	1499.71
2058.306	1480.54
2061.496	1516.54
2064.686	1547.18
2067.875	1481.16
2071.065	1481.7
2074.254	1493.57
2077.442	1463.99
2080.631	1516.31
2083.819	1477.53
2087.007	1474.32
2090.195	1465.88
2093.382	1469.25
2096.569	1463.41
2099.756	1438.18
2102.942	1478.82
2106.128	1485.17
2109.314	1480.02
2112.5	1471.17
2115.685	1451.17
2118.87	1455.16
2122.055	1500.46
2125.239	1485.23
2128.424	1481.93
2131.608	1512.9
2134.791	1500.88
2137.974	1521.97
2141.157	1515.69
2144.34	1498.22
2147.523	1487.66
2150.705	1508.84
2153.887	1483.5
2157.068	1465.3
2160.25	1450.65
2163.431	1467.51
2166.611	1451.67
2169.792	1465.37
2172.972	1406.32
2176.152	1442.36
2179.331	1457.12
2182.511	1459.22
2185.69	1470.04
2188.868	1475.66
2192.047	1497.51
2195.225	1517.51
2198.403	1477.95
2201.58	1467.44
2204.758	1458.81
2207.935	1507.53
2211.111	1454.57
2214.288	1446.28
2217.464	1468.99
2220.64	1442.62
2223.815	1473.19
2226.991	1428.66
2230.166	1435.04
2233.34	1466.21
2236.515	1474.87
2239.689	1521.56
2242.863	1488.37
2246.036	1519.11
2249.209	1509.95
2252.382	1524.29
2255.555	1527.74
2258.727	1499.88
2261.9	1515.51
2265.071	1512.05
2268.243	1511.75
2271.414	1480.42
2274.585	1465.83
2277.756	1505.54
2280.926	1480.08
2284.096	1498.71
2287.266	1451.91
2290.436	1487.13
2293.605	1497.29
2296.774	1525.46
2299.942	1527.6
2303.111	1538.74
2306.279	1572.82
2309.447	1565.06
2312.614	1548.47
2315.781	1562.56
2318.948	1547.09
2322.115	1573.75
2325.281	1501.08
2328.447	1506.82
2331.613	1484.77
2334.779	1483.19
2337.944	1477.22
2341.109	1479.14
2344.274	1472.73
2347.438	1451.56
2350.602	1465.06
2353.766	1471.08
2356.929	1466.27
2360.092	1493.34
2363.255	1470.15
2366.418	1455.84
2369.58	1482.07
2372.742	1459.02
2375.904	1442.08
2379.066	1436.68
2382.227	1453.96
2385.388	1428.64
2388.548	1398
2391.709	1420.31
2394.869	1417.02
2398.029	1451.83
2401.188	1441.14
2404.347	1428.63
2407.506	1428.11
2410.665	1466.03
2413.823	1450.86
2416.981	1438.52
2420.139	1450.08
2423.296	1476.69
2426.453	1460.02
2429.61	1473.88
2432.767	1457.21
2435.923	1482.24
2439.079	1447.19
2442.235	1468.16
2445.391	1429.69
2448.546	1458.01
2451.701	1480.66
2454.855	1478.87
2458.009	1497.38
2461.163	1486.29
2464.317	1465.47
2467.471	1482.94
2470.624	1504.97
2473.777	1497.69
2476.929	1510.54
2480.082	1525.03
2483.234	1514.68
2486.385	1474.95
2489.537	1470.21
2492.688	1461.66
2495.839	1481.4
2498.989	1490.29
2502.14	1480.75
2505.29	1473.7
2508.439	1489.82
2511.589	1453.1
2514.738	1453.15
2517.887	1463.66
2521.035	1512.95
2524.183	1482.74
2527.331	1478.45
2530.479	1469.05
2533.627	1473.21
