Data from N_1_HIR_IL_4N_Splice17_11-26-59-009.txt Node
Date: Sat Mar 14 11:26:59 EDT 2020
User: sa697716
Spectrometer: FLMS03696
Trigger mode: 0
Integration Time (sec): 3.180400E-1
Scans to average: 20
Electric dark correction enabled: true
Nonlinearity correction enabled: true
Boxcar width: 5
XAxis mode: Wavelengths
Number of Pixels in Spectrum: 2048
>>>>>Begin Spectral Data<<<<<
187.83	-145234.64
188.298	968.96
188.766	580.4
189.233	503.41
189.701	685.03
190.169	971.97
190.636	347.37
191.104	315.86
191.571	63.14
192.039	-12.17
192.506	-25.09
192.974	215.77
193.441	-640.18
193.908	-138.61
194.375	-48.85
194.842	-22.49
195.31	-3.05
195.777	73.87
196.244	168.19
196.711	164.16
197.177	175.31
197.644	208.33
198.111	330.77
198.578	468
199.045	348.58
199.511	546.73
199.978	589.42
200.445	537.58
200.911	581.45
201.378	639.6
201.844	597.31
202.31	1030.92
202.777	1086.57
203.243	592.88
203.709	554.71
204.176	689.07
204.642	570.94
205.108	546.58
205.574	447.62
206.04	377.23
206.506	352.67
206.972	312.7
207.438	281.23
207.903	318.67
208.369	307.59
208.835	325.32
209.301	321.08
209.766	310.14
210.232	300.82
210.697	346.49
211.163	441.59
211.628	613.93
212.094	521.29
212.559	706.7
213.024	436.32
213.49	531.36
213.955	481.56
214.42	469.3
214.885	434.29
215.35	413.53
215.815	434.03
216.28	454.98
216.745	365.26
217.21	395.79
217.675	315.19
218.14	332.44
218.604	311.69
219.069	327.71
219.534	339.93
219.998	362.49
220.463	401.93
220.927	388.69
221.392	330.3
221.856	314.39
222.32	332.26
222.785	397.42
223.249	453.99
223.713	488.46
224.177	483.33
224.642	489.29
225.106	547.81
225.57	548.61
226.034	452.46
226.497	653.43
226.961	581.41
227.425	664.36
227.889	706.99
228.353	716.33
228.816	1307.84
229.28	1200.23
229.744	1013.68
230.207	674.04
230.671	661.16
231.134	918.58
231.597	1077.27
232.061	1021.82
232.524	877.9
232.987	596.29
233.45	536.91
233.914	513.55
234.377	475.67
234.84	426.96
235.303	436.44
235.766	501.52
236.229	528.57
236.691	313.86
237.154	341.41
237.617	293.59
238.08	286.59
238.542	308.35
239.005	238.13
239.468	250.4
239.93	252.47
240.393	243.4
240.855	199.61
241.317	193.32
241.78	201.2
242.242	222.28
242.704	256.28
243.166	233.69
243.629	223.61
244.091	236.82
244.553	251.91
245.015	279.32
245.477	343.66
245.939	506.56
246.4	569.55
246.862	585.58
247.324	530.97
247.786	536.21
248.247	628.92
248.709	573.01
249.17	455.18
249.632	481.97
250.093	569.87
250.555	488.71
251.016	323.73
251.477	297.37
251.939	314.19
252.4	323.47
252.861	378.78
253.322	380.68
253.783	433.67
254.244	530.86
254.705	392.44
255.166	332.58
255.627	326.59
256.088	441.03
256.549	469.48
257.009	419.64
257.47	492.96
257.931	370.52
258.391	270.92
258.852	298.01
259.312	329.69
259.773	393.62
260.233	360.92
260.694	322.96
261.154	376.63
261.614	353.37
262.074	313.81
262.534	339.68
262.994	343.73
263.455	447.13
263.915	396.48
264.374	350.96
264.834	384.19
265.294	405.37
265.754	419.71
266.214	373.06
266.673	321.46
267.133	370.16
267.593	342.86
268.052	419.57
268.512	339.41
268.971	430.16
269.431	481.03
269.89	426.89
270.349	618.81
270.809	711.88
271.268	677.83
271.727	1373.23
272.186	938.94
272.645	719.51
273.104	475.64
273.563	720.46
274.022	482.41
274.481	444.01
274.94	351.36
275.399	250.17
275.857	244.29
276.316	313.97
276.775	281.5
277.233	263.31
277.692	267.9
278.15	325.88
278.609	381.73
279.067	355.79
279.525	348.17
279.984	429.29
280.442	545.04
280.9	632.97
281.358	395.5
281.816	384.11
282.274	399.35
282.732	386.77
283.19	381.61
283.648	307.74
284.106	322.69
284.564	302.48
285.021	306.59
285.479	233.69
285.937	179.5
286.394	182.61
286.852	185.1
287.309	191.42
287.767	230.4
288.224	228.95
288.682	244.27
289.139	275.71
289.596	267.82
290.053	258.07
290.511	284.95
290.968	372.13
291.425	458.37
291.882	432.95
292.339	391.6
292.796	329.23
293.252	318.56
293.709	287.74
294.166	262.49
294.623	260.13
295.079	244.26
295.536	272.85
295.992	258.58
296.449	266.15
296.905	282.37
297.362	299.88
297.818	320.77
298.274	334.78
298.731	321.05
299.187	309.75
299.643	340.47
300.099	411.13
300.555	439.91
301.011	380.9
301.467	411.41
301.923	438.36
302.379	401.74
302.835	390.5
303.291	390.41
303.746	433.53
304.202	561.83
304.658	562.17
305.113	400.56
305.569	401.26
306.024	382.89
306.479	302.76
306.935	273.35
307.39	289.33
307.845	274.55
308.301	300.89
308.756	296.8
309.211	303.43
309.666	305.13
310.121	401.69
310.576	412.83
311.031	413.62
311.486	462.3
311.94	415.67
312.395	523.05
312.85	904.57
313.305	3431.07
313.759	21839.34
314.214	1453.04
314.668	1264.12
315.123	1064.3
315.577	387.08
316.032	362.39
316.486	457.52
316.94	416.88
317.394	319.3
317.849	257.35
318.303	235.92
318.757	199.25
319.211	233.79
319.665	194.16
320.119	201.46
320.572	263.38
321.026	261.02
321.48	212.07
321.934	193.59
322.387	185.1
322.841	218.89
323.295	250.06
323.748	279.33
324.202	275.56
324.655	349.36
325.108	532.89
325.562	400.25
326.015	447.78
326.468	361.48
326.921	445.6
327.374	444.36
327.827	436.28
328.28	477.08
328.733	347.6
329.186	311.49
329.639	302.37
330.092	231.86
330.545	240.34
330.997	246.44
331.45	290.16
331.903	345.41
332.355	529.82
332.808	525.45
333.26	421.85
333.713	461.1
334.165	459.81
334.617	579.43
335.069	418.83
335.522	678.13
335.974	753.5
336.426	589.65
336.878	357.52
337.33	201.14
337.782	211.68
338.234	284.64
338.686	321.97
339.137	369.01
339.589	371.36
340.041	322.67
340.493	291.13
340.944	297.89
341.396	334.55
341.847	323.11
342.299	430.05
342.75	550.01
343.201	447.17
343.653	511.53
344.104	623.79
344.555	485.91
345.006	686.28
345.457	577.25
345.908	458.12
346.359	439.8
346.81	345.04
347.261	318.73
347.712	283.39
348.163	293.44
348.613	320.79
349.064	290.6
349.515	226.95
349.965	260.23
350.416	270.22
350.866	273.81
351.317	317.81
351.767	522.17
352.217	662.39
352.668	568.36
353.118	546.75
353.568	430.19
354.018	385.77
354.468	493.04
354.918	371.27
355.368	333.59
355.818	469.73
356.268	1187.68
356.718	5032.72
357.168	1294.51
357.617	616.29
358.067	665.9
358.517	709.63
358.966	924.21
359.416	1067.54
359.865	1097.61
360.315	1274.12
360.764	632.42
361.213	369.1
361.663	323.89
362.112	379.78
362.561	614.49
363.01	463.95
363.459	377.04
363.908	353.3
364.357	337.12
364.806	524.11
365.255	366.54
365.703	377.86
366.152	419.15
366.601	354.7
367.05	326.92
367.498	318
367.947	324.23
368.395	325.93
368.844	298.49
369.292	304.72
369.74	239.16
370.189	347.17
370.637	380.93
371.085	314.63
371.533	354.76
371.981	301.97
372.429	281.7
372.877	286.48
373.325	247.46
373.773	232.25
374.221	218.36
374.669	228.53
375.116	193.2
375.564	188.74
376.012	190.51
376.459	178.36
376.907	189.61
377.354	204.91
377.801	224.97
378.249	287.72
378.696	375.75
379.143	408.27
379.591	474.92
380.038	791.41
380.485	645.66
380.932	681.89
381.379	663.04
381.826	591.33
382.273	423.95
382.72	350.37
383.166	347.71
383.613	233.54
384.06	220.84
384.506	268.02
384.953	198.8
385.4	183.95
385.846	170.99
386.292	160.86
386.739	143.85
387.185	136.64
387.631	146.66
388.078	158.64
388.524	175.51
388.97	172.17
389.416	150.56
389.862	167.1
390.308	166.16
390.754	173.32
391.2	189.6
391.645	196.98
392.091	224.54
392.537	231.17
392.983	215.81
393.428	241.72
393.874	256.31
394.319	267.83
394.765	274.2
395.21	277.62
395.655	267.61
396.101	261.52
396.546	247.98
396.991	242.78
397.436	233.12
397.881	231.39
398.326	218.22
398.771	217.42
399.216	196.52
399.661	183.35
400.106	200.07
400.551	214.63
400.995	203.17
401.44	207.95
401.885	204.21
402.329	209.9
402.774	213.48
403.218	216.17
403.663	213.11
404.107	223.74
404.551	232.74
404.995	215.27
405.44	210.21
405.884	215.23
406.328	206.29
406.772	205.26
407.216	189.89
407.66	183.71
408.104	173.94
408.547	167.77
408.991	167.03
409.435	161.99
409.879	165.52
410.322	169.56
410.766	168.47
411.209	168.94
411.653	166.4
412.096	169.63
412.54	171.32
412.983	172.23
413.426	179.9
413.869	178.27
414.312	180.29
414.756	174.71
415.199	167.83
415.642	166.68
416.085	168.38
416.527	171.06
416.97	172.53
417.413	169.43
417.856	169.37
418.298	168.19
418.741	168.18
419.184	165.33
419.626	167.41
420.069	166.91
420.511	168.11
420.953	167.26
421.396	166.61
421.838	162.78
422.28	165.46
422.722	166.57
423.164	166.24
423.606	167.33
424.048	168.58
424.49	165.34
424.932	165.31
425.374	162.91
425.816	165.88
426.258	166.42
426.699	165.85
427.141	162.65
427.582	161.1
428.024	158.75
428.465	153.72
428.907	152.48
429.348	152.46
429.789	157.41
430.231	158.89
430.672	163.01
431.113	162.7
431.554	166.59
431.995	167.92
432.436	172.24
432.877	175.41
433.318	181.42
433.759	182.28
434.2	186.43
434.64	185.51
435.081	186.89
435.522	179.6
435.962	176.06
436.403	176.36
436.843	179.26
437.284	174.43
437.724	169.94
438.164	167.92
438.604	166.19
439.045	163.08
439.485	160.96
439.925	160.38
440.365	158.24
440.805	158.55
441.245	157.97
441.685	154.04
442.125	153.52
442.564	154.39
443.004	153.16
443.444	154.21
443.883	156.49
444.323	153.46
444.762	152.4
445.202	155.24
445.641	159.35
446.081	157.66
446.52	161.16
446.959	163.29
447.398	163.5
447.837	163.99
448.276	162.6
448.716	165.16
449.154	167.11
449.593	165.61
450.032	165.23
450.471	160.9
450.91	161.8
451.349	162.09
451.787	161.5
452.226	162.78
452.664	161.99
453.103	163.48
453.541	162.43
453.98	164.71
454.418	166.84
454.856	166.55
455.295	167.24
455.733	168.88
456.171	168.76
456.609	168.49
457.047	168.1
457.485	171.27
457.923	170.77
458.361	166.18
458.798	165.62
459.236	164.79
459.674	163.76
460.111	165.17
460.549	163.99
460.987	163.48
461.424	162.52
461.862	162.97
462.299	161.25
462.736	161.89
463.173	164.38
463.611	164.45
464.048	165.07
464.485	167.45
464.922	165.82
465.359	165.09
465.796	167.93
466.233	169.22
466.67	170.24
467.106	171.91
467.543	171
467.98	170.6
468.416	167.46
468.853	166.44
469.29	163.33
469.726	163.5
470.162	161.1
470.599	157.95
471.035	157.11
471.471	153.39
471.907	151.62
472.344	151.62
472.78	152.8
473.216	154.51
473.652	153.72
474.088	153.15
474.523	153.54
474.959	155.05
475.395	153.49
475.831	153.14
476.266	153.86
476.702	153.51
477.138	152.33
477.573	152.08
478.008	152.48
478.444	154.39
478.879	156.44
479.314	157.17
479.75	157.2
480.185	157.43
480.62	157.51
481.055	157.97
481.49	159.3
481.925	160.82
482.36	161.51
482.795	161.43
483.229	161.49
483.664	161.86
484.099	158.61
484.534	158.89
484.968	158.9
485.403	158.06
485.837	155.76
486.271	154.13
486.706	153.3
487.14	151.28
487.574	150.83
488.009	150.04
488.443	149.01
488.877	151.38
489.311	151.49
489.745	152.98
490.179	154.56
490.613	159.52
491.046	160.19
491.48	161.49
491.914	162.26
492.348	163.12
492.781	164.79
493.215	165.83
493.648	166.49
494.082	168.62
494.515	169.28
494.948	171.73
495.382	170.89
495.815	172.66
496.248	173.78
496.681	176.15
497.114	178.53
497.547	179.9
497.98	182.57
498.413	184.05
498.846	185.42
499.279	186.52
499.711	186.56
500.144	187.29
500.577	189.55
501.009	191.09
501.442	193.23
501.874	193.75
502.306	194.94
502.739	198.58
503.171	202.89
503.603	204.68
504.036	207.7
504.468	209.48
504.9	212.02
505.332	213.49
505.764	215.66
506.196	218.01
506.627	221.99
507.059	225.1
507.491	226.12
507.923	225.55
508.354	229.66
508.786	232.4
509.217	237.1
509.649	241.14
510.08	245.47
510.512	248.34
510.943	250.99
511.374	253.84
511.805	258.02
512.237	261.67
512.668	267.78
513.099	270.97
513.53	274.64
513.961	276.34
514.391	279.62
514.822	284.64
515.253	290.93
515.684	294.6
516.114	298.86
516.545	303.38
516.975	308.89
517.406	312.79
517.836	315.53
518.267	319.25
518.697	326.28
519.127	330.59
519.558	334.71
519.988	337.82
520.418	342.26
520.848	348.08
521.278	351.31
521.708	374.22
522.138	379.35
522.567	386.29
522.997	391.16
523.427	392.85
523.857	394.99
524.286	395.07
524.716	397.65
525.145	402.47
525.575	405.65
526.004	408.77
526.433	389.74
526.863	389.04
527.292	388.58
527.721	392.31
528.15	396.58
528.579	400.07
529.008	404.89
529.437	410.36
529.866	412.58
530.295	414.8
530.724	417.24
531.152	422.03
531.581	424.88
532.01	427.84
532.438	428.45
532.867	430.63
533.295	433.29
533.723	433.9
534.152	433.2
534.58	434.31
535.008	431.61
535.436	432.4
535.865	433.46
536.293	434.77
536.721	436.33
537.149	439.62
537.576	437.44
538.004	438.97
538.432	439.39
538.86	438.81
539.287	438.37
539.715	440.04
540.143	439.05
540.57	439.09
540.998	439.46
541.425	436.61
541.852	434.57
542.28	436.21
542.707	433.75
543.134	432.42
543.561	432.9
543.988	432.24
544.415	432.83
544.842	432.05
545.269	431.23
545.696	432.68
546.123	435.57
546.549	433.99
546.976	432.26
547.403	433.61
547.829	434.9
548.256	435.78
548.682	436.27
549.108	436.19
549.535	437.4
549.961	437.98
550.387	435.43
550.813	434.88
551.24	436.4
551.666	436.7
552.092	434.39
552.518	433.18
552.943	432.34
553.369	433.04
553.795	433.13
554.221	432.72
554.646	431.29
555.072	432.61
555.498	431.44
555.923	430.98
556.349	432.13
556.774	431.9
557.199	429.33
557.625	427.95
558.05	426.04
558.475	427.03
558.9	425.28
559.325	423.05
559.75	421.46
560.175	420.12
560.6	417.79
561.025	417.15
561.449	416.6
561.874	416.97
562.299	416.56
562.723	416.08
563.148	411.6
563.572	411.25
563.997	411.34
564.421	410.67
564.846	408.23
565.27	407.83
565.694	404.71
566.118	404.73
566.542	405.81
566.966	402.37
567.39	399.62
567.814	396.32
568.238	393.89
568.662	393.11
569.086	391.21
569.509	391.53
569.933	388.63
570.357	387.31
570.78	383.19
571.204	379.66
571.627	377.59
572.05	377.49
572.474	377.56
572.897	375.57
573.32	374.41
573.743	372.19
574.166	368.87
574.589	367.18
575.012	364.92
575.435	363.1
575.858	360.64
576.281	358.66
576.704	354.58
577.126	351.83
577.549	349.39
577.972	346.91
578.394	345.49
578.817	345.51
579.239	342.93
579.661	340.96
580.084	340.22
580.506	338.39
580.928	338.27
581.35	337.62
581.772	337.73
582.194	335.02
582.616	331.86
583.038	327.9
583.46	323.53
583.882	322.23
584.303	321.27
584.725	318.23
585.147	318.9
585.568	318.06
585.99	316.68
586.411	313.5
586.833	313.53
587.254	310.72
587.675	311.09
588.096	311.54
588.518	307.53
588.939	302.98
589.36	301.29
589.781	295.54
590.202	291.47
590.623	290.45
591.043	290.49
591.464	288.64
591.885	289.07
592.305	287.13
592.726	284.04
593.147	284.59
593.567	283.54
593.987	281.94
594.408	280.33
594.828	278.28
595.248	277.19
595.669	275.17
596.089	273.62
596.509	271.56
596.929	269.3
597.349	269.61
597.769	266.68
598.189	265
598.608	264.38
599.028	264.35
599.448	263.69
599.867	260.72
600.287	258.84
600.706	257.85
601.126	257.05
601.545	257.7
601.965	256.5
602.384	255.68
602.803	256.17
603.222	255.42
603.641	253.77
604.061	253.01
604.48	251.76
604.898	252.39
605.317	252.61
605.736	251.39
606.155	249.32
606.574	247.26
606.992	246.78
607.411	244.65
607.829	241.19
608.248	239.6
608.666	237.48
609.085	236.02
609.503	233.45
609.921	231.66
610.339	230.68
610.758	229.48
611.176	227.33
611.594	225.4
612.012	223.59
612.43	224.67
612.847	224.86
613.265	225.1
613.683	224.89
614.101	224.65
614.518	222.39
614.936	221.2
615.353	218.37
615.771	217.82
616.188	217.83
616.606	217.45
617.023	215.83
617.44	213.88
617.857	212.1
618.274	210.86
618.691	209.94
619.108	208
619.525	205.85
619.942	206.24
620.359	206.17
620.776	204.22
621.192	202.7
621.609	201.31
622.026	201.3
622.442	201.5
622.859	200.34
623.275	197.42
623.691	197.89
624.108	198.77
624.524	199.62
624.94	197.65
625.356	197.93
625.772	198.52
626.188	198.88
626.604	197.8
627.02	195.73
627.436	194.97
627.852	196.36
628.268	197.91
628.683	195.64
629.099	194.68
629.514	194.32
629.93	194.16
630.345	194.76
630.761	193.21
631.176	193.3
631.591	193.88
632.007	193.41
632.422	191.54
632.837	189.27
633.252	189.85
633.667	188.48
634.082	187.06
634.497	186.34
634.911	184.97
635.326	185.26
635.741	183.4
636.155	180.7
636.57	181.51
636.984	182.09
637.399	183.13
637.813	181.96
638.228	181.26
638.642	182.38
639.056	180.01
639.47	178.47
639.884	176.8
640.298	175.39
640.712	175.91
641.126	173.38
641.54	172.04
641.954	169.35
642.368	168.35
642.781	168.43
643.195	165.24
643.609	165.17
644.022	163.71
644.436	162.22
644.849	159.92
645.262	156.43
645.676	155.28
646.089	153.9
646.502	152.66
646.915	150.23
647.328	147.09
647.741	146.17
648.154	144.15
648.567	145.12
648.98	143.65
649.393	143.84
649.805	144.57
650.218	144.52
650.631	143.06
651.043	142.82
651.456	142.53
651.868	141.13
652.28	142.68
652.693	142.81
653.105	141.19
653.517	141.06
653.929	139.85
654.341	138.72
654.753	135.73
655.165	135.28
655.577	133.51
655.989	133.23
656.401	131.98
656.813	128.44
657.224	127.32
657.636	124.76
658.047	124.42
658.459	123.46
658.87	122.62
659.282	121.5
659.693	120.06
660.104	119.07
660.515	116.55
660.926	115.92
661.338	115.21
661.749	114.21
662.159	113.16
662.57	111.42
662.981	110.7
663.392	109.55
663.803	109.89
664.213	108.42
664.624	106.62
665.035	106.94
665.445	104.81
665.855	104.74
666.266	104.44
666.676	103.71
667.086	101.34
667.497	100.35
667.907	100.2
668.317	98.51
668.727	99.7
669.137	99.06
669.547	98.16
669.956	97.41
670.366	96.36
670.776	95.76
671.186	95.3
671.595	96.76
672.005	96.54
672.414	95.88
672.824	95.97
673.233	94.4
673.642	94.52
674.052	94.67
674.461	96.37
674.87	96.42
675.279	96.16
675.688	95.29
676.097	94.91
676.506	94.17
676.915	94.76
677.323	94.59
677.732	92.9
678.141	92.28
678.549	90.89
678.958	90.07
679.366	88.86
679.775	87.66
680.183	90.42
680.592	90.43
681	90.98
681.408	89.87
681.816	90.44
682.224	92.34
682.632	94.61
683.04	97.64
683.448	98.7
683.856	101.54
684.264	104.44
684.671	104.4
685.079	106.57
685.487	109.36
685.894	113.24
686.302	114.86
686.709	116.44
687.116	117.77
687.524	121.46
687.931	125.68
688.338	129.07
688.745	130.08
689.152	132.7
689.559	136.49
689.966	140.78
690.373	143.4
690.78	147.7
691.187	152.9
691.593	156.75
692	157.99
692.407	161.85
692.813	168.52
693.22	174.96
693.626	179.43
694.032	183.7
694.439	189.51
694.845	192.81
695.251	198.42
695.657	203.79
696.063	210.59
696.469	215.89
696.875	220.59
697.281	220.16
697.687	221.43
698.093	222.84
698.498	228.26
698.904	230.63
699.31	236.7
699.715	242.3
700.12	249.29
700.526	250.92
700.931	255.63
701.337	260.06
701.742	265.59
702.147	272.8
702.552	277.47
702.957	282.06
703.362	285.08
703.767	288.72
704.172	291.5
704.577	287.35
704.981	291.35
705.386	294.06
705.791	294.69
706.195	299.65
706.6	301.21
707.004	307.29
707.408	304.67
707.813	307.86
708.217	308.76
708.621	309.48
709.025	317.42
709.43	319.31
709.834	325.44
710.237	332
710.641	331.45
711.045	334.12
711.449	335.86
711.853	341.45
712.256	343.54
712.66	345.4
713.064	350.18
713.467	352.45
713.87	357.1
714.274	355.16
714.677	356.47
715.08	360.82
715.484	364.56
715.887	369.33
716.29	369.89
716.693	374.55
717.096	380.63
717.499	380.15
717.901	374.59
718.304	375.59
718.707	380.1
719.109	378.79
719.512	382.52
719.915	380.81
720.317	382.03
720.719	389.53
721.122	390.81
721.524	390.76
721.926	394.1
722.328	403.17
722.731	399.44
723.133	398.23
723.535	406.69
723.937	405.01
724.338	405.84
724.74	407.34
725.142	437.58
725.544	441.2
725.945	451.38
726.347	449.1
726.748	449.36
727.15	453.13
727.551	452.79
727.952	451.61
728.354	448.73
728.755	450.19
729.156	449.01
729.557	417.71
729.958	410.45
730.359	403.58
730.76	407.66
731.161	409.47
731.562	411.45
731.962	415.7
732.363	415.65
732.763	416.72
733.164	421.33
733.564	418.9
733.965	414.62
734.365	413.42
734.766	417.21
735.166	413.65
735.566	410.34
735.966	409.54
736.366	408.19
736.766	404.05
737.166	407.83
737.566	406.54
737.966	406.12
738.365	410.34
738.765	411.76
739.165	405.29
739.564	404.21
739.964	406.77
740.363	402.29
740.763	401.92
741.162	402.91
741.561	399.8
741.96	395.97
742.36	397.46
742.759	399.11
743.158	402.12
743.557	403.93
743.955	407.22
744.354	404.17
744.753	409.16
745.152	408.18
745.55	410.74
745.949	409.51
746.348	409.29
746.746	409.03
747.144	404.91
747.543	399.99
747.941	402.07
748.339	395.62
748.737	394.82
749.136	395.04
749.534	397.74
749.932	396.79
750.33	398.27
750.727	401.93
751.125	399.94
751.523	397.89
751.921	404.7
752.318	403.17
752.716	408.37
753.113	407.25
753.511	408.22
753.908	408.06
754.305	407.95
754.703	412.32
755.1	417.43
755.497	420.94
755.894	431.64
756.291	435.59
756.688	445.89
757.085	455.36
757.482	470.23
757.878	479.37
758.275	480.63
758.672	485.98
759.068	484.74
759.465	488.28
759.861	496.74
760.258	506.64
760.654	495.07
761.05	472.41
761.447	449.23
761.843	432.76
762.239	420.28
762.635	423.77
763.031	424.4
763.427	419.91
763.822	415.27
764.218	411.58
764.614	397.94
765.01	393.35
765.405	395.68
765.801	401.64
766.196	398.74
766.592	401.58
766.987	395.87
767.382	394
767.778	396.68
768.173	394.16
768.568	395.19
768.963	391.67
769.358	396.58
769.753	396.58
770.148	393.07
770.542	394.76
770.937	393.4
771.332	400.53
771.726	401.45
772.121	399.41
772.515	403.99
772.91	402.41
773.304	406.73
773.699	401.44
774.093	404.33
774.487	406.03
774.881	407.96
775.275	408.3
775.669	404.02
776.063	407.66
776.457	407.81
776.851	401.36
777.245	400.16
777.638	400.82
778.032	407.55
778.425	404.65
778.819	409.63
779.212	408.14
779.606	404.19
779.999	404.19
780.392	402.6
780.786	405.35
781.179	406.12
781.572	407.73
781.965	409.01
782.358	404.73
782.751	405.48
783.143	399.12
783.536	399.89
783.929	398.93
784.322	405.15
784.714	403.11
785.107	401.67
785.499	405.2
785.891	400.36
786.284	395.28
786.676	400.9
787.068	398.97
787.46	399.67
787.852	398.46
788.245	402.63
788.636	399.8
789.028	402.79
789.42	403.53
789.812	402.03
790.204	406.81
790.595	413.49
790.987	401.29
791.378	399.76
791.77	404.07
792.161	408.83
792.553	409.73
792.944	402.8
793.335	395.5
793.726	395.48
794.117	397.98
794.508	403.8
794.899	397.04
795.29	400.41
795.681	401.3
796.072	390.96
796.463	393.53
796.853	395.85
797.244	402.05
797.634	402.38
798.025	400.76
798.415	396.6
798.806	400.22
799.196	405.09
799.586	407.75
799.976	404.77
800.366	414.72
800.756	408.43
801.146	399.73
801.536	399.04
801.926	399.65
802.316	401.58
802.706	404.86
803.095	396.06
803.485	398.07
803.874	397.34
804.264	407.04
804.653	405.49
805.043	415.36
805.432	421.63
805.821	420.16
806.21	419.03
806.599	418.3
806.988	416.93
807.377	415.2
807.766	412.9
808.155	421.58
808.544	404.16
808.933	398.16
809.321	392.24
809.71	393.62
810.098	392.28
810.487	399.24
810.875	408.51
811.264	401.94
811.652	411.43
812.04	410.75
812.428	407.1
812.816	417.85
813.204	419.51
813.592	420.19
813.98	420.26
814.368	413.38
814.756	419.59
815.144	412.68
815.531	419.64
815.919	401.59
816.306	404.24
816.694	389.67
817.081	395.23
817.469	409.45
817.856	406.22
818.243	414.14
818.63	418.69
819.017	412.95
819.404	412.75
819.791	414.75
820.178	423.28
820.565	427.81
820.952	450.92
821.339	436.35
821.725	435.44
822.112	419.75
822.498	416.05
822.885	416.62
823.271	407.26
823.657	413.7
824.044	415.9
824.43	422.18
824.816	426.32
825.202	414.45
825.588	436.54
825.974	432.56
826.36	440.34
826.746	435.43
827.132	437.16
827.517	439.87
827.903	417.3
828.289	418.58
828.674	398.53
829.06	388.74
829.445	388.9
829.83	389.17
830.216	396.49
830.601	402.4
830.986	398.34
831.371	396.96
831.756	407.59
832.141	404.44
832.526	403.68
832.911	408.18
833.295	403.01
833.68	416.56
834.065	405.49
834.449	382.58
834.834	379.96
835.218	377.17
835.603	385.44
835.987	376.02
836.371	388.19
836.755	385.65
837.139	393.47
837.524	393.71
837.908	387.56
838.291	392.57
838.675	393.13
839.059	398.99
839.443	393.07
839.827	383
840.21	390.43
840.594	388.01
840.977	387.97
841.361	383.96
841.744	389.95
842.127	385.96
842.511	386.1
842.894	393.44
843.277	396.45
843.66	406.96
844.043	409.96
844.426	398.61
844.809	389.31
845.191	388.02
845.574	379.94
845.957	372.28
846.339	372.44
846.722	359.19
847.104	358.33
847.487	348.44
847.869	348.87
848.252	353.66
848.634	356.42
849.016	359.6
849.398	358.05
849.78	371.01
850.162	371.71
850.544	369.91
850.926	377.17
851.307	374.43
851.689	378.99
852.071	376.47
852.452	378.44
852.834	373.02
853.215	377.65
853.597	375.22
853.978	383.81
854.359	390.81
854.741	379.27
855.122	375.24
855.503	370.36
855.884	372.92
856.265	377.36
856.646	372.51
857.026	365.66
857.407	363.39
857.788	367.8
858.169	363.76
858.549	351.53
858.93	357.72
859.31	361.48
859.69	367.95
860.071	362.71
860.451	356.4
860.831	345.45
861.211	357.9
861.591	361.06
861.971	354.53
862.351	355.72
862.731	352.76
863.111	352.17
863.491	352.47
863.87	360.2
864.25	356.23
864.629	354.2
865.009	356.46
865.388	371.21
865.768	395.23
866.147	398.16
866.526	374.71
866.905	382.27
867.284	396.61
867.663	374.06
868.042	351.01
868.421	351.43
868.8	347.86
869.179	354.19
869.558	331.37
869.936	308.06
870.315	309.06
870.693	319.12
871.072	337.6
871.45	325.65
871.828	331.83
872.207	350.15
872.585	345.2
872.963	350.77
873.341	343.03
873.719	344.23
874.097	339.17
874.475	343.34
874.853	346.77
875.23	335.19
875.608	350.28
875.986	374.34
876.363	363.01
876.741	379.4
877.118	381.86
877.495	396.08
877.873	395.15
878.25	408.03
878.627	392.95
879.004	397.17
879.381	385.88
879.758	375.95
880.135	351.57
880.512	361.95
880.889	340.15
881.265	326.84
881.642	317.84
882.019	322.75
882.395	323.59
882.772	342.4
883.148	329.85
883.524	332.36
883.901	330.45
884.277	329.16
884.653	329.54
885.029	345.83
885.405	386.3
885.781	384.64
886.157	362.16
886.532	361.83
886.908	352.8
887.284	379.6
887.659	389.74
888.035	395.31
888.411	402.75
888.786	404.07
889.161	405.79
889.537	387.14
889.912	394.24
890.287	397.76
890.662	399.65
891.037	381.36
891.412	356.69
891.787	344.46
892.162	333.84
892.536	334.91
892.911	320.54
893.286	311.82
893.66	298.46
894.035	301.54
894.409	313.38
894.784	297.89
895.158	302.23
895.532	315.08
895.906	325.81
896.281	322.67
896.655	319.68
897.029	353
897.402	361.83
897.776	387.28
898.15	378.03
898.524	379.75
898.898	380.07
899.271	425.22
899.645	372.09
900.018	344.93
900.392	355.43
900.765	351.32
901.138	334.82
901.511	320.69
901.884	315.01
902.258	302.44
902.631	320.95
903.003	366.91
903.376	334.15
903.749	374.21
904.122	400.88
904.495	432.45
904.867	436.78
905.24	381.33
905.612	362.1
905.985	348.07
906.357	357.65
906.729	332.27
907.102	287.84
907.474	269.26
907.846	269.56
908.218	266.99
908.59	248.98
908.962	238.99
909.334	261.4
909.705	280.62
910.077	278.24
910.449	278.91
910.82	293.42
911.192	317.99
911.563	336.15
911.935	345.79
912.306	334.49
912.677	332.75
913.048	340.3
913.419	344.32
913.79	320.82
914.161	340.28
914.532	342.22
914.903	298.06
915.274	275.36
915.645	279.31
916.015	244.09
916.386	242.04
916.756	257.18
917.127	256.37
917.497	241.91
917.868	281.3
918.238	269.41
918.608	277.97
918.978	295.28
919.348	322.91
919.718	324.09
920.088	326.52
920.458	344.63
920.828	362.48
921.198	349.34
921.567	375.41
921.937	296.46
922.306	294.29
922.676	309.28
923.045	268.03
923.415	258.78
923.784	239.15
924.153	251.17
924.522	255.19
924.891	234.6
925.26	248.82
925.629	233.35
925.998	259.79
926.367	255.74
926.736	257.17
927.104	275.36
927.473	270.76
927.842	300.36
928.21	272.05
928.578	263.07
928.947	264.63
929.315	256.05
929.683	296.25
930.051	287.2
930.42	323.82
930.788	250.29
931.156	244.49
931.523	273.86
931.891	261.68
932.259	258.14
932.627	298.14
932.994	375.84
933.362	345.84
933.729	315.54
934.097	296.36
934.464	247.69
934.831	260.2
935.199	269.48
935.566	242.97
935.933	213.35
936.3	271.2
936.667	215.32
937.034	265.09
937.401	248.02
937.767	216.28
938.134	199.38
938.501	271.9
938.867	332.9
939.234	550.5
939.6	433.25
939.967	571.65
940.333	387.75
940.699	350.39
941.065	219.4
941.431	295.9
941.798	337.8
942.163	499.96
942.529	303.3
942.895	273.66
943.261	183
943.627	252.35
943.992	238.39
944.358	246.63
944.723	265.03
945.089	258.58
945.454	253.6
945.82	243.33
946.185	195.26
946.55	239.3
946.915	206.4
947.28	273.4
947.645	247.64
948.01	251.13
948.375	258.02
948.74	262.24
949.104	305.91
949.469	356.47
949.834	629.11
950.198	761.01
950.562	531.54
950.927	463.03
951.291	498.63
951.655	421.93
952.02	331.76
952.384	255.32
952.748	263.55
953.112	282.47
953.476	261.3
953.839	235.16
954.203	232.39
954.567	262
954.931	365.94
955.294	325.53
955.658	312.23
956.021	538.94
956.385	867.28
956.748	1177.82
957.111	1542.92
957.474	1785.4
957.837	1859.11
958.2	1120.03
958.563	431.13
958.926	360.34
959.289	545.41
959.652	718.65
960.015	531.7
960.377	763.24
960.74	858.11
961.102	1500.06
961.465	1597.99
961.827	1196.23
962.189	2329.98
962.552	1569.64
962.914	1183.23
963.276	800.26
963.638	625.92
964	630.2
964.362	438.99
964.724	378.03
965.085	288.24
965.447	241
965.809	200.51
966.17	173.14
966.532	192.95
966.893	170.56
967.255	145.39
967.616	158.35
967.977	133.96
968.338	130.19
968.699	153.39
969.061	140.87
969.421	143.73
969.782	170.34
970.143	175.53
970.504	205.23
970.865	248.55
971.225	290.11
971.586	283.97
971.946	372.36
972.307	319.68
972.667	349.33
973.027	378.86
973.388	425.76
973.748	299.86
974.108	351.66
974.468	393.49
974.828	362.4
975.188	245.13
975.548	223.6
975.907	210.25
976.267	238.87
976.627	238.7
976.986	234.08
977.346	218.56
977.705	210.63
978.064	166.53
978.424	145.24
978.783	118.78
979.142	134.01
979.501	132.59
979.86	145.13
980.219	142.3
980.578	164.46
980.937	169.83
981.296	171.87
981.654	173.25
982.013	255.47
982.371	371.47
982.73	385
983.088	445.6
983.447	514.16
983.805	733.23
984.163	1535.49
984.521	1652.05
984.879	2512.06
985.237	-4223
985.595	4337.79
985.953	1140.54
986.311	574.16
986.669	326.57
987.026	249.19
987.384	274.6
987.741	203.42
988.099	202.26
988.456	158.8
988.814	177.69
989.171	158.55
989.528	118.71
989.885	124.94
990.242	111.43
990.599	99.17
990.956	94.98
991.313	89.97
991.67	78.21
992.027	113.11
992.383	118.3
992.74	107.49
993.096	121.45
993.453	130.87
993.809	133.4
994.165	179.98
994.522	234.81
994.878	259.84
995.234	317.36
995.59	335.53
995.946	248.58
996.302	281.98
996.658	326.88
997.013	330.34
997.369	423.22
997.725	554
998.08	366.52
998.436	400.42
998.791	495.92
999.147	494.18
999.502	528.42
999.857	415.62
1000.212	550.59
1000.567	709.93
1000.922	444.85
1001.277	287.97
1001.632	229.58
1001.987	291.65
1002.342	222.31
1002.696	233.88
1003.051	204.42
1003.406	256.92
1003.76	237.78
1004.114	267.19
1004.469	249.83
1004.823	221.84
1005.177	236.51
1005.531	196.55
1005.885	198.58
1006.239	225.76
1006.593	281.06
1006.947	398.34
1007.301	292
1007.655	331.73
1008.008	251.42
1008.362	285.93
1008.715	383.56
1009.069	356.78
1009.422	592.41
1009.776	1110.61
1010.129	728.35
1010.482	566.2
1010.835	413.71
1011.188	817.38
1011.541	708.23
1011.894	-3699.75
1012.247	10220.49
1012.6	702.41
1012.952	484.99
1013.305	193.19
1013.657	149.33
1014.01	155.63
1014.362	119.22
1014.715	154.11
1015.067	153.02
1015.419	163.24
1015.771	163.52
1016.123	166.38
1016.475	175.21
1016.827	172.63
1017.179	193.85
1017.531	181.35
1017.883	158.81
1018.234	211.87
1018.586	239.33
1018.938	284.49
1019.289	399.14
1019.64	444.43
1019.992	391.47
1020.343	367.7
1020.694	331.68
1021.045	297.9
1021.396	350.3
1021.747	433.32
1022.098	454.84
1022.449	343.61
1022.8	335.34
1023.151	261.74
1023.501	248.16
1023.852	254.98
1024.202	271.49
1024.553	286.95
1024.903	302.89
1025.253	285.27
1025.604	270.53
1025.954	328.62
1026.304	375.97
1026.654	401.14
1027.004	534.51
1027.354	807.16
1027.703	888.11
1028.053	1002.08
1028.403	1570.68
1028.753	1957.93
1029.102	2376.86
1029.452	10779.21
1029.801	480.54
1030.15	330.77
1030.499	277.79
897.758	1486.77
901.051	1436.08
904.343	1464.81
907.636	1467.81
910.928	1508.92
914.22	1455.71
917.511	1461.37
920.803	1492.12
924.094	1484.54
927.384	1490.99
930.675	1462.59
933.965	1442.22
937.255	1467.43
940.544	1445.92
943.834	1440.57
947.123	1402.41
950.411	1462.48
953.7	1451.82
956.988	1443.21
960.276	1395.07
963.563	1422.5
966.851	1432.52
970.138	1455.39
973.424	1454.58
976.711	1419.9
979.997	1454.56
983.283	1480.64
986.568	1437.73
989.853	1426.2
993.138	1439.42
996.423	1504.24
999.708	1475.31
1002.992	1494.25
1006.275	1436.67
1009.559	1438.28
1012.842	1503.17
1016.125	1471.65
1019.408	1456.18
1022.69	1488.94
1025.972	1509.05
1029.254	1495.28
1032.536	1470.18
1035.817	1473.72
1039.098	1454.03
1042.379	1483.32
1045.659	1499.23
1048.939	1463.29
1052.219	1465.66
1055.498	1459.25
1058.778	1452.19
1062.057	1437.21
1065.335	1454.54
1068.614	1457.36
1071.892	1453.77
1075.17	1486.89
1078.447	1490.07
1081.724	1486.38
1085.001	1499.26
1088.278	1483.7
1091.554	1485.18
1094.83	1485.23
1098.106	1508.56
1101.382	1524.59
1104.657	1522.86
1107.932	1522.05
1111.206	1507.62
1114.481	1475.7
1117.755	1476.05
1121.029	1470.8
1124.302	1510.89
1127.575	1493.11
1130.848	1491.12
1134.121	1473.12
1137.393	1446.38
1140.665	1485.91
1143.937	1471.8
1147.208	1437.49
1150.48	1474.93
1153.75	1468.98
1157.021	1470.79
1160.291	1453.21
1163.561	1486.37
1166.831	1462.06
1170.101	1473.85
1173.37	1451.24
1176.639	1424.02
1179.907	1453.32
1183.176	1467.4
1186.444	1468.82
1189.711	1482.3
1192.979	1499.48
1196.246	1473.56
1199.513	1481.74
1202.78	1484.15
1206.046	1491.21
1209.312	1508.2
1212.578	1514.78
1215.843	1494.01
1219.108	1476.09
1222.373	1490.57
1225.638	1475.74
1228.902	1468.15
1232.166	1443.91
1235.43	1435.72
1238.693	1456.4
1241.956	1452.74
1245.219	1484.24
1248.482	1475.27
1251.744	1474.36
1255.006	1549.49
1258.268	1516.35
1261.529	1491.82
1264.79	1489.33
1268.051	1549.02
1271.312	1555.41
1274.572	1533.6
1277.832	1525.76
1281.092	1511.43
1284.351	1508.72
1287.61	1500.83
1290.869	1460.26
1294.128	1460.28
1297.386	1483.61
1300.644	1481.55
1303.902	1485.92
1307.159	1402.42
1310.416	1434.5
1313.673	1449.96
1316.93	1454.15
1320.186	1468.07
1323.442	1487.21
1326.697	1488.9
1329.953	1471.9
1333.208	1497.15
1336.463	1480.72
1339.717	1460.79
1342.972	1530.77
1346.226	1513.32
1349.479	1489.32
1352.733	1472.52
1355.986	1483.32
1359.238	1470.87
1362.491	1473.39
1365.743	1473.42
1368.995	1469.53
1372.247	1483.46
1375.498	1492.53
1378.749	1518.29
1382	1492.79
1385.251	1510.33
1388.501	1483.41
1391.751	1481.41
1395	1466.76
1398.25	1482.75
1401.499	1501.93
1404.748	1472.37
1407.996	1458.83
1411.244	1457.37
1414.492	1448.72
1417.74	1438.29
1420.987	1443.68
1424.234	1481.13
1427.481	1458.65
1430.728	1492.29
1433.974	1479.38
1437.22	1477.64
1440.465	1471.68
1443.711	1474.6
1446.956	1485.49
1450.201	1467.17
1453.445	1495.68
1456.689	1486.35
1459.933	1495.19
1463.177	1520.18
1466.42	1502.24
1469.663	1490.25
1472.906	1500.23
1476.148	1532.85
1479.391	1503.86
1482.633	1491.51
1485.874	1507.5
1489.115	1510.24
1492.356	1499.31
1495.597	1483.75
1498.838	1474.03
1502.078	1468.34
1505.318	1454.97
1508.557	1468.91
1511.797	1468.1
1515.036	1502.96
1518.274	1474.28
1521.513	1440.14
1524.751	1446.54
1527.989	1459.31
1531.227	1470.29
1534.464	1477.92
1537.701	1470.46
1540.938	1474.44
1544.174	1444.44
1547.41	1431.62
1550.646	1455.43
1553.882	1485.96
1557.117	1524.53
1560.352	1526.6
1563.587	1502.44
1566.821	1484.03
1570.055	1497.15
1573.289	1478.65
1576.523	1512.58
1579.756	1518.74
1582.989	1535.74
1586.222	1505.53
1589.454	1529.44
1592.686	1519.48
1595.918	1535.01
1599.15	1532.53
1602.381	1557.72
1605.612	1545.9
1608.843	1604.53
1612.073	1554.94
1615.303	1550.32
1618.533	1545.47
1621.762	1547.1
1624.992	1527.79
1628.221	1525.38
1631.449	1519.78
1634.678	1536.59
1637.906	1515.59
1641.134	1528.78
1644.361	1507.36
1647.588	1502.28
1650.815	1519.35
1654.042	1497
1657.269	1512.17
1660.495	1501.39
1663.72	1492.94
1666.946	1471.19
1670.171	1459.56
1673.396	1442.16
1676.621	1431.58
1679.845	1429.29
1683.069	1430.32
1686.293	1446.4
1689.517	1441.33
1692.74	1416.42
1695.963	1428.24
1699.185	1451.71
1702.408	1438.33
1705.63	1452.69
1708.852	1465.53
1712.073	1445.28
1715.294	1457.88
1718.515	1489.95
1721.736	1463.18
1724.956	1452.86
1728.176	1466.99
1731.396	1479.23
1734.616	1475.57
1737.835	1502.87
1741.054	1482.23
1744.272	1478.33
1747.491	1506.15
1750.709	1517.69
1753.927	1489.54
1757.144	1506.91
1760.361	1541.32
1763.578	1523.22
1766.795	1491.33
1770.011	1482.75
1773.227	1494.83
1776.443	1524.11
1779.658	1549.31
1782.874	1514.22
1786.089	1510.48
1789.303	1510.39
1792.518	1509.64
1795.732	1504.16
1798.945	1512.82
1802.159	1543.29
1805.372	1507.03
1808.585	1502.9
1811.797	1502.41
1815.01	1519.76
1818.222	1538.41
1821.434	1511.17
1824.645	1535.64
1827.856	1541.6
1831.067	1558.18
1834.278	1523.31
1837.488	1510.12
1840.698	1588.24
1843.908	1559.4
1847.117	1542.13
1850.326	1496.75
1853.535	1531.23
1856.744	1558.95
1859.952	1510.97
1863.16	1511.51
1866.368	1528.25
1869.575	1599.19
1872.782	1527.82
1875.989	1486.23
1879.196	1518.29
1882.402	1512.58
1885.608	1531.39
1888.814	1499.02
1892.019	1441.2
1895.224	1480.48
1898.429	1461.71
1901.634	1446.02
1904.838	1436.52
1908.042	1473.51
1911.246	1486.6
1914.449	1462.84
1917.652	1451.99
1920.855	1442.12
1924.058	1456.78
1927.26	1491.1
1930.462	1500.56
1933.664	1526.28
1936.865	1496.1
1940.066	1501.28
1943.267	1467.63
1946.467	1473.34
1949.668	1480.09
1952.868	1527.13
1956.067	1525.37
1959.267	1486.97
1962.466	1502.53
1965.665	1488.99
1968.863	1486.61
1972.061	1484.96
1975.259	1480
1978.457	1527.66
1981.654	1502.81
1984.852	1505.62
1988.048	1481.08
1991.245	1467.51
1994.441	1524.55
1997.637	1489.65
2000.833	1480.47
2004.028	1501.71
2007.223	1544.59
2010.418	1535.91
2013.613	1501.27
2016.807	1498.34
2020.001	1495.68
2023.194	1504.92
2026.388	1495.52
2029.581	1461.68
2032.774	1506.67
2035.966	1511.81
2039.158	1477.64
2042.35	1489.27
2045.542	1442
2048.733	1496.3
2051.924	1484.92
2055.115	1493.53
2058.306	1474.61
2061.496	1508.38
2064.686	1538.34
2067.875	1472.18
2071.065	1474.33
2074.254	1486.62
2077.442	1455.41
2080.631	1509.03
2083.819	1471.28
2087.007	1467.19
2090.195	1460.26
2093.382	1462.66
2096.569	1457.39
2099.756	1432.38
2102.942	1472.82
2106.128	1480.07
2109.314	1472.5
2112.5	1466.55
2115.685	1445.32
2118.87	1448.8
2122.055	1494.95
2125.239	1478.85
2128.424	1476.9
2131.608	1506.51
2134.791	1494.5
2137.974	1514.89
2141.157	1508.19
2144.34	1492.62
2147.523	1481.56
2150.705	1502.77
2153.887	1476.94
2157.068	1458.45
2160.25	1443.98
2163.431	1460.05
2166.611	1443.37
2169.792	1460.77
2172.972	1400.65
2176.152	1437.85
2179.331	1452.16
2182.511	1454.32
2185.69	1465.67
2188.868	1470.58
2192.047	1492.79
2195.225	1511.28
2198.403	1471.54
2201.58	1464.32
2204.758	1449.94
2207.935	1500.87
2211.111	1446.18
2214.288	1437.69
2217.464	1460.45
2220.64	1432.51
2223.815	1463.42
2226.991	1417.79
2230.166	1425.09
2233.34	1457.02
2236.515	1465.82
2239.689	1511.25
2242.863	1477.61
2246.036	1509.91
2249.209	1500.74
2252.382	1513.94
2255.555	1519.61
2258.727	1492.23
2261.9	1508.34
2265.071	1505.69
2268.243	1505.65
2271.414	1471.95
2274.585	1460.68
2277.756	1500.04
2280.926	1473.68
2284.096	1492.02
2287.266	1445.96
2290.436	1480.39
2293.605	1490.12
2296.774	1518.61
2299.942	1520.11
2303.111	1528.39
2306.279	1565.5
2309.447	1557.63
2312.614	1542.2
2315.781	1555.66
2318.948	1538.2
2322.115	1565.7
2325.281	1494.09
2328.447	1499.32
2331.613	1476.82
2334.779	1475.37
2337.944	1471.07
2341.109	1469.91
2344.274	1464.81
2347.438	1441.29
2350.602	1456.11
2353.766	1465.22
2356.929	1459.11
2360.092	1485.13
2363.255	1462.41
2366.418	1449.17
2369.58	1474.48
2372.742	1452.36
2375.904	1437.1
2379.066	1431.08
2382.227	1448.4
2385.388	1421.34
2388.548	1391.15
2391.709	1413.46
2394.869	1409.86
2398.029	1445.15
2401.188	1433.99
2404.347	1420.85
2407.506	1418.96
2410.665	1457.54
2413.823	1442.23
2416.981	1431.68
2420.139	1443.51
2423.296	1469.72
2426.453	1452.25
2429.61	1464.64
2432.767	1447.65
2435.923	1473.23
2439.079	1439.24
2442.235	1462.19
2445.391	1421.59
2448.546	1450.83
2451.701	1472.32
2454.855	1471.68
2458.009	1487.14
2461.163	1477.89
2464.317	1459.04
2467.471	1475.56
2470.624	1496.77
2473.777	1490.68
2476.929	1501.26
2480.082	1516.66
2483.234	1504.93
2486.385	1465.01
2489.537	1459.4
2492.688	1454.14
2495.839	1471.62
2498.989	1480.6
2502.14	1471.93
2505.29	1465.79
2508.439	1479.45
2511.589	1443.41
2514.738	1443.41
2517.887	1454.31
2521.035	1502.96
2524.183	1473.15
2527.331	1467.95
2530.479	1460.18
2533.627	1463.72
