Data from N_1_DEC_ON_6N_Splice17_11-22-54-780.txt Node
Date: Sat Mar 14 11:22:54 EDT 2020
User: sa697716
Spectrometer: FLMS03696
Trigger mode: 0
Integration Time (sec): 3.180400E-1
Scans to average: 20
Electric dark correction enabled: true
Nonlinearity correction enabled: true
Boxcar width: 5
XAxis mode: Wavelengths
Number of Pixels in Spectrum: 2048
>>>>>Begin Spectral Data<<<<<
187.83	-173206.35
188.298	1323
188.766	738.84
189.233	626.39
189.701	861.95
190.169	1121.85
190.636	394.37
191.104	367.99
191.571	83.75
192.039	-6.62
192.506	-86.46
192.974	171.68
193.441	-175.55
193.908	82.17
194.375	21.14
194.842	20.99
195.31	71.4
195.777	95.23
196.244	205.68
196.711	138.97
197.177	132.36
197.644	123.72
198.111	204.74
198.578	272.83
199.045	201.04
199.511	287.42
199.978	296.31
200.445	244.71
200.911	216.22
201.378	218.86
201.844	228.1
202.31	376.77
202.777	364.28
203.243	220.69
203.709	205.6
204.176	271.75
204.642	238.8
205.108	239.38
205.574	184.49
206.04	166.96
206.506	121.27
206.972	88.09
207.438	81.23
207.903	96.19
208.369	101.98
208.835	111.63
209.301	97.21
209.766	95.93
210.232	88.62
210.697	111.37
211.163	122.32
211.628	185.19
212.094	210.24
212.559	303.88
213.024	210.75
213.49	239.3
213.955	201.86
214.42	179.17
214.885	151.39
215.35	157.07
215.815	208.42
216.28	231.49
216.745	205.32
217.21	232.51
217.675	181.05
218.14	174.49
218.604	161.34
219.069	178.11
219.534	206.02
219.998	205.52
220.463	215.77
220.927	167.09
221.392	145.51
221.856	137.7
222.32	111.7
222.785	136.99
223.249	175.68
223.713	179.81
224.177	166.05
224.642	118.59
225.106	137.13
225.57	121.82
226.034	121.64
226.497	167.74
226.961	175.81
227.425	229.98
227.889	195.01
228.353	167.11
228.816	336.47
229.28	379.77
229.744	375.27
230.207	265.22
230.671	271.36
231.134	324.53
231.597	418.49
232.061	314.08
232.524	203.49
232.987	188.12
233.45	199.44
233.914	143.69
234.377	101.78
234.84	75.14
235.303	69.39
235.766	83.44
236.229	107.37
236.691	44.35
237.154	37.69
237.617	56.78
238.08	29.22
238.542	8.55
239.005	17.71
239.468	40.54
239.93	42.95
240.393	43.7
240.855	44.12
241.317	30.73
241.78	17.5
242.242	31.27
242.704	69.96
243.166	82.79
243.629	104.4
244.091	124.11
244.553	124.98
245.015	155.66
245.477	171.58
245.939	182.54
246.4	205.01
246.862	200.5
247.324	185.57
247.786	114.65
248.247	93.3
248.709	-10.44
249.17	26.34
249.632	80.38
250.093	119.43
250.555	135.26
251.016	136.03
251.477	139.96
251.939	153.1
252.4	150.48
252.861	176.22
253.322	180.18
253.783	181.72
254.244	194.77
254.705	113.98
255.166	73.73
255.627	77.62
256.088	65.31
256.549	90.07
257.009	71.25
257.47	59.01
257.931	36.3
258.391	47.88
258.852	66.94
259.312	65.22
259.773	52.37
260.233	90.64
260.694	88.7
261.154	120.27
261.614	133.68
262.074	120.88
262.534	134.68
262.994	135.97
263.455	162.14
263.915	155.36
264.374	148.15
264.834	168.3
265.294	160.61
265.754	173.98
266.214	164.55
266.673	128.82
267.133	157.04
267.593	162.32
268.052	204.61
268.512	159.42
268.971	231.53
269.431	267.97
269.89	248.02
270.349	364.02
270.809	423.79
271.268	355.34
271.727	690.63
272.186	443.72
272.645	307.98
273.104	175
273.563	254.23
274.022	85.9
274.481	97.47
274.94	86.89
275.399	42.76
275.857	9.02
276.316	-2.47
276.775	17.36
277.233	29.89
277.692	50.56
278.15	91.84
278.609	120.03
279.067	150.36
279.525	152.26
279.984	137.37
280.442	179.13
280.9	244.14
281.358	178.21
281.816	180.05
282.274	172.69
282.732	146.29
283.19	148.33
283.648	117.01
284.106	130.81
284.564	103.61
285.021	145.36
285.479	116.7
285.937	69.72
286.394	72.39
286.852	50.87
287.309	41.68
287.767	74.58
288.224	70.71
288.682	75.21
289.139	85.99
289.596	91.62
290.053	64.33
290.511	55.24
290.968	87.63
291.425	101.69
291.882	134.13
292.339	156.51
292.796	125.43
293.252	116.72
293.709	128.3
294.166	112.75
294.623	106.32
295.079	98.57
295.536	116.02
295.992	114.24
296.449	100.65
296.905	110.77
297.362	127.92
297.818	120.79
298.274	142.02
298.731	125.25
299.187	111.63
299.643	120.66
300.099	167.89
300.555	177.31
301.011	145.67
301.467	200.26
301.923	184.06
302.379	160.93
302.835	179.74
303.291	161.66
303.746	176.95
304.202	186.01
304.658	165.98
305.113	113.66
305.569	128.97
306.024	137.57
306.479	77.77
306.935	85.83
307.39	64.99
307.845	48.74
308.301	58.82
308.756	39.09
309.211	68.99
309.666	78.4
310.121	133.94
310.576	94.09
311.031	77.44
311.486	44.92
311.94	28.81
312.395	27.69
312.85	-6.27
313.305	-743.23
313.759	713.15
314.214	2.17
314.668	-34.31
315.123	-104.24
315.577	38.45
316.032	30.2
316.486	38.5
316.94	65.33
317.394	59.79
317.849	68.5
318.303	67.9
318.757	64.75
319.211	64.33
319.665	76.87
320.119	73.89
320.572	77.13
321.026	90.91
321.48	93.86
321.934	80.75
322.387	74.88
322.841	96.7
323.295	136.54
323.748	122.23
324.202	143.33
324.655	163.74
325.108	275.73
325.562	221.53
326.015	245.51
326.468	195.82
326.921	222.5
327.374	248.09
327.827	244.54
328.28	252.18
328.733	192.03
329.186	170.49
329.639	153.17
330.092	112.81
330.545	113.43
330.997	123.61
331.45	149.29
331.903	188.04
332.355	233.59
332.808	213.07
333.26	171.7
333.713	183.68
334.165	187.79
334.617	267.1
335.069	174.44
335.522	235.44
335.974	317.64
336.426	262.93
336.878	126.71
337.33	91.34
337.782	84.71
338.234	110.28
338.686	89.89
339.137	58.83
339.589	28.42
340.041	63.51
340.493	40.96
340.944	3.87
341.396	-12.82
341.847	31
342.299	100.4
342.75	179.59
343.201	127.43
343.653	179.65
344.104	248.54
344.555	210.46
345.006	230.83
345.457	249.56
345.908	190.59
346.359	217.64
346.81	161.39
347.261	124.19
347.712	71.33
348.163	63.05
348.613	88.11
349.064	79.6
349.515	61.04
349.965	55.94
350.416	39.24
350.866	41.84
351.317	-7.35
351.767	-20.94
352.217	-25.1
352.668	62.65
353.118	105.58
353.568	43.14
354.018	35.98
354.468	73.56
354.918	94.72
355.368	78.14
355.818	106.45
356.268	280.71
356.718	1912.96
357.168	520.85
357.617	239.9
358.067	201.53
358.517	137.41
358.966	210.43
359.416	285.91
359.865	304.55
360.315	366
360.764	209.03
361.213	130
361.663	68.43
362.112	66.26
362.561	55.6
363.01	59.57
363.459	70.94
363.908	15.68
364.357	17.29
364.806	-48.77
365.255	-29.2
365.703	-0.4
366.152	14.52
366.601	33.06
367.05	55.11
367.498	72.7
367.947	71.78
368.395	78.05
368.844	94.75
369.292	79.64
369.74	96.61
370.189	121.25
370.637	98.2
371.085	71.49
371.533	63.47
371.981	16.31
372.429	30.97
372.877	34.96
373.325	40.94
373.773	47.71
374.221	53.53
374.669	67.11
375.116	69.11
375.564	79.3
376.012	61.13
376.459	61.43
376.907	73.31
377.354	48.46
377.801	57.31
378.249	68.67
378.696	49.52
379.143	54.47
379.591	-15.07
380.038	-59.73
380.485	-1.21
380.932	-4.79
381.379	71.16
381.826	150.36
382.273	84.47
382.72	57.89
383.166	44.25
383.613	41.72
384.06	38.97
384.506	50.88
384.953	37.59
385.4	25.16
385.846	39.99
386.292	24.8
386.739	-2.25
387.185	14.52
387.631	20.83
388.078	36.41
388.524	30.22
388.97	34.26
389.416	28.76
389.862	29.1
390.308	29.58
390.754	19.92
391.2	14.4
391.645	20.64
392.091	43.32
392.537	43.25
392.983	26.64
393.428	54.34
393.874	32.65
394.319	51.78
394.765	73.7
395.21	67.67
395.655	76.18
396.101	83.34
396.546	72.36
396.991	51.16
397.436	48.74
397.881	45.64
398.326	26.5
398.771	38.42
399.216	26.1
399.661	17.8
400.106	26.66
400.551	27.19
400.995	25.31
401.44	27.29
401.885	27.74
402.329	23.82
402.774	26.1
403.218	37.83
403.663	37.42
404.107	38.79
404.551	42.22
404.995	35.75
405.44	30.24
405.884	28.22
406.328	23.55
406.772	20.91
407.216	22.11
407.66	20.67
408.104	10.29
408.547	7.27
408.991	7.28
409.435	2.64
409.879	6.06
410.322	6.29
410.766	6.88
411.209	10.36
411.653	11.16
412.096	15.64
412.54	12.02
412.983	13.97
413.426	17.08
413.869	14.69
414.312	17.99
414.756	15.83
415.199	17.35
415.642	20.06
416.085	20.86
416.527	19.85
416.97	14.88
417.413	17.43
417.856	15.6
418.298	14.92
418.741	14.37
419.184	12
419.626	6.6
420.069	4.37
420.511	2.51
420.953	3.73
421.396	4.67
421.838	4.45
422.28	3.78
422.722	4.86
423.164	3.65
423.606	5.23
424.048	5.69
424.49	10.22
424.932	11.07
425.374	10.78
425.816	6.51
426.258	6.53
426.699	6.94
427.141	12.26
427.582	10.51
428.024	8.89
428.465	5.47
428.907	5.48
429.348	4.79
429.789	6.4
430.231	7.43
430.672	9.4
431.113	10.24
431.554	11.52
431.995	7.32
432.436	8.26
432.877	7.76
433.318	11.06
433.759	8.87
434.2	8.94
434.64	6.99
435.081	6.81
435.522	6.81
435.962	6.28
436.403	7.62
436.843	5.46
437.284	5.02
437.724	5.79
438.164	2.96
438.604	3.31
439.045	5.86
439.485	9.31
439.925	9.14
440.365	9.03
440.805	8.33
441.245	8.53
441.685	9.38
442.125	10.19
442.564	9.83
443.004	11.93
443.444	12.4
443.883	10.87
444.323	5.16
444.762	1.14
445.202	-0.6
445.641	-0.42
446.081	-3.28
446.52	-3.38
446.959	-3.63
447.398	-1.73
447.837	-1.79
448.276	-1.68
448.716	-1.32
449.154	-1.67
449.593	1.2
450.032	1.88
450.471	-0.13
450.91	-0.92
451.349	0.29
451.787	0.41
452.226	-1.02
452.664	-2.55
453.103	-2.99
453.541	-3.75
453.98	0.22
454.418	0.2
454.856	1.37
455.295	2.68
455.733	4.97
456.171	4.85
456.609	4.95
457.047	5.83
457.485	8.61
457.923	10.23
458.361	9.44
458.798	9.29
459.236	9.14
459.674	7.79
460.111	7.76
460.549	6.85
460.987	5.34
461.424	4.33
461.862	4.04
462.299	3.69
462.736	4.17
463.173	3.9
463.611	5.69
464.048	6.21
464.485	6.91
464.922	6.15
465.359	6.43
465.796	13.99
466.233	15.68
466.67	17.39
467.106	17.92
467.543	16.49
467.98	16.69
468.416	14.53
468.853	14.02
469.29	13.55
469.726	13.15
470.162	12
470.599	6.11
471.035	4.91
471.471	4.28
471.907	2.76
472.344	2.32
472.78	2.73
473.216	2.31
473.652	2.39
474.088	1.21
474.523	1.82
474.959	1.57
475.395	1.82
475.831	1.94
476.266	0.81
476.702	0.44
477.138	1.01
477.573	0.72
478.008	0.69
478.444	2.18
478.879	3.65
479.314	3.66
479.75	3.58
480.185	3.16
480.62	2.43
481.055	2.82
481.49	3.36
481.925	3.77
482.36	6.33
482.795	5.7
483.229	4.17
483.664	4.23
484.099	4.6
484.534	4.9
484.968	5.51
485.403	5.96
485.837	5.57
486.271	5.25
486.706	4.67
487.14	2.56
487.574	2.92
488.009	2.97
488.443	2.53
488.877	2.88
489.311	2.62
489.745	2.19
490.179	2.58
490.613	4.27
491.046	4.17
491.48	3.95
491.914	4.07
492.348	3.65
492.781	3.57
493.215	4.25
493.648	3.55
494.082	3.5
494.515	3.6
494.948	3.87
495.382	1.88
495.815	2.44
496.248	2.84
496.681	2.38
497.114	2.24
497.547	2.38
497.98	2.4
498.413	3.81
498.846	4.51
499.279	4.63
499.711	4.4
500.144	4.73
500.577	4.92
501.009	4.52
501.442	5.77
501.874	6.84
502.306	6.28
502.739	7.46
503.171	6.48
503.603	6.33
504.036	5.49
504.468	5.4
504.9	5.29
505.332	4.41
505.764	5.25
506.196	4.41
506.627	3.85
507.059	3.99
507.491	2.4
507.923	3.13
508.354	3.24
508.786	3.73
509.217	3.32
509.649	3.63
510.08	3.74
510.512	3.8
510.943	4.4
511.374	4.69
511.805	4.54
512.237	3.91
512.668	2.95
513.099	2.83
513.53	2.76
513.961	3.08
514.391	2.3
514.822	3.26
515.253	3.06
515.684	2.45
516.114	2.5
516.545	3.03
516.975	2.99
517.406	2.53
517.836	1.99
518.267	2.06
518.697	2.75
519.127	3.42
519.558	2.45
519.988	1.87
520.418	2.17
520.848	1.2
521.278	0.94
521.708	29.7
522.138	30.86
522.567	30.11
522.997	30.36
523.427	29.79
523.857	29.52
524.286	29.8
524.716	29.9
525.145	29.72
525.575	30.88
526.004	30.36
526.433	2.55
526.863	1.33
527.292	3.2
527.721	3.64
528.15	3.31
528.579	3.71
529.008	3.92
529.437	2.93
529.866	3.05
530.295	2.14
530.724	3
531.152	3.01
531.581	3.98
532.01	3.41
532.438	2.74
532.867	2.58
533.295	2.97
533.723	2.21
534.152	2.88
534.58	2.73
535.008	3.86
535.436	4.32
535.865	3.95
536.293	2.94
536.721	2.58
537.149	2.44
537.576	3.54
538.004	3.75
538.432	3.5
538.86	4.08
539.287	3.82
539.715	3.28
540.143	2.48
540.57	2.93
540.998	3.09
541.425	4.51
541.852	4.96
542.28	3.88
542.707	3.09
543.134	3.6
543.561	3.51
543.988	3.52
544.415	3.22
544.842	3.37
545.269	3.49
545.696	4.01
546.123	3.66
546.549	3.64
546.976	4.46
547.403	4.38
547.829	3.92
548.256	3.77
548.682	3.86
549.108	4.47
549.535	4.3
549.961	3.49
550.387	3.21
550.813	3.31
551.24	3.12
551.666	2.39
552.092	2.41
552.518	2.79
552.943	3.16
553.369	3.32
553.795	3.11
554.221	2.92
554.646	2.96
555.072	3.9
555.498	2.89
555.923	2.71
556.349	3.32
556.774	3.45
557.199	2.91
557.625	2.22
558.05	2.23
558.475	2.25
558.9	2.76
559.325	3.72
559.75	3.48
560.175	3.37
560.6	3.16
561.025	2.46
561.449	2.5
561.874	2.26
562.299	2.41
562.723	2.19
563.148	1.72
563.572	1.23
563.997	0.99
564.421	0.2
564.846	-0.11
565.27	0.26
565.694	0.49
566.118	0.33
566.542	1.4
566.966	1.91
567.39	2.08
567.814	2.32
568.238	2.57
568.662	1.7
569.086	1.49
569.509	1.86
569.933	2.53
570.357	2.27
570.78	2.56
571.204	2.54
571.627	2.39
572.05	2.05
572.474	2.88
572.897	3.47
573.32	4.3
573.743	4.35
574.166	4.93
574.589	4.23
575.012	4.75
575.435	4.13
575.858	4.07
576.281	4.25
576.704	4.24
577.126	3.44
577.549	2.79
577.972	2.46
578.394	2.94
578.817	3.95
579.239	3.79
579.661	3.82
580.084	4.65
580.506	4.82
580.928	4.17
581.35	4.36
581.772	4.29
582.194	4.2
582.616	3.48
583.038	2.53
583.46	1.06
583.882	1.19
584.303	0.63
584.725	0.14
585.147	3.39
585.568	3.59
585.99	3.97
586.411	4.81
586.833	5.21
587.254	5.77
587.675	6.34
588.096	6.76
588.518	6.9
588.939	7.05
589.36	7.51
589.781	3.38
590.202	6.24
590.623	5.7
591.043	4.2
591.464	4.04
591.885	4.3
592.305	4.35
592.726	3.83
593.147	3.78
593.567	4.15
593.987	4.2
594.408	4
594.828	1.48
595.248	2.43
595.669	4.02
596.089	4.01
596.509	3.95
596.929	3.65
597.349	3.52
597.769	3.33
598.189	3.21
598.608	2.71
599.028	3.15
599.448	2.59
599.867	1.82
600.287	0.97
600.706	1.2
601.126	1.38
601.545	2.24
601.965	2.6
602.384	2.34
602.803	1.91
603.222	2.25
603.641	2.06
604.061	3
604.48	2.82
604.898	2.45
605.317	2.37
605.736	2.61
606.155	2.5
606.574	2.46
606.992	2.76
607.411	3.32
607.829	2.71
608.248	2.67
608.666	1.86
609.085	2.49
609.503	2.67
609.921	2.8
610.339	2.45
610.758	2.03
611.176	1.61
611.594	2.04
612.012	1.53
612.43	2.17
612.847	2.25
613.265	2.75
613.683	2.84
614.101	3.11
614.518	2.38
614.936	2.77
615.353	3.52
615.771	4.43
616.188	4.66
616.606	4.37
617.023	4.72
617.44	4.54
617.857	3.76
618.274	2.89
618.691	3.28
619.108	3.49
619.525	2.94
619.942	2.36
620.359	2.1
620.776	1.66
621.192	2.54
621.609	2.22
622.026	2.47
622.442	3.19
622.859	3.63
623.275	2.92
623.691	3.04
624.108	2.96
624.524	2.77
624.94	2.54
625.356	2.34
625.772	1.98
626.188	1.49
626.604	1.66
627.02	1.91
627.436	2.3
627.852	3.8
628.268	4.49
628.683	4.54
629.099	4.25
629.514	3.54
629.93	3.62
630.345	3.26
630.761	2.97
631.176	3.05
631.591	3.61
632.007	3.57
632.422	2.29
632.837	1.02
633.252	2.11
633.667	2.53
634.082	3.27
634.497	3.45
634.911	5.34
635.326	6.34
635.741	6.73
636.155	5.84
636.57	6.02
636.984	6.16
637.399	7.77
637.813	6.7
638.228	6.43
638.642	5.63
639.056	5.31
639.47	4.82
639.884	4.4
640.298	3.91
640.712	4.32
641.126	4.89
641.54	4.53
641.954	2.36
642.368	3.13
642.781	5.68
643.195	6.36
643.609	6.97
644.022	5.75
644.436	6.02
644.849	5.47
645.262	5.2
645.676	3.73
646.089	3.97
646.502	5.5
646.915	4.49
647.328	3.26
647.741	3.92
648.154	4.12
648.567	6.46
648.98	6.71
649.393	7.93
649.805	8.52
650.218	9.25
650.631	9.58
651.043	9.2
651.456	9.9
651.868	9.54
652.28	8.17
652.693	7.61
653.105	6.55
653.517	6.24
653.929	5.37
654.341	5.28
654.753	5.55
655.165	5.25
655.577	5.46
655.989	5.52
656.401	4.41
656.813	5.76
657.224	6.14
657.636	5.23
658.047	5.61
658.459	5.88
658.87	4.88
659.282	4.99
659.693	5.53
660.104	5.81
660.515	4.97
660.926	4.8
661.338	5.11
661.749	4.75
662.159	5.63
662.57	4.33
662.981	4.94
663.392	4.74
663.803	3.81
664.213	3.03
664.624	2.65
665.035	2.28
665.445	2.31
665.855	2.46
666.266	2.88
666.676	2.25
667.086	2.01
667.497	1.82
667.907	3.17
668.317	3.28
668.727	5.69
669.137	5.03
669.547	5.6
669.956	5.28
670.366	4.99
670.776	4.12
671.186	3.93
671.595	4.13
672.005	2.93
672.414	2.75
672.824	3.84
673.233	1.14
673.642	1.95
674.052	1.83
674.461	3.66
674.87	3.28
675.279	4.69
675.688	4.31
676.097	5.83
676.506	6.43
676.915	5.2
677.323	4.09
677.732	4.28
678.141	3.48
678.549	3.89
678.958	2.36
679.366	2.15
679.775	0.82
680.183	2.39
680.592	2.22
681	1.79
681.408	3.26
681.816	3.66
682.224	3.63
682.632	5.58
683.04	5.75
683.448	5.97
683.856	6.43
684.264	6.93
684.671	5.36
685.079	5.01
685.487	5.88
685.894	4.47
686.302	2.59
686.709	3.99
687.116	3.42
687.524	4.2
687.931	5.85
688.338	6.08
688.745	6.06
689.152	5.88
689.559	6.21
689.966	7.46
690.373	8.35
690.78	10.71
691.187	10.66
691.593	10.6
692	9.44
692.407	9.25
692.813	11.05
693.22	11.83
693.626	10.76
694.032	10.32
694.439	9.75
694.845	9.59
695.251	8.37
695.657	7.54
696.063	5.71
696.469	6.48
696.875	5.39
697.281	3.79
697.687	3.2
698.093	3.57
698.498	3.8
698.904	2.23
699.31	1.69
699.715	3.44
700.12	3.32
700.526	4.56
700.931	3.54
701.337	4.66
701.742	5.29
702.147	4.56
702.552	5.72
702.957	5.03
703.362	5.7
703.767	6.05
704.172	3.95
704.577	3.9
704.981	2.65
705.386	3.37
705.791	2.48
706.195	0.89
706.6	1.7
707.004	-0.21
707.408	-0.61
707.813	-0.9
708.217	-0.72
708.621	0.15
709.025	-0.37
709.43	1.66
709.834	1.66
710.237	2.08
710.641	2.79
711.045	3.02
711.449	5.62
711.853	9.13
712.256	9.5
712.66	9.18
713.064	9.22
713.467	10.5
713.87	9.68
714.274	10.23
714.677	11.51
715.08	12.33
715.484	13.02
715.887	14.98
716.29	12.73
716.693	13.96
717.096	15.69
717.499	17.6
717.901	17.1
718.304	17.92
718.707	17.24
719.109	15.08
719.512	12.97
719.915	14.3
720.317	12.58
720.719	11.61
721.122	11.39
721.524	11.27
721.926	14.55
722.328	13.8
722.731	13.61
723.133	13.53
723.535	13.86
723.937	15.17
724.338	15.19
724.74	15.3
725.142	54.3
725.544	55.87
725.945	64.52
726.347	59.74
726.748	60.8
727.15	61.74
727.551	64.6
727.952	63.75
728.354	62.14
728.755	61.93
729.156	60.39
729.557	23.54
729.958	20.77
730.359	11.65
730.76	11.21
731.161	10.66
731.562	7.95
731.962	5.24
732.363	5.45
732.763	5.83
733.164	2.64
733.564	3.1
733.965	2.52
734.365	2.98
734.766	3.66
735.166	3.36
735.566	4.04
735.966	5.82
736.366	6.55
736.766	7.08
737.166	6.64
737.566	7.92
737.966	8.31
738.365	9.07
738.765	10.27
739.165	9.79
739.564	10.37
739.964	9.39
740.363	8.59
740.763	7.32
741.162	8.01
741.561	8.23
741.96	7.79
742.36	5.99
742.759	5.56
743.158	4.18
743.557	3.62
743.955	3.13
744.354	3.48
744.753	2.63
745.152	3.75
745.55	1.82
745.949	2.34
746.348	2.22
746.746	1.89
747.144	3.72
747.543	3.65
747.941	2.89
748.339	2.95
748.737	3.23
749.136	4.84
749.534	3.75
749.932	6.65
750.33	6.27
750.727	5.88
751.125	6.33
751.523	4.78
751.921	7.54
752.318	8.77
752.716	9.72
753.113	9.64
753.511	8.7
753.908	9.86
754.305	12.23
754.703	11.63
755.1	12.86
755.497	13.92
755.894	13.52
756.291	10.78
756.688	11.31
757.085	11.28
757.482	12.84
757.878	16.01
758.275	16.55
758.672	10.23
759.068	11.68
759.465	10.93
759.861	10.16
760.258	9.77
760.654	12.48
761.05	12.47
761.447	10.38
761.843	8.67
762.239	6.31
762.635	4.7
763.031	3.19
763.427	2.8
763.822	4.37
764.218	4.39
764.614	4.42
765.01	1.9
765.405	1.36
765.801	2.49
766.196	1.58
766.592	0.47
766.987	0.94
767.382	2.44
767.778	2
768.173	1.47
768.568	2.28
768.963	3.53
769.358	4.5
769.753	6.18
770.148	7.46
770.542	7.43
770.937	6.78
771.332	7.3
771.726	6.19
772.121	10.21
772.515	10.49
772.91	9.53
773.304	8.9
773.699	9.13
774.093	7.67
774.487	7.64
774.881	7.88
775.275	9.03
775.669	7.6
776.063	7.93
776.457	7.18
776.851	7.7
777.245	9.7
777.638	9.12
778.032	8.8
778.425	9.22
778.819	10.14
779.212	13.35
779.606	15.1
779.999	14.72
780.392	16.85
780.786	14.52
781.179	14.96
781.572	14.17
781.965	15.56
782.358	15.22
782.751	14.45
783.143	10.89
783.536	9.71
783.929	6.99
784.322	8.03
784.714	6.12
785.107	7.05
785.499	8.01
785.891	9.5
786.284	9.43
786.676	9.13
787.068	11.29
787.46	13.12
787.852	11.48
788.245	12.61
788.636	10.76
789.028	12.6
789.42	14.13
789.812	13.29
790.204	12.17
790.595	14.07
790.987	15.61
791.378	14
791.77	13.32
792.161	13.05
792.553	13
792.944	15.3
793.335	13.44
793.726	12.78
794.117	13.45
794.508	12.24
794.899	8.33
795.29	7.28
795.681	6.92
796.072	6.78
796.463	19.98
796.853	23.37
797.244	23.93
797.634	24.07
798.025	24.23
798.415	20.79
798.806	21.43
799.196	25.3
799.586	28.63
799.976	31.24
800.366	30.4
800.756	13.93
801.146	11.19
801.536	10.25
801.926	10.39
802.316	10.14
802.706	12.99
803.095	13.48
803.485	12.39
803.874	10.25
804.264	7.49
804.653	10.76
805.043	16.42
805.432	19.13
805.821	20.8
806.21	22.46
806.599	22.43
806.988	23.64
807.377	20.88
807.766	19.54
808.155	17.75
808.544	19.49
808.933	18.54
809.321	19.27
809.71	14.53
810.098	13.81
810.487	10.11
810.875	7.66
811.264	5.5
811.652	14.75
812.04	15.82
812.428	18.12
812.816	17.02
813.204	16.59
813.592	11.56
813.98	13.98
814.368	18.06
814.756	20.26
815.144	23.2
815.531	26.21
815.919	17.09
816.306	15.4
816.694	16.37
817.081	17.9
817.469	21.61
817.856	19.9
818.243	17.27
818.63	12.91
819.017	15.11
819.404	15.1
819.791	13.5
820.178	13.33
820.565	17.82
820.952	24
821.339	27.1
821.725	24.82
822.112	29.65
822.498	33.12
822.885	30.64
823.271	28.41
823.657	25.09
824.044	23.57
824.43	25.22
824.816	30.93
825.202	28.79
825.588	26.37
825.974	27.7
826.36	25.84
826.746	22.12
827.132	24.6
827.517	29.18
827.903	29.34
828.289	36.23
828.674	35.36
829.06	28.96
829.445	20.98
829.83	14.85
830.216	13.85
830.601	16.06
830.986	23.31
831.371	26.65
831.756	24.22
832.141	31.37
832.526	26.83
832.911	27.39
833.295	23.54
833.68	27.46
834.065	32.07
834.449	33.86
834.834	34.21
835.218	31.83
835.603	30.35
835.987	28.56
836.371	23.71
836.755	22.61
837.139	21.8
837.524	23.37
837.908	19.82
838.291	20.99
838.675	18.26
839.059	18.3
839.443	17.94
839.827	12.91
840.21	9.3
840.594	8.07
840.977	11.94
841.361	9.09
841.744	7.17
842.127	11.18
842.511	10.65
842.894	6.02
843.277	2.84
843.66	-0.95
844.043	4.47
844.426	10.82
844.809	9.16
845.191	9.89
845.574	11.77
845.957	15.72
846.339	16.87
846.722	15.62
847.104	17.86
847.487	14.34
847.869	17.37
848.252	16.52
848.634	16.26
849.016	17.41
849.398	12.9
849.78	11.06
850.162	10.6
850.544	7.76
850.926	7.52
851.307	6.05
851.689	11.11
852.071	8.05
852.452	8.43
852.834	8.91
853.215	13.92
853.597	16.36
853.978	21.57
854.359	21.13
854.741	24.34
855.122	23.7
855.503	22.98
855.884	20.26
856.265	21.42
856.646	17.44
857.026	19.71
857.407	18.85
857.788	16.54
858.169	10.48
858.549	15.88
858.93	14.53
859.31	15.89
859.69	23.57
860.071	29.99
860.451	32.27
860.831	35.84
861.211	29.51
861.591	25.46
861.971	24.93
862.351	28.67
862.731	24.21
863.111	24.65
863.491	28.8
863.87	23
864.25	13.79
864.629	17.67
865.009	13
865.388	21.72
865.768	23.35
866.147	27.05
866.526	26.47
866.905	30.67
867.284	27.05
867.663	17.42
868.042	14.08
868.421	17.04
868.8	9
869.179	14.65
869.558	11.6
869.936	11.84
870.315	8.13
870.693	15.08
871.072	9.38
871.45	10.85
871.828	18.88
872.207	22.7
872.585	26.63
872.963	29.2
873.341	32.06
873.719	33.47
874.097	35.92
874.475	33.04
874.853	24.56
875.23	22.1
875.608	24.51
875.986	19.17
876.363	22.2
876.741	31.62
877.118	37.7
877.495	38.39
877.873	36.27
878.25	31.48
878.627	37.66
879.004	38.62
879.381	41.41
879.758	44.73
880.135	48.36
880.512	45.53
880.889	27.72
881.265	21.16
881.642	16.9
882.019	15.8
882.395	29.64
882.772	35.09
883.148	36.35
883.524	35.99
883.901	32.93
884.277	27.03
884.653	27.75
885.029	38.36
885.405	51.32
885.781	50.2
886.157	50.72
886.532	40.15
886.908	30.83
887.284	26.53
887.659	31.87
888.035	28.51
888.411	30.13
888.786	32.19
889.161	27.88
889.537	13.57
889.912	15.9
890.287	19.49
890.662	20.16
891.037	21.03
891.412	20.77
891.787	13.19
892.162	18.77
892.536	17.16
892.911	19.83
893.286	18.26
893.66	23.55
894.035	23.33
894.409	13.96
894.784	21.57
895.158	22.1
895.532	25.78
895.906	32.55
896.281	37.92
896.655	45.81
897.029	47.73
897.402	51.43
897.776	49.78
898.15	50.45
898.524	61.25
898.898	54.01
899.271	65.93
899.645	68.53
900.018	61.45
900.392	52.32
900.765	44.02
901.138	46.92
901.511	40.77
901.884	51.13
902.258	50.65
902.631	58.91
903.003	63.05
903.376	60.46
903.749	62.69
904.122	61.11
904.495	51.63
904.867	48.57
905.24	38.05
905.612	37.83
905.985	20.29
906.357	9.26
906.729	3.06
907.102	12.84
907.474	10.7
907.846	16.87
908.218	21.52
908.59	39.35
908.962	43.16
909.334	50.02
909.705	57.16
910.077	59.12
910.449	68.78
910.82	80.07
911.192	82.94
911.563	87.76
911.935	85.32
912.306	74.03
912.677	71.75
913.048	79.86
913.419	71.95
913.79	61.95
914.161	66.82
914.532	80.02
914.903	56.03
915.274	49.94
915.645	49.38
916.015	31.39
916.386	40
916.756	34.31
917.127	21.71
917.497	24.68
917.868	32.67
918.238	37.19
918.608	27.67
918.978	33.77
919.348	22.22
919.718	20.74
920.088	36.17
920.458	46.42
920.828	39.01
921.198	40.62
921.567	36.15
921.937	33.88
922.306	30.1
922.676	24.35
923.045	39.6
923.415	52.44
923.784	51.24
924.153	58.67
924.522	58.89
924.891	57.71
925.26	64.01
925.629	68.39
925.998	68.07
926.367	71.22
926.736	83.04
927.104	71.59
927.473	60.26
927.842	53.09
928.21	35.78
928.578	15.54
928.947	28.3
929.315	22.25
929.683	28.03
930.051	32.57
930.42	38.31
930.788	42.09
931.156	55.13
931.523	95.9
931.891	101.02
932.259	106.68
932.627	135.79
932.994	166.96
933.362	177.2
933.729	175.78
934.097	169.93
934.464	157.17
934.831	141.59
935.199	139.82
935.566	109.44
935.933	82.73
936.3	105.27
936.667	73.51
937.034	130.21
937.401	114.57
937.767	97.83
938.134	88.63
938.501	85.72
938.867	121.41
939.234	158.8
939.6	131.5
939.967	225.25
940.333	180.44
940.699	164.17
941.065	72.84
941.431	78.48
941.798	101
942.163	160.23
942.529	112.02
942.895	98.82
943.261	84.14
943.627	118.11
943.992	99.08
944.358	90.1
944.723	120.56
945.089	128.95
945.454	133.67
945.82	119.05
946.185	92.58
946.55	112.76
946.915	101.05
947.28	106.53
947.645	79.91
948.01	92.63
948.375	89.54
948.74	72.45
949.104	62.02
949.469	20.51
949.834	22.59
950.198	146.6
950.562	116.04
950.927	79.1
951.291	116.65
951.655	111.27
952.02	57.19
952.384	50.76
952.748	69.55
953.112	102.89
953.476	106.76
953.839	97.3
954.203	97.72
954.567	107.42
954.931	132.78
955.294	91.18
955.658	70.02
956.021	120.19
956.385	158.62
956.748	136.98
957.111	-25.64
957.474	-117.04
957.837	-68.48
958.2	-209.01
958.563	-73.36
958.926	2.65
959.289	38.53
959.652	114.18
960.015	96.21
960.377	77.99
960.74	132
961.102	132.86
961.465	272.68
961.827	428.42
962.189	740.62
962.552	550.66
962.914	439.28
963.276	230.73
963.638	162.27
964	149.33
964.362	150.69
964.724	121.72
965.085	111.11
965.447	94.72
965.809	27.91
966.17	20.58
966.532	-0.23
966.893	14.82
967.255	20.43
967.616	15.55
967.977	13.46
968.338	-1.55
968.699	14.33
969.061	10.58
969.421	23.62
969.782	26.59
970.143	41.73
970.504	78.8
970.865	88.53
971.225	112.53
971.586	125.41
971.946	175.81
972.307	159.16
972.667	174.98
973.027	157.33
973.388	126.26
973.748	94.65
974.108	124.94
974.468	73.43
974.828	83.41
975.188	44.38
975.548	42.62
975.907	52.34
976.267	57.17
976.627	79.2
976.986	89.36
977.346	89.58
977.705	76
978.064	57.96
978.424	55.63
978.783	30.92
979.142	29.73
979.501	32.1
979.86	36.85
980.219	26.6
980.578	7.07
980.937	-2.2
981.296	-3.94
981.654	25.87
982.013	16.41
982.371	30.13
982.73	52.88
983.088	47.11
983.447	49.74
983.805	92.22
984.163	132.42
984.521	175.32
984.879	210.2
985.237	-897.53
985.595	777.79
985.953	147.41
986.311	71.05
986.669	38.46
987.026	47.43
987.384	19.69
987.741	-32
988.099	63.99
988.456	55.76
988.814	64.29
989.171	52.64
989.528	37.36
989.885	40.13
990.242	46.66
990.599	46.34
990.956	48.89
991.313	49.75
991.67	46.52
992.027	68.94
992.383	68.51
992.74	63.41
993.096	67.15
993.453	73.54
993.809	74.57
994.165	88.62
994.522	130.41
994.878	135.4
995.234	159.05
995.59	161.65
995.946	88.92
996.302	102.02
996.658	119.98
997.013	103.4
997.369	135.68
997.725	186.76
998.08	140.14
998.436	56.75
998.791	91.66
999.147	92.6
999.502	82.82
999.857	91.75
1000.212	82.25
1000.567	115.25
1000.922	125.84
1001.277	61.09
1001.632	63.28
1001.987	56.73
1002.342	47.46
1002.696	62.65
1003.051	70.45
1003.406	98.9
1003.76	81.54
1004.114	92.66
1004.469	90.49
1004.823	68.51
1005.177	56.9
1005.531	52.51
1005.885	68.97
1006.239	97.46
1006.593	113.21
1006.947	141.95
1007.301	91.51
1007.655	89.7
1008.008	75.86
1008.362	75.44
1008.715	114.23
1009.069	117.99
1009.422	219.33
1009.776	365.29
1010.129	187.95
1010.482	98.93
1010.835	59.61
1011.188	37.21
1011.541	104.07
1011.894	-132.64
1012.247	998.49
1012.6	42.57
1012.952	97.36
1013.305	6.49
1013.657	33.89
1014.01	28.67
1014.362	33.98
1014.715	70.41
1015.067	103.42
1015.419	99.01
1015.771	105.61
1016.123	100.86
1016.475	104.57
1016.827	105.52
1017.179	129.94
1017.531	101.36
1017.883	95.28
1018.234	138.46
1018.586	153.74
1018.938	173.13
1019.289	240.55
1019.64	232.7
1019.992	216.7
1020.343	192.15
1020.694	207.45
1021.045	181.17
1021.396	204.61
1021.747	274.18
1022.098	250.1
1022.449	194.35
1022.8	186.9
1023.151	141.96
1023.501	148.76
1023.852	145.83
1024.202	188.4
1024.553	168.72
1024.903	190.1
1025.253	201.27
1025.604	183.08
1025.954	217.34
1026.304	244.92
1026.654	257.97
1027.004	355.29
1027.354	473.6
1027.703	520.44
1028.053	605.62
1028.403	1083.99
1028.753	1306.31
1029.102	1114.41
1029.452	2940.44
1029.801	106.34
1030.15	71.12
1030.499	36.3
897.758	1392.83
901.051	1345.73
904.343	1372.42
907.636	1374.73
910.928	1411.19
914.22	1364.76
917.511	1370.72
920.803	1399.64
924.094	1393.09
927.384	1398.72
930.675	1375.68
933.965	1356.74
937.255	1378.89
940.544	1359.4
943.834	1357.54
947.123	1323.26
950.411	1376.61
953.7	1368.31
956.988	1359.25
960.276	1314.47
963.563	1339.01
966.851	1346.52
970.138	1367.96
973.424	1369.41
976.711	1337.08
979.997	1367.49
983.283	1391.69
986.568	1351.9
989.853	1341.19
993.138	1353.49
996.423	1413.03
999.708	1388.31
1002.992	1403.57
1006.275	1349.4
1009.559	1354.11
1012.842	1413.98
1016.125	1384.49
1019.408	1369.37
1022.69	1401.2
1025.972	1418.39
1029.254	1407.38
1032.536	1384.54
1035.817	1389
1039.098	1371.23
1042.379	1401.18
1045.659	1412.16
1048.939	1379.7
1052.219	1380.52
1055.498	1377.38
1058.778	1368.87
1062.057	1357.16
1065.335	1373.48
1068.614	1374.87
1071.892	1368.77
1075.17	1402.29
1078.447	1402.59
1081.724	1398.44
1085.001	1411.91
1088.278	1398.89
1091.554	1399.08
1094.83	1400.86
1098.106	1418.68
1101.382	1433.51
1104.657	1433.06
1107.932	1433.71
1111.206	1419.51
1114.481	1389.9
1117.755	1393.07
1121.029	1386.44
1124.302	1421.35
1127.575	1405.48
1130.848	1404.07
1134.121	1386.92
1137.393	1361.19
1140.665	1398.88
1143.937	1382.41
1147.208	1353.27
1150.48	1388.68
1153.75	1380.39
1157.021	1384.51
1160.291	1368.64
1163.561	1399.05
1166.831	1377.34
1170.101	1391.19
1173.37	1368.23
1176.639	1343.2
1179.907	1375.59
1183.176	1384.28
1186.444	1387.81
1189.711	1401.03
1192.979	1416.34
1196.246	1391.98
1199.513	1399.81
1202.78	1402.35
1206.046	1406.96
1209.312	1428.46
1212.578	1432.44
1215.843	1408.27
1219.108	1394.24
1222.373	1406.71
1225.638	1389.52
1228.902	1380.95
1232.166	1361.97
1235.43	1351.63
1238.693	1368.86
1241.956	1365.89
1245.219	1391.52
1248.482	1385.63
1251.744	1386.05
1255.006	1453.63
1258.268	1422.16
1261.529	1402.66
1264.79	1402.57
1268.051	1456.56
1271.312	1465.8
1274.572	1444.11
1277.832	1436.82
1281.092	1422.65
1284.351	1418.45
1287.61	1411.81
1290.869	1375.74
1294.128	1376.22
1297.386	1396.67
1300.644	1392.95
1303.902	1398.63
1307.159	1319.46
1310.416	1349.33
1313.673	1363.48
1316.93	1368.33
1320.186	1382.74
1323.442	1399.34
1326.697	1397.1
1329.953	1384.11
1333.208	1408.11
1336.463	1393.42
1339.717	1372.43
1342.972	1439.59
1346.226	1425.08
1349.479	1404.2
1352.733	1387.74
1355.986	1397.88
1359.238	1387.17
1362.491	1389.41
1365.743	1388.76
1368.995	1386
1372.247	1399.51
1375.498	1407.7
1378.749	1431.74
1382	1405.99
1385.251	1419.82
1388.501	1398.38
1391.751	1394.67
1395	1381.2
1398.25	1398.95
1401.499	1414.39
1404.748	1386.17
1407.996	1374.51
1411.244	1372.9
1414.492	1361.97
1417.74	1352.52
1420.987	1362.66
1424.234	1393.61
1427.481	1372.27
1430.728	1403.47
1433.974	1391.93
1437.22	1391.69
1440.465	1386.97
1443.711	1387.4
1446.956	1397.46
1450.201	1381.35
1453.445	1409.26
1456.689	1396.9
1459.933	1407.71
1463.177	1430.91
1466.42	1414.97
1469.663	1403.23
1472.906	1409.95
1476.148	1438.06
1479.391	1415.23
1482.633	1404.84
1485.874	1419.02
1489.115	1422.33
1492.356	1413.24
1495.597	1395.28
1498.838	1389.41
1502.078	1383.94
1505.318	1370.66
1508.557	1385.42
1511.797	1385.73
1515.036	1413.02
1518.274	1388.06
1521.513	1357.93
1524.751	1361.9
1527.989	1374.28
1531.227	1386.52
1534.464	1390.37
1537.701	1384.2
1540.938	1387.88
1544.174	1361.15
1547.41	1349.3
1550.646	1373.71
1553.882	1399.19
1557.117	1435.16
1560.352	1440.4
1563.587	1414.38
1566.821	1396.17
1570.055	1409.62
1573.289	1392.63
1576.523	1422.94
1579.756	1429.64
1582.989	1443.67
1586.222	1415.11
1589.454	1439.87
1592.686	1430.57
1595.918	1441.97
1599.15	1442.41
1602.381	1469.65
1605.612	1458.27
1608.843	1511.76
1612.073	1467.28
1615.303	1461.84
1618.533	1458.99
1621.762	1460.69
1624.992	1440.19
1628.221	1438.24
1631.449	1434.74
1634.678	1449.08
1637.906	1425.93
1641.134	1437.51
1644.361	1418.03
1647.588	1411.69
1650.815	1425.29
1654.042	1405.23
1657.269	1420.58
1660.495	1411.08
1663.72	1404.44
1666.946	1382.93
1670.171	1371.97
1673.396	1355.69
1676.621	1347.88
1679.845	1346.69
1683.069	1349.8
1686.293	1363.32
1689.517	1358.14
1692.74	1333.05
1695.963	1344.05
1699.185	1365.09
1702.408	1352.82
1705.63	1366.1
1708.852	1377.9
1712.073	1360.37
1715.294	1370.65
1718.515	1402.32
1721.736	1378.29
1724.956	1368.86
1728.176	1382.09
1731.396	1391.67
1734.616	1388.73
1737.835	1415.74
1741.054	1395.53
1744.272	1393.66
1747.491	1417.69
1750.709	1428.28
1753.927	1398.8
1757.144	1417.3
1760.361	1449.17
1763.578	1431.83
1766.795	1404.39
1770.011	1394.51
1773.227	1406.86
1776.443	1435.78
1779.658	1456.37
1782.874	1423.72
1786.089	1419.17
1789.303	1419.93
1792.518	1419.49
1795.732	1413.67
1798.945	1421.85
1802.159	1449.32
1805.372	1416.07
1808.585	1409.57
1811.797	1408.67
1815.01	1428.09
1818.222	1445.01
1821.434	1425.54
1824.645	1447.61
1827.856	1450.41
1831.067	1466.28
1834.278	1434.95
1837.488	1422.23
1840.698	1494.83
1843.908	1468.74
1847.117	1449.49
1850.326	1404.83
1853.535	1440.62
1856.744	1459.76
1859.952	1416.29
1863.16	1418.23
1866.368	1434.97
1869.575	1498.79
1872.782	1436.66
1875.989	1396.62
1879.196	1426.69
1882.402	1425.55
1885.608	1443.2
1888.814	1409.89
1892.019	1359.2
1895.224	1394.31
1898.429	1377.47
1901.634	1364.15
1904.838	1352.52
1908.042	1385.56
1911.246	1401.63
1914.449	1378.71
1917.652	1369.97
1920.855	1360
1924.058	1373.13
1927.26	1404.65
1930.462	1414.31
1933.664	1437
1936.865	1406.97
1940.066	1416.26
1943.267	1382.61
1946.467	1388.02
1949.668	1393.84
1952.868	1435.27
1956.067	1435
1959.267	1401.21
1962.466	1415.19
1965.665	1402.65
1968.863	1401.34
1972.061	1398.83
1975.259	1394.18
1978.457	1439.11
1981.654	1415.21
1984.852	1417.99
1988.048	1393.47
1991.245	1381.92
1994.441	1433.24
1997.637	1402.42
2000.833	1394.57
2004.028	1412.97
2007.223	1454.61
2010.418	1444.9
2013.613	1417.12
2016.807	1411.81
2020.001	1410.04
2023.194	1419.72
2026.388	1408.8
2029.581	1377.3
2032.774	1415.55
2035.966	1421.18
2039.158	1389.94
2042.35	1401.86
2045.542	1357.52
2048.733	1406.9
2051.924	1397.8
2055.115	1408.17
2058.306	1392.07
2061.496	1422.9
2064.686	1451.97
2067.875	1392.54
2071.065	1395.09
2074.254	1405.45
2077.442	1376.32
2080.631	1426.52
2083.819	1388.18
2087.007	1383.38
2090.195	1374.5
2093.382	1375.6
2096.569	1372.52
2099.756	1347.91
2102.942	1384.37
2106.128	1389.06
2109.314	1382.65
2112.5	1375.61
2115.685	1358.22
2118.87	1362.1
2122.055	1402.66
2125.239	1386.97
2128.424	1385.27
2131.608	1414.32
2134.791	1404.83
2137.974	1425.45
2141.157	1418.79
2144.34	1404.08
2147.523	1395.85
2150.705	1414.17
2153.887	1392.2
2157.068	1377.6
2160.25	1364.09
2163.431	1379.35
2166.611	1361.85
2169.792	1375.6
2172.972	1318.3
2176.152	1353.13
2179.331	1367.51
2182.511	1367.73
2185.69	1376.84
2188.868	1379.54
2192.047	1401.07
2195.225	1418.61
2198.403	1384.55
2201.58	1374.89
2204.758	1367
2207.935	1412.21
2211.111	1362.61
2214.288	1354.1
2217.464	1372.99
2220.64	1351.14
2223.815	1378.99
2226.991	1336.85
2230.166	1342.88
2233.34	1368.63
2236.515	1380.16
2239.689	1419.92
2242.863	1391.11
2246.036	1418.6
2249.209	1410.73
2252.382	1425.12
2255.555	1427.26
2258.727	1401.94
2261.9	1418.89
2265.071	1415.98
2268.243	1415.59
2271.414	1385.51
2274.585	1371.93
2277.756	1408.9
2280.926	1387.67
2284.096	1404.74
2287.266	1362.47
2290.436	1393.16
2293.605	1402.49
2296.774	1425.45
2299.942	1430.58
2303.111	1440.56
2306.279	1471.29
2309.447	1464.99
2312.614	1449.39
2315.781	1457.07
2318.948	1446.98
2322.115	1471.66
2325.281	1403.19
2328.447	1409.32
2331.613	1390.49
2334.779	1385.8
2337.944	1383.18
2341.109	1383.51
2344.274	1378.16
2347.438	1358.41
2350.602	1373.6
2353.766	1377.28
2356.929	1372.39
2360.092	1399.56
2363.255	1376.35
2366.418	1362.7
2369.58	1386.31
2372.742	1365.19
2375.904	1351.45
2379.066	1346.21
2382.227	1361.67
2385.388	1337.87
2388.548	1308.59
2391.709	1326.85
2394.869	1325.25
2398.029	1358.81
2401.188	1348.3
2404.347	1337.56
2407.506	1333.35
2410.665	1371.08
2413.823	1357
2416.981	1346.14
2420.139	1357.35
2423.296	1382.19
2426.453	1366.82
2429.61	1378.43
2432.767	1363.32
2435.923	1386.65
2439.079	1354.01
2442.235	1376.06
2445.391	1338.15
2448.546	1363.5
2451.701	1385.75
2454.855	1383.93
2458.009	1398.52
2461.163	1391.2
2464.317	1372.72
2467.471	1388.07
2470.624	1408.54
2473.777	1401.1
2476.929	1411.38
2480.082	1424.67
2483.234	1415.78
2486.385	1377.51
2489.537	1373.24
2492.688	1367.7
2495.839	1383.76
2498.989	1390.6
2502.14	1381.56
2505.29	1375.87
2508.439	1388.74
2511.589	1354.64
2514.738	1354.98
2517.887	1363.98
2521.035	1410.91
2524.183	1384.92
2527.331	1378.75
2530.479	1371.07
2533.627	1375.77
