Data from N_1_HIR_WI_4N_Splice17_11-39-50-709.txt Node
Date: Sat Mar 14 11:39:50 EDT 2020
User: sa697716
Spectrometer: FLMS03696
Trigger mode: 0
Integration Time (sec): 3.180400E-1
Scans to average: 20
Electric dark correction enabled: true
Nonlinearity correction enabled: true
Boxcar width: 5
XAxis mode: Wavelengths
Number of Pixels in Spectrum: 2048
>>>>>Begin Spectral Data<<<<<
187.83	-117384.82
188.298	845.43
188.766	446.38
189.233	364.74
189.701	500.23
190.169	732.24
190.636	187.2
191.104	186.98
191.571	-10.2
192.039	-77.06
192.506	-72.58
192.974	331.93
193.441	-442.55
193.908	-219.41
194.375	-116.03
194.842	-97.84
195.31	-101.2
195.777	35.01
196.244	173.25
196.711	105.25
197.177	100.6
197.644	79.8
198.111	102.79
198.578	91.16
199.045	55.72
199.511	70.44
199.978	0.65
200.445	22.04
200.911	-14.24
201.378	-104.64
201.844	-64.73
202.31	-144.06
202.777	-130.45
203.243	-61.72
203.709	-72.65
204.176	-40.32
204.642	-59.94
205.108	-48.04
205.574	-60.98
206.04	-90.14
206.506	-93.77
206.972	-117.06
207.438	-119.43
207.903	-148.11
208.369	-102.32
208.835	-86.9
209.301	-118.46
209.766	-112
210.232	-96.16
210.697	-113.24
211.163	-153.79
211.628	-215.39
212.094	-136.59
212.559	-78.79
213.024	-47.07
213.49	-32.39
213.955	-46.17
214.42	-59.61
214.885	-42.54
215.35	-26.17
215.815	46.98
216.28	75.78
216.745	47.55
217.21	73.41
217.675	22.4
218.14	38.43
218.604	9.36
219.069	14.77
219.534	52.28
219.998	36.39
220.463	25.72
220.927	-45.05
221.392	-44.04
221.856	-17.43
222.32	-90.61
222.785	-80.66
223.249	-110.87
223.713	-135.53
224.177	-131.51
224.642	-217.52
225.106	-292.04
225.57	-328.57
226.034	-182.13
226.497	-280.88
226.961	-206.81
227.425	-163.3
227.889	-228.06
228.353	-230.88
228.816	-482.4
229.28	-407.39
229.744	-401.46
230.207	-149.12
230.671	-119.71
231.134	-338.85
231.597	-291.64
232.061	-341.69
232.524	-381.06
232.987	-251.09
233.45	-189.62
233.914	-173.26
234.377	-195.43
234.84	-140.85
235.303	-214.73
235.766	-235.66
236.229	-240.85
236.691	-166.48
237.154	-212.53
237.617	-133
238.08	-126.02
238.542	-159.88
239.005	-92.81
239.468	-89.81
239.93	-97.45
240.393	-83.82
240.855	-80.59
241.317	-82.47
241.78	-130.27
242.242	-122.96
242.704	-109.34
243.166	-100.43
243.629	-67.83
244.091	-87.29
244.553	-103.01
245.015	-93.71
245.477	-121.54
245.939	-206.25
246.4	-223.04
246.862	-196.41
247.324	-175.64
247.786	-268.22
248.247	-348.05
248.709	-419.8
249.17	-282.63
249.632	-162.38
250.093	-121.08
250.555	-81.91
251.016	-3.3
251.477	-0.71
251.939	1.83
252.4	6.33
252.861	6.58
253.322	26.41
253.783	-18.12
254.244	-65.37
254.705	-109.59
255.166	-161.8
255.627	-179.89
256.088	-247.03
256.549	-263.68
257.009	-238.14
257.47	-346.21
257.931	-293.79
258.391	-217.35
258.852	-203.66
259.312	-202.62
259.773	-266.65
260.233	-158.11
260.694	-116.78
261.154	-169.55
261.614	-66.06
262.074	-67.64
262.534	-51.91
262.994	-28.24
263.455	-58.74
263.915	-34.6
264.374	-28.87
264.834	-23.41
265.294	-63.25
265.754	-48.77
266.214	-26.07
266.673	-61.97
267.133	-79.63
267.593	-100.69
268.052	-128.59
268.512	-118.81
268.971	-97.06
269.431	-96.05
269.89	-100.49
270.349	-108.5
270.809	-113.22
271.268	-111.48
271.727	-322.88
272.186	-155.4
272.645	-91.19
273.104	-116.08
273.563	-149.22
274.022	-199.9
274.481	-150.06
274.94	-89.01
275.399	-96.31
275.857	-155.69
276.316	-250.92
276.775	-224.89
277.233	-230.04
277.692	-188.21
278.15	-177.97
278.609	-138.45
279.067	-143.02
279.525	-126.38
279.984	-213.61
280.442	-213.01
280.9	-126.66
281.358	-49.75
281.816	-36.43
282.274	-25.34
282.732	-82.56
283.19	-120.53
283.648	-129.02
284.106	-131
284.564	-128.96
285.021	-84.89
285.479	-76
285.937	-95.14
286.394	-76.06
286.852	-94.86
287.309	-110.99
287.767	-56.73
288.224	-26.21
288.682	-35.35
289.139	-33.52
289.596	-34.26
290.053	-54.27
290.511	-91.69
290.968	-97.27
291.425	-140.29
291.882	-55.5
292.339	-32.57
292.796	-84.24
293.252	-104.52
293.709	-46.5
294.166	-42.48
294.623	-65.49
295.079	-68.99
295.536	-42.09
295.992	-36.29
296.449	-38.59
296.905	-25.88
297.362	-6.47
297.818	-11.92
298.274	10.36
298.731	-15.21
299.187	-15.54
299.643	-9.01
300.099	-11.73
300.555	-22.94
301.011	-9.37
301.467	61.34
301.923	-1.04
302.379	0.41
302.835	13.53
303.291	8.89
303.746	2.12
304.202	-13.35
304.658	-29.48
305.113	-14.98
305.569	-16.36
306.024	-33.98
306.479	-122.37
306.935	-53.53
307.39	-85.9
307.845	-83.64
308.301	-64.62
308.756	-83.28
309.211	-53.01
309.666	-53.68
310.121	-15.5
310.576	-41.31
311.031	-49.59
311.486	-104.78
311.94	-188.08
312.395	-272.24
312.85	-546.99
313.305	-3921.32
313.759	-14558.37
314.214	-1093
314.668	-773.97
315.123	-643.88
315.577	-173.05
316.032	-156.4
316.486	-156.76
316.94	-58.28
317.394	-11.75
317.849	-6.96
318.303	1.77
318.757	7.25
319.211	-5.19
319.665	-11.31
320.119	-28.99
320.572	-68.18
321.026	-42.18
321.48	-24.92
321.934	-54.23
322.387	-65.27
322.841	-55.29
323.295	-0.01
323.748	-54.84
324.202	-50.02
324.655	-47.7
325.108	10.58
325.562	62.3
326.015	42.17
326.468	31.52
326.921	40.79
327.374	51.89
327.827	73.1
328.28	74.45
328.733	79.14
329.186	72.42
329.639	58.61
330.092	35.63
330.545	24.68
330.997	42.05
331.45	65.57
331.903	85.31
332.355	108.5
332.808	75.65
333.26	25.56
333.713	19.53
334.165	14.53
334.617	-20.64
335.069	-102.44
335.522	-255.12
335.974	-343.33
336.426	-419.36
336.878	-353.48
337.33	-171.85
337.782	-175.72
338.234	-170.84
338.686	-244.2
339.137	-283.05
339.589	-268.85
340.041	-158.24
340.493	-137.66
340.944	-144.76
341.396	-138.51
341.847	-47.01
342.299	-4.74
342.75	20.7
343.201	-44.45
343.653	-35.15
344.104	-87.58
344.555	-57.09
345.006	-170.15
345.457	-43.7
345.908	-56.67
346.359	-42.94
346.81	-63.63
347.261	-98
347.712	-125.06
348.163	-117.78
348.613	-73.03
349.064	-59.39
349.515	-44.54
349.965	-30.01
350.416	-77.58
350.866	-88.35
351.317	-104.88
351.767	-165.83
352.217	-247.89
352.668	-189.04
353.118	-232.93
353.568	-332.06
354.018	-207.17
354.468	-206.23
354.918	-110.58
355.368	-113.11
355.818	-140.97
356.268	-578.14
356.718	-2031.62
357.168	-413.18
357.617	-189.57
358.067	-197.99
358.517	-217
358.966	-251.03
359.416	-209.14
359.865	-329.47
360.315	-433.71
360.764	-147.22
361.213	-43.95
361.663	-87.86
362.112	-133.95
362.561	-225.39
363.01	-131.34
363.459	-84.22
363.908	-122.8
364.357	-80.96
364.806	-164.59
365.255	-92.1
365.703	-45.25
366.152	-45.5
366.601	-25.32
367.05	20.63
367.498	27.12
367.947	4.63
368.395	-7.88
368.844	-9.52
369.292	-66.84
369.74	-34.43
370.189	-73.12
370.637	-130.67
371.085	-126.66
371.533	-163.81
371.981	-223.82
372.429	-167.63
372.877	-176.53
373.325	-120.27
373.773	-119.41
374.221	-107.69
374.669	-154.25
375.116	-133.02
375.564	-144.26
376.012	-169.68
376.459	-116.79
376.907	-147.1
377.354	-221.63
377.801	-185.65
378.249	-191.19
378.696	-271.88
379.143	-286.72
379.591	-251.13
380.038	-433.37
380.485	-304.88
380.932	-371.15
381.379	-260.7
381.826	-83.7
382.273	-71.62
382.72	-95.84
383.166	-118.37
383.613	-52.67
384.06	-51.17
384.506	-71.66
384.953	-49.01
385.4	-42.45
385.846	-20.22
386.292	-55.21
386.739	-72.82
387.185	-81.83
387.631	-76.03
388.078	-50.1
388.524	-61.11
388.97	-42.18
389.416	-20.17
389.862	-15.67
390.308	-25.98
390.754	-18.33
391.2	-9.65
391.645	-18.62
392.091	16.2
392.537	27.45
392.983	8.33
393.428	33.06
393.874	17.72
394.319	29.66
394.765	49.68
395.21	57.99
395.655	44.77
396.101	49.19
396.546	51.73
396.991	39.2
397.436	31.17
397.881	23.13
398.326	7.6
398.771	13.76
399.216	1.21
399.661	-5.71
400.106	-4.69
400.551	2.62
400.995	-2.77
401.44	0.66
401.885	-1.11
402.329	1.51
402.774	11.81
403.218	25.08
403.663	23.87
404.107	24.28
404.551	28.58
404.995	27.95
405.44	22.07
405.884	21.45
406.328	14.6
406.772	11.92
407.216	11.53
407.66	3.69
408.104	-7.24
408.547	-7.3
408.991	-5.54
409.435	-7.32
409.879	-5.43
410.322	-4.03
410.766	0.13
411.209	2.43
411.653	3.28
412.096	6.96
412.54	5.32
412.983	6.54
413.426	9.72
413.869	7.51
414.312	8.64
414.756	5.33
415.199	3.31
415.642	2.2
416.085	3.54
416.527	1.77
416.97	-2.24
417.413	1.5
417.856	-1.81
418.298	-2.35
418.741	-2.91
419.184	-4.98
419.626	-9.57
420.069	-8.68
420.511	-6.99
420.953	-5.84
421.396	-5.21
421.838	-5.96
422.28	-6.21
422.722	-5.57
423.164	-9.09
423.606	-8.21
424.048	-8.99
424.49	-3.92
424.932	-6.15
425.374	-8.89
425.816	-14.07
426.258	-15.53
426.699	-15.22
427.141	-10.33
427.582	-9.71
428.024	-11.22
428.465	-14.04
428.907	-14.98
429.348	-17.11
429.789	-14.34
430.231	-10.1
430.672	-7.79
431.113	-6.9
431.554	-6.27
431.995	-10.65
432.436	-6.63
432.877	-3.02
433.318	-0.17
433.759	-0.49
434.2	-1.33
434.64	-3.36
435.081	-5.02
435.522	-2.8
435.962	-1.82
436.403	1.27
436.843	-1.28
437.284	-4.46
437.724	-9.31
438.164	-12.6
438.604	-11.9
439.045	-6.85
439.485	-3.53
439.925	-4.59
440.365	-6.1
440.805	-7.41
441.245	-6.8
441.685	-5.49
442.125	-6.41
442.564	-6.24
443.004	-4.63
443.444	-4.43
443.883	-5.31
444.323	-8.56
444.762	-12.78
445.202	-12.73
445.641	-9.78
446.081	-14.27
446.52	-13.29
446.959	-12.29
447.398	-8.65
447.837	-7.65
448.276	-7.52
448.716	-6.49
449.154	-6.53
449.593	-0.61
450.032	-0.29
450.471	-3.81
450.91	-4.14
451.349	-2.51
451.787	-3.12
452.226	-4.88
452.664	-5.73
453.103	-6.02
453.541	-7.85
453.98	-4.93
454.418	-7.21
454.856	-4.61
455.295	-2.99
455.733	-1.28
456.171	-2.42
456.609	-0.22
457.047	2.04
457.485	4.39
457.923	5.13
458.361	4.59
458.798	3.12
459.236	3.5
459.674	0.77
460.111	1.37
460.549	1.86
460.987	1.28
461.424	0.24
461.862	-1.49
462.299	-2.35
462.736	-1.28
463.173	-1.75
463.611	2.26
464.048	4.22
464.485	5.65
464.922	4.98
465.359	3.33
465.796	11.26
466.233	12.38
466.67	15.69
467.106	17.65
467.543	16.31
467.98	16.15
468.416	12.96
468.853	10.88
469.29	9.95
469.726	9.77
470.162	9.44
470.599	2.99
471.035	1.3
471.471	-1.36
471.907	-4.4
472.344	-4.39
472.78	-3.2
473.216	-3.86
473.652	-3.92
474.088	-4.88
474.523	-4.29
474.959	-4.77
475.395	-4.56
475.831	-3.83
476.266	-3.74
476.702	-3.29
477.138	-3.32
477.573	-3.74
478.008	-3.44
478.444	-2.42
478.879	-0.32
479.314	-0.04
479.75	0.88
480.185	0.53
480.62	0.08
481.055	0.06
481.49	0.89
481.925	1.61
482.36	3.3
482.795	2.93
483.229	2.09
483.664	1.1
484.099	0.79
484.534	1.12
484.968	1.53
485.403	1.23
485.837	0.96
486.271	0.39
486.706	-0.37
487.14	-1.76
487.574	-1.1
488.009	-0.88
488.443	-0.89
488.877	-0.48
489.311	-1.17
489.745	-0.91
490.179	-0.23
490.613	1.48
491.046	1.44
491.48	1.66
491.914	2.29
492.348	2.22
492.781	2.6
493.215	2.5
493.648	1.85
494.082	1.64
494.515	1.5
494.948	1.93
495.382	0.06
495.815	0.51
496.248	1.02
496.681	0.39
497.114	-0.49
497.547	-0.23
497.98	0.67
498.413	1.86
498.846	2.5
499.279	1.72
499.711	1.39
500.144	1.47
500.577	1.69
501.009	1.27
501.442	2.58
501.874	3.31
502.306	2.4
502.739	4.34
503.171	3.98
503.603	4.47
504.036	4.36
504.468	4.79
504.9	5.1
505.332	4.63
505.764	5.18
506.196	4.51
506.627	4.41
507.059	4.98
507.491	1.86
507.923	1.75
508.354	1.84
508.786	2.54
509.217	2.24
509.649	2.13
510.08	1.64
510.512	1.92
510.943	1.73
511.374	2.11
511.805	1.29
512.237	1.56
512.668	0.73
513.099	-0.48
513.53	-0.93
513.961	-0.58
514.391	-0.19
514.822	1.26
515.253	1.29
515.684	1.51
516.114	1.07
516.545	2.29
516.975	2.37
517.406	2.27
517.836	2.36
518.267	3.27
518.697	3.5
519.127	3.23
519.558	2.17
519.988	1.33
520.418	0.65
520.848	-0.18
521.278	-1.25
521.708	29.96
522.138	31.45
522.567	31.07
522.997	30.35
523.427	29.59
523.857	29.73
524.286	29.46
524.716	29.77
525.145	30.44
525.575	31.22
526.004	31.04
526.433	0.38
526.863	-0.88
527.292	0.31
527.721	1.01
528.15	1.02
528.579	1.5
529.008	1.74
529.437	0.88
529.866	0.31
530.295	-0.06
530.724	1.12
531.152	0.79
531.581	1.37
532.01	1.11
532.438	0.21
532.867	-0.11
533.295	0.2
533.723	-0.17
534.152	0.5
534.58	1.15
535.008	1.65
535.436	2.02
535.865	2.06
536.293	0.97
536.721	0.61
537.149	0.81
537.576	1.76
538.004	1.41
538.432	0.96
538.86	1.14
539.287	0.39
539.715	0.37
540.143	-0.87
540.57	-0.42
540.998	0.25
541.425	2.29
541.852	2.21
542.28	1.53
542.707	1.04
543.134	2.02
543.561	2.08
543.988	2.27
544.415	1.7
544.842	1.91
545.269	1.66
545.696	2.26
546.123	1.74
546.549	2.21
546.976	2.63
547.403	2.53
547.829	2.42
548.256	1.95
548.682	2.32
549.108	3.54
549.535	3.21
549.961	3
550.387	2.43
550.813	2.68
551.24	2.59
551.666	2.01
552.092	2.29
552.518	1.81
552.943	2.29
553.369	1.6
553.795	1.04
554.221	1.6
554.646	1.49
555.072	2.71
555.498	1.41
555.923	0.81
556.349	1.24
556.774	0.62
557.199	0.69
557.625	-0.11
558.05	0.54
558.475	-0.22
558.9	-0.21
559.325	0.69
559.75	0.28
560.175	0.12
560.6	0.2
561.025	-0.62
561.449	-0.22
561.874	-0.45
562.299	0.35
562.723	-0.05
563.148	0.32
563.572	-0.15
563.997	-1.32
564.421	-2.39
564.846	-2.41
565.27	-1.89
565.694	-1.28
566.118	-1.49
566.542	-0.29
566.966	-0.2
567.39	0.14
567.814	0.58
568.238	1.09
568.662	0.94
569.086	1.15
569.509	0.74
569.933	1.82
570.357	1.57
570.78	1.45
571.204	1.98
571.627	1.35
572.05	1.38
572.474	2.14
572.897	2.25
573.32	3.77
573.743	3.45
574.166	4.64
574.589	2.76
575.012	3
575.435	2.97
575.858	2.45
576.281	2.68
576.704	2.05
577.126	2.12
577.549	1.22
577.972	0.47
578.394	1.2
578.817	2.67
579.239	3.51
579.661	3.65
580.084	5.1
580.506	4.88
580.928	4.77
581.35	4.78
581.772	4.25
582.194	4.96
582.616	3.91
583.038	3.13
583.46	1.49
583.882	1.39
584.303	0.73
584.725	-0.61
585.147	3.51
585.568	4.43
585.99	5.41
586.411	5.37
586.833	5.32
587.254	6.24
587.675	5.66
588.096	4.97
588.518	5.37
588.939	5.83
589.36	6.27
589.781	1.39
590.202	3.66
590.623	3.36
591.043	2.22
591.464	1.99
591.885	2.41
592.305	2.87
592.726	3.14
593.147	3
593.567	3.14
593.987	3.46
594.408	2.93
594.828	-0.3
595.248	0.18
595.669	1.76
596.089	2.16
596.509	1.47
596.929	0.86
597.349	0.88
597.769	0.49
598.189	0.18
598.608	-0.18
599.028	0.31
599.448	0.05
599.867	-0.26
600.287	-1.26
600.706	-0.66
601.126	0.14
601.545	1.31
601.965	1.05
602.384	1.12
602.803	1.15
603.222	1.3
603.641	0.81
604.061	1.65
604.48	1.45
604.898	1.41
605.317	0.66
605.736	0.06
606.155	0.65
606.574	1.21
606.992	1.05
607.411	1.01
607.829	0.2
608.248	0.03
608.666	-0.84
609.085	-0.85
609.503	-1.03
609.921	-0.29
610.339	0.15
610.758	-1.32
611.176	-1.78
611.594	-1.52
612.012	-1.08
612.43	-0.35
612.847	-0.39
613.265	0.54
613.683	0.83
614.101	0.85
614.518	-0.16
614.936	-1.06
615.353	-0.12
615.771	0.05
616.188	0.27
616.606	-0.26
617.023	0.31
617.44	0.69
617.857	0.23
618.274	-0.79
618.691	-0.23
619.108	-0.36
619.525	-0.38
619.942	-0.42
620.359	-0.38
620.776	-0.47
621.192	0.61
621.609	0.5
622.026	1.11
622.442	0.94
622.859	1
623.275	0.77
623.691	0.64
624.108	1.32
624.524	0.9
624.94	0.9
625.356	0.45
625.772	-0.59
626.188	-1.17
626.604	-2.01
627.02	-1.87
627.436	-0.97
627.852	0.31
628.268	1.69
628.683	1.46
629.099	1.26
629.514	0.68
629.93	0.66
630.345	0.9
630.761	0.14
631.176	0.61
631.591	2.29
632.007	2.54
632.422	0.38
632.837	-1.02
633.252	-0.42
633.667	-0.56
634.082	-0.43
634.497	0.55
634.911	1.48
635.326	1.87
635.741	2.43
636.155	1.02
636.57	1.25
636.984	2.69
637.399	4.21
637.813	3.51
638.228	4.04
638.642	4.17
639.056	3.42
639.47	3.11
639.884	3.82
640.298	3.24
640.712	4.49
641.126	4.14
641.54	3.33
641.954	1.13
642.368	1.59
642.781	3.94
643.195	4.64
643.609	5.47
644.022	4.82
644.436	3.83
644.849	3.45
645.262	2.05
645.676	1.05
646.089	0.64
646.502	2.5
646.915	2.23
647.328	0.76
647.741	0.38
648.154	-0.05
648.567	2.31
648.98	3.17
649.393	3.47
649.805	3.29
650.218	3.32
650.631	4.62
651.043	3.57
651.456	2.71
651.868	1.36
652.28	-0.34
652.693	-1.22
653.105	-3.73
653.517	-4.52
653.929	-4.87
654.341	-4.13
654.753	-3.06
655.165	-4.27
655.577	-3.6
655.989	-2.65
656.401	-3.05
656.813	-1.1
657.224	-1.1
657.636	-1.63
658.047	0.13
658.459	-0.01
658.87	-1.18
659.282	-2.02
659.693	-0.55
660.104	-0.01
660.515	-0.46
660.926	-0.37
661.338	-0.84
661.749	-1.04
662.159	0.78
662.57	-1.06
662.981	-0.46
663.392	-0.82
663.803	-0.89
664.213	-2.52
664.624	-3.31
665.035	-3.52
665.445	-3.32
665.855	-2.29
666.266	-1.34
666.676	-2.04
667.086	-2.56
667.497	-2.5
667.907	-2.29
668.317	-1.43
668.727	1.71
669.137	0.6
669.547	1.32
669.956	1.42
670.366	0.92
670.776	0.85
671.186	-0.22
671.595	0.94
672.005	0.18
672.414	1.33
672.824	2.03
673.233	-0.66
673.642	0.01
674.052	-0.21
674.461	0.58
674.87	-0.07
675.279	0.91
675.688	0.56
676.097	1.86
676.506	2.43
676.915	1.64
677.323	0.64
677.732	0.52
678.141	0.72
678.549	0.99
678.958	-0.02
679.366	-0.03
679.775	-1.56
680.183	1.49
680.592	0.05
681	-0.06
681.408	0.16
681.816	-0.25
682.224	-1.24
682.632	0.12
683.04	0.03
683.448	-0.39
683.856	0.41
684.264	1.1
684.671	-1.88
685.079	-2.42
685.487	-3.03
685.894	-3.8
686.302	-4.98
686.709	-4.17
687.116	-5.04
687.524	-4.78
687.931	-2.13
688.338	-2.3
688.745	-3.53
689.152	-3.08
689.559	-2.62
689.966	-0.89
690.373	0.67
690.78	2.67
691.187	2.83
691.593	3.54
692	3.58
692.407	2.68
692.813	4.99
693.22	6.43
693.626	4.83
694.032	5.99
694.439	5.09
694.845	4.32
695.251	3.46
695.657	4.46
696.063	2.85
696.469	1.61
696.875	1.23
697.281	-0.9
697.687	-2.46
698.093	-0.77
698.498	-1.12
698.904	-2.17
699.31	-1.97
699.715	0.31
700.12	-0.76
700.526	-0.02
700.931	0.16
701.337	0.55
701.742	1.33
702.147	1.62
702.552	1.68
702.957	0.24
703.362	1.09
703.767	0.03
704.172	-1.57
704.577	-2.19
704.981	-3.37
705.386	-2.64
705.791	-2.3
706.195	-3.68
706.6	-3.44
707.004	-5.2
707.408	-4.72
707.813	-3.41
708.217	-1.25
708.621	-1.56
709.025	-1.57
709.43	0.81
709.834	1.44
710.237	0.79
710.641	1.24
711.045	2.5
711.449	4.78
711.853	8.5
712.256	6.89
712.66	5.66
713.064	6.2
713.467	8.52
713.87	7.85
714.274	7.52
714.677	8.28
715.08	8.19
715.484	7.63
715.887	9.84
716.29	5.53
716.693	7.75
717.096	7.88
717.499	6.63
717.901	3.76
718.304	2.61
718.707	1.8
719.109	1.96
719.512	1.44
719.915	3.93
720.317	1.93
720.719	1.31
721.122	0.57
721.524	1.67
721.926	7.74
722.328	8.65
722.731	8.76
723.133	9.64
723.535	8.84
723.937	10.08
724.338	9.9
724.74	10.7
725.142	61.27
725.544	64.3
725.945	75.19
726.347	70.69
726.748	71.2
727.15	71.48
727.551	75.08
727.952	72.96
728.354	71.24
728.755	70.16
729.156	68.35
729.557	20.29
729.958	16.18
730.359	4.22
730.76	2.61
731.161	2.12
731.562	1.44
731.962	-2.34
732.363	-1.1
732.763	-0.92
733.164	-3.66
733.564	-3.26
733.965	-1.93
734.365	-1.53
734.766	-0.22
735.166	0.37
735.566	1.79
735.966	2.22
736.366	2.4
736.766	2.74
737.166	2.34
737.566	4.01
737.966	4.01
738.365	2.9
738.765	4.78
739.165	4.26
739.564	4.77
739.964	2.83
740.363	2.27
740.763	0.92
741.162	2.35
741.561	2.37
741.96	2.82
742.36	1.25
742.759	1.58
743.158	-1.03
743.557	-1.02
743.955	-1.99
744.354	-1.86
744.753	-2.37
745.152	-0.74
745.55	-2.27
745.949	-1.76
746.348	-1.65
746.746	-1.77
747.144	1.18
747.543	0.74
747.941	-0.36
748.339	0.03
748.737	1.62
749.136	3.92
749.534	2.31
749.932	4.44
750.33	3.68
750.727	2.24
751.125	3.48
751.523	1.43
751.921	5.22
752.318	6.17
752.716	8.07
753.113	7.45
753.511	6.73
753.908	7.79
754.305	10.76
754.703	11.68
755.1	11.93
755.497	11.57
755.894	10.98
756.291	9.22
756.688	10.52
757.085	8.2
757.482	8.9
757.878	10.22
758.275	11.59
758.672	3.31
759.068	2.46
759.465	1.54
759.861	1.18
760.258	-1.43
760.654	-4.81
761.05	-3.84
761.447	-4.08
761.843	-3.73
762.239	-3.86
762.635	-7.42
763.031	-8.91
763.427	-7.27
763.822	-3.59
764.218	-3.82
764.614	-3.07
765.01	-2.61
765.405	-5.02
765.801	-3.98
766.196	-4.29
766.592	-5.02
766.987	-3.41
767.382	-1.69
767.778	-2.29
768.173	-3.28
768.568	-3.21
768.963	-1.68
769.358	-1.58
769.753	0.66
770.148	2.07
770.542	1.79
770.937	1.62
771.332	2.4
771.726	0.59
772.121	4.49
772.515	5.16
772.91	6.5
773.304	6.11
773.699	6.06
774.093	4.72
774.487	3.89
774.881	2.33
775.275	2.64
775.669	1.87
776.063	3.62
776.457	1.41
776.851	0.9
777.245	0.94
777.638	0.78
778.032	-1.01
778.425	-0
778.819	3.01
779.212	7.42
779.606	9.25
779.999	7.67
780.392	9.16
780.786	7.06
781.179	7.21
781.572	6.66
781.965	6.86
782.358	9.83
782.751	8.24
783.143	5.63
783.536	3.51
783.929	1.01
784.322	1.37
784.714	0.26
785.107	2.22
785.499	2.9
785.891	5.56
786.284	5.92
786.676	4.53
787.068	7.41
787.46	8.01
787.852	7.22
788.245	6.95
788.636	5.91
789.028	8.54
789.42	9.27
789.812	10.37
790.204	7.26
790.595	10.34
790.987	9.95
791.378	8.44
791.77	6.82
792.161	6.42
792.553	7.72
792.944	8.72
793.335	4.96
793.726	3.68
794.117	4.05
794.508	2.51
794.899	-1.52
795.29	-1.7
795.681	-2.17
796.072	-2.16
796.463	17.38
796.853	20.87
797.244	22
797.634	22.25
798.025	21.66
798.415	17.46
798.806	19.79
799.196	22.03
799.586	25.11
799.976	28.26
800.366	27.49
800.756	4.98
801.146	1.62
801.536	1.75
801.926	1.75
802.316	2.91
802.706	6.52
803.095	6.98
803.485	5.19
803.874	2.16
804.264	-2.62
804.653	-1.18
805.043	3.99
805.432	7.24
805.821	8.9
806.21	10.27
806.599	9.37
806.988	8.91
807.377	5.79
807.766	5.21
808.155	4.83
808.544	6.29
808.933	5.55
809.321	6.75
809.71	-0.66
810.098	-2.01
810.487	-5.58
810.875	-4.37
811.264	-5.11
811.652	7.61
812.04	10.09
812.428	13.2
812.816	11.98
813.204	14.9
813.592	8.24
813.98	11.65
814.368	16.89
814.756	17.89
815.144	14.83
815.531	18.35
815.919	7.1
816.306	4.19
816.694	1.6
817.081	5.1
817.469	8.08
817.856	5.36
818.243	3.69
818.63	0.03
819.017	2.46
819.404	5.28
819.791	0.72
820.178	-3.9
820.565	-0.84
820.952	8.37
821.339	8.5
821.725	4.06
822.112	11.76
822.498	12.69
822.885	10.12
823.271	10.36
823.657	7.15
824.044	9.18
824.43	11.07
824.816	17.94
825.202	13.52
825.588	10.33
825.974	14.33
826.36	11.4
826.746	12.19
827.132	10.7
827.517	13.54
827.903	15
828.289	19.72
828.674	21.04
829.06	14.79
829.445	11.66
829.83	10.96
830.216	6.96
830.601	9.95
830.986	17.92
831.371	20.21
831.756	21.4
832.141	29.66
832.526	28.53
832.911	27.76
833.295	26.29
833.68	26.66
834.065	29.98
834.449	31.98
834.834	29.48
835.218	27.11
835.603	30.21
835.987	26.36
836.371	21.62
836.755	19.27
837.139	19.66
837.524	18.59
837.908	14.16
838.291	17.84
838.675	13.33
839.059	15.01
839.443	10.66
839.827	6.05
840.21	3.79
840.594	4.72
840.977	6.99
841.361	6.04
841.744	2.68
842.127	5.93
842.511	-1.16
842.894	0.21
843.277	-0.29
843.66	-4.28
844.043	-3.05
844.426	1.56
844.809	-3.81
845.191	-5.27
845.574	-4.66
845.957	-0.07
846.339	2.99
846.722	6.06
847.104	3.01
847.487	-0.72
847.869	6.32
848.252	6.42
848.634	5.64
849.016	6.94
849.398	4.67
849.78	3.89
850.162	4.28
850.544	2.12
850.926	-4.97
851.307	-3.37
851.689	-0.71
852.071	-12.65
852.452	-11.53
852.834	-12.52
853.215	-10.08
853.597	-7.01
853.978	-2.73
854.359	-3.41
854.741	0.28
855.122	2.84
855.503	1.23
855.884	0.09
856.265	9.71
856.646	2.58
857.026	5.28
857.407	5.27
857.788	2.15
858.169	-3.05
858.549	2.96
858.93	1.08
859.31	3.91
859.69	10.38
860.071	11.39
860.451	7.67
860.831	9.43
861.211	5.81
861.591	2.28
861.971	1.22
862.351	-0.78
862.731	-9.19
863.111	-11.25
863.491	-7.91
863.87	-11.88
864.25	-12.67
864.629	0
865.009	2.22
865.388	7.36
865.768	3.04
866.147	9.16
866.526	15.67
866.905	18.96
867.284	12.41
867.663	9.93
868.042	6.45
868.421	6.34
868.8	-5.08
869.179	-4.31
869.558	-6.5
869.936	0.28
870.315	-6.42
870.693	-1.8
871.072	-5.46
871.45	-1.06
871.828	2.3
872.207	5.79
872.585	6.94
872.963	-0.18
873.341	6.51
873.719	14.06
874.097	10.21
874.475	8.48
874.853	-1.54
875.23	-1.94
875.608	-2.66
875.986	-10.52
876.363	-3.88
876.741	5.06
877.118	20.75
877.495	24.03
877.873	16.81
878.25	19.49
878.627	23.47
879.004	26.22
879.381	27.76
879.758	39.71
880.135	40.19
880.512	31.94
880.889	20.51
881.265	13.24
881.642	5.52
882.019	3.51
882.395	15.26
882.772	20.83
883.148	23.53
883.524	28.22
883.901	20.85
884.277	19
884.653	20.07
885.029	27.79
885.405	39.44
885.781	40.74
886.157	39.69
886.532	27.71
886.908	21.46
887.284	14.82
887.659	13.64
888.035	11.61
888.411	5.45
888.786	6.24
889.161	0.64
889.537	-9.33
889.912	-9.91
890.287	-5.09
890.662	-6.05
891.037	-8.56
891.412	-5.12
891.787	-11.55
892.162	-9.29
892.536	-2.84
892.911	2.11
893.286	-1.7
893.66	2.62
894.035	4.91
894.409	-7.23
894.784	-2.3
895.158	0.6
895.532	1.09
895.906	6.8
896.281	11.7
896.655	20.36
897.029	14.92
897.402	16.45
897.776	7.79
898.15	-4.52
898.524	1.79
898.898	-2.05
899.271	9.56
899.645	16.37
900.018	14.21
900.392	11.45
900.765	-2.23
901.138	3.74
901.511	-0.61
901.884	9.21
902.258	19.53
902.631	27.46
903.003	26.32
903.376	9.42
903.749	8.28
904.122	-2.22
904.495	-17.79
904.867	-34.16
905.24	-32.03
905.612	-26.14
905.985	-41.35
906.357	-43.69
906.729	-42.15
907.102	-31.87
907.474	-24.65
907.846	-22.38
908.218	-13.25
908.59	4.82
908.962	4.27
909.334	0.3
909.705	3.62
910.077	1.84
910.449	-6.91
910.82	-5.74
911.192	-3.05
911.563	-0.49
911.935	-20.4
912.306	-28.73
912.677	-47.97
913.048	-30.46
913.419	-28.85
913.79	-35.84
914.161	-29.15
914.532	-13.54
914.903	-12.31
915.274	-19.95
915.645	-16.52
916.015	-17.73
916.386	-14.15
916.756	-15.38
917.127	-31.32
917.497	-15.98
917.868	-16.21
918.238	-13.95
918.608	-22.49
918.978	-32.81
919.348	-41.78
919.718	-49.34
920.088	-29.42
920.458	-27.1
920.828	-36.67
921.198	-17.87
921.567	-38.94
921.937	-20.35
922.306	-29.56
922.676	-34.33
923.045	-5.3
923.415	13.86
923.784	18.6
924.153	26.37
924.522	27.77
924.891	33.94
925.26	42.37
925.629	46.01
925.998	37.71
926.367	45.13
926.736	62.72
927.104	56.94
927.473	36.34
927.842	24.2
928.21	8.79
928.578	-18.36
928.947	-4.68
929.315	-11.13
929.683	-3.31
930.051	15.13
930.42	6.96
930.788	-9.17
931.156	-11.78
931.523	28.94
931.891	47.25
932.259	67.25
932.627	101.01
932.994	132.9
933.362	136.86
933.729	139.95
934.097	127.69
934.464	138.45
934.831	137.38
935.199	130.49
935.566	123.72
935.933	172.95
936.3	183.35
936.667	148.26
937.034	198.43
937.401	167.05
937.767	137.04
938.134	124.25
938.501	129.49
938.867	171.44
939.234	277.46
939.6	223.03
939.967	131.95
940.333	112.33
940.699	79.57
941.065	-8.76
941.431	-3.6
941.798	25.92
942.163	69.14
942.529	57.55
942.895	30.82
943.261	22.7
943.627	30.2
943.992	28.74
944.358	15.57
944.723	59.7
945.089	58.11
945.454	61.7
945.82	30.82
946.185	4.6
946.55	13.83
946.915	20.01
947.28	37.65
947.645	34.76
948.01	59.82
948.375	81.02
948.74	52.99
949.104	28.53
949.469	-8.01
949.834	-14.07
950.198	139.41
950.562	126.79
950.927	123.14
951.291	138.02
951.655	98.76
952.02	43.8
952.384	32.22
952.748	57.97
953.112	100.62
953.476	104.47
953.839	99.8
954.203	103.5
954.567	118.48
954.931	123.99
955.294	121.4
955.658	127.35
956.021	203.35
956.385	223.98
956.748	266.04
957.111	147.23
957.474	-64.29
957.837	-339.21
958.2	-429.5
958.563	-222.81
958.926	-84.64
959.289	-164.67
959.652	-180.15
960.015	-94.7
960.377	-99.63
960.74	-100.36
961.102	-236.89
961.465	-108.69
961.827	474.24
962.189	813.65
962.552	643.42
962.914	515.09
963.276	296.83
963.638	232.36
964	163.99
964.362	142.3
964.724	103.44
965.085	87.76
965.447	80.51
965.809	-10.49
966.17	-21.15
966.532	-29.43
966.893	-42.56
967.255	-36.65
967.616	-59.51
967.977	-34.54
968.338	-72.61
968.699	-26.98
969.061	-21.95
969.421	-12.56
969.782	-12
970.143	9.38
970.504	38.74
970.865	49.85
971.225	90.34
971.586	110.34
971.946	147.09
972.307	146.52
972.667	140.32
973.027	142.43
973.388	122.26
973.748	96.44
974.108	109.82
974.468	41.37
974.828	98.63
975.188	46.47
975.548	47.45
975.907	55.57
976.267	61.15
976.627	76.35
976.986	73
977.346	53.46
977.705	49.14
978.064	46.98
978.424	53.75
978.783	12.75
979.142	8.55
979.501	2.24
979.86	7.7
980.219	0.76
980.578	-33.32
980.937	-56.06
981.296	-15.25
981.654	-32.55
982.013	-118.94
982.371	-141.86
982.73	-65.39
983.088	-70.5
983.447	-70.34
983.805	-43.46
984.163	-34.54
984.521	-200.31
984.879	-490.79
985.237	839.19
985.595	-296.12
985.953	-2.22
986.311	-88.25
986.669	-54.4
987.026	-55.57
987.384	-128.38
987.741	-240.11
988.099	-96.55
988.456	-54.6
988.814	-19.66
989.171	-24.98
989.528	-63.88
989.885	-79.82
990.242	-23.47
990.599	-57.08
990.956	-59.29
991.313	-23.95
991.67	1.66
992.027	36.08
992.383	43.27
992.74	45.89
993.096	62.12
993.453	70.78
993.809	71.03
994.165	83.92
994.522	133.14
994.878	152.8
995.234	191.02
995.59	170.66
995.946	63.99
996.302	71.65
996.658	67.83
997.013	14.06
997.369	57.93
997.725	104.15
998.08	47.74
998.436	-159.16
998.791	-180.56
999.147	-195.64
999.502	-209.79
999.857	-130.37
1000.212	-267.18
1000.567	-343.6
1000.922	-126.1
1001.277	-128.98
1001.632	-88.21
1001.987	-99.22
1002.342	-33.44
1002.696	-22.76
1003.051	-5.01
1003.406	-11.64
1003.76	-23.7
1004.114	-4.05
1004.469	0.42
1004.823	13.22
1005.177	10.94
1005.531	0.93
1005.885	25.31
1006.239	44.84
1006.593	56.19
1006.947	92.86
1007.301	71.1
1007.655	98.08
1008.008	74.04
1008.362	89.56
1008.715	98.94
1009.069	65.86
1009.422	202.09
1009.776	279.14
1010.129	169.16
1010.482	118.76
1010.835	32.24
1011.188	-11.94
1011.541	-35.16
1011.894	587.81
1012.247	-2951.78
1012.6	-186.72
1012.952	-21.22
1013.305	-100.77
1013.657	-49.69
1014.01	-56.12
1014.362	-54.9
1014.715	4.21
1015.067	37.98
1015.419	25.15
1015.771	43.72
1016.123	62.8
1016.475	72.38
1016.827	64.77
1017.179	96.43
1017.531	78.12
1017.883	71.76
1018.234	134.13
1018.586	136.56
1018.938	156.95
1019.289	229.08
1019.64	184.28
1019.992	130.93
1020.343	79.45
1020.694	118.13
1021.045	109.69
1021.396	134.37
1021.747	166.24
1022.098	80.93
1022.449	82.2
1022.8	68.32
1023.151	62.14
1023.501	77.21
1023.852	71.78
1024.202	110.22
1024.553	72.36
1024.903	89.23
1025.253	93.98
1025.604	99.59
1025.954	119.63
1026.304	98.81
1026.654	102.91
1027.004	95.38
1027.354	103.08
1027.703	192.49
1028.053	54.9
1028.403	435.73
1028.753	359.98
1029.102	34.25
1029.452	-1975.68
1029.801	-92.19
1030.15	-37.59
1030.499	-62.23
897.758	1778.19
901.051	1710.8
904.343	1744.16
907.636	1749.88
910.928	1800.17
914.22	1735.31
917.511	1739.51
920.803	1775.52
924.094	1768.55
927.384	1776.64
930.675	1745.31
933.965	1716.82
937.255	1749.73
940.544	1724.49
943.834	1715.26
947.123	1667.91
950.411	1740.33
953.7	1726.29
956.988	1718.34
960.276	1656.07
963.563	1688.39
966.851	1698.42
970.138	1729.82
973.424	1729.61
976.711	1687.3
979.997	1729.71
983.283	1761.54
986.568	1708.93
989.853	1695
993.138	1713.75
996.423	1788.75
999.708	1759.44
1002.992	1781.67
1006.275	1704.09
1009.559	1707.04
1012.842	1783.32
1016.125	1748.61
1019.408	1732.04
1022.69	1769.59
1025.972	1798.04
1029.254	1779.21
1032.536	1754.35
1035.817	1754.47
1039.098	1728.86
1042.379	1770.06
1045.659	1788.35
1048.939	1747.74
1052.219	1745.14
1055.498	1736.15
1058.778	1732.27
1062.057	1709.64
1065.335	1729.61
1068.614	1736.1
1071.892	1733.24
1075.17	1774.32
1078.447	1776.3
1081.724	1772.56
1085.001	1790.28
1088.278	1773.27
1091.554	1773.15
1094.83	1771.46
1098.106	1799.39
1101.382	1820.96
1104.657	1816.75
1107.932	1816.89
1111.206	1800.48
1114.481	1759.88
1117.755	1761.32
1121.029	1756.99
1124.302	1804.89
1127.575	1783.65
1130.848	1781.29
1134.121	1760.41
1137.393	1726.84
1140.665	1773.33
1143.937	1757.31
1147.208	1711.73
1150.48	1762.24
1153.75	1752.35
1157.021	1748.66
1160.291	1731.07
1163.561	1771.81
1166.831	1741.32
1170.101	1759.52
1173.37	1725.13
1176.639	1694.23
1179.907	1728.69
1183.176	1748.83
1186.444	1749.91
1189.711	1768.12
1192.979	1791.05
1196.246	1755.82
1199.513	1766.02
1202.78	1772.07
1206.046	1777.36
1209.312	1805.76
1212.578	1814.86
1215.843	1787.72
1219.108	1764.44
1222.373	1784.39
1225.638	1763.96
1228.902	1757.3
1232.166	1725.36
1235.43	1716.66
1238.693	1739.39
1241.956	1734.79
1245.219	1773.92
1248.482	1759.81
1251.744	1761.43
1255.006	1852.81
1258.268	1807.41
1261.529	1777.65
1264.79	1775.81
1268.051	1847.35
1271.312	1855.63
1274.572	1830.01
1277.832	1817.72
1281.092	1799.11
1284.351	1795.65
1287.61	1783.07
1290.869	1733.94
1294.128	1734.97
1297.386	1763.65
1300.644	1757.01
1303.902	1767.3
1307.159	1662.64
1310.416	1702.39
1313.673	1725.7
1316.93	1729.41
1320.186	1749.99
1323.442	1774.88
1326.697	1779.42
1329.953	1756.37
1333.208	1786.58
1336.463	1770.4
1339.717	1745.2
1342.972	1828.62
1346.226	1807.64
1349.479	1774.31
1352.733	1758.51
1355.986	1764.26
1359.238	1751.22
1362.491	1755.12
1365.743	1755.85
1368.995	1754.41
1372.247	1766.58
1375.498	1781.83
1378.749	1823.04
1382	1785.38
1385.251	1808.57
1388.501	1770.17
1391.751	1775
1395	1751.6
1398.25	1772.57
1401.499	1798.84
1404.748	1761.84
1407.996	1742.75
1411.244	1737.04
1414.492	1726.35
1417.74	1715.52
1420.987	1721.07
1424.234	1773.53
1427.481	1736.73
1430.728	1782.13
1433.974	1765.03
1437.22	1759.69
1440.465	1752.87
1443.711	1760.52
1446.956	1774.85
1450.201	1747.95
1453.445	1783.01
1456.689	1772.93
1459.933	1779.55
1463.177	1813.25
1466.42	1792.81
1469.663	1776.65
1472.906	1792.16
1476.148	1828.83
1479.391	1792.07
1482.633	1774.72
1485.874	1798.44
1489.115	1803.53
1492.356	1787.31
1495.597	1769.32
1498.838	1758.48
1502.078	1747.05
1505.318	1728.44
1508.557	1751.53
1511.797	1750.32
1515.036	1791.69
1518.274	1760.44
1521.513	1711.44
1524.751	1720.03
1527.989	1738.98
1531.227	1753.57
1534.464	1766.36
1537.701	1755.39
1540.938	1761.61
1544.174	1719.02
1547.41	1703.91
1550.646	1734.66
1553.882	1773.84
1557.117	1821.6
1560.352	1821.98
1563.587	1791.87
1566.821	1766.9
1570.055	1777.12
1573.289	1758.49
1576.523	1800.32
1579.756	1810.89
1582.989	1830.65
1586.222	1794.95
1589.454	1821.31
1592.686	1808.07
1595.918	1831.09
1599.15	1828.64
1602.381	1859.59
1605.612	1849.2
1608.843	1924.02
1612.073	1861.24
1615.303	1855.65
1618.533	1851.49
1621.762	1851.46
1624.992	1824.68
1628.221	1829.65
1631.449	1819.92
1634.678	1834.74
1637.906	1810.33
1641.134	1828.1
1644.361	1800.41
1647.588	1795.01
1650.815	1812.47
1654.042	1783.26
1657.269	1802.79
1660.495	1791.65
1663.72	1773.43
1666.946	1748.13
1670.171	1737.17
1673.396	1712.8
1676.621	1697.39
1679.845	1691.31
1683.069	1692.7
1686.293	1713.31
1689.517	1710.37
1692.74	1678.19
1695.963	1692.99
1699.185	1728.53
1702.408	1711.5
1705.63	1730.55
1708.852	1746.97
1712.073	1724.13
1715.294	1741.79
1718.515	1775.15
1721.736	1743.18
1724.956	1725.66
1728.176	1743.56
1731.396	1759.96
1734.616	1753.15
1737.835	1785.09
1741.054	1758.85
1744.272	1755.15
1747.491	1789.33
1750.709	1802.46
1753.927	1772.92
1757.144	1791.78
1760.361	1840.01
1763.578	1814.21
1766.795	1777.77
1770.011	1766.14
1773.227	1781.62
1776.443	1819.22
1779.658	1851.9
1782.874	1804.96
1786.089	1801.96
1789.303	1803.35
1792.518	1798.62
1795.732	1790.5
1798.945	1807.12
1802.159	1840.32
1805.372	1799.55
1808.585	1797.48
1811.797	1796.94
1815.01	1813.47
1818.222	1840.11
1821.434	1802.55
1824.645	1833.17
1827.856	1847.58
1831.067	1868.63
1834.278	1817.43
1837.488	1805.24
1840.698	1898.4
1843.908	1859.26
1847.117	1837.74
1850.326	1784.64
1853.535	1824.72
1856.744	1861.14
1859.952	1803.61
1863.16	1804.78
1866.368	1822.38
1869.575	1917.08
1872.782	1822.66
1875.989	1774.35
1879.196	1808.91
1882.402	1803.5
1885.608	1831.12
1888.814	1793.08
1892.019	1724.21
1895.224	1768.59
1898.429	1740.04
1901.634	1727.77
1904.838	1709.82
1908.042	1761.76
1911.246	1773.75
1914.449	1749.84
1917.652	1732.88
1920.855	1717.79
1924.058	1735.57
1927.26	1775.87
1930.462	1791.47
1933.664	1828.47
1936.865	1783.27
1940.066	1796.36
1943.267	1748.19
1946.467	1757.33
1949.668	1768.8
1952.868	1829.62
1956.067	1825.85
1959.267	1773.12
1962.466	1791.67
1965.665	1775.99
1968.863	1771.71
1972.061	1770.57
1975.259	1763.06
1978.457	1827.43
1981.654	1792.01
1984.852	1795.53
1988.048	1759.98
1991.245	1745.85
1994.441	1824.64
1997.637	1779.15
2000.833	1765.43
2004.028	1793.69
2007.223	1845.85
2010.418	1839.34
2013.613	1794.36
2016.807	1796.27
2020.001	1787.43
2023.194	1802.55
2026.388	1791.09
2029.581	1742.8
2032.774	1801.86
2035.966	1810.58
2039.158	1768.09
2042.35	1781.98
2045.542	1720.65
2048.733	1783.82
2051.924	1769.1
2055.115	1781.86
2058.306	1757.64
2061.496	1799.78
2064.686	1838.72
2067.875	1758.41
2071.065	1754.99
2074.254	1767.75
2077.442	1732.24
2080.631	1800.06
2083.819	1754.14
2087.007	1748.92
2090.195	1739.53
2093.382	1744.36
2096.569	1735.61
2099.756	1705.27
2102.942	1751.33
2106.128	1766.37
2109.314	1757.76
2112.5	1750.33
2115.685	1719.74
2118.87	1726.03
2122.055	1777.9
2125.239	1761.72
2128.424	1756.22
2131.608	1793.54
2134.791	1780.21
2137.974	1806.61
2141.157	1799.18
2144.34	1779.33
2147.523	1764.57
2150.705	1791.73
2153.887	1759.87
2157.068	1742.42
2160.25	1719.86
2163.431	1737.82
2166.611	1719.29
2169.792	1739.24
2172.972	1666.24
2176.152	1704.23
2179.331	1725.14
2182.511	1731.67
2185.69	1747.62
2188.868	1754.34
2192.047	1779.06
2195.225	1802.8
2198.403	1757.28
2201.58	1742.75
2204.758	1726.79
2207.935	1788.81
2211.111	1722.77
2214.288	1712.37
2217.464	1740.17
2220.64	1701.29
2223.815	1742.43
2226.991	1686.72
2230.166	1697.92
2233.34	1737.82
2236.515	1747.29
2239.689	1802.35
2242.863	1762.19
2246.036	1806.92
2249.209	1791.5
2252.382	1803.46
2255.555	1814
2258.727	1776.44
2261.9	1799.08
2265.071	1793.65
2268.243	1791.37
2271.414	1754.07
2274.585	1743.1
2277.756	1793.68
2280.926	1759.23
2284.096	1780.34
2287.266	1726.12
2290.436	1766.26
2293.605	1778.92
2296.774	1815.16
2299.942	1813.96
2303.111	1825.44
2306.279	1869.67
2309.447	1858.12
2312.614	1834.72
2315.781	1852.96
2318.948	1834.79
2322.115	1868.66
2325.281	1780.31
2328.447	1784.62
2331.613	1757.23
2334.779	1757.13
2337.944	1752.2
2341.109	1754.11
2344.274	1747.62
2347.438	1720.19
2350.602	1740.44
2353.766	1746.88
2356.929	1739.41
2360.092	1771.1
2363.255	1749.43
2366.418	1730.87
2369.58	1766.14
2372.742	1714.32
2375.904	1695.14
2379.066	1685
2382.227	1704.49
2385.388	1671.53
2388.548	1636.27
2391.709	1665.06
2394.869	1663.34
2398.029	1698.31
2401.188	1684.77
2404.347	1670.03
2407.506	1690.74
2410.665	1737.79
2413.823	1718.29
2416.981	1705.93
2420.139	1716.49
2423.296	1749.05
2426.453	1726.44
2429.61	1740.98
2432.767	1727.38
2435.923	1764.5
2439.079	1712.65
2442.235	1738.58
2445.391	1689.98
2448.546	1730.16
2451.701	1757.03
2454.855	1757.59
2458.009	1775.56
2461.163	1763.39
2464.317	1742.18
2467.471	1762.38
2470.624	1784.84
2473.777	1782.94
2476.929	1797.29
2480.082	1818.18
2483.234	1800.85
2486.385	1748.96
2489.537	1742.66
2492.688	1740.79
2495.839	1755.99
2498.989	1768.36
2502.14	1756.26
2505.29	1753.14
2508.439	1771.58
2511.589	1726.37
2514.738	1722.65
2517.887	1738.28
2521.035	1802.62
2524.183	1763.1
2527.331	1756.15
2530.479	1755.03
2533.627	1756.67
