Data from N_1_DIV_OH_2N_Splice17_11-30-13-657.txt Node
Date: Sat Mar 14 11:30:13 EDT 2020
User: sa697716
Spectrometer: FLMS03696
Trigger mode: 0
Integration Time (sec): 3.180400E-1
Scans to average: 20
Electric dark correction enabled: true
Nonlinearity correction enabled: true
Boxcar width: 5
XAxis mode: Wavelengths
Number of Pixels in Spectrum: 2048
>>>>>Begin Spectral Data<<<<<
187.83	-162969.94
188.298	1332.47
188.766	681.02
189.233	579.11
189.701	875.06
190.169	1222.25
190.636	441.08
191.104	412.58
191.571	110.64
192.039	27.4
192.506	31.72
192.974	324.45
193.441	-312.27
193.908	-138.63
194.375	-24.97
194.842	37.2
195.31	61.74
195.777	119.62
196.244	241.58
196.711	181.19
197.177	181.47
197.644	202.88
198.111	288.15
198.578	390.75
199.045	304.37
199.511	437.73
199.978	475.43
200.445	434.05
200.911	447.69
201.378	458.02
201.844	458
202.31	754.73
202.777	802.86
203.243	474.26
203.709	449.23
204.176	537.83
204.642	463.05
205.108	435.53
205.574	341.04
206.04	286.82
206.506	272.49
206.972	218.61
207.438	214.26
207.903	227.42
208.369	211.73
208.835	220.21
209.301	226.28
209.766	212.69
210.232	205.88
210.697	245.29
211.163	317.84
211.628	435.67
212.094	435.41
212.559	575.57
213.024	367.6
213.49	446.18
213.955	398.62
214.42	380.33
214.885	374.22
215.35	375.41
215.815	413.51
216.28	418.93
216.745	333.35
217.21	349.44
217.675	275.14
218.14	284.88
218.604	273.89
219.069	298.63
219.534	315.99
219.998	314.99
220.463	342
220.927	311.82
221.392	272.39
221.856	276.9
222.32	290.95
222.785	351.17
223.249	419.13
223.713	448.38
224.177	446.62
224.642	472.4
225.106	518.2
225.57	523.77
226.034	440.36
226.497	592.74
226.961	519.92
227.425	637.22
227.889	655.08
228.353	618.67
228.816	1105.74
229.28	1031.21
229.744	840.83
230.207	578.01
230.671	545.34
231.134	708.13
231.597	924.47
232.061	850.92
232.524	722.76
232.987	516.28
233.45	478.37
233.914	425.67
234.377	366.58
234.84	333.62
235.303	375.53
235.766	420.18
236.229	447.62
236.691	254.97
237.154	262.87
237.617	200.51
238.08	177.18
238.542	186.11
239.005	155.14
239.468	171.74
239.93	159.94
240.393	145.99
240.855	129.14
241.317	112.96
241.78	125.68
242.242	146.7
242.704	194.88
243.166	181
243.629	185.04
244.091	213.1
244.553	221.02
245.015	241.57
245.477	274.59
245.939	374.01
246.4	421.47
246.862	358.78
247.324	316.17
247.786	295.43
248.247	329.94
248.709	221.21
249.17	191.09
249.632	268.84
250.093	365.91
250.555	334.64
251.016	255.75
251.477	256.58
251.939	294.26
252.4	305.51
252.861	345.75
253.322	364.37
253.783	416.76
254.244	477.69
254.705	329.55
255.166	266.21
255.627	247.94
256.088	303.71
256.549	323.47
257.009	274.44
257.47	324.42
257.931	262.81
258.391	202.82
258.852	223.58
259.312	229.97
259.773	249.07
260.233	249.67
260.694	242.84
261.154	266.63
261.614	256.01
262.074	224.47
262.534	251.88
262.994	258.12
263.455	310.96
263.915	274.7
264.374	263.88
264.834	286.63
265.294	292.05
265.754	307.62
266.214	296.45
266.673	246.16
267.133	303.79
267.593	262.48
268.052	293.34
268.512	249.01
268.971	368.56
269.431	404.44
269.89	356.46
270.349	538.15
270.809	575.17
271.268	526.75
271.727	1056.54
272.186	721.57
272.645	524.29
273.104	342.73
273.563	535.21
274.022	309.06
274.481	307.23
274.94	274.27
275.399	182.7
275.857	184.19
276.316	212.41
276.775	201.71
277.233	217.98
277.692	246.13
278.15	306.9
278.609	359.18
279.067	337.32
279.525	318.05
279.984	354.98
280.442	436.77
280.9	557.39
281.358	380.83
281.816	375.83
282.274	348.57
282.732	323.26
283.19	321.11
283.648	226.64
284.106	241.61
284.564	213.62
285.021	229.27
285.479	171.36
285.937	115.53
286.394	112.74
286.852	102.5
287.309	101.23
287.767	136.02
288.224	140.53
288.682	166.68
289.139	194.23
289.596	201.43
290.053	197.59
290.511	237.86
290.968	305.9
291.425	385.9
291.882	377.98
292.339	352.89
292.796	326.41
293.252	286.68
293.709	261.3
294.166	226.52
294.623	229.48
295.079	207.68
295.536	232.67
295.992	213.68
296.449	219.06
296.905	226.22
297.362	245.16
297.818	247.48
298.274	279.9
298.731	259.88
299.187	253.22
299.643	271.83
300.099	332.02
300.555	320.06
301.011	293.09
301.467	321.84
301.923	333.44
302.379	309.78
302.835	301.65
303.291	281.27
303.746	310.98
304.202	407.95
304.658	411.6
305.113	285.22
305.569	308.69
306.024	277.03
306.479	215.84
306.935	214.86
307.39	222.27
307.845	209.93
308.301	256.38
308.756	238.34
309.211	245.94
309.666	240.34
310.121	340.41
310.576	336.6
311.031	331.27
311.486	383.82
311.94	356.11
312.395	447.18
312.85	832.15
313.305	2929.41
313.759	19623.1
314.214	1265.54
314.668	1131.53
315.123	995.48
315.577	403.03
316.032	379.75
316.486	417.43
316.94	373.88
317.394	291.12
317.849	230.86
318.303	210.61
318.757	192.35
319.211	223.03
319.665	195.01
320.119	193.28
320.572	254.32
321.026	262.73
321.48	227.59
321.934	211.76
322.387	191.26
322.841	222.57
323.295	252.29
323.748	250.6
324.202	270.01
324.655	330.23
325.108	488.65
325.562	368.03
326.015	388.79
326.468	297.36
326.921	358.2
327.374	383.58
327.827	421.08
328.28	450.53
328.733	341.46
329.186	295.51
329.639	285.87
330.092	235.07
330.545	223.09
330.997	243.1
331.45	297.55
331.903	354.52
332.355	529.17
332.808	452.62
333.26	375.27
333.713	410.66
334.165	411.83
334.617	482.26
335.069	339
335.522	569.08
335.974	574.47
336.426	471.9
336.878	254.94
337.33	140.07
337.782	153.7
338.234	222.27
338.686	248.79
339.137	267.52
339.589	282.9
340.041	235.37
340.493	182.44
340.944	189.12
341.396	188.02
341.847	207.94
342.299	282.37
342.75	373.81
343.201	283.72
343.653	297.81
344.104	350.2
344.555	279.95
345.006	391.54
345.457	423.95
345.908	324.81
346.359	347.45
346.81	277.95
347.261	254.21
347.712	240.59
348.163	257.17
348.613	330.19
349.064	328.05
349.515	289.04
349.965	310.7
350.416	317.18
350.866	351.45
351.317	346.07
351.767	562.24
352.217	647.37
352.668	503.57
353.118	449.05
353.568	340.93
354.018	274.99
354.468	304.09
354.918	218.82
355.368	218.16
355.818	280.49
356.268	763.18
356.718	3623.26
357.168	1106.29
357.617	580.66
358.067	654.52
358.517	607.94
358.966	767.04
359.416	929.12
359.865	1053.5
360.315	1121.77
360.764	578.52
361.213	329.63
361.663	255.23
362.112	285.81
362.561	418.89
363.01	307.76
363.459	234.28
363.908	240.48
364.357	225.55
364.806	317.89
365.255	223.62
365.703	245.21
366.152	266.92
366.601	262.01
367.05	264.31
367.498	280.39
367.947	276.44
368.395	274.4
368.844	232.46
369.292	234.55
369.74	193.49
370.189	284.52
370.637	311.45
371.085	258.44
371.533	266.02
371.981	198.24
372.429	180.74
372.877	207.5
373.325	213.18
373.773	229.41
374.221	209.82
374.669	223.01
375.116	193.64
375.564	212.67
376.012	218.03
376.459	215.96
376.907	240.03
377.354	263.53
377.801	263.96
378.249	286.78
378.696	324.03
379.143	370.71
379.591	414.5
380.038	645.03
380.485	401.26
380.932	466.76
381.379	514.75
381.826	468.34
382.273	318.15
382.72	247.64
383.166	258.47
383.613	185.78
384.06	166.9
384.506	196.73
384.953	154.56
385.4	147.76
385.846	124.02
386.292	95
386.739	86.91
387.185	84.22
387.631	90.76
388.078	102.36
388.524	97.45
388.97	99.41
389.416	81.99
389.862	93.43
390.308	90.82
390.754	106.67
391.2	105.5
391.645	95.24
392.091	114.42
392.537	123.76
392.983	114.57
393.428	146.45
393.874	152.31
394.319	167.27
394.765	173.61
395.21	176.59
395.655	159.39
396.101	162.94
396.546	155.37
396.991	137.51
397.436	120.13
397.881	108.32
398.326	84.01
398.771	83.94
399.216	65.27
399.661	52.48
400.106	55.78
400.551	62.88
400.995	55.94
401.44	56.51
401.885	56.55
402.329	57.3
402.774	58.99
403.218	66.95
403.663	60.66
404.107	67.23
404.551	72.67
404.995	66.76
405.44	59.69
405.884	56.11
406.328	47.86
406.772	44.89
407.216	42.97
407.66	38.2
408.104	29.42
408.547	31
408.991	30.28
409.435	26.32
409.879	28.46
410.322	29.95
410.766	31.54
411.209	35.21
411.653	37.72
412.096	40.22
412.54	39.01
412.983	41.1
413.426	42.32
413.869	38.06
414.312	40.84
414.756	37.38
415.199	34.96
415.642	37.5
416.085	38.16
416.527	35.39
416.97	31.9
417.413	33.42
417.856	30.73
418.298	29.09
418.741	29.61
419.184	25.3
419.626	22.79
420.069	24.63
420.511	22.48
420.953	23.34
421.396	25.04
421.838	24.6
422.28	25.96
422.722	28.65
423.164	27.48
423.606	28.11
424.048	29.14
424.49	30.16
424.932	28.8
425.374	28.6
425.816	25.02
426.258	25.11
426.699	25.45
427.141	27.77
427.582	24.89
428.024	24.61
428.465	23.25
428.907	22.91
429.348	22.48
429.789	23.33
430.231	25.01
430.672	25.35
431.113	23.63
431.554	24.28
431.995	19.2
432.436	22.63
432.877	25.98
433.318	28.47
433.759	29.03
434.2	31.74
434.64	30.06
435.081	29.32
435.522	28.66
435.962	27.7
436.403	28.83
436.843	28.6
437.284	24.69
437.724	20.6
438.164	16.42
438.604	15.48
439.045	15.56
439.485	20
439.925	20.38
440.365	20.07
440.805	20.94
441.245	20.91
441.685	21.5
442.125	20.98
442.564	21.78
443.004	23.92
443.444	23.58
443.883	23.25
444.323	19.64
444.762	15.19
445.202	16.47
445.641	17.1
446.081	15.79
446.52	15.08
446.959	16.9
447.398	17.43
447.837	16.54
448.276	15.85
448.716	16.96
449.154	15.5
449.593	18.36
450.032	18.33
450.471	16.14
450.91	15.35
451.349	17.63
451.787	17.11
452.226	16.37
452.664	15.64
453.103	16.1
453.541	13.19
453.98	16.29
454.418	15.93
454.856	16.09
455.295	15.81
455.733	16.21
456.171	15.05
456.609	16.41
457.047	17.65
457.485	21.17
457.923	22.46
458.361	22.85
458.798	22.07
459.236	22.26
459.674	21.05
460.111	22.79
460.549	23.31
460.987	23.17
461.424	21.93
461.862	20.48
462.299	19.56
462.736	19.95
463.173	20.16
463.611	21.74
464.048	22.77
464.485	24.16
464.922	23.29
465.359	22.58
465.796	28.53
466.233	29.97
466.67	32.79
467.106	33.37
467.543	31.43
467.98	30.56
468.416	28.42
468.853	27.12
469.29	25.86
469.726	25.88
470.162	26.29
470.599	20.67
471.035	19.1
471.471	17.25
471.907	14.63
472.344	14.48
472.78	15.5
473.216	14.32
473.652	14.65
474.088	13.33
474.523	13.44
474.959	12.1
475.395	12.08
475.831	12.46
476.266	12.73
476.702	12.67
477.138	13.25
477.573	12.62
478.008	13.38
478.444	14.42
478.879	17.08
479.314	16.8
479.75	17.41
480.185	17.47
480.62	17.06
481.055	16.58
481.49	17.58
481.925	17.65
482.36	18.97
482.795	18.35
483.229	16.43
483.664	15.5
484.099	15.59
484.534	15.8
484.968	16.43
485.403	16.07
485.837	15.48
486.271	14.73
486.706	14.18
487.14	12.9
487.574	12.85
488.009	13.79
488.443	13.65
488.877	13.99
489.311	13.41
489.745	12.93
490.179	13.57
490.613	15.64
491.046	15.38
491.48	15.52
491.914	16.47
492.348	16.88
492.781	16.33
493.215	16.09
493.648	15.04
494.082	15.01
494.515	15.24
494.948	15.37
495.382	13.67
495.815	14.16
496.248	14.19
496.681	13.41
497.114	12.86
497.547	13.02
497.98	13.93
498.413	15.62
498.846	16
499.279	15.84
499.711	15.58
500.144	15.34
500.577	16
501.009	16.24
501.442	17.16
501.874	17.77
502.306	17.36
502.739	19.03
503.171	18.88
503.603	19.16
504.036	19.05
504.468	19.05
504.9	19.04
505.332	18.19
505.764	18.51
506.196	17.75
506.627	18.28
507.059	19.02
507.491	16.37
507.923	16.01
508.354	16.33
508.786	16.21
509.217	16.2
509.649	16.96
510.08	16.75
510.512	16.92
510.943	17.43
511.374	17.01
511.805	16.67
512.237	16.79
512.668	16.32
513.099	15.54
513.53	15.72
513.961	16.49
514.391	16.43
514.822	17.84
515.253	17.99
515.684	17.96
516.114	18.65
516.545	18.8
516.975	19.03
517.406	19.45
517.836	18.89
518.267	18.83
518.697	18.91
519.127	18.76
519.558	18.03
519.988	17.85
520.418	17.35
520.848	16.31
521.278	16.4
521.708	34.43
522.138	34.5
522.567	34.99
522.997	34.9
523.427	34.2
523.857	34.47
524.286	34.5
524.716	34.54
525.145	35.02
525.575	35.82
526.004	35.65
526.433	17.7
526.863	17.02
527.292	17.51
527.721	18.37
528.15	18.36
528.579	18.44
529.008	18.53
529.437	17.56
529.866	17.37
530.295	17.22
530.724	17.89
531.152	18.67
531.581	20.05
532.01	19.8
532.438	19.36
532.867	19.4
533.295	19.6
533.723	19.65
534.152	20.05
534.58	20.08
535.008	20.02
535.436	20.77
535.865	20.06
536.293	18.9
536.721	18.25
537.149	18.09
537.576	18.95
538.004	18.83
538.432	18.34
538.86	19.1
539.287	19.11
539.715	19.19
540.143	17.64
540.57	17.96
540.998	18.22
541.425	20.43
541.852	20.81
542.28	20.08
542.707	19.48
543.134	19.77
543.561	19.7
543.988	19.5
544.415	19.36
544.842	19.32
545.269	19.27
545.696	19.77
546.123	18.86
546.549	18.93
546.976	19.42
547.403	19.73
547.829	19.54
548.256	19.21
548.682	19.62
549.108	20.09
549.535	20.27
549.961	19.84
550.387	19.61
550.813	20.4
551.24	20.35
551.666	19.44
552.092	19.57
552.518	19.15
552.943	20.08
553.369	19.32
553.795	19.55
554.221	19.73
554.646	20.23
555.072	21.12
555.498	19.7
555.923	19.25
556.349	19.41
556.774	18.93
557.199	19.2
557.625	18.4
558.05	18.89
558.475	18.3
558.9	18.41
559.325	19.1
559.75	18.91
560.175	19.22
560.6	18.81
561.025	18.42
561.449	18.68
561.874	18.3
562.299	18.81
562.723	18.47
563.148	17.79
563.572	17.13
563.997	16.46
564.421	15.67
564.846	15.22
565.27	15.61
565.694	16.24
566.118	15.77
566.542	16.74
566.966	16.36
567.39	16.87
567.814	17.44
568.238	17.78
568.662	17.38
569.086	17.57
569.509	17.29
569.933	18.57
570.357	18.48
570.78	18.67
571.204	19.18
571.627	19.06
572.05	18.46
572.474	19.47
572.897	19.8
573.32	20.36
573.743	20.05
574.166	21.08
574.589	20.17
575.012	19.65
575.435	20.12
575.858	19.81
576.281	20.27
576.704	20.84
577.126	19.2
577.549	18.72
577.972	18.33
578.394	18.45
578.817	19.59
579.239	19.06
579.661	19.54
580.084	20.01
580.506	20.31
580.928	19.64
581.35	19.53
581.772	20.43
582.194	20.41
582.616	19.89
583.038	19.57
583.46	17.82
583.882	18.25
584.303	17.41
584.725	16.44
585.147	19.64
585.568	19.78
585.99	19.97
586.411	20.58
586.833	21.24
587.254	21.78
587.675	21.63
588.096	21.83
588.518	21.54
588.939	21.59
589.36	22.34
589.781	17.54
590.202	19.71
590.623	19.67
591.043	17.99
591.464	17.61
591.885	18.36
592.305	18.85
592.726	18.44
593.147	18.84
593.567	19.33
593.987	18.4
594.408	18.13
594.828	15.67
595.248	15.39
595.669	16.63
596.089	16.15
596.509	15.21
596.929	14.49
597.349	15.07
597.769	14.91
598.189	15.38
598.608	15.5
599.028	15.76
599.448	15.39
599.867	15.45
600.287	14.32
600.706	14.58
601.126	14.47
601.545	15.38
601.965	15.06
602.384	14.36
602.803	14.13
603.222	14.1
603.641	14.15
604.061	14.67
604.48	14.35
604.898	14.47
605.317	14.61
605.736	14.61
606.155	14.63
606.574	14.33
606.992	14.34
607.411	14.24
607.829	13.61
608.248	13.02
608.666	12.18
609.085	12.55
609.503	12.69
609.921	12.74
610.339	13.15
610.758	12.19
611.176	12.13
611.594	12.95
612.012	12.87
612.43	13.88
612.847	14.18
613.265	15.35
613.683	15.23
614.101	15.35
614.518	14.62
614.936	13.87
615.353	14.63
615.771	15.02
616.188	14.96
616.606	15.01
617.023	15.51
617.44	15.17
617.857	13.76
618.274	13.36
618.691	13.33
619.108	13.54
619.525	13.97
619.942	13.88
620.359	13.54
620.776	13.47
621.192	14.34
621.609	14.13
622.026	14.82
622.442	15.81
622.859	15.28
623.275	14.98
623.691	14.89
624.108	14.93
624.524	14.83
624.94	14.98
625.356	14.6
625.772	13.42
626.188	12.68
626.604	12.54
627.02	11.9
627.436	12.79
627.852	13.71
628.268	14.32
628.683	13.53
629.099	13.03
629.514	12.31
629.93	12.48
630.345	12.49
630.761	12.14
631.176	12.08
631.591	14.04
632.007	14.24
632.422	12.9
632.837	12.29
633.252	13.78
633.667	13.98
634.082	14.92
634.497	14.94
634.911	16.58
635.326	16.63
635.741	17.19
636.155	16.37
636.57	16.77
636.984	17.35
637.399	18.39
637.813	16.9
638.228	16.84
638.642	16.22
639.056	16.04
639.47	14.37
639.884	14.65
640.298	14.52
640.712	14.65
641.126	14.18
641.54	14.32
641.954	12.56
642.368	13.51
642.781	15.58
643.195	15.32
643.609	15.51
644.022	15.89
644.436	15.39
644.849	14.79
645.262	14.22
645.676	14.49
646.089	14.52
646.502	16.38
646.915	15.21
647.328	14.2
647.741	15.49
648.154	15.8
648.567	17.19
648.98	18.29
649.393	18.95
649.805	18.67
650.218	17.49
650.631	17.58
651.043	17.42
651.456	18.4
651.868	17.69
652.28	16.65
652.693	15.63
653.105	14.47
653.517	14.21
653.929	13.51
654.341	14.78
654.753	15.93
655.165	15.13
655.577	14.89
655.989	15.1
656.401	13.94
656.813	14.87
657.224	15.47
657.636	14.86
658.047	15.61
658.459	15.21
658.87	13.95
659.282	13.85
659.693	15.25
660.104	15.5
660.515	14.15
660.926	14.35
661.338	13.72
661.749	13
662.159	13.84
662.57	12.56
662.981	13.38
663.392	13.13
663.803	12.53
664.213	11.54
664.624	10.87
665.035	11.18
665.445	11.16
665.855	12.22
666.266	13.61
666.676	13.01
667.086	12.32
667.497	12.33
667.907	13
668.317	13.56
668.727	16.38
669.137	15.44
669.547	15.68
669.956	15.48
670.366	14.78
670.776	14.54
671.186	14.22
671.595	15.02
672.005	13.61
672.414	13.23
672.824	13.91
673.233	10.91
673.642	11.72
674.052	12.19
674.461	13.62
674.87	13.23
675.279	12.97
675.688	11.91
676.097	12.72
676.506	14.15
676.915	13.65
677.323	12.78
677.732	13.01
678.141	12.37
678.549	12.33
678.958	10.98
679.366	10.6
679.775	9.76
680.183	12.84
680.592	12.36
681	12.27
681.408	12.98
681.816	12.82
682.224	12.33
682.632	13.95
683.04	13.88
683.448	14.76
683.856	16.38
684.264	18.68
684.671	16.54
685.079	15.49
685.487	14.66
685.894	14.05
686.302	12.61
686.709	12.85
687.116	12.5
687.524	13.52
687.931	14.12
688.338	14.06
688.745	12.11
689.152	12.41
689.559	14.7
689.966	16.95
690.373	17.81
690.78	19.06
691.187	19.71
691.593	20.65
692	20.12
692.407	19.79
692.813	21.14
693.22	22.41
693.626	21.32
694.032	21.18
694.439	20.57
694.845	19.86
695.251	19.71
695.657	20.43
696.063	18.41
696.469	18.33
696.875	18.72
697.281	16.75
697.687	15.73
698.093	16.6
698.498	16.24
698.904	14.94
699.31	14.61
699.715	17.42
700.12	16.91
700.526	17.63
700.931	17.2
701.337	17.75
701.742	18.98
702.147	19.76
702.552	20.12
702.957	18.97
703.362	19.75
703.767	20.15
704.172	17.62
704.577	16.73
704.981	15.4
705.386	16.75
705.791	15.99
706.195	15.03
706.6	14.33
707.004	13.37
707.408	13.07
707.813	14.1
708.217	15.55
708.621	15.94
709.025	16.09
709.43	18.71
709.834	18.54
710.237	18.58
710.641	18.77
711.045	19.26
711.449	20.49
711.853	24.13
712.256	23.06
712.66	22.23
713.064	22.53
713.467	23.43
713.87	23.28
714.274	23.56
714.677	24.07
715.08	24.69
715.484	25.75
715.887	28.25
716.29	25.3
716.693	26.71
717.096	28.09
717.499	28.07
717.901	27.59
718.304	27.16
718.707	26.53
719.109	25.93
719.512	25.69
719.915	27.36
720.317	25.45
720.719	25.65
721.122	25.41
721.524	25.15
721.926	29.45
722.328	30.02
722.731	28.8
723.133	28.07
723.535	29.27
723.937	29.03
724.338	28.06
724.74	28.94
725.142	73.32
725.544	76.13
725.945	85.37
726.347	80.53
726.748	80.86
727.15	82.3
727.551	86.85
727.952	84.89
728.354	83.19
728.755	82.9
729.156	80.97
729.557	36.75
729.958	32.34
730.359	21.93
730.76	21.7
731.161	20.89
731.562	20.09
731.962	16.64
732.363	16.74
732.763	16.69
733.164	14.88
733.564	15.62
733.965	17.55
734.365	18.55
734.766	20.07
735.166	20.47
735.566	21.74
735.966	22.47
736.366	21.54
736.766	21.81
737.166	21.45
737.566	21.59
737.966	21.05
738.365	21.63
738.765	21.88
739.165	21.32
739.564	21.73
739.964	20.4
740.363	19.76
740.763	20.31
741.162	21.24
741.561	21.76
741.96	22.39
742.36	21.38
742.759	21.03
743.158	21.3
743.557	20.75
743.955	20.91
744.354	21.12
744.753	20.38
745.152	21.34
745.55	20.33
745.949	20.88
746.348	20.53
746.746	20.44
747.144	21.96
747.543	20.92
747.941	20.64
748.339	20.42
748.737	21.34
749.136	23.31
749.534	21.74
749.932	23.93
750.33	24.15
750.727	23.44
751.125	24.14
751.523	22.75
751.921	25.6
752.318	27.27
752.716	28.91
753.113	27.92
753.511	26.74
753.908	27.92
754.305	30.26
754.703	30.45
755.1	31.72
755.497	33.43
755.894	33.31
756.291	31.43
756.688	31.42
757.085	31.11
757.482	33.66
757.878	37.54
758.275	39.41
758.672	33.94
759.068	33.59
759.465	34.98
759.861	32.86
760.258	33.75
760.654	34.45
761.05	36.57
761.447	34.23
761.843	32.4
762.239	31.36
762.635	29.63
763.031	29.98
763.427	29.5
763.822	30.93
764.218	30.77
764.614	29.77
765.01	27.87
765.405	27.54
765.801	27.5
766.196	27.22
766.592	25.31
766.987	27.08
767.382	26.87
767.778	27.12
768.173	25.59
768.568	26.42
768.963	27.74
769.358	29.02
769.753	30.09
770.148	31.73
770.542	31.91
770.937	31.8
771.332	30.98
771.726	31.31
772.121	35.77
772.515	36.27
772.91	36.17
773.304	36.89
773.699	37.04
774.093	35.13
774.487	34.32
774.881	34.25
775.275	34.84
775.669	34.41
776.063	35.41
776.457	33.43
776.851	33.97
777.245	35.06
777.638	34.3
778.032	34.08
778.425	35.61
778.819	38.79
779.212	40.84
779.606	43.09
779.999	43.3
780.392	44.7
780.786	42.66
781.179	42.75
781.572	41.89
781.965	41.93
782.358	43.55
782.751	41.92
783.143	38.97
783.536	38.47
783.929	36.16
784.322	36.58
784.714	34.7
785.107	37.59
785.499	39.9
785.891	42.14
786.284	42.17
786.676	41.16
787.068	43.75
787.46	44.65
787.852	43.36
788.245	42.26
788.636	41.85
789.028	44.37
789.42	44.92
789.812	43.07
790.204	42.75
790.595	44.55
790.987	44.85
791.378	44.32
791.77	43.47
792.161	43.9
792.553	45.94
792.944	45.67
793.335	41.87
793.726	41.74
794.117	44.12
794.508	41.84
794.899	39.38
795.29	39.45
795.681	38.36
796.072	37.44
796.463	54.68
796.853	59.45
797.244	61.08
797.634	63.86
798.025	62.05
798.415	59.11
798.806	63.2
799.196	66.07
799.586	68.28
799.976	69.97
800.366	71.47
800.756	51.84
801.146	46.41
801.536	43.3
801.926	43.06
802.316	44.84
802.706	44.65
803.095	43.44
803.485	42.7
803.874	41.01
804.264	40.79
804.653	40.82
805.043	45.72
805.432	49.15
805.821	52.95
806.21	53.83
806.599	49.94
806.988	53.1
807.377	47.67
807.766	48.99
808.155	47.52
808.544	47.23
808.933	47.96
809.321	48.22
809.71	45.52
810.098	45.37
810.487	41.97
810.875	45.97
811.264	43.17
811.652	57.59
812.04	56.07
812.428	58.76
812.816	58.18
813.204	60.34
813.592	58.07
813.98	58.69
814.368	61.8
814.756	64.55
815.144	66.1
815.531	69.31
815.919	58.11
816.306	58.25
816.694	54.56
817.081	57.32
817.469	60.29
817.856	59.6
818.243	57.34
818.63	52.4
819.017	52.59
819.404	52.27
819.791	50.48
820.178	47.78
820.565	51.97
820.952	62.53
821.339	61.55
821.725	62.11
822.112	62.73
822.498	67.64
822.885	66.39
823.271	64.84
823.657	61.89
824.044	66.27
824.43	66.13
824.816	69.74
825.202	65.92
825.588	66.48
825.974	65.16
826.36	62.53
826.746	60.39
827.132	61.53
827.517	65.35
827.903	65.99
828.289	66.36
828.674	67.58
829.06	61.01
829.445	58.42
829.83	56.35
830.216	53.57
830.601	59.57
830.986	66.01
831.371	68.12
831.756	71.16
832.141	75.5
832.526	74.07
832.911	73.43
833.295	75.52
833.68	77.56
834.065	79.34
834.449	76.98
834.834	74.58
835.218	69.29
835.603	70.59
835.987	65.04
836.371	61.35
836.755	62.7
837.139	59.52
837.524	56.58
837.908	53.15
838.291	54.77
838.675	54.18
839.059	54.64
839.443	52.37
839.827	48.33
840.21	49.1
840.594	49.3
840.977	48.69
841.361	51.67
841.744	51.51
842.127	52.51
842.511	52.39
842.894	54.91
843.277	52.71
843.66	53.35
844.043	53.74
844.426	56.12
844.809	50.52
845.191	49.79
845.574	50.15
845.957	50.5
846.339	52.18
846.722	49.52
847.104	46.04
847.487	44.88
847.869	45.59
848.252	49.64
848.634	47.27
849.016	48.51
849.398	46.77
849.78	44.13
850.162	43.82
850.544	44.32
850.926	43.77
851.307	46.89
851.689	49.05
852.071	45.58
852.452	44.04
852.834	45.77
853.215	51.71
853.597	51.43
853.978	60.77
854.359	62.73
854.741	60.2
855.122	57.3
855.503	52.57
855.884	52.59
856.265	55.06
856.646	49.53
857.026	50.15
857.407	51.93
857.788	53.52
858.169	47.7
858.549	52.19
858.93	55.44
859.31	59.44
859.69	67.02
860.071	67.63
860.451	67.41
860.831	65.52
861.211	65.72
861.591	60.97
861.971	57.49
862.351	57.27
862.731	47.73
863.111	45.63
863.491	48.4
863.87	43.77
864.25	38.32
864.629	45.79
865.009	46.95
865.388	47.1
865.768	50.53
866.147	51.73
866.526	51.4
866.905	58.07
867.284	50
867.663	44.98
868.042	45.4
868.421	46.1
868.8	38.06
869.179	45.26
869.558	42.64
869.936	39.72
870.315	39.93
870.693	43.18
871.072	42.8
871.45	43.24
871.828	50.13
872.207	51.45
872.585	54.27
872.963	53.31
873.341	55.52
873.719	64.4
874.097	66.44
874.475	65.43
874.853	63.18
875.23	58.57
875.608	68.08
875.986	65.71
876.363	64.83
876.741	76.77
877.118	84.31
877.495	87.5
877.873	78.26
878.25	78.48
878.627	75.55
879.004	75.71
879.381	72.57
879.758	75.73
880.135	69.29
880.512	70.18
880.889	56.25
881.265	54.22
881.642	49.81
882.019	52.13
882.395	59.59
882.772	67.18
883.148	68.45
883.524	73.42
883.901	66.54
884.277	67.65
884.653	64.67
885.029	74.31
885.405	82.41
885.781	80.35
886.157	78.85
886.532	69.57
886.908	64.62
887.284	68.9
887.659	72.37
888.035	70.59
888.411	68.46
888.786	70.59
889.161	66.74
889.537	56.98
889.912	59.07
890.287	59.35
890.662	62.82
891.037	60.83
891.412	51.4
891.787	44.94
892.162	54.79
892.536	57.68
892.911	60.39
893.286	56.61
893.66	57.92
894.035	62.25
894.409	57.95
894.784	59.53
895.158	60.38
895.532	69.2
895.906	73.95
896.281	68.19
896.655	73.92
897.029	68.8
897.402	65.7
897.776	65.53
898.15	62.75
898.524	72.83
898.898	71.76
899.271	87.78
899.645	77.56
900.018	73
900.392	84.86
900.765	76.63
901.138	84.21
901.511	85.31
901.884	93.03
902.258	92.25
902.631	98.19
903.003	107.36
903.376	94.61
903.749	101.89
904.122	99.91
904.495	90.83
904.867	84.76
905.24	76.14
905.612	73.52
905.985	62.3
906.357	52.22
906.729	50.9
907.102	52.35
907.474	50.27
907.846	59.11
908.218	68.02
908.59	75.65
908.962	82.78
909.334	90.51
909.705	105.73
910.077	102.64
910.449	104.37
910.82	108.95
911.192	117.99
911.563	129.21
911.935	126.27
912.306	120.25
912.677	105.53
913.048	106.69
913.419	117.71
913.79	96.12
914.161	99.15
914.532	121.45
914.903	108.21
915.274	96.38
915.645	89.29
916.015	82
916.386	80.29
916.756	92.35
917.127	85.57
917.497	77.51
917.868	96.26
918.238	99.75
918.608	88.03
918.978	82.08
919.348	82.22
919.718	84.06
920.088	83.47
920.458	90.09
920.828	80.72
921.198	87.04
921.567	83.09
921.937	74.99
922.306	68.17
922.676	67.12
923.045	70.28
923.415	69.55
923.784	70.99
924.153	82.27
924.522	87.95
924.891	89.54
925.26	86.67
925.629	86.03
925.998	83.43
926.367	85.23
926.736	108.25
927.104	122.38
927.473	127.21
927.842	132.06
928.21	99.09
928.578	101.5
928.947	98.08
929.315	112.66
929.683	141.31
930.051	155.78
930.42	189.48
930.788	141.72
931.156	139.22
931.523	162.63
931.891	164.09
932.259	192.94
932.627	220.61
932.994	284.41
933.362	258.31
933.729	227.54
934.097	207.83
934.464	181.56
934.831	192.95
935.199	180.21
935.566	176.51
935.933	151.6
936.3	153.83
936.667	110.59
937.034	182.31
937.401	189.11
937.767	165.25
938.134	154.13
938.501	194.92
938.867	216.34
939.234	346.09
939.6	251.72
939.967	350.46
940.333	273.47
940.699	236.97
941.065	134.69
941.431	168.54
941.798	199.45
942.163	284.26
942.529	192.75
942.895	175.68
943.261	132.3
943.627	192.06
943.992	183.8
944.358	170.65
944.723	208.92
945.089	196.03
945.454	180.98
945.82	173
946.185	143.36
946.55	155.63
946.915	144.09
947.28	172.96
947.645	163.97
948.01	162.92
948.375	183.93
948.74	178.88
949.104	180.24
949.469	180.8
949.834	322.97
950.198	422.36
950.562	302.14
950.927	245.4
951.291	305.68
951.655	241.8
952.02	149.85
952.384	121.08
952.748	138.73
953.112	188.78
953.476	184.8
953.839	158.83
954.203	162.39
954.567	192.02
954.931	261.19
955.294	233.68
955.658	225.3
956.021	413.6
956.385	563.78
956.748	712.07
957.111	699.32
957.474	589.76
957.837	622.6
958.2	278.04
958.563	63.86
958.926	102.54
959.289	77.44
959.652	104.98
960.015	92.67
960.377	171.62
960.74	189.66
961.102	319.08
961.465	574.07
961.827	711.26
962.189	1346.77
962.552	999.22
962.914	816.95
963.276	540.23
963.638	433.49
964	402.65
964.362	276.32
964.724	235.13
965.085	181.74
965.447	148.1
965.809	84.76
966.17	65.68
966.532	62.98
966.893	45.93
967.255	41.74
967.616	23.65
967.977	40.89
968.338	56.43
968.699	95.12
969.061	92.55
969.421	98.34
969.782	106.87
970.143	126.93
970.504	160.67
970.865	203.06
971.225	229.51
971.586	236.74
971.946	304.76
972.307	256.28
972.667	255.37
973.027	273.33
973.388	274.82
973.748	208.29
974.108	220.33
974.468	190.91
974.828	190.13
975.188	138.04
975.548	136.21
975.907	125.62
976.267	131.32
976.627	146.1
976.986	147.1
977.346	137.06
977.705	135.6
978.064	105.18
978.424	98.65
978.783	65.78
979.142	64.25
979.501	56.24
979.86	71.54
980.219	67.93
980.578	55.03
980.937	23.95
981.296	35.85
981.654	25.35
982.013	0.04
982.371	31.15
982.73	28.92
983.088	53.24
983.447	70.76
983.805	26.41
984.163	12.64
984.521	-60.11
984.879	139.26
985.237	-25.38
985.595	239.3
985.953	160.87
986.311	29.03
986.669	52.34
987.026	44.87
987.384	42.69
987.741	23.55
988.099	88.58
988.456	94.34
988.814	115.08
989.171	117.57
989.528	83.97
989.885	78.89
990.242	92.03
990.599	79.69
990.956	49.63
991.313	50.63
991.67	54.1
992.027	91.75
992.383	85.61
992.74	85.47
993.096	102.55
993.453	109.54
993.809	104.85
994.165	127.28
994.522	179.47
994.878	203.19
995.234	240.7
995.59	235.61
995.946	131.86
996.302	158.22
996.658	139.06
997.013	117.21
997.369	192.61
997.725	293.1
998.08	207.14
998.436	131.13
998.791	203.22
999.147	222.93
999.502	247.82
999.857	235.52
1000.212	278.39
1000.567	427.61
1000.922	264.49
1001.277	151.03
1001.632	146.78
1001.987	157.85
1002.342	146.69
1002.696	144.18
1003.051	134.49
1003.406	193.05
1003.76	174.93
1004.114	189.9
1004.469	191.4
1004.823	179.91
1005.177	185.64
1005.531	146.75
1005.885	152.92
1006.239	191.2
1006.593	247.86
1006.947	336.83
1007.301	223.13
1007.655	257.92
1008.008	205.82
1008.362	222.02
1008.715	282.15
1009.069	258.6
1009.422	414.05
1009.776	674.77
1010.129	363.67
1010.482	225.69
1010.835	124.6
1011.188	298.02
1011.541	281.65
1011.894	-1275.94
1012.247	4320.27
1012.6	349.67
1012.952	245.45
1013.305	97.55
1013.657	103.67
1014.01	96.63
1014.362	80.64
1014.715	137.91
1015.067	132.12
1015.419	116.12
1015.771	109.16
1016.123	97.71
1016.475	98.67
1016.827	96.03
1017.179	122.21
1017.531	105.18
1017.883	100.39
1018.234	152.98
1018.586	152.24
1018.938	198.85
1019.289	316.09
1019.64	349.12
1019.992	314.41
1020.343	290.74
1020.694	286.87
1021.045	248.42
1021.396	295.34
1021.747	363.34
1022.098	361.45
1022.449	275.1
1022.8	234.23
1023.151	166.92
1023.501	175.18
1023.852	182.29
1024.202	195.95
1024.553	188.95
1024.903	201.21
1025.253	198
1025.604	193.63
1025.954	228.99
1026.304	237.7
1026.654	276.18
1027.004	367.13
1027.354	492.41
1027.703	608.59
1028.053	732.33
1028.403	1196.14
1028.753	1267.4
1029.102	1228.24
1029.452	2626.45
1029.801	69.33
1030.15	78.4
1030.499	10.45
897.758	1555.35
901.051	1499.33
904.343	1526.32
907.636	1529.98
910.928	1575.15
914.22	1518.11
917.511	1523.82
920.803	1556.82
924.094	1547.63
927.384	1552.91
930.675	1527.23
933.965	1504.66
937.255	1531.05
940.544	1511.14
943.834	1505.97
947.123	1463.45
950.411	1526.08
953.7	1514.52
956.988	1505.15
960.276	1453.31
963.563	1483.9
966.851	1489.86
970.138	1516.51
973.424	1517.08
976.711	1480.94
979.997	1514.78
983.283	1543.53
986.568	1499.79
989.853	1487.94
993.138	1503.79
996.423	1570.52
999.708	1541.05
1002.992	1560.34
1006.275	1496.54
1009.559	1497.71
1012.842	1564.23
1016.125	1535.61
1019.408	1519.02
1022.69	1554.13
1025.972	1576.66
1029.254	1558
1032.536	1535.4
1035.817	1539.45
1039.098	1518.83
1042.379	1550.86
1045.659	1567.79
1048.939	1533.22
1052.219	1530.81
1055.498	1523.95
1058.778	1516.61
1062.057	1499.2
1065.335	1517.79
1068.614	1522.57
1071.892	1514.87
1075.17	1551.65
1078.447	1555.73
1081.724	1551.99
1085.001	1565.48
1088.278	1550.88
1091.554	1551.7
1094.83	1551.7
1098.106	1575.87
1101.382	1594.37
1104.657	1590.72
1107.932	1592.48
1111.206	1576.65
1114.481	1541.31
1117.755	1543.5
1121.029	1538.4
1124.302	1579.47
1127.575	1560.13
1130.848	1558.03
1134.121	1540.15
1137.393	1510.36
1140.665	1551.8
1143.937	1536.5
1147.208	1500.85
1150.48	1542.63
1153.75	1533.77
1157.021	1533.72
1160.291	1517.03
1163.561	1553.62
1166.831	1527.68
1170.101	1541.57
1173.37	1514.43
1176.639	1487.64
1179.907	1519.16
1183.176	1532.27
1186.444	1534.05
1189.711	1548.96
1192.979	1566.89
1196.246	1539.54
1199.513	1548.44
1202.78	1551.44
1206.046	1557.94
1209.312	1578.74
1212.578	1585.17
1215.843	1560.78
1219.108	1544.33
1222.373	1557.54
1225.638	1541.21
1228.902	1532.86
1232.166	1505.65
1235.43	1496.56
1238.693	1518.71
1241.956	1513.91
1245.219	1549.81
1248.482	1538.68
1251.744	1539.75
1255.006	1615.5
1258.268	1581.56
1261.529	1556.47
1264.79	1554.31
1268.051	1618.11
1271.312	1625.45
1274.572	1601.38
1277.832	1593.04
1281.092	1575.88
1284.351	1573.87
1287.61	1564.6
1290.869	1524.93
1294.128	1524.76
1297.386	1548.66
1300.644	1546.12
1303.902	1553.18
1307.159	1462.8
1310.416	1497.75
1313.673	1514.23
1316.93	1518.52
1320.186	1535.19
1323.442	1554.88
1326.697	1557.09
1329.953	1539.92
1333.208	1566.6
1336.463	1550.2
1339.717	1527.98
1342.972	1602.72
1346.226	1582.43
1349.479	1558.06
1352.733	1541.15
1355.986	1549.64
1359.238	1537.65
1362.491	1541.19
1365.743	1538.84
1368.995	1537.77
1372.247	1547.07
1375.498	1557.32
1378.749	1587.54
1382	1558.65
1385.251	1576.48
1388.501	1549.5
1391.751	1547.73
1395	1531.6
1398.25	1547.92
1401.499	1571.37
1404.748	1536.96
1407.996	1527.86
1411.244	1524.49
1414.492	1514.24
1417.74	1504.63
1420.987	1511.12
1424.234	1550.73
1427.481	1524.77
1430.728	1558.69
1433.974	1545.37
1437.22	1541.8
1440.465	1536.25
1443.711	1539.5
1446.956	1550.77
1450.201	1532.75
1453.445	1560.82
1456.689	1551.58
1459.933	1559.13
1463.177	1586.73
1466.42	1571.26
1469.663	1557.41
1472.906	1567.78
1476.148	1601.67
1479.391	1569.77
1482.633	1557.3
1485.874	1572.67
1489.115	1578.95
1492.356	1565.47
1495.597	1549.88
1498.838	1541.4
1502.078	1533.05
1505.318	1518.47
1508.557	1536.37
1511.797	1533.94
1515.036	1571.17
1518.274	1543.29
1521.513	1505.73
1524.751	1511.62
1527.989	1525.96
1531.227	1538.6
1534.464	1544.74
1537.701	1538.81
1540.938	1542.97
1544.174	1508.44
1547.41	1498.11
1550.646	1522.57
1553.882	1554.21
1557.117	1595.41
1560.352	1597.9
1563.587	1570.81
1566.821	1549.67
1570.055	1562.52
1573.289	1543.65
1576.523	1579.52
1579.756	1587.49
1582.989	1602.12
1586.222	1573.03
1589.454	1593.35
1592.686	1585.6
1595.918	1602.66
1599.15	1600.31
1602.381	1630.88
1605.612	1619.48
1608.843	1680.27
1612.073	1628.92
1615.303	1622.55
1618.533	1620.35
1621.762	1620.1
1624.992	1600.39
1628.221	1597.13
1631.449	1589.39
1634.678	1607.62
1637.906	1581.84
1641.134	1595.47
1644.361	1574.17
1647.588	1567.44
1650.815	1585.01
1654.042	1559.11
1657.269	1575.04
1660.495	1566.33
1663.72	1553.79
1666.946	1534.32
1670.171	1521.13
1673.396	1501.94
1676.621	1492.54
1679.845	1489.75
1683.069	1492.89
1686.293	1509.86
1689.517	1504.81
1692.74	1477.61
1695.963	1490.44
1699.185	1518.92
1702.408	1500.48
1705.63	1519.21
1708.852	1532.35
1712.073	1509.76
1715.294	1521.87
1718.515	1552.53
1721.736	1524.59
1724.956	1513.85
1728.176	1529.98
1731.396	1543.21
1734.616	1538.79
1737.835	1569.71
1741.054	1544.09
1744.272	1542.51
1747.491	1572.94
1750.709	1583.75
1753.927	1555.4
1757.144	1573.22
1760.361	1613.13
1763.578	1593.32
1766.795	1560.13
1770.011	1549.24
1773.227	1562.79
1776.443	1594.42
1779.658	1620.78
1782.874	1583.86
1786.089	1580.83
1789.303	1581.04
1792.518	1579.18
1795.732	1571.73
1798.945	1580.68
1802.159	1610.82
1805.372	1575.24
1808.585	1570.91
1811.797	1571.78
1815.01	1588.25
1818.222	1607.94
1821.434	1578.06
1824.645	1604.31
1827.856	1612.08
1831.067	1629.78
1834.278	1589.53
1837.488	1579.15
1840.698	1661.01
1843.908	1629.09
1847.117	1610.93
1850.326	1564.85
1853.535	1600.11
1856.744	1629.13
1859.952	1578.77
1863.16	1582.1
1866.368	1597.64
1869.575	1679.52
1872.782	1600.74
1875.989	1557.39
1879.196	1588.46
1882.402	1584.45
1885.608	1605.3
1888.814	1572.08
1892.019	1513.33
1895.224	1553.73
1898.429	1529.79
1901.634	1517.56
1904.838	1502.93
1908.042	1544.07
1911.246	1557.14
1914.449	1534.45
1917.652	1521.24
1920.855	1507.38
1924.058	1520.82
1927.26	1555.73
1930.462	1569.05
1933.664	1597.07
1936.865	1561.71
1940.066	1570.1
1943.267	1530.32
1946.467	1536.86
1949.668	1547.16
1952.868	1596.96
1956.067	1597
1959.267	1555.88
1962.466	1572.13
1965.665	1555.67
1968.863	1554.22
1972.061	1549.35
1975.259	1545.27
1978.457	1598.6
1981.654	1568.65
1984.852	1569
1988.048	1540.36
1991.245	1527.69
1994.441	1590.6
1997.637	1551.92
2000.833	1545.54
2004.028	1567.98
2007.223	1618.13
2010.418	1607.98
2013.613	1571.83
2016.807	1571.65
2020.001	1569.27
2023.194	1580.22
2026.388	1569.05
2029.581	1529.93
2032.774	1579.11
2035.966	1583.74
2039.158	1546.99
2042.35	1557.13
2045.542	1506.31
2048.733	1560.21
2051.924	1546.82
2055.115	1555.49
2058.306	1535.22
2061.496	1570.52
2064.686	1604.73
2067.875	1536.17
2071.065	1535.37
2074.254	1548.71
2077.442	1517.11
2080.631	1574
2083.819	1535.26
2087.007	1534.87
2090.195	1525.27
2093.382	1529.82
2096.569	1524.48
2099.756	1497.3
2102.942	1539.3
2106.128	1547
2109.314	1539.76
2112.5	1533.84
2115.685	1507.72
2118.87	1513.38
2122.055	1556.1
2125.239	1542.97
2128.424	1537.09
2131.608	1570.89
2134.791	1558.43
2137.974	1580.67
2141.157	1574.36
2144.34	1557.88
2147.523	1544.32
2150.705	1568.97
2153.887	1542.68
2157.068	1526.28
2160.25	1509.75
2163.431	1525.62
2166.611	1507.22
2169.792	1525.21
2172.972	1462.57
2176.152	1500.15
2179.331	1514.35
2182.511	1519.7
2185.69	1530.98
2188.868	1534.48
2192.047	1557.79
2195.225	1577.03
2198.403	1537.71
2201.58	1528.2
2204.758	1513.88
2207.935	1567
2211.111	1511.62
2214.288	1502.4
2217.464	1525.85
2220.64	1497.76
2223.815	1531.06
2226.991	1482.83
2230.166	1490.95
2233.34	1524.59
2236.515	1532.38
2239.689	1581.14
2242.863	1546.08
2246.036	1579.21
2249.209	1568.61
2252.382	1582.86
2255.555	1588.4
2258.727	1558.52
2261.9	1577.14
2265.071	1574.31
2268.243	1572.38
2271.414	1539
2274.585	1527.06
2277.756	1568.56
2280.926	1541.44
2284.096	1559.68
2287.266	1511.73
2290.436	1547.44
2293.605	1558.09
2296.774	1586.66
2299.942	1587.62
2303.111	1599.21
2306.279	1636.25
2309.447	1628.31
2312.614	1611.92
2315.781	1626.4
2318.948	1610.83
2322.115	1638
2325.281	1561.2
2328.447	1565.64
2331.613	1543.09
2334.779	1540.99
2337.944	1536.68
2341.109	1537.21
2344.274	1529.82
2347.438	1504.51
2350.602	1519.55
2353.766	1526.88
2356.929	1520.78
2360.092	1548.32
2363.255	1527.14
2366.418	1511.85
2369.58	1539.85
2372.742	1514.15
2375.904	1498.28
2379.066	1492.76
2382.227	1508.6
2385.388	1480.86
2388.548	1450.83
2391.709	1473.58
2394.869	1471.73
2398.029	1503.43
2401.188	1494.18
2404.347	1479.95
2407.506	1478.6
2410.665	1519.87
2413.823	1503.86
2416.981	1494.34
2420.139	1504.6
2423.296	1530.36
2426.453	1514.6
2429.61	1528.8
2432.767	1513.97
2435.923	1541.06
2439.079	1504.12
2442.235	1527.67
2445.391	1486.5
2448.546	1518.37
2451.701	1541.4
2454.855	1542.93
2458.009	1557.72
2461.163	1546.92
2464.317	1526.89
2467.471	1544.72
2470.624	1566.54
2473.777	1558.55
2476.929	1571.47
2480.082	1586.85
2483.234	1573.23
2486.385	1529.32
2489.537	1523.22
2492.688	1520.68
2495.839	1536.46
2498.989	1545.12
2502.14	1537.83
2505.29	1531.03
2508.439	1549.17
2511.589	1510.22
2514.738	1509.06
2517.887	1520.51
2521.035	1577.29
2524.183	1544.58
2527.331	1539.29
2530.479	1533.92
2533.627	1537.61
