Data from N_1_HIR_WI_4N_Splice17_11-39-33-384.txt Node
Date: Sat Mar 14 11:39:33 EDT 2020
User: sa697716
Spectrometer: FLMS03696
Trigger mode: 0
Integration Time (sec): 3.180400E-1
Scans to average: 20
Electric dark correction enabled: true
Nonlinearity correction enabled: true
Boxcar width: 5
XAxis mode: Wavelengths
Number of Pixels in Spectrum: 2048
>>>>>Begin Spectral Data<<<<<
187.83	-149675.23
188.298	1226.3
188.766	632.94
189.233	565.06
189.701	719.14
190.169	964.55
190.636	300.86
191.104	240.03
191.571	10.6
192.039	-98.68
192.506	-177.86
192.974	143.09
193.441	-194.76
193.908	-61.19
194.375	18.64
194.842	-48.61
195.31	-49.75
195.777	85.61
196.244	202.09
196.711	120.17
197.177	74.94
197.644	46.3
198.111	37.16
198.578	18.38
199.045	9.05
199.511	-65.21
199.978	-107.14
200.445	-56.92
200.911	-109.43
201.378	-183.62
201.844	-110.39
202.31	-203.6
202.777	-228.45
203.243	-104.64
203.709	-79.75
204.176	-95.87
204.642	-26.14
205.108	2.26
205.574	-30.07
206.04	-52.27
206.506	-55.72
206.972	-73.01
207.438	-77.66
207.903	-91.92
208.369	-44.85
208.835	-24.95
209.301	-30.2
209.766	-61.19
210.232	-69.79
210.697	-78.43
211.163	-108.65
211.628	-196.55
212.094	-157.97
212.559	-111.21
213.024	-57.19
213.49	-83.64
213.955	-118.84
214.42	-130.73
214.885	-121.17
215.35	-82.06
215.815	20.13
216.28	14.12
216.745	25.15
217.21	47.65
217.675	9.02
218.14	4.98
218.604	-4.06
219.069	13.75
219.534	50.15
219.998	48.08
220.463	38.25
220.927	-61.15
221.392	-34.94
221.856	-13.75
222.32	-78.04
222.785	-66.76
223.249	-94.15
223.713	-102.34
224.177	-111.45
224.642	-231.42
225.106	-254.3
225.57	-330.14
226.034	-156.12
226.497	-211.81
226.961	-181.78
227.425	-123.31
227.889	-168.37
228.353	-165.9
228.816	-406.63
229.28	-288.63
229.744	-161.35
230.207	-60.15
230.671	-29.85
231.134	-282.51
231.597	-303.29
232.061	-407.99
232.524	-437.95
232.987	-280.94
233.45	-207.41
233.914	-200.81
234.377	-277.03
234.84	-259.8
235.303	-354.62
235.766	-391.98
236.229	-347.25
236.691	-264.05
237.154	-285.3
237.617	-209.13
238.08	-228.53
238.542	-271.48
239.005	-169.8
239.468	-149.13
239.93	-138.19
240.393	-110.71
240.855	-93.79
241.317	-117.85
241.78	-153.65
242.242	-152.97
242.704	-123.63
243.166	-96.3
243.629	-47.1
244.091	-57.53
244.553	-64.11
245.015	-52.46
245.477	-73.09
245.939	-141.1
246.4	-115.91
246.862	-94.58
247.324	-75.79
247.786	-131.26
248.247	-220.01
248.709	-425.17
249.17	-276.83
249.632	-146.03
250.093	-114.86
250.555	-109.45
251.016	-7.38
251.477	6.86
251.939	14.08
252.4	-1.63
252.861	-48.13
253.322	-14.62
253.783	-14.74
254.244	-48.25
254.705	-114.61
255.166	-180.11
255.627	-164.95
256.088	-241.39
256.549	-262.09
257.009	-209
257.47	-244.03
257.931	-187.81
258.391	-130.66
258.852	-131.71
259.312	-153.71
259.773	-234.1
260.233	-110.11
260.694	-76.58
261.154	-107.28
261.614	-44.86
262.074	-70.03
262.534	-55.91
262.994	-32.72
263.455	-71.78
263.915	-34.88
264.374	-27.15
264.834	-16.56
265.294	-54.73
265.754	-45.97
266.214	-43.61
266.673	-48.26
267.133	-54.32
267.593	-88.05
268.052	-113.66
268.512	-110.65
268.971	-82.5
269.431	-101.79
269.89	-76.3
270.349	-82.04
270.809	-94.23
271.268	-64.77
271.727	-296.61
272.186	-148.81
272.645	-124.04
273.104	-120.51
273.563	-148.83
274.022	-240.44
274.481	-172.95
274.94	-146.82
275.399	-138.16
275.857	-201.44
276.316	-323.73
276.775	-275.62
277.233	-259.98
277.692	-192.02
278.15	-203.39
278.609	-178.1
279.067	-150
279.525	-131.07
279.984	-180.77
280.442	-212.78
280.9	-104.61
281.358	-48.45
281.816	-45.87
282.274	-68.06
282.732	-124.76
283.19	-141.28
283.648	-147.93
284.106	-150.33
284.564	-170.9
285.021	-125.79
285.479	-95.79
285.937	-125.77
286.394	-97.51
286.852	-112.49
287.309	-115.72
287.767	-69.44
288.224	-50.08
288.682	-53.21
289.139	-56.48
289.596	-35.39
290.053	-65.79
290.511	-95.56
290.968	-98.64
291.425	-183.37
291.882	-91.77
292.339	-66.77
292.796	-112.91
293.252	-107.32
293.709	-58.77
294.166	-47.43
294.623	-76.02
295.079	-68.08
295.536	-51.08
295.992	-47.11
296.449	-29.17
296.905	-32.37
297.362	-8.68
297.818	-1.4
298.274	3.59
298.731	-22.68
299.187	-19.94
299.643	-2.26
300.099	0.15
300.555	-4.28
301.011	9.3
301.467	63.14
301.923	18.52
302.379	5.34
302.835	-17.66
303.291	-6.85
303.746	2.29
304.202	-33.58
304.658	-56.2
305.113	-38.77
305.569	-26.34
306.024	-75.72
306.479	-127.75
306.935	-74.94
307.39	-122.97
307.845	-110.25
308.301	-119.12
308.756	-126.47
309.211	-102.07
309.666	-127.77
310.121	-121.84
310.576	-169.58
311.031	-187.82
311.486	-261.23
311.94	-323.64
312.395	-409.01
312.85	-837.69
313.305	-4928.46
313.759	-22190.26
314.214	-1607.32
314.668	-1115.14
315.123	-893.37
315.577	-237.86
316.032	-164.39
316.486	-208.85
316.94	-80.06
317.394	-51.21
317.849	-11.95
318.303	-18.82
318.757	0.01
319.211	-4.32
319.665	-3.35
320.119	-9.97
320.572	-42.74
321.026	-8.76
321.48	3.19
321.934	-36.39
322.387	-34.63
322.841	-22.74
323.295	47.32
323.748	-11.26
324.202	-21.18
324.655	-22.61
325.108	-31.17
325.562	-14.38
326.015	-64.05
326.468	-43.15
326.921	-22.49
327.374	29.27
327.827	27.94
328.28	10.96
328.733	42.42
329.186	46.56
329.639	47.16
330.092	41.89
330.545	57.79
330.997	68.27
331.45	95.09
331.903	112.69
332.355	121.09
332.808	75.99
333.26	36.33
333.713	34.18
334.165	15.48
334.617	-47.16
335.069	-105.46
335.522	-339.05
335.974	-392.34
336.426	-462.71
336.878	-376.15
337.33	-181.85
337.782	-179.76
338.234	-175.64
338.686	-239.72
339.137	-285.65
339.589	-246.43
340.041	-171.74
340.493	-145.99
340.944	-139.32
341.396	-121.42
341.847	-61.61
342.299	-14.05
342.75	53.16
343.201	-29.66
343.653	-43.96
344.104	-57.47
344.555	-49.44
345.006	-139.68
345.457	12.03
345.908	-8.5
346.359	0.41
346.81	4.95
347.261	-47.29
347.712	-93.86
348.163	-114.53
348.613	-50.65
349.064	-55.83
349.515	-38.17
349.965	-7.01
350.416	-64.9
350.866	-96.03
351.317	-145.85
351.767	-250.24
352.217	-289.11
352.668	-188.44
353.118	-148.9
353.568	-275.2
354.018	-155.52
354.468	-145.05
354.918	-70.83
355.368	-67.18
355.818	-72.41
356.268	-317.14
356.718	-1019.16
357.168	-216.57
357.617	-156.1
358.067	-199.07
358.517	-171.83
358.966	-179.92
359.416	-166.68
359.865	-327.54
360.315	-434.31
360.764	-187.86
361.213	-90.38
361.663	-128.24
362.112	-222.22
362.561	-372.9
363.01	-278.57
363.459	-228.03
363.908	-283.81
364.357	-195.77
364.806	-367.78
365.255	-222.39
365.703	-193.23
366.152	-173.78
366.601	-117.8
367.05	-48.09
367.498	-11.78
367.947	-19.35
368.395	-30.58
368.844	-15.22
369.292	-91.08
369.74	-36.45
370.189	-109.06
370.637	-129.02
371.085	-108.65
371.533	-173.85
371.981	-194.1
372.429	-166.02
372.877	-169.81
373.325	-138.58
373.773	-148.32
374.221	-145.75
374.669	-197.53
375.116	-147.73
375.564	-146.2
376.012	-182.5
376.459	-134.32
376.907	-177.48
377.354	-270.85
377.801	-200.44
378.249	-212.73
378.696	-330.04
379.143	-378.29
379.591	-399.71
380.038	-648.11
380.485	-470.74
380.932	-514.68
381.379	-306.31
381.826	-126.55
382.273	-102.96
382.72	-116.74
383.166	-82.92
383.613	-27.47
384.06	-3.67
384.506	-17.09
384.953	-5.09
385.4	-9.71
385.846	-7.57
386.292	-46.54
386.739	-60.5
387.185	-65.52
387.631	-66.33
388.078	-46.59
388.524	-60.15
388.97	-49.56
389.416	-26.97
389.862	-27.43
390.308	-24.24
390.754	-19.63
391.2	-26.21
391.645	-38.45
392.091	1.85
392.537	14.27
392.983	-8.91
393.428	27.69
393.874	9.12
394.319	23.18
394.765	32.32
395.21	27.71
395.655	27.82
396.101	38.42
396.546	38.72
396.991	15.83
397.436	6.72
397.881	2.15
398.326	-28.24
398.771	-14.8
399.216	-22.68
399.661	-24.94
400.106	-20.55
400.551	-15.26
400.995	-12.88
401.44	-4.61
401.885	-3.95
402.329	-1.73
402.774	2.15
403.218	19.52
403.663	16.01
404.107	19.47
404.551	24.62
404.995	22.24
405.44	16
405.884	10.61
406.328	1.25
406.772	-1.13
407.216	-2.24
407.66	-4.99
408.104	-13.11
408.547	-12.06
408.991	-12.55
409.435	-12.44
409.879	-12.25
410.322	-10.82
410.766	-7.97
411.209	-3.71
411.653	-4.17
412.096	-0.2
412.54	-2.4
412.983	-4.3
413.426	-1.81
413.869	-4.87
414.312	-5.05
414.756	-6.32
415.199	-7.18
415.642	-3.97
416.085	-4.32
416.527	-2.72
416.97	-5.65
417.413	-0.17
417.856	0.77
418.298	-1.18
418.741	-1.79
419.184	-5.76
419.626	-11.35
420.069	-10.91
420.511	-11.25
420.953	-8.76
421.396	-8.69
421.838	-10.46
422.28	-11.8
422.722	-9.86
423.164	-11.4
423.606	-11.65
424.048	-11.73
424.49	-6.03
424.932	-8.61
425.374	-10.59
425.816	-12.21
426.258	-12.45
426.699	-10.09
427.141	-7.59
427.582	-10.74
428.024	-12.62
428.465	-14.87
428.907	-12.68
429.348	-12.6
429.789	-7.39
430.231	-3.51
430.672	-3.99
431.113	-4.01
431.554	-3.36
431.995	-4.04
432.436	0.24
432.877	3.89
433.318	9.56
433.759	8.88
434.2	9.08
434.64	5.97
435.081	5.37
435.522	6.56
435.962	7.06
436.403	7.22
436.843	3.53
437.284	0.85
437.724	-1.62
438.164	-6.07
438.604	-6.37
439.045	-5.35
439.485	-0.7
439.925	-2.29
440.365	-3.29
440.805	-4.94
441.245	-4.66
441.685	-3.12
442.125	-3.79
442.564	-4.08
443.004	-2.33
443.444	-2.3
443.883	-2.94
444.323	-7.32
444.762	-10.71
445.202	-13.24
445.641	-10.62
446.081	-11.99
446.52	-10.78
446.959	-10.22
447.398	-8.5
447.837	-8.01
448.276	-8.41
448.716	-7.55
449.154	-9.18
449.593	-5.76
450.032	-4.57
450.471	-6.02
450.91	-6.85
451.349	-5.35
451.787	-6.12
452.226	-5.53
452.664	-7.18
453.103	-6.9
453.541	-8.54
453.98	-4.83
454.418	-5.37
454.856	-3
455.295	-2.92
455.733	-1.43
456.171	-2.7
456.609	-0.51
457.047	-1.02
457.485	2.21
457.923	4.21
458.361	5.32
458.798	3.69
459.236	3.88
459.674	1.53
460.111	1.8
460.549	1.91
460.987	-0.02
461.424	-0.65
461.862	-1.12
462.299	-1.5
462.736	-1.27
463.173	-2.32
463.611	1.58
464.048	2.53
464.485	4.15
464.922	3.65
465.359	2.1
465.796	11.56
466.233	12.41
466.67	14.99
467.106	16.23
467.543	15.12
467.98	14.49
468.416	11.77
468.853	9.64
469.29	8.32
469.726	6.94
470.162	6.88
470.599	-0.76
471.035	-2.85
471.471	-3.69
471.907	-5.45
472.344	-6.14
472.78	-4.91
473.216	-5.7
473.652	-4.57
474.088	-4.75
474.523	-2.97
474.959	-2.87
475.395	-2.28
475.831	-0.95
476.266	-1.11
476.702	-2
477.138	-1.21
477.573	-1.91
478.008	-1.57
478.444	-0.15
478.879	1.57
479.314	1.47
479.75	1.9
480.185	1.23
480.62	0.72
481.055	0.35
481.49	1.15
481.925	1.17
482.36	3.26
482.795	2.55
483.229	1.22
483.664	0.71
484.099	0.67
484.534	1.11
484.968	1.93
485.403	2.09
485.837	1.22
486.271	1.44
486.706	1.35
487.14	-0.18
487.574	0.26
488.009	0.26
488.443	-0.39
488.877	-0.02
489.311	-1.07
489.745	-0.76
490.179	-0.59
490.613	1.53
491.046	0.71
491.48	0.67
491.914	1
492.348	0.61
492.781	0.7
493.215	1.32
493.648	0.61
494.082	0.59
494.515	0.17
494.948	0.4
495.382	-1.03
495.815	-0.56
496.248	-0.28
496.681	-0.69
497.114	-0.89
497.547	-0.63
497.98	0.38
498.413	2.06
498.846	3.03
499.279	2.45
499.711	1.94
500.144	1.72
500.577	2.24
501.009	1.7
501.442	2.74
501.874	3.78
502.306	3.14
502.739	4.73
503.171	4.14
503.603	3.91
504.036	3.88
504.468	4.02
504.9	3.94
505.332	3.52
505.764	3.99
506.196	3.73
506.627	3.87
507.059	4.12
507.491	1.25
507.923	0.84
508.354	1.46
508.786	1.82
509.217	1.87
509.649	1.94
510.08	1.62
510.512	2.37
510.943	2.56
511.374	2.42
511.805	1.79
512.237	1.68
512.668	0.98
513.099	-0.47
513.53	-0.67
513.961	-0.45
514.391	-0.65
514.822	0.82
515.253	0.4
515.684	-0.4
516.114	-1.03
516.545	0.28
516.975	0.44
517.406	0.83
517.836	1.09
518.267	2.04
518.697	2.68
519.127	2.89
519.558	1.89
519.988	0.75
520.418	0.43
520.848	-0.39
521.278	-1.09
521.708	30.11
522.138	31.18
522.567	30.93
522.997	30.39
523.427	29.89
523.857	30.07
524.286	29.76
524.716	30.53
525.145	31.46
525.575	32.9
526.004	32.84
526.433	2.13
526.863	0.71
527.292	2.06
527.721	2.42
528.15	2.04
528.579	2.36
529.008	2.69
529.437	1.81
529.866	0.93
530.295	0.14
530.724	1.09
531.152	1.31
531.581	2.44
532.01	1.86
532.438	1.28
532.867	0.8
533.295	0.7
533.723	0.65
534.152	1.16
534.58	1.88
535.008	2.1
535.436	2.61
535.865	2.16
536.293	0.79
536.721	0.58
537.149	0.95
537.576	2.03
538.004	2.25
538.432	1.26
538.86	1.97
539.287	1.26
539.715	1.29
540.143	-0.1
540.57	0.46
540.998	1.23
541.425	2.76
541.852	2.78
542.28	2.59
542.707	2.28
543.134	3.09
543.561	3.03
543.988	3.45
544.415	3
544.842	3.08
545.269	2.65
545.696	3.07
546.123	2.64
546.549	2.66
546.976	2.6
547.403	2.62
547.829	2.15
548.256	1.86
548.682	1.73
549.108	2.52
549.535	2.29
549.961	2.16
550.387	1.57
550.813	2.44
551.24	2.71
551.666	1.96
552.092	1.88
552.518	1.77
552.943	2.02
553.369	1.95
553.795	2.24
554.221	2.6
554.646	2.54
555.072	3.44
555.498	1.15
555.923	0.47
556.349	1.11
556.774	0.93
557.199	0.78
557.625	-0.08
558.05	0.1
558.475	-0.85
558.9	-0.5
559.325	0.39
559.75	0.45
560.175	0.6
560.6	0.34
561.025	-0.92
561.449	-1.24
561.874	-1.65
562.299	-0.71
562.723	-0.9
563.148	-0.95
563.572	-1.73
563.997	-2.12
564.421	-3.69
564.846	-3.91
565.27	-3.69
565.694	-2.8
566.118	-2.88
566.542	-1.54
566.966	-1.68
567.39	-1.16
567.814	-0.43
568.238	0.29
568.662	-0.84
569.086	-0.53
569.509	-0.82
569.933	0.72
570.357	0.64
570.78	1.34
571.204	2.15
571.627	1.85
572.05	1.21
572.474	2.07
572.897	2.06
573.32	3.54
573.743	3.79
574.166	4.99
574.589	3.25
575.012	3.19
575.435	2.35
575.858	1.88
576.281	1.74
576.704	1.06
577.126	0.41
577.549	-0.1
577.972	-1.24
578.394	-0.99
578.817	0.57
579.239	1.13
579.661	1.96
580.084	3.62
580.506	3.79
580.928	3.19
581.35	4.22
581.772	3.95
582.194	3.65
582.616	3.47
583.038	2.19
583.46	-0.13
583.882	-0.29
584.303	-1.64
584.725	-2.44
585.147	1.29
585.568	2.2
585.99	2.86
586.411	3.05
586.833	3.88
587.254	4.6
587.675	5.08
588.096	5.69
588.518	6.13
588.939	6.62
589.36	6.65
589.781	1.38
590.202	4.23
590.623	3.73
591.043	2.24
591.464	2.14
591.885	2.2
592.305	2.56
592.726	2.04
593.147	1.95
593.567	2.68
593.987	2.19
594.408	1.8
594.828	-1.52
595.248	-0.66
595.669	1.04
596.089	1
596.509	0.34
596.929	-0.01
597.349	0.68
597.769	0.05
598.189	-0.93
598.608	-0.64
599.028	-0.21
599.448	-0.57
599.867	-1.38
600.287	-2.19
600.706	-1.83
601.126	-0.93
601.545	0.32
601.965	0.24
602.384	0.64
602.803	1
603.222	1.13
603.641	0.7
604.061	1.6
604.48	1.14
604.898	1.11
605.317	0.37
605.736	-0.24
606.155	-0.34
606.574	-0.49
606.992	-0.99
607.411	-0.84
607.829	-1.96
608.248	-1.77
608.666	-2.19
609.085	-2.05
609.503	-2.17
609.921	-1.32
610.339	-0.86
610.758	-1.59
611.176	-1.62
611.594	-1.11
612.012	-1.54
612.43	0.06
612.847	-0.1
613.265	0.7
613.683	1.17
614.101	1.51
614.518	0.57
614.936	0.57
615.353	1.1
615.771	1.45
616.188	1.89
616.606	2.11
617.023	2.17
617.44	2.57
617.857	1.66
618.274	1.27
618.691	1.78
619.108	1.85
619.525	1.47
619.942	1.77
620.359	1.88
620.776	1.68
621.192	2.16
621.609	2.2
622.026	1.93
622.442	1.83
622.859	1.32
623.275	0.55
623.691	1.21
624.108	2
624.524	1.84
624.94	1.32
625.356	0.52
625.772	-0.11
626.188	-1.01
626.604	-0.3
627.02	0.11
627.436	1.3
627.852	2.58
628.268	2.83
628.683	2.04
629.099	1.66
629.514	1.39
629.93	1.97
630.345	1.83
630.761	1.32
631.176	0.82
631.591	2.22
632.007	2.38
632.422	0.74
632.837	-0.14
633.252	1.29
633.667	1.24
634.082	1.71
634.497	2.56
634.911	4.58
635.326	4.99
635.741	5.55
636.155	4.55
636.57	4.54
636.984	5.54
637.399	6.89
637.813	5.46
638.228	4.69
638.642	4.06
639.056	3.25
639.47	1.81
639.884	1.86
640.298	1.18
640.712	2.02
641.126	1.9
641.54	1.19
641.954	-1.48
642.368	-1.18
642.781	1.89
643.195	2.71
643.609	3.46
644.022	2.91
644.436	1.96
644.849	1.68
645.262	-0.07
645.676	-1.35
646.089	-1.27
646.502	0.9
646.915	-0.28
647.328	-2.1
647.741	-1.77
648.154	-2.25
648.567	0.23
648.98	1.86
649.393	2.69
649.805	2.71
650.218	2.49
650.631	3.18
651.043	2.75
651.456	4.14
651.868	4.15
652.28	3.03
652.693	1.93
653.105	0.21
653.517	-0.78
653.929	-1.56
654.341	-0.59
654.753	0.84
655.165	0.15
655.577	0.6
655.989	-0.03
656.401	-1.36
656.813	0.54
657.224	1.23
657.636	0.6
658.047	2.21
658.459	2.31
658.87	0.83
659.282	0.3
659.693	1.03
660.104	0.23
660.515	0.3
660.926	0.07
661.338	-1.17
661.749	-2.14
662.159	-0.8
662.57	-1.87
662.981	-1.76
663.392	-0.79
663.803	-1.04
664.213	-1.45
664.624	-1.35
665.035	-1.77
665.445	-1.6
665.855	-0.93
666.266	0.51
666.676	-0.23
667.086	-1.23
667.497	-0.79
667.907	-0.89
668.317	-0.89
668.727	2.18
669.137	1.19
669.547	0.88
669.956	0.79
670.366	0.02
670.776	0.17
671.186	-0.04
671.595	0.39
672.005	-0.62
672.414	0.27
672.824	1.71
673.233	-2.29
673.642	-1.47
674.052	-0.66
674.461	0.63
674.87	0.26
675.279	1.21
675.688	0.94
676.097	2.38
676.506	2.69
676.915	1.63
677.323	1.06
677.732	1.07
678.141	0
678.549	-0.12
678.958	-1.41
679.366	-1.81
679.775	-3.68
680.183	-2.33
680.592	-3.73
681	-3.24
681.408	-3.11
681.816	-3.14
682.224	-2.99
682.632	-0.46
683.04	-1.32
683.448	-2.04
683.856	-0.74
684.264	0.6
684.671	-0.88
685.079	-1.11
685.487	-1.89
685.894	-2.25
686.302	-4.08
686.709	-3.44
687.116	-3.85
687.524	-1.17
687.931	1.43
688.338	1.18
688.745	-1.28
689.152	-0.72
689.559	0.33
689.966	1.54
690.373	2.43
690.78	3.97
691.187	4.55
691.593	4.61
692	2.65
692.407	2.56
692.813	5.12
693.22	6.8
693.626	5.75
694.032	6.35
694.439	6.86
694.845	6.32
695.251	5.34
695.657	4.7
696.063	3.18
696.469	3.56
696.875	2.76
697.281	0.21
697.687	-0.41
698.093	0.06
698.498	-0.79
698.904	-2.48
699.31	-2.75
699.715	-0.09
700.12	-0.22
700.526	0.99
700.931	0.43
701.337	0.68
701.742	1.74
702.147	1.23
702.552	1.88
702.957	1.84
703.362	2.78
703.767	2.5
704.172	0.07
704.577	0.71
704.981	-1.03
705.386	-0.19
705.791	0.74
706.195	-0.63
706.6	-0.59
707.004	-2.58
707.408	-3.49
707.813	-2.59
708.217	-1.9
708.621	-1.67
709.025	-2.44
709.43	-0.44
709.834	-0.2
710.237	-1.74
710.641	-1.76
711.045	-0.58
711.449	1.54
711.853	5.72
712.256	4.22
712.66	4.15
713.064	5.24
713.467	6.48
713.87	6.12
714.274	6.19
714.677	7.25
715.08	8.68
715.484	8.74
715.887	10.97
716.29	7.1
716.693	8.67
717.096	9.1
717.499	8.02
717.901	5.97
718.304	5.13
718.707	4.46
719.109	4.48
719.512	2.4
719.915	5.28
720.317	3.17
720.719	2.75
721.122	1.92
721.524	2.03
721.926	7.13
722.328	8.26
722.731	6.59
723.133	6.2
723.535	4.9
723.937	6.36
724.338	4.94
724.74	5.51
725.142	56.33
725.544	59.82
725.945	72.34
726.347	68.1
726.748	67.97
727.15	70.76
727.551	74.13
727.952	74.26
728.354	73.42
728.755	72.47
729.156	71.17
729.557	22.3
729.958	18.41
730.359	6.45
730.76	5.48
731.161	5.07
731.562	3.8
731.962	0.98
732.363	1.24
732.763	1.88
733.164	0.44
733.564	1.12
733.965	2.67
734.365	3.85
734.766	4.19
735.166	4.37
735.566	6.27
735.966	6.87
736.366	7.21
736.766	7.53
737.166	5.62
737.566	6.92
737.966	7
738.365	6.22
738.765	6.82
739.165	6.72
739.564	6.69
739.964	4.8
740.363	4.09
740.763	2.69
741.162	3.42
741.561	4.25
741.96	3.15
742.36	0.99
742.759	0.62
743.158	-1.3
743.557	-1.62
743.955	-2.19
744.354	-2.86
744.753	-3.6
745.152	-2.1
745.55	-3.36
745.949	-3.88
746.348	-3.13
746.746	-4.05
747.144	-2.15
747.543	-2.16
747.941	-2.97
748.339	-1.64
748.737	-0.65
749.136	0.21
749.534	-1.97
749.932	0.66
750.33	1
750.727	0.29
751.125	2.94
751.523	2.28
751.921	5.76
752.318	6.16
752.716	7.66
753.113	7.5
753.511	7.7
753.908	9.57
754.305	12.1
754.703	11.45
755.1	12.74
755.497	12.96
755.894	12.15
756.291	9.44
756.688	10.22
757.085	6.86
757.482	7.68
757.878	10.54
758.275	12.47
758.672	4.44
759.068	4.71
759.465	1.88
759.861	-0.12
760.258	-2.53
760.654	-2.3
761.05	-1.51
761.447	-0.53
761.843	0.3
762.239	-1.85
762.635	-6.25
763.031	-6.43
763.427	-4.16
763.822	-3.73
764.218	-4.53
764.614	-3.01
765.01	-3.95
765.405	-4.29
765.801	-2.66
766.196	-4.37
766.592	-5.19
766.987	-3.57
767.382	-2.62
767.778	-3.44
768.173	-3.37
768.568	-2.08
768.963	-0.96
769.358	-1.46
769.753	-0.24
770.148	0.56
770.542	0.21
770.937	-0.62
771.332	-0.29
771.726	-0.6
772.121	3.71
772.515	4.64
772.91	4.7
773.304	4.06
773.699	5.08
774.093	3.2
774.487	2.18
774.881	3.88
775.275	5.84
775.669	5.5
776.063	4.81
776.457	3.41
776.851	3.83
777.245	3.7
777.638	3.45
778.032	1.6
778.425	4.56
778.819	8.78
779.212	11.12
779.606	12.99
779.999	12.77
780.392	14.29
780.786	11.33
781.179	11.11
781.572	12.5
781.965	12.33
782.358	13.75
782.751	11.43
783.143	8.08
783.536	6.26
783.929	3.28
784.322	3.93
784.714	2.83
785.107	3.93
785.499	4.74
785.891	4.98
786.284	5.59
786.676	4.86
787.068	7.12
787.46	7.21
787.852	6.19
788.245	6.32
788.636	3.95
789.028	6.47
789.42	9.04
789.812	9.47
790.204	7.48
790.595	9.28
790.987	11.46
791.378	10.12
791.77	8.04
792.161	7.21
792.553	8.01
792.944	9.64
793.335	7.48
793.726	6
794.117	6.76
794.508	4.53
794.899	0.87
795.29	-1.3
795.681	-2.38
796.072	-1.54
796.463	19.56
796.853	22.68
797.244	24.97
797.634	24.68
798.025	23.16
798.415	21.67
798.806	25.03
799.196	27.6
799.586	31.12
799.976	34.64
800.366	34.14
800.756	11.15
801.146	8.44
801.536	6.95
801.926	5.42
802.316	8.03
802.706	8.25
803.095	8.5
803.485	8.39
803.874	4.99
804.264	1.28
804.653	3.94
805.043	7.01
805.432	8.97
805.821	11.17
806.21	14.74
806.599	13.87
806.988	14
807.377	8.76
807.766	6.61
808.155	6.71
808.544	6
808.933	4.2
809.321	6.05
809.71	0.18
810.098	-2.52
810.487	-8.77
810.875	-13.45
811.264	-15.7
811.652	-1.58
812.04	-0.17
812.428	2.01
812.816	-0.17
813.204	1.51
813.592	-5.19
813.98	-3.7
814.368	0.72
814.756	4.97
815.144	9.34
815.531	14.66
815.919	2.58
816.306	1.68
816.694	-0.22
817.081	4.63
817.469	5.51
817.856	4.1
818.243	4.59
818.63	-3.4
819.017	-1.84
819.404	-2.35
819.791	-6.2
820.178	-11.84
820.565	-7.79
820.952	1.23
821.339	0.68
821.725	-0.92
822.112	3.27
822.498	4.87
822.885	6.37
823.271	4.43
823.657	-0.19
824.044	1.1
824.43	3.76
824.816	12.88
825.202	9.03
825.588	8.37
825.974	10.7
826.36	11.14
826.746	8.96
827.132	5.8
827.517	12.93
827.903	17.57
828.289	21.75
828.674	24.24
829.06	15.28
829.445	11.09
829.83	6.58
830.216	4.75
830.601	8.16
830.986	16.87
831.371	21.42
831.756	20.2
832.141	27.34
832.526	24.95
832.911	26.1
833.295	26.98
833.68	24.76
834.065	29.2
834.449	27.86
834.834	26.44
835.218	25.31
835.603	24.24
835.987	18.27
836.371	12.34
836.755	14.73
837.139	10.96
837.524	5.02
837.908	6.24
838.291	9.57
838.675	10.03
839.059	8.47
839.443	1.46
839.827	-0.9
840.21	0.2
840.594	1.03
840.977	0.11
841.361	0.84
841.744	1.32
842.127	3.12
842.511	0.08
842.894	-1.51
843.277	-0.7
843.66	-1.96
844.043	4.28
844.426	9.98
844.809	4.58
845.191	3.35
845.574	5.19
845.957	7.07
846.339	7.78
846.722	10.53
847.104	9.33
847.487	5.45
847.869	9.56
848.252	9.63
848.634	9.11
849.016	7.96
849.398	3.24
849.78	-1.01
850.162	1.04
850.544	0.83
850.926	-6.26
851.307	-5.95
851.689	-1.26
852.071	-5.75
852.452	-7.87
852.834	-9.28
853.215	-1.33
853.597	-2.73
853.978	4.1
854.359	4.57
854.741	6.1
855.122	7.06
855.503	3.99
855.884	0.98
856.265	3.6
856.646	-4.21
857.026	-2.62
857.407	-1.43
857.788	-0.48
858.169	-8.33
858.549	-1.18
858.93	-2.25
859.31	2.26
859.69	10.44
860.071	12.41
860.451	12.15
860.831	15.23
861.211	6.32
861.591	-0.26
861.971	3.04
862.351	5.37
862.731	-3.59
863.111	-3.56
863.491	-3.25
863.87	-8.73
864.25	-11.77
864.629	-6.48
865.009	-7.1
865.388	3.04
865.768	-0.78
866.147	0.52
866.526	4.51
866.905	5.16
867.284	-3.34
867.663	-8.36
868.042	-10.99
868.421	-9.06
868.8	-14.77
869.179	-9.97
869.558	-16.19
869.936	-9.5
870.315	-13.09
870.693	-10.1
871.072	-14.82
871.45	-13.65
871.828	-8.71
872.207	-3.09
872.585	-2.57
872.963	-6.52
873.341	3.37
873.719	14.07
874.097	16.8
874.475	14.84
874.853	11.53
875.23	16.7
875.608	23.61
875.986	22.93
876.363	20.93
876.741	33.12
877.118	43.06
877.495	43.35
877.873	33.8
878.25	30.2
878.627	32.06
879.004	32.44
879.381	30.51
879.758	32.1
880.135	29.78
880.512	27.34
880.889	14.74
881.265	9.79
881.642	-3.37
882.019	-3.02
882.395	2.06
882.772	6.41
883.148	6.65
883.524	7.29
883.901	5.15
884.277	3.51
884.653	5.68
885.029	10.99
885.405	16.99
885.781	23.71
886.157	25.75
886.532	25.06
886.908	21.33
887.284	17.42
887.659	17.65
888.035	17.45
888.411	15.53
888.786	13.84
889.161	10.77
889.537	-0.3
889.912	-5.08
890.287	-5.53
890.662	-9.86
891.037	-11.77
891.412	-9.66
891.787	-12.55
892.162	-6.63
892.536	-3.88
892.911	2.17
893.286	-4.39
893.66	1.94
894.035	6.16
894.409	-0.19
894.784	3.03
895.158	3.92
895.532	5.96
895.906	14.92
896.281	13.66
896.655	17.06
897.029	7.89
897.402	13.34
897.776	7.31
898.15	1.66
898.524	9.99
898.898	8.89
899.271	20.3
899.645	23.53
900.018	12.09
900.392	12.76
900.765	0.83
901.138	7.99
901.511	3.91
901.884	20.85
902.258	26.44
902.631	26.44
903.003	22.56
903.376	8.63
903.749	4.39
904.122	-3.88
904.495	-15.84
904.867	-8.68
905.24	-1.26
905.612	3.13
905.985	-18.61
906.357	-29.48
906.729	-30.41
907.102	-20.2
907.474	-13.06
907.846	-10.75
908.218	-9.45
908.59	2.24
908.962	3.31
909.334	4.06
909.705	8.76
910.077	7.35
910.449	7.16
910.82	12.51
911.192	5.55
911.563	1.51
911.935	-12.3
912.306	-15.28
912.677	-23.31
913.048	-18.89
913.419	-33.48
913.79	-52.78
914.161	-50.62
914.532	-37.54
914.903	-43.37
915.274	-28.77
915.645	-18.34
916.015	-22.88
916.386	-14.1
916.756	-16.35
917.127	-28.02
917.497	-11.85
917.868	0.83
918.238	-0.92
918.608	-6.53
918.978	-3.58
919.348	-19.93
919.718	-17.2
920.088	6.37
920.458	18.99
920.828	7.54
921.198	13.77
921.567	6.09
921.937	13.14
922.306	3.22
922.676	4.18
923.045	21.96
923.415	37.92
923.784	28.97
924.153	32.62
924.522	30.77
924.891	26.11
925.26	19.68
925.629	11.28
925.998	0.78
926.367	10.02
926.736	28.69
927.104	23.26
927.473	15.51
927.842	1.07
928.21	-24.95
928.578	-51.25
928.947	-31.33
929.315	-3.31
929.683	4.83
930.051	17.99
930.42	10.19
930.788	-3.38
931.156	-20.28
931.523	22.46
931.891	29.21
932.259	53.28
932.627	82.64
932.994	85.71
933.362	104.09
933.729	104.27
934.097	82.9
934.464	101.81
934.831	80.35
935.199	86.37
935.566	57.01
935.933	126.41
936.3	163.53
936.667	128.09
937.034	223.01
937.401	187.22
937.767	165.47
938.134	158.19
938.501	187.05
938.867	256.49
939.234	401.73
939.6	292.56
939.967	190.35
940.333	131.5
940.699	77.39
941.065	-33.1
941.431	-30.36
941.798	30.48
942.163	69.06
942.529	40.96
942.895	-2.52
943.261	16.48
943.627	42.13
943.992	55.48
944.358	35.37
944.723	89.09
945.089	90.55
945.454	72.14
945.82	44.09
946.185	20.77
946.55	33.13
946.915	32.16
947.28	18.61
947.645	22.27
948.01	37.65
948.375	58.76
948.74	44.7
949.104	56.07
949.469	39.71
949.834	36.87
950.198	185.27
950.562	130.13
950.927	123.62
951.291	155.8
951.655	100.07
952.02	33.11
952.384	31.16
952.748	53.74
953.112	87.21
953.476	95.15
953.839	87.48
954.203	90.25
954.567	93.5
954.931	105.44
955.294	103.63
955.658	122.51
956.021	201.13
956.385	238.62
956.748	255.79
957.111	70.76
957.474	-27.52
957.837	-106.45
958.2	-353.48
958.563	-52.99
958.926	6.53
959.289	-3.89
959.652	-2.09
960.015	22.72
960.377	104.73
960.74	114.07
961.102	21.45
961.465	192.6
961.827	536.69
962.189	1036.14
962.552	689.19
962.914	572.34
963.276	373.92
963.638	281.65
964	247.35
964.362	155.95
964.724	122.71
965.085	105.73
965.447	86.32
965.809	6.6
966.17	-20.75
966.532	-42.48
966.893	-32.14
967.255	-34.63
967.616	-62.66
967.977	-31.48
968.338	-52.14
968.699	-26.11
969.061	-30.8
969.421	-30.15
969.782	-47.35
970.143	-0.37
970.504	39.21
970.865	40.57
971.225	78.74
971.586	96.88
971.946	102.83
972.307	108.06
972.667	103.7
973.027	122
973.388	100.98
973.748	89.61
974.108	90.37
974.468	18.37
974.828	86.82
975.188	29.58
975.548	33.06
975.907	56.21
976.267	59.53
976.627	86.96
976.986	85.79
977.346	70.2
977.705	68.89
978.064	49.64
978.424	48.98
978.783	7.99
979.142	6.83
979.501	12.12
979.86	4.41
980.219	-3.26
980.578	-46.07
980.937	-61.63
981.296	-32.39
981.654	-29.25
982.013	-77.3
982.371	-106.77
982.73	-82.35
983.088	-81.83
983.447	-74.68
983.805	-35.2
984.163	-68.49
984.521	-32.17
984.879	-249.91
985.237	166.37
985.595	35.41
985.953	-31.33
986.311	-11.24
986.669	15.5
987.026	-17.3
987.384	-98.94
987.741	-192.62
988.099	-80.28
988.456	-47.23
988.814	-4.86
989.171	7.14
989.528	-41.66
989.885	-43.87
990.242	-29.93
990.599	-64.14
990.956	-40.1
991.313	-18.09
991.67	-2.23
992.027	33.09
992.383	28.84
992.74	32.63
993.096	32.48
993.453	39.42
993.809	41.74
994.165	49.69
994.522	99.54
994.878	109.94
995.234	149.48
995.59	154.05
995.946	73.35
996.302	77.97
996.658	60.72
997.013	49.52
997.369	99.27
997.725	165.01
998.08	109.13
998.436	-2.79
998.791	0.47
999.147	-8.69
999.502	-15.6
999.857	-20.89
1000.212	-71.09
1000.567	-119.58
1000.922	-93.34
1001.277	-66.66
1001.632	-77.01
1001.987	-107.49
1002.342	-80.91
1002.696	-70.58
1003.051	-30.69
1003.406	-66.83
1003.76	-91.03
1004.114	-91.35
1004.469	-63.04
1004.823	-34.03
1005.177	-52.32
1005.531	-31.67
1005.885	-2.94
1006.239	10.7
1006.593	31.52
1006.947	0.84
1007.301	8.89
1007.655	35.06
1008.008	49.9
1008.362	58.98
1008.715	69.71
1009.069	69.76
1009.422	162.59
1009.776	209.93
1010.129	124.62
1010.482	64.85
1010.835	32.51
1011.188	51.39
1011.541	-35.08
1011.894	717.95
1012.247	-2644.92
1012.6	-201.26
1012.952	-83.94
1013.305	-96.42
1013.657	-28.85
1014.01	-31.69
1014.362	-34.78
1014.715	34.5
1015.067	57.99
1015.419	60.75
1015.771	68.42
1016.123	71.44
1016.475	84.22
1016.827	76.14
1017.179	92.9
1017.531	69.59
1017.883	59.31
1018.234	111.54
1018.586	100.27
1018.938	139.45
1019.289	200.2
1019.64	169.74
1019.992	162.45
1020.343	99.23
1020.694	128.79
1021.045	120.31
1021.396	116.92
1021.747	155.34
1022.098	102.21
1022.449	86.63
1022.8	66.48
1023.151	69.08
1023.501	86.5
1023.852	78.25
1024.202	115.97
1024.553	92.29
1024.903	112.69
1025.253	140.09
1025.604	124.71
1025.954	137.52
1026.304	131.91
1026.654	121.56
1027.004	128.83
1027.354	114.25
1027.703	255.05
1028.053	160.32
1028.403	565.96
1028.753	539.68
1029.102	408.36
1029.452	2618.35
1029.801	189.72
1030.15	161.86
1030.499	126.86
897.758	1771.91
901.051	1708.59
904.343	1738.66
907.636	1743.2
910.928	1795.12
914.22	1730.52
917.511	1734.43
920.803	1770.17
924.094	1761.6
927.384	1769.68
930.675	1740.19
933.965	1713.24
937.255	1743.88
940.544	1721.06
943.834	1710.54
947.123	1662.27
950.411	1733.85
953.7	1718.59
956.988	1709.87
960.276	1650.97
963.563	1681.78
966.851	1691.84
970.138	1722.2
973.424	1721.65
976.711	1681.08
979.997	1725.71
983.283	1757.46
986.568	1704.94
989.853	1690.39
993.138	1709.46
996.423	1782.49
999.708	1754.44
1002.992	1774.22
1006.275	1698.79
1009.559	1700.41
1012.842	1775.74
1016.125	1739.96
1019.408	1721.27
1022.69	1762.03
1025.972	1789.11
1029.254	1769.84
1032.536	1744.83
1035.817	1746.11
1039.098	1722.54
1042.379	1761.34
1045.659	1783.22
1048.939	1740.41
1052.219	1738.8
1055.498	1731.08
1058.778	1724.41
1062.057	1704.5
1065.335	1724.91
1068.614	1730.47
1071.892	1727.69
1075.17	1767.44
1078.447	1772.3
1081.724	1767.32
1085.001	1783.7
1088.278	1767.35
1091.554	1766.01
1094.83	1764.41
1098.106	1791.46
1101.382	1812
1104.657	1810.38
1107.932	1809.85
1111.206	1793.99
1114.481	1750.05
1117.755	1752.04
1121.029	1750.49
1124.302	1797.3
1127.575	1777.14
1130.848	1775.35
1134.121	1753.52
1137.393	1722.19
1140.665	1766.73
1143.937	1750.36
1147.208	1705.74
1150.48	1757.72
1153.75	1746.13
1157.021	1741.37
1160.291	1724.36
1163.561	1765.96
1166.831	1734.15
1170.101	1754.32
1173.37	1718.34
1176.639	1688.41
1179.907	1722.87
1183.176	1740.41
1186.444	1743.11
1189.711	1760.47
1192.979	1781.82
1196.246	1746.62
1199.513	1757.79
1202.78	1762.12
1206.046	1768.34
1209.312	1794.57
1212.578	1803.04
1215.843	1778.18
1219.108	1755.26
1222.373	1773.67
1225.638	1755.42
1228.902	1749.9
1232.166	1717.07
1235.43	1708.48
1238.693	1735.11
1241.956	1727.6
1245.219	1769.87
1248.482	1755.27
1251.744	1754.93
1255.006	1847.4
1258.268	1802.24
1261.529	1771.62
1264.79	1772.21
1268.051	1843.96
1271.312	1850.81
1274.572	1825.71
1277.832	1814.73
1281.092	1795.35
1284.351	1792.49
1287.61	1780.66
1290.869	1732.42
1294.128	1733.92
1297.386	1760.6
1300.644	1753.01
1303.902	1763.81
1307.159	1659.78
1310.416	1697.2
1313.673	1720.34
1316.93	1725.03
1320.186	1746.02
1323.442	1770.14
1326.697	1773.07
1329.953	1750.5
1333.208	1783.54
1336.463	1763.95
1339.717	1738.9
1342.972	1822.06
1346.226	1801.23
1349.479	1768.09
1352.733	1751.62
1355.986	1756.24
1359.238	1743.06
1362.491	1749.2
1365.743	1749.51
1368.995	1744.34
1372.247	1757.44
1375.498	1772.91
1378.749	1812.19
1382	1774.57
1385.251	1797.59
1388.501	1761.12
1391.751	1765.82
1395	1741.89
1398.25	1762.21
1401.499	1789.06
1404.748	1754.1
1407.996	1735.13
1411.244	1729.43
1414.492	1718.98
1417.74	1710.18
1420.987	1715.95
1424.234	1765.7
1427.481	1729.96
1430.728	1774.93
1433.974	1757.36
1437.22	1751.33
1440.465	1745.05
1443.711	1754.54
1446.956	1769.25
1450.201	1740.69
1453.445	1774.95
1456.689	1764.9
1459.933	1772.63
1463.177	1808.77
1466.42	1789.05
1469.663	1771.52
1472.906	1786.45
1476.148	1823.89
1479.391	1786.55
1482.633	1768.88
1485.874	1794.38
1489.115	1798.66
1492.356	1783.01
1495.597	1765.07
1498.838	1751.1
1502.078	1740.71
1505.318	1724.2
1508.557	1746.18
1511.797	1744.19
1515.036	1786.9
1518.274	1755.49
1521.513	1707.83
1524.751	1715.52
1527.989	1733.24
1531.227	1747.66
1534.464	1761.6
1537.701	1749.31
1540.938	1754.98
1544.174	1712.93
1547.41	1700.03
1550.646	1729.36
1553.882	1767.46
1557.117	1814.78
1560.352	1818.23
1563.587	1787.56
1566.821	1762.89
1570.055	1770.66
1573.289	1755.3
1576.523	1796.15
1579.756	1809.02
1582.989	1826.25
1586.222	1790.11
1589.454	1815.83
1592.686	1803.47
1595.918	1823.88
1599.15	1821.88
1602.381	1852.71
1605.612	1844.68
1608.843	1916.17
1612.073	1855.96
1615.303	1846.48
1618.533	1843.45
1621.762	1844.56
1624.992	1818.81
1628.221	1822.01
1631.449	1813.51
1634.678	1829.59
1637.906	1803.83
1641.134	1820.89
1644.361	1793.77
1647.588	1788.75
1650.815	1807.89
1654.042	1776.8
1657.269	1796.96
1660.495	1786.59
1663.72	1769.03
1666.946	1743.53
1670.171	1731.82
1673.396	1709.41
1676.621	1694.38
1679.845	1687.35
1683.069	1686.77
1686.293	1707.34
1689.517	1706
1692.74	1673.32
1695.963	1688.22
1699.185	1723.16
1702.408	1707.14
1705.63	1724.86
1708.852	1740.51
1712.073	1717.1
1715.294	1735.46
1718.515	1770.1
1721.736	1738.73
1724.956	1720.39
1728.176	1738.56
1731.396	1754.82
1734.616	1747.65
1737.835	1779.14
1741.054	1753.8
1744.272	1748.19
1747.491	1785.48
1750.709	1796.94
1753.927	1766.17
1757.144	1785.48
1760.361	1833.37
1763.578	1806.61
1766.795	1769.69
1770.011	1757.1
1773.227	1772.85
1776.443	1809.78
1779.658	1845.54
1782.874	1796.45
1786.089	1794.05
1789.303	1795.69
1792.518	1791.33
1795.732	1783.42
1798.945	1799.77
1802.159	1833.65
1805.372	1794.31
1808.585	1791.26
1811.797	1791.35
1815.01	1806.78
1818.222	1832.76
1821.434	1796.05
1824.645	1827.08
1827.856	1842.09
1831.067	1862.73
1834.278	1812.38
1837.488	1799.09
1840.698	1892.51
1843.908	1853.53
1847.117	1831.58
1850.326	1778.54
1853.535	1820.55
1856.744	1856.28
1859.952	1797.2
1863.16	1798.54
1866.368	1815.99
1869.575	1910.19
1872.782	1817.63
1875.989	1768.85
1879.196	1803.22
1882.402	1799.8
1885.608	1827.85
1888.814	1788.28
1892.019	1719.03
1895.224	1764.88
1898.429	1735.29
1901.634	1722.48
1904.838	1705.34
1908.042	1755.84
1911.246	1769.34
1914.449	1746.63
1917.652	1726.3
1920.855	1712.22
1924.058	1728.13
1927.26	1768.88
1930.462	1784.07
1933.664	1820.7
1936.865	1775.98
1940.066	1788.16
1943.267	1741.4
1946.467	1749.81
1949.668	1761.52
1952.868	1821.97
1956.067	1815.91
1959.267	1768.52
1962.466	1787.16
1965.665	1770.2
1968.863	1766.91
1972.061	1766.83
1975.259	1761.5
1978.457	1822.59
1981.654	1788.11
1984.852	1790.85
1988.048	1757.84
1991.245	1742.88
1994.441	1818.74
1997.637	1773.11
2000.833	1760.61
2004.028	1787.28
2007.223	1838.63
2010.418	1829.9
2013.613	1787.62
2016.807	1787.4
2020.001	1779.54
2023.194	1795.3
2026.388	1783.85
2029.581	1736.24
2032.774	1794.74
2035.966	1801.97
2039.158	1760.59
2042.35	1775.36
2045.542	1715.63
2048.733	1779.56
2051.924	1765.45
2055.115	1777.13
2058.306	1751.4
2061.496	1794.06
2064.686	1832.46
2067.875	1751.97
2071.065	1751.58
2074.254	1764.95
2077.442	1727.86
2080.631	1792.91
2083.819	1746.77
2087.007	1742.01
2090.195	1732.17
2093.382	1738.48
2096.569	1730.4
2099.756	1700.44
2102.942	1748.08
2106.128	1759.55
2109.314	1750.34
2112.5	1743.67
2115.685	1715.42
2118.87	1721.27
2122.055	1773
2125.239	1757.48
2128.424	1752.96
2131.608	1789.72
2134.791	1773.01
2137.974	1799.83
2141.157	1793.77
2144.34	1773.71
2147.523	1758.31
2150.705	1785.61
2153.887	1753.88
2157.068	1736.61
2160.25	1714.4
2163.431	1730.34
2166.611	1710.85
2169.792	1734.26
2172.972	1661.78
2176.152	1700.25
2179.331	1719.73
2182.511	1728.64
2185.69	1742.96
2188.868	1750.91
2192.047	1774.72
2195.225	1799.16
2198.403	1752.03
2201.58	1740.24
2204.758	1723.06
2207.935	1785.73
2211.111	1719.78
2214.288	1711.21
2217.464	1737.6
2220.64	1697.98
2223.815	1737.77
2226.991	1681.03
2230.166	1692.21
2233.34	1734.33
2236.515	1741.46
2239.689	1796.47
2242.863	1754.99
2246.036	1799.65
2249.209	1782.74
2252.382	1795.88
2255.555	1808.51
2258.727	1770.9
2261.9	1793.98
2265.071	1788.36
2268.243	1786.12
2271.414	1748.17
2274.585	1738.4
2277.756	1788.57
2280.926	1754.92
2284.096	1773.93
2287.266	1721.33
2290.436	1759.71
2293.605	1772.57
2296.774	1809.14
2299.942	1808.59
2303.111	1819.67
2306.279	1864.89
2309.447	1852.54
2312.614	1830.34
2315.781	1847.08
2318.948	1832.3
2322.115	1862.79
2325.281	1776.07
2328.447	1780.39
2331.613	1753.3
2334.779	1752.34
2337.944	1746.99
2341.109	1750.37
2344.274	1741.84
2347.438	1714.04
2350.602	1733.97
2353.766	1738.81
2356.929	1732.63
2360.092	1762.25
2363.255	1741.36
2366.418	1722.35
2369.58	1757.94
2372.742	1707.58
2375.904	1688.1
2379.066	1680.7
2382.227	1698.82
2385.388	1666.05
2388.548	1632.87
2391.709	1660.17
2394.869	1660.56
2398.029	1695.39
2401.188	1682.11
2404.347	1666.31
2407.506	1686.4
2410.665	1732.43
2413.823	1712.84
2416.981	1701.24
2420.139	1710.72
2423.296	1742.9
2426.453	1721.75
2429.61	1736.02
2432.767	1721.61
2435.923	1759.43
2439.079	1707.33
2442.235	1732.8
2445.391	1684.83
2448.546	1724.18
2451.701	1748.73
2454.855	1751.94
2458.009	1768.34
2461.163	1755.99
2464.317	1734.21
2467.471	1754.41
2470.624	1775.75
2473.777	1775.6
2476.929	1789.45
2480.082	1807.76
2483.234	1790.34
2486.385	1740.85
2489.537	1734.32
2492.688	1734.31
2495.839	1748.2
2498.989	1760.57
2502.14	1749.38
2505.29	1746.34
2508.439	1764.49
2511.589	1720.68
2514.738	1716.8
2517.887	1733.38
2521.035	1796.86
2524.183	1758.21
2527.331	1750.8
2530.479	1750.55
2533.627	1752.18
