Data from N_1_HIR_WI_4N_Splice17_11-39-26-963.txt Node
Date: Sat Mar 14 11:39:26 EDT 2020
User: sa697716
Spectrometer: FLMS03696
Trigger mode: 0
Integration Time (sec): 3.180400E-1
Scans to average: 20
Electric dark correction enabled: true
Nonlinearity correction enabled: true
Boxcar width: 5
XAxis mode: Wavelengths
Number of Pixels in Spectrum: 2048
>>>>>Begin Spectral Data<<<<<
187.83	-139441.99
188.298	1146.29
188.766	655.74
189.233	557.91
189.701	740.7
190.169	1000.66
190.636	406.33
191.104	307.39
191.571	43.3
192.039	-61.39
192.506	-54.42
192.974	317.49
193.441	-474.97
193.908	-93.91
194.375	-12.6
194.842	11.06
195.31	35.23
195.777	107.44
196.244	176.63
196.711	104.77
197.177	75.3
197.644	30.02
198.111	7.5
198.578	-15.67
199.045	-34.12
199.511	-107.56
199.978	-182.55
200.445	-132.49
200.911	-154.29
201.378	-238.49
201.844	-178.93
202.31	-338.25
202.777	-324.99
203.243	-140.64
203.709	-140.33
204.176	-141.6
204.642	-88.27
205.108	-64.81
205.574	-45.25
206.04	-80.88
206.506	-73.87
206.972	-92.01
207.438	-91.58
207.903	-110.64
208.369	-79.98
208.835	-50.95
209.301	-59.31
209.766	-79.57
210.232	-79.69
210.697	-128.36
211.163	-132.82
211.628	-212.2
212.094	-143.65
212.559	-71.91
213.024	-33.72
213.49	-11.3
213.955	-41.29
214.42	-56.07
214.885	-55.79
215.35	-48.84
215.815	41.41
216.28	41.36
216.745	33.48
217.21	49.3
217.675	-4.14
218.14	5.28
218.604	-23.79
219.069	-18.64
219.534	20.06
219.998	0.57
220.463	-4.46
220.927	-86.64
221.392	-77
221.856	-58.8
222.32	-137.91
222.785	-108.7
223.249	-150.46
223.713	-160.21
224.177	-148.77
224.642	-268.69
225.106	-332.48
225.57	-362.09
226.034	-210.02
226.497	-335.13
226.961	-243.06
227.425	-177.4
227.889	-255.04
228.353	-226.58
228.816	-500.49
229.28	-434.12
229.744	-378.58
230.207	-114.25
230.671	-109.02
231.134	-309.57
231.597	-260.16
232.061	-339.39
232.524	-456.87
232.987	-290.02
233.45	-234.23
233.914	-215.67
234.377	-264.24
234.84	-207.93
235.303	-285.82
235.766	-295.33
236.229	-300.51
236.691	-214.37
237.154	-264.42
237.617	-162.23
238.08	-189.25
238.542	-271.69
239.005	-173.27
239.468	-149.55
239.93	-152.37
240.393	-134.4
240.855	-116.11
241.317	-132.06
241.78	-175.33
242.242	-159.13
242.704	-139.63
243.166	-101.53
243.629	-46.12
244.091	-57.63
244.553	-72.34
245.015	-61.31
245.477	-92.02
245.939	-168.34
246.4	-140.84
246.862	-117.4
247.324	-140.53
247.786	-222.73
248.247	-343.31
248.709	-520.85
249.17	-349.3
249.632	-259.9
250.093	-247.7
250.555	-208.65
251.016	-78.47
251.477	-65.42
251.939	-71.53
252.4	-71.16
252.861	-94.21
253.322	-62.98
253.783	-77.1
254.244	-157.97
254.705	-165.17
255.166	-188.59
255.627	-183.84
256.088	-275.67
256.549	-305.07
257.009	-269.77
257.47	-363.95
257.931	-308.19
258.391	-223.56
258.852	-216.91
259.312	-231.95
259.773	-294.91
260.233	-166.77
260.694	-104.69
261.154	-124.9
261.614	-44.67
262.074	-22.07
262.534	10.18
262.994	23.75
263.455	12.49
263.915	33.49
264.374	22.51
264.834	24.88
265.294	-19.62
265.754	-25.59
266.214	-24.39
266.673	-32.16
267.133	-75.24
267.593	-91.53
268.052	-88.55
268.512	-85.98
268.971	-70.88
269.431	-41.23
269.89	-47.73
270.349	-48.62
270.809	-88.32
271.268	-72.8
271.727	-315.94
272.186	-161.33
272.645	-121.7
273.104	-164.93
273.563	-224.39
274.022	-243.56
274.481	-184.83
274.94	-124.2
275.399	-108.17
275.857	-140.32
276.316	-224.87
276.775	-214.65
277.233	-196.37
277.692	-156.94
278.15	-146.89
278.609	-118.89
279.067	-104.47
279.525	-67.59
279.984	-99
280.442	-111.63
280.9	-40.48
281.358	-23.96
281.816	-9.72
282.274	-46.83
282.732	-97.91
283.19	-113.46
283.648	-113.9
284.106	-160.55
284.564	-193.15
285.021	-160.98
285.479	-125.39
285.937	-134.98
286.394	-113.76
286.852	-115.94
287.309	-112.72
287.767	-73.66
288.224	-54.28
288.682	-86.81
289.139	-63.1
289.596	-60.12
290.053	-86.81
290.511	-152.06
290.968	-161.36
291.425	-238.46
291.882	-148.67
292.339	-114.14
292.796	-140.13
293.252	-130.34
293.709	-44.08
294.166	-43.22
294.623	-60.57
295.079	-56.91
295.536	-17.5
295.992	-18.11
296.449	-5.75
296.905	-28.08
297.362	-4.9
297.818	-10.27
298.274	-4.39
298.731	-28.78
299.187	-38.45
299.643	-38.67
300.099	-37.11
300.555	-55.08
301.011	-58.64
301.467	6.36
301.923	-22.33
302.379	-27.94
302.835	-18.1
303.291	-11.23
303.746	-15.77
304.202	-37.02
304.658	-35.06
305.113	-9.02
305.569	1.07
306.024	-7.83
306.479	-89.52
306.935	-29.57
307.39	-75.75
307.845	-77.35
308.301	-77.86
308.756	-94.46
309.211	-57.15
309.666	-65.77
310.121	-67.7
310.576	-99.98
311.031	-122.4
311.486	-184.45
311.94	-241.67
312.395	-309.98
312.85	-648.18
313.305	-4215.24
313.759	-17366.57
314.214	-1294.66
314.668	-965.26
315.123	-848.38
315.577	-230.42
316.032	-189.29
316.486	-188.99
316.94	-107.6
317.394	-54.57
317.849	-46.1
318.303	-41.35
318.757	-39.33
319.211	-48.63
319.665	-43.98
320.119	-35.06
320.572	-87.89
321.026	-54.86
321.48	-46.85
321.934	-75.41
322.387	-95.8
322.841	-75.46
323.295	-22.59
323.748	-76.36
324.202	-75.69
324.655	-71.64
325.108	-45.01
325.562	3.91
326.015	-15.7
326.468	1.51
326.921	2.85
327.374	61.95
327.827	76.56
328.28	70.82
328.733	62.39
329.186	55.49
329.639	44.41
330.092	18.33
330.545	14.45
330.997	29.53
331.45	58.32
331.903	80.71
332.355	53.48
332.808	20.11
333.26	8.17
333.713	36.57
334.165	25.87
334.617	-22.94
335.069	-107.88
335.522	-298.46
335.974	-394.04
336.426	-424.63
336.878	-376.54
337.33	-178.32
337.782	-162.99
338.234	-177.79
338.686	-222.7
339.137	-294.3
339.589	-282.1
340.041	-169.42
340.493	-107.34
340.944	-101.37
341.396	-130.78
341.847	-56.74
342.299	4.32
342.75	27.74
343.201	-22.25
343.653	-74.62
344.104	-120.99
344.555	-69.72
345.006	-163.73
345.457	-64.81
345.908	-75.63
346.359	-35.29
346.81	-29.38
347.261	-79.78
347.712	-93.82
348.163	-103.53
348.613	-17.17
349.064	15.08
349.515	23.87
349.965	45.46
350.416	22.65
350.866	22.18
351.317	-57.8
351.767	-115.32
352.217	-167.99
352.668	-169.4
353.118	-142.39
353.568	-272.94
354.018	-194.1
354.468	-204.34
354.918	-140.19
355.368	-128.82
355.818	-210.75
356.268	-579.71
356.718	-2128.77
357.168	-558.49
357.617	-271.04
358.067	-301.86
358.517	-279.19
358.966	-325.92
359.416	-303.68
359.865	-402.63
360.315	-650.62
360.764	-240.07
361.213	-95.05
361.663	-120.42
362.112	-161.3
362.561	-292.39
363.01	-214.87
363.459	-194.35
363.908	-234.01
364.357	-159.86
364.806	-298.67
365.255	-177.53
365.703	-118.9
366.152	-139.54
366.601	-117.74
367.05	-67.9
367.498	-46.25
367.947	-69.27
368.395	-68.77
368.844	-27.56
369.292	-103.69
369.74	-45.45
370.189	-92.03
370.637	-153.13
371.085	-109.45
371.533	-133.16
371.981	-160.91
372.429	-124.64
372.877	-113.07
373.325	-85.88
373.773	-131.43
374.221	-106.87
374.669	-156.4
375.116	-128.28
375.564	-129.4
376.012	-169.14
376.459	-121.43
376.907	-154.17
377.354	-222.48
377.801	-183.7
378.249	-218.36
378.696	-349.16
379.143	-377.56
379.591	-393.05
380.038	-678.32
380.485	-432.96
380.932	-518.86
381.379	-336.68
381.826	-134.03
382.273	-105.79
382.72	-139.22
383.166	-101.41
383.613	-35.31
384.06	-48.59
384.506	-54.64
384.953	-21.16
385.4	-42.7
385.846	-32.57
386.292	-72.15
386.739	-93.54
387.185	-94.55
387.631	-91.42
388.078	-72.04
388.524	-81.31
388.97	-64.78
389.416	-53.42
389.862	-63.35
390.308	-51.84
390.754	-49.7
391.2	-48.47
391.645	-54.29
392.091	-12.96
392.537	1.98
392.983	-23.27
393.428	13.4
393.874	8.41
394.319	28.07
394.765	43.62
395.21	31.45
395.655	34.59
396.101	35.28
396.546	43.75
396.991	19.49
397.436	15.2
397.881	16.04
398.326	-4
398.771	0.91
399.216	-9.66
399.661	-13.13
400.106	-9.29
400.551	-2.74
400.995	-0.24
401.44	-1.82
401.885	-4.1
402.329	-1.64
402.774	2.13
403.218	16.22
403.663	12.46
404.107	14.6
404.551	20.01
404.995	21.08
405.44	14.81
405.884	11.25
406.328	5.47
406.772	2.02
407.216	1.07
407.66	-1.76
408.104	-12.85
408.547	-12.31
408.991	-10.87
409.435	-11.88
409.879	-9.88
410.322	-8.07
410.766	-5.29
411.209	-2.23
411.653	-0.99
412.096	1.6
412.54	-0.16
412.983	1.15
413.426	5.6
413.869	2.75
414.312	3.75
414.756	1.16
415.199	-0.42
415.642	0.99
416.085	3.4
416.527	3.72
416.97	1.09
417.413	2.3
417.856	-0.23
418.298	-2.78
418.741	-4.19
419.184	-6.76
419.626	-11.03
420.069	-9.98
420.511	-10.05
420.953	-7.97
421.396	-6.62
421.838	-8.23
422.28	-7.41
422.722	-2.69
423.164	-4.81
423.606	-5.15
424.048	-6.95
424.49	-2.17
424.932	-4.13
425.374	-5.54
425.816	-10.55
426.258	-11.77
426.699	-11.59
427.141	-8.32
427.582	-13.01
428.024	-13.84
428.465	-14.73
428.907	-13.92
429.348	-14.64
429.789	-12.49
430.231	-10.29
430.672	-8.56
431.113	-7.13
431.554	-6.04
431.995	-8.16
432.436	-4.27
432.877	-1.61
433.318	3.8
433.759	3.27
434.2	3.1
434.64	1.48
435.081	1.87
435.522	3.66
435.962	2.99
436.403	4.3
436.843	1.43
437.284	-1.41
437.724	-3.52
438.164	-8.16
438.604	-8.61
439.045	-7.24
439.485	-2.83
439.925	-3.12
440.365	-5.35
440.805	-6.37
441.245	-5.76
441.685	-3.98
442.125	-4.7
442.564	-4.84
443.004	-2.61
443.444	-1.07
443.883	-1.13
444.323	-4.55
444.762	-9.77
445.202	-10.7
445.641	-9
446.081	-11.4
446.52	-10.57
446.959	-8.44
447.398	-5.35
447.837	-6.39
448.276	-7.53
448.716	-6.11
449.154	-7.97
449.593	-3.97
450.032	-3.4
450.471	-4.72
450.91	-5.03
451.349	-4.09
451.787	-4.72
452.226	-6.64
452.664	-7.11
453.103	-7.07
453.541	-8.89
453.98	-5.14
454.418	-5.78
454.856	-2.82
455.295	-3.07
455.733	-1.33
456.171	-2.58
456.609	-0.79
457.047	-0.96
457.485	1.44
457.923	3.07
458.361	2.71
458.798	0.96
459.236	0.77
459.674	-1.5
460.111	-0.45
460.549	-0.29
460.987	-1.12
461.424	-3.1
461.862	-1.96
462.299	-2.16
462.736	-1.3
463.173	-1.42
463.611	2.03
464.048	3.57
464.485	4.53
464.922	4.35
465.359	2.69
465.796	11.23
466.233	13.46
466.67	15.47
467.106	16.32
467.543	14.91
467.98	14.09
468.416	10.99
468.853	9.53
469.29	8.23
469.726	7.89
470.162	7.67
470.599	0.85
471.035	-1.57
471.471	-3.28
471.907	-5.42
472.344	-6.28
472.78	-4.94
473.216	-5.74
473.652	-5.19
474.088	-5.21
474.523	-4.58
474.959	-4.44
475.395	-4.1
475.831	-2.65
476.266	-2.27
476.702	-2.33
477.138	-1.51
477.573	-2.22
478.008	-2.21
478.444	-1.45
478.879	-0.34
479.314	-0.07
479.75	0.29
480.185	0.23
480.62	-0.64
481.055	-0.71
481.49	0.21
481.925	-0.01
482.36	2.57
482.795	2.7
483.229	1.4
483.664	1.54
484.099	0.63
484.534	1.33
484.968	1.6
485.403	1.56
485.837	0.15
486.271	-0.1
486.706	-0.03
487.14	-1.55
487.574	-1.31
488.009	-1.14
488.443	-2.11
488.877	-0.85
489.311	-1.32
489.745	-1.32
490.179	0.02
490.613	2.06
491.046	1.39
491.48	1.53
491.914	1.5
492.348	1.28
492.781	1.75
493.215	2.09
493.648	0.56
494.082	0.2
494.515	0.77
494.948	0.65
495.382	-0.36
495.815	0.35
496.248	0.34
496.681	0.13
497.114	-0.12
497.547	-0.01
497.98	0.88
498.413	2.41
498.846	3.05
499.279	2.43
499.711	1.64
500.144	1.4
500.577	1.89
501.009	1.89
501.442	2.66
501.874	3.43
502.306	2.99
502.739	5.29
503.171	4.94
503.603	5.05
504.036	4.47
504.468	4.6
504.9	4.43
505.332	4.29
505.764	4.78
506.196	4
506.627	3.67
507.059	3.36
507.491	-0.07
507.923	0.26
508.354	0.49
508.786	0.6
509.217	0.45
509.649	0.96
510.08	0.41
510.512	0.93
510.943	1.05
511.374	1.61
511.805	1.85
512.237	1.92
512.668	0.95
513.099	-0.38
513.53	-0.33
513.961	0.17
514.391	0.15
514.822	1.29
515.253	1
515.684	1.03
516.114	0.94
516.545	1.46
516.975	1.8
517.406	1.92
517.836	2.22
518.267	2.55
518.697	2.62
519.127	2.03
519.558	0.8
519.988	0.14
520.418	-0.17
520.848	-1.25
521.278	-1.3
521.708	29.94
522.138	31.3
522.567	30.75
522.997	30.4
523.427	29.77
523.857	30.46
524.286	31.01
524.716	31.51
525.145	31.98
525.575	32.97
526.004	32.33
526.433	1.74
526.863	0.34
527.292	1.38
527.721	1.94
528.15	2.23
528.579	1.67
529.008	1.23
529.437	0.13
529.866	-0.26
530.295	-0.96
530.724	0.17
531.152	0.01
531.581	0.89
532.01	0.9
532.438	0.88
532.867	0.56
533.295	0.85
533.723	0.95
534.152	1.55
534.58	2.17
535.008	2.74
535.436	3.31
535.865	3.02
536.293	1.89
536.721	1.22
537.149	1.12
537.576	1.44
538.004	1.45
538.432	0.97
538.86	1.25
539.287	0.92
539.715	0.89
540.143	-0.37
540.57	0.28
540.998	0.6
541.425	2.53
541.852	2.14
542.28	1.88
542.707	1.91
543.134	2.44
543.561	2.34
543.988	2.55
544.415	2.24
544.842	1.69
545.269	1.25
545.696	1.65
546.123	0.43
546.549	0.27
546.976	0.31
547.403	0.64
547.829	0.37
548.256	0.11
548.682	0.11
549.108	0.85
549.535	1.23
549.961	1.01
550.387	0.8
550.813	2.38
551.24	3.18
551.666	2.75
552.092	2.26
552.518	2.16
552.943	2.44
553.369	2.25
553.795	2.19
554.221	2.5
554.646	2.43
555.072	3.65
555.498	1.99
555.923	1.12
556.349	1.53
556.774	1.37
557.199	1.17
557.625	0.49
558.05	0.55
558.475	0.14
558.9	-0.22
559.325	0.65
559.75	0.29
560.175	0.35
560.6	0.57
561.025	-0.44
561.449	-0.32
561.874	-0.63
562.299	0.28
562.723	0.01
563.148	0.08
563.572	-0.06
563.997	-0.48
564.421	-1.44
564.846	-1.98
565.27	-1.75
565.694	-0.75
566.118	-1
566.542	0.56
566.966	0.43
567.39	0.75
567.814	0.78
568.238	1.12
568.662	0.41
569.086	0.74
569.509	0.8
569.933	1.89
570.357	1.57
570.78	1.91
571.204	2.23
571.627	1.74
572.05	1.38
572.474	2.1
572.897	2.23
573.32	3.45
573.743	3.15
574.166	3.93
574.589	2.97
575.012	3.37
575.435	3.34
575.858	2.93
576.281	3.1
576.704	2.3
577.126	1.46
577.549	0.83
577.972	-0.25
578.394	-0.4
578.817	1.26
579.239	1.11
579.661	1.42
580.084	2.82
580.506	2.38
580.928	2.01
581.35	2.95
581.772	2.98
582.194	3.67
582.616	3.33
583.038	2.69
583.46	0.54
583.882	0.4
584.303	-0.76
584.725	-2.32
585.147	1.95
585.568	2.57
585.99	2.9
586.411	3.85
586.833	3.81
587.254	4.11
587.675	4.41
588.096	4.7
588.518	5.32
588.939	6.08
589.36	5.97
589.781	-0.11
590.202	2.64
590.623	2.19
591.043	0.88
591.464	0.96
591.885	1.73
592.305	1.39
592.726	1.09
593.147	0.7
593.567	1.22
593.987	1.22
594.408	1.92
594.828	-1.43
595.248	-0.76
595.669	0.21
596.089	-0.12
596.509	-0.73
596.929	-0.99
597.349	-0.18
597.769	0.27
598.189	-0.19
598.608	0.33
599.028	0.81
599.448	0.66
599.867	0.33
600.287	-0.38
600.706	-0.04
601.126	0.77
601.545	2.11
601.965	1.58
602.384	0.95
602.803	0.72
603.222	0.85
603.641	0.36
604.061	1.05
604.48	0.49
604.898	0.1
605.317	-0.29
605.736	-0.64
606.155	-0.4
606.574	-0.5
606.992	-0.47
607.411	-0.66
607.829	-1.49
608.248	-1.88
608.666	-2.48
609.085	-2.13
609.503	-1.66
609.921	-0.95
610.339	-1.22
610.758	-2.58
611.176	-2.63
611.594	-2.46
612.012	-1.99
612.43	-0.83
612.847	-0.55
613.265	0.49
613.683	0.65
614.101	0.9
614.518	0.05
614.936	0.12
615.353	1.18
615.771	1.52
616.188	1.91
616.606	1.87
617.023	1.41
617.44	1.65
617.857	0.5
618.274	-0.14
618.691	-0.03
619.108	0.64
619.525	0.11
619.942	-0.1
620.359	-0.31
620.776	-0.35
621.192	-0.11
621.609	0.73
622.026	1.32
622.442	1.6
622.859	1.17
623.275	0.42
623.691	-0.25
624.108	0.86
624.524	0.62
624.94	0.67
625.356	0.37
625.772	0.28
626.188	-0.98
626.604	-1.66
627.02	-1.82
627.436	-0.68
627.852	0.31
628.268	0.91
628.683	-0.09
629.099	-0.3
629.514	-1.15
629.93	-1.29
630.345	-1.79
630.761	-2.58
631.176	-2.21
631.591	0.07
632.007	0.41
632.422	-0.19
632.837	-1.08
633.252	0.19
633.667	0.35
634.082	1.21
634.497	1.54
634.911	3.75
635.326	4.9
635.741	5.34
636.155	4.11
636.57	4.52
636.984	4.46
637.399	5.26
637.813	4.24
638.228	3.92
638.642	3.5
639.056	3.74
639.47	1.94
639.884	1.38
640.298	0.62
640.712	0.49
641.126	-0.31
641.54	-0.41
641.954	-2.08
642.368	-1.9
642.781	1.12
643.195	2.06
643.609	2.25
644.022	2.32
644.436	2.11
644.849	1.72
645.262	1.02
645.676	0.1
646.089	-0.04
646.502	1.87
646.915	1.16
647.328	-0.29
647.741	-0.64
648.154	-0.86
648.567	1.01
648.98	1.94
649.393	2.42
649.805	2.6
650.218	3.07
650.631	3.7
651.043	3.81
651.456	4.74
651.868	3.83
652.28	2.23
652.693	1.65
653.105	0.14
653.517	0.22
653.929	0.48
654.341	1.61
654.753	2.12
655.165	1.88
655.577	1.75
655.989	1.28
656.401	0.79
656.813	2.79
657.224	2.67
657.636	1.29
658.047	1.46
658.459	1.24
658.87	-0.15
659.282	0.05
659.693	0.67
660.104	0.59
660.515	-0.05
660.926	0.01
661.338	-0.62
661.749	-1.29
662.159	0.4
662.57	-0.5
662.981	-0.74
663.392	-0.49
663.803	-1.3
664.213	-2.39
664.624	-2.9
665.035	-2.81
665.445	-2.78
665.855	-1.96
666.266	-0.66
666.676	-1.13
667.086	-0.99
667.497	-0.54
667.907	-0.11
668.317	0.48
668.727	3.28
669.137	2.53
669.547	2.88
669.956	1.42
670.366	0.84
670.776	0.96
671.186	0.81
671.595	0.99
672.005	0.16
672.414	0.31
672.824	0.36
673.233	-2.13
673.642	-1.81
674.052	-1.06
674.461	0.37
674.87	0.44
675.279	0.42
675.688	-0.41
676.097	-0.36
676.506	-0.49
676.915	-1.75
677.323	-2.56
677.732	-2.69
678.141	-2.13
678.549	-2.55
678.958	-3.94
679.366	-5.05
679.775	-5.82
680.183	-3.72
680.592	-3.89
681	-2.99
681.408	-2.81
681.816	-2.3
682.224	-2.79
682.632	-1.35
683.04	-1.39
683.448	-0.25
683.856	0.24
684.264	1.27
684.671	-0.41
685.079	-1.16
685.487	-2.32
685.894	-2.97
686.302	-4.35
686.709	-4.2
687.116	-5.96
687.524	-3.99
687.931	-3
688.338	-1.52
688.745	-4.22
689.152	-4.59
689.559	-4.31
689.966	-2.17
690.373	-0.96
690.78	0.51
691.187	1.21
691.593	2.45
692	0.82
692.407	0.16
692.813	1.67
693.22	3.58
693.626	2.82
694.032	4.38
694.439	4.19
694.845	4.2
695.251	3.04
695.657	3.12
696.063	1.14
696.469	0.54
696.875	0.81
697.281	-1.14
697.687	-1.42
698.093	-1.38
698.498	-1.86
698.904	-2.83
699.31	-2.73
699.715	0.14
700.12	0.2
700.526	1.35
700.931	1.64
701.337	2.14
701.742	2.82
702.147	3.04
702.552	4.04
702.957	3.52
703.362	2.86
703.767	2.02
704.172	-0.72
704.577	-1.01
704.981	-2.35
705.386	-2.46
705.791	-2.09
706.195	-3.49
706.6	-3.54
707.004	-5.08
707.408	-5.93
707.813	-4.93
708.217	-3.62
708.621	-3.1
709.025	-4.22
709.43	-2.25
709.834	-1.8
710.237	-2.6
710.641	-1.46
711.045	-1.01
711.449	1.49
711.853	5.66
712.256	5.79
712.66	5.58
713.064	6.01
713.467	8.13
713.87	7.75
714.274	8.17
714.677	8.29
715.08	7.79
715.484	8.12
715.887	9.52
716.29	6.06
716.693	7.25
717.096	7.35
717.499	6.87
717.901	4.45
718.304	3.99
718.707	2.84
719.109	3.43
719.512	2.72
719.915	4.73
720.317	3.43
720.719	2.5
721.122	0.53
721.524	0.26
721.926	5.68
722.328	7.11
722.731	6.26
723.133	6.5
723.535	6.15
723.937	7.23
724.338	7.13
724.74	7.31
725.142	57.64
725.544	61.59
725.945	74.56
726.347	70.18
726.748	70.12
727.15	72.11
727.551	75.95
727.952	73.96
728.354	71.97
728.755	71.21
729.156	69.88
729.557	22.06
729.958	18.91
730.359	6.75
730.76	6.16
731.161	5.26
731.562	3.18
731.962	-0.16
732.363	1.14
732.763	1.68
733.164	-1.31
733.564	-1.5
733.965	-1.27
734.365	-1.96
734.766	-1.54
735.166	-1.13
735.566	1.17
735.966	2.37
736.366	2.41
736.766	1.98
737.166	1.76
737.566	2.78
737.966	3.43
738.365	4.03
738.765	5.15
739.165	5.04
739.564	5.03
739.964	3.59
740.363	2.25
740.763	1.24
741.162	3.04
741.561	3.6
741.96	3.16
742.36	1.46
742.759	1.27
743.158	0.27
743.557	-0.96
743.955	-1.67
744.354	-2.1
744.753	-1.82
745.152	-0.11
745.55	-2
745.949	-2.79
746.348	-1.55
746.746	-1.92
747.144	0.09
747.543	-0.7
747.941	-0.65
748.339	-0.32
748.737	0.3
749.136	1.45
749.534	-0.75
749.932	1.53
750.33	2.36
750.727	1.8
751.125	3.48
751.523	1.31
751.921	5.09
752.318	6.11
752.716	7.15
753.113	6.54
753.511	6.26
753.908	7.47
754.305	10.46
754.703	9.74
755.1	10.9
755.497	10.24
755.894	9.97
756.291	7.26
756.688	7.06
757.085	5.92
757.482	6.83
757.878	9.36
758.275	11.02
758.672	3.32
759.068	3.3
759.465	-0.09
759.861	-1.68
760.258	-4.28
760.654	-5.43
761.05	-3.67
761.447	-5.31
761.843	-3.17
762.239	-4.19
762.635	-7.64
763.031	-7.88
763.427	-7.43
763.822	-4.81
764.218	-4.24
764.614	-2.22
765.01	-3.54
765.405	-4.94
765.801	-3.19
766.196	-4.2
766.592	-5.4
766.987	-3.64
767.382	-3.32
767.778	-3.2
768.173	-4.4
768.568	-3.96
768.963	-2.7
769.358	-1.02
769.753	1.55
770.148	2.93
770.542	3.37
770.937	2.46
771.332	1.63
771.726	1.52
772.121	6.64
772.515	7.78
772.91	8.06
773.304	7.17
773.699	6.94
774.093	5.12
774.487	4.75
774.881	4.19
775.275	4.59
775.669	5.59
776.063	5.72
776.457	2.63
776.851	2.28
777.245	3.82
777.638	2.84
778.032	1.07
778.425	2.82
778.819	4.83
779.212	6.55
779.606	10
779.999	9.72
780.392	11.43
780.786	8.38
781.179	9.17
781.572	8.38
781.965	9.9
782.358	10.99
782.751	8.45
783.143	5.56
783.536	4.54
783.929	1.22
784.322	1
784.714	-0.99
785.107	0.94
785.499	1.37
785.891	3.1
786.284	2.47
786.676	1.34
787.068	4.25
787.46	4.56
787.852	3.03
788.245	3.17
788.636	0.98
789.028	4.47
789.42	6.62
789.812	6.83
790.204	3.72
790.595	7.34
790.987	9.86
791.378	9.74
791.77	9.08
792.161	8.2
792.553	8.26
792.944	10.05
793.335	5.39
793.726	3.78
794.117	4.49
794.508	3.53
794.899	0.04
795.29	-3.34
795.681	-5.54
796.072	-4.91
796.463	15.22
796.853	19.06
797.244	19.44
797.634	20.83
798.025	20.69
798.415	17.54
798.806	19.84
799.196	21.24
799.586	25.25
799.976	26.1
800.366	24.71
800.756	2.98
801.146	-0.58
801.536	0.12
801.926	-0.39
802.316	1.7
802.706	3.4
803.095	5.63
803.485	4.26
803.874	2.22
804.264	2.61
804.653	5.68
805.043	10.7
805.432	11.66
805.821	11.62
806.21	13.72
806.599	12.62
806.988	12.69
807.377	7.07
807.766	5.6
808.155	6.6
808.544	5.58
808.933	4.71
809.321	5.77
809.71	2.46
810.098	1.6
810.487	-3.34
810.875	-7.13
811.264	-6.1
811.652	7
812.04	8.61
812.428	9.38
812.816	7.94
813.204	10.19
813.592	2.93
813.98	2.91
814.368	10.25
814.756	14.32
815.144	16.3
815.531	19.9
815.919	7.24
816.306	7.61
816.694	6.4
817.081	9.32
817.469	9
817.856	6.95
818.243	5.68
818.63	-3.11
819.017	-1.15
819.404	0.66
819.791	-5.14
820.178	-9.43
820.565	-8.97
820.952	-3.47
821.339	-2.52
821.725	-3.64
822.112	4.86
822.498	10.73
822.885	10.93
823.271	5.24
823.657	0.27
824.044	2.24
824.43	3.62
824.816	14.01
825.202	9.96
825.588	9.06
825.974	7.74
826.36	7.73
826.746	5.45
827.132	7.03
827.517	16.1
827.903	17.43
828.289	21.44
828.674	23.36
829.06	12.82
829.445	9.55
829.83	4.78
830.216	2.88
830.601	3.65
830.986	13.36
831.371	14.56
831.756	15.46
832.141	25.38
832.526	24
832.911	24.57
833.295	25.99
833.68	29.37
834.065	35.25
834.449	37.19
834.834	39.24
835.218	34.42
835.603	35.76
835.987	29.07
836.371	22.75
836.755	20.63
837.139	18.41
837.524	15.06
837.908	9.72
838.291	12.12
838.675	10.34
839.059	8.25
839.443	6.33
839.827	0.92
840.21	0.23
840.594	3.68
840.977	4.7
841.361	5.22
841.744	4.8
842.127	8.54
842.511	6.68
842.894	5.33
843.277	2.6
843.66	-2.07
844.043	-1.15
844.426	3.65
844.809	-2.82
845.191	0.71
845.574	3.41
845.957	4.29
846.339	7.87
846.722	5.18
847.104	3.35
847.487	-0.99
847.869	5.06
848.252	7.89
848.634	8.69
849.016	9.4
849.398	3.9
849.78	0.11
850.162	3.09
850.544	-1
850.926	-3.81
851.307	-3.79
851.689	0.2
852.071	-9.66
852.452	-9.43
852.834	-13.99
853.215	-7.96
853.597	-8.04
853.978	-2.83
854.359	-2.53
854.741	1.15
855.122	0.16
855.503	1.45
855.884	1.92
856.265	8.96
856.646	2.35
857.026	11.76
857.407	8.28
857.788	5.42
858.169	-3.56
858.549	2.82
858.93	3.4
859.31	7.64
859.69	11.9
860.071	13.24
860.451	11.44
860.831	13.94
861.211	5.74
861.591	3.18
861.971	5.15
862.351	9.05
862.731	-1.57
863.111	-4
863.491	-2.78
863.87	-7.4
864.25	-10.82
864.629	-4.23
865.009	-1.69
865.388	0.2
865.768	-1.39
866.147	0.07
866.526	-0.26
866.905	1.55
867.284	-5.38
867.663	-6.96
868.042	-11.43
868.421	-10.27
868.8	-19.75
869.179	-17.14
869.558	-19.56
869.936	-11.85
870.315	-14.32
870.693	-6.85
871.072	-9.93
871.45	-8.08
871.828	-6.53
872.207	-3.69
872.585	-0.94
872.963	-0.14
873.341	9.09
873.719	19.94
874.097	13.55
874.475	14.02
874.853	3.41
875.23	6.72
875.608	11.45
875.986	11.78
876.363	17.67
876.741	27.92
877.118	39.67
877.495	33.37
877.873	29.24
878.25	33.09
878.627	33.07
879.004	37.78
879.381	34.72
879.758	38.76
880.135	36.89
880.512	34.23
880.889	15.94
881.265	1.5
881.642	-8.99
882.019	-13.13
882.395	-5.17
882.772	2.8
883.148	4.99
883.524	6.76
883.901	1.03
884.277	-5.81
884.653	-4.92
885.029	4.76
885.405	23.09
885.781	29.7
886.157	26.66
886.532	19.47
886.908	11.25
887.284	6.19
887.659	6.74
888.035	6.2
888.411	9.45
888.786	10.72
889.161	9
889.537	-9.75
889.912	-14.04
890.287	-9.9
890.662	-15.01
891.037	-23.18
891.412	-20.23
891.787	-25.25
892.162	-19.68
892.536	-16.81
892.911	-13.09
893.286	-21.93
893.66	-16.47
894.035	-15.5
894.409	-25.14
894.784	-15.45
895.158	-8.08
895.532	-4.27
895.906	5.72
896.281	5.75
896.655	10.16
897.029	3.02
897.402	6.92
897.776	2.54
898.15	5.22
898.524	9.2
898.898	4.29
899.271	10.2
899.645	17.89
900.018	6.51
900.392	6.47
900.765	-7.51
901.138	-2.12
901.511	-3.23
901.884	10.43
902.258	15.85
902.631	33.12
903.003	36.04
903.376	18.04
903.749	14.98
904.122	15.16
904.495	-0.56
904.867	0.4
905.24	-3.07
905.612	-8.06
905.985	-21.67
906.357	-30.25
906.729	-36.9
907.102	-21.19
907.474	-8.5
907.846	-6.16
908.218	-3.76
908.59	12.03
908.962	14.83
909.334	21.76
909.705	41.2
910.077	43.24
910.449	44.51
910.82	46.54
911.192	35.87
911.563	48.2
911.935	39.91
912.306	33.77
912.677	29.13
913.048	40.6
913.419	32.53
913.79	10.99
914.161	10.15
914.532	27.32
914.903	9.8
915.274	17.05
915.645	6.22
916.015	2.63
916.386	6.35
916.756	-0.47
917.127	-17.9
917.497	-5
917.868	3
918.238	-2.18
918.608	-21.37
918.978	-12.94
919.348	-18.58
919.718	-25.35
920.088	-23.11
920.458	-6.58
920.828	-15.34
921.198	-8.8
921.567	-22.46
921.937	-22.76
922.306	-25.82
922.676	-34.13
923.045	-13.68
923.415	-1.87
923.784	2.9
924.153	10.18
924.522	10.43
924.891	8.3
925.26	13.87
925.629	16.84
925.998	21.73
926.367	29.42
926.736	59.29
927.104	44.48
927.473	32.82
927.842	19.5
928.21	9.56
928.578	-21.59
928.947	8.83
929.315	14.39
929.683	31
930.051	25.99
930.42	15.85
930.788	-8.2
931.156	-4.9
931.523	26.52
931.891	42.62
932.259	52.7
932.627	74.24
932.994	64.96
933.362	64.36
933.729	47.39
934.097	52.96
934.464	70.07
934.831	54.81
935.199	53.35
935.566	43.91
935.933	108.93
936.3	140.38
936.667	99.92
937.034	187.5
937.401	182.97
937.767	166.17
938.134	150.77
938.501	153.74
938.867	200.11
939.234	318.22
939.6	208
939.967	108.2
940.333	91.86
940.699	79.26
941.065	-35.65
941.431	-55.34
941.798	-15.74
942.163	12.73
942.529	17.44
942.895	-25.55
943.261	6.93
943.627	36.62
943.992	41.94
944.358	21.86
944.723	62.89
945.089	68.78
945.454	62.98
945.82	38.36
946.185	13.85
946.55	20.18
946.915	25.6
947.28	20.94
947.645	16.06
948.01	14.36
948.375	18.61
948.74	-29.66
949.104	-47.84
949.469	-132.76
949.834	-227.25
950.198	-94.62
950.562	27.61
950.927	49.32
951.291	57.98
951.655	31.86
952.02	-18.78
952.384	3.78
952.748	42.46
953.112	77.69
953.476	69.13
953.839	56.41
954.203	56.68
954.567	35.87
954.931	0.61
955.294	18.62
955.658	12.6
956.021	57.75
956.385	-9.66
956.748	-94.24
957.111	-440.02
957.474	-454
957.837	-725.58
958.2	-689.88
958.563	-211.45
958.926	-88.92
959.289	-212.86
959.652	-209.84
960.015	-166.5
960.377	-224.06
960.74	-279.09
961.102	-503.68
961.465	-310.23
961.827	363
962.189	720.45
962.552	571.47
962.914	387.52
963.276	249.73
963.638	239.2
964	243.84
964.362	187.33
964.724	168.74
965.085	137.25
965.447	100.16
965.809	17.36
966.17	-6.32
966.532	-21.34
966.893	-7.34
967.255	5.48
967.616	-31.7
967.977	-26.62
968.338	-44.22
968.699	-10.55
969.061	-24.71
969.421	-16.31
969.782	-27.62
970.143	3.3
970.504	30.49
970.865	47.86
971.225	83.11
971.586	90.05
971.946	112.61
972.307	106.36
972.667	77.94
973.027	94.98
973.388	61.54
973.748	62.35
974.108	65.3
974.468	-15.92
974.828	60.06
975.188	16.5
975.548	21.95
975.907	36.46
976.267	37.94
976.627	69.71
976.986	61.8
977.346	59.64
977.705	53.11
978.064	39.08
978.424	42.09
978.783	-1.01
979.142	-14.85
979.501	-9.27
979.86	-8.37
980.219	-20.23
980.578	-59.54
980.937	-88.18
981.296	-58.12
981.654	-59.98
982.013	-126.91
982.371	-138.72
982.73	-101.67
983.088	-110.23
983.447	-136.04
983.805	-208.95
984.163	-399.46
984.521	-521.94
984.879	-698.97
985.237	846.87
985.595	-586.31
985.953	-192.97
986.311	-183.99
986.669	-100.54
987.026	-80.53
987.384	-169.99
987.741	-196.07
988.099	-66.37
988.456	-29.62
988.814	6.09
989.171	5.93
989.528	-29.5
989.885	-5.49
990.242	29.16
990.599	15.09
990.956	14.49
991.313	27.5
991.67	29.66
992.027	60.28
992.383	57.09
992.74	55.79
993.096	51.79
993.453	60.01
993.809	42.29
994.165	37.62
994.522	96.57
994.878	97.31
995.234	136.53
995.59	117.87
995.946	35.96
996.302	26.11
996.658	-15.67
997.013	-32.98
997.369	-16.81
997.725	47.51
998.08	21.71
998.436	-199.96
998.791	-247.27
999.147	-271.16
999.502	-294.37
999.857	-205.44
1000.212	-354.74
1000.567	-438.79
1000.922	-151.31
1001.277	-116.71
1001.632	-71.14
1001.987	-57
1002.342	-3.72
1002.696	-12.43
1003.051	26.56
1003.406	57.25
1003.76	54.47
1004.114	67.94
1004.469	66.06
1004.823	58.76
1005.177	53.99
1005.531	29.44
1005.885	38.78
1006.239	47.79
1006.593	53.34
1006.947	28.55
1007.301	3.2
1007.655	4.2
1008.008	12.35
1008.362	10.02
1008.715	-14.42
1009.069	1.01
1009.422	63.79
1009.776	8.17
1010.129	16.05
1010.482	27.06
1010.835	-16.39
1011.188	-57.6
1011.541	-70.05
1011.894	651.21
1012.247	-1529.53
1012.6	-125.46
1012.952	-35.22
1013.305	-67.14
1013.657	-23.61
1014.01	-36.05
1014.362	-36.57
1014.715	28.9
1015.067	36.03
1015.419	25.01
1015.771	30.84
1016.123	54.54
1016.475	61.4
1016.827	54.4
1017.179	72.25
1017.531	61.2
1017.883	56.33
1018.234	123.36
1018.586	145.01
1018.938	209.51
1019.289	320.72
1019.64	334.87
1019.992	233.11
1020.343	183.84
1020.694	203.02
1021.045	177.19
1021.396	199.7
1021.747	260.25
1022.098	185.58
1022.449	118.05
1022.8	87.13
1023.151	63.16
1023.501	75.91
1023.852	80.15
1024.202	103.37
1024.553	79.01
1024.903	115.47
1025.253	129.77
1025.604	113.7
1025.954	136.55
1026.304	117.8
1026.654	121.78
1027.004	148.63
1027.354	118.94
1027.703	205.93
1028.053	181.09
1028.403	475.3
1028.753	247.28
1029.102	-299.09
1029.452	-4078.21
1029.801	-192.56
1030.15	-89.22
1030.499	-121.16
897.758	1767.6
901.051	1703.34
904.343	1735.29
907.636	1740.48
910.928	1792.37
914.22	1727.33
917.511	1732.88
920.803	1768.02
924.094	1761.09
927.384	1769.79
930.675	1739.39
933.965	1712.2
937.255	1742.22
940.544	1718.25
943.834	1707.85
947.123	1659.87
950.411	1733.86
953.7	1717.96
956.988	1708.96
960.276	1648.93
963.563	1679.75
966.851	1690.46
970.138	1721
973.424	1722.01
976.711	1679.12
979.997	1723.71
983.283	1755.55
986.568	1700.99
989.853	1686.9
993.138	1707.06
996.423	1782
999.708	1752.28
1002.992	1772.82
1006.275	1698.38
1009.559	1699.38
1012.842	1777.4
1016.125	1741.46
1019.408	1723.22
1022.69	1764.21
1025.972	1791.94
1029.254	1773.67
1032.536	1746.99
1035.817	1748.85
1039.098	1724.29
1042.379	1761.71
1045.659	1785.15
1048.939	1742.68
1052.219	1739.85
1055.498	1732.43
1058.778	1725.87
1062.057	1704.53
1065.335	1723.43
1068.614	1729.05
1071.892	1726.69
1075.17	1766.75
1078.447	1770.42
1081.724	1765.95
1085.001	1781.12
1088.278	1765.59
1091.554	1764.56
1094.83	1762.18
1098.106	1789.79
1101.382	1810.85
1104.657	1809.46
1107.932	1808.94
1111.206	1791.63
1114.481	1750.28
1117.755	1751.1
1121.029	1750.81
1124.302	1797.73
1127.575	1776.01
1130.848	1774.84
1134.121	1755.05
1137.393	1722.76
1140.665	1767.35
1143.937	1751.44
1147.208	1707.44
1150.48	1758.55
1153.75	1746.48
1157.021	1741.5
1160.291	1724.53
1163.561	1765.9
1166.831	1734.3
1170.101	1751.61
1173.37	1718.02
1176.639	1687.81
1179.907	1720.84
1183.176	1739.64
1186.444	1741.6
1189.711	1760.36
1192.979	1780.25
1196.246	1745.62
1199.513	1756.42
1202.78	1761.55
1206.046	1768.57
1209.312	1794.13
1212.578	1803.36
1215.843	1779.27
1219.108	1754.86
1222.373	1773.67
1225.638	1753.58
1228.902	1750.09
1232.166	1717.18
1235.43	1708.96
1238.693	1733.43
1241.956	1727.02
1245.219	1767.64
1248.482	1754.36
1251.744	1754.16
1255.006	1847.81
1258.268	1803.77
1261.529	1774.14
1264.79	1771.21
1268.051	1842.78
1271.312	1849.96
1274.572	1825.22
1277.832	1815.81
1281.092	1795.46
1284.351	1790.43
1287.61	1778.8
1290.869	1729.85
1294.128	1729.75
1297.386	1757.63
1300.644	1751.59
1303.902	1763.43
1307.159	1657.69
1310.416	1696.07
1313.673	1717.07
1316.93	1722.64
1320.186	1743.04
1323.442	1767.19
1326.697	1771.7
1329.953	1748.88
1333.208	1781.04
1336.463	1763.21
1339.717	1737.31
1342.972	1822.62
1346.226	1800.93
1349.479	1768.09
1352.733	1752.15
1355.986	1757.45
1359.238	1744.31
1362.491	1748.18
1365.743	1749.85
1368.995	1744.02
1372.247	1757.05
1375.498	1770.57
1378.749	1808.89
1382	1772.7
1385.251	1796.23
1388.501	1758.89
1391.751	1763.93
1395	1740.46
1398.25	1760.5
1401.499	1787.46
1404.748	1752.77
1407.996	1734.71
1411.244	1729.1
1414.492	1718.86
1417.74	1709.49
1420.987	1714.44
1424.234	1765.11
1427.481	1729.83
1430.728	1774.93
1433.974	1758.74
1437.22	1751.63
1440.465	1746.1
1443.711	1753.71
1446.956	1769.68
1450.201	1742.21
1453.445	1776.11
1456.689	1766.67
1459.933	1774.51
1463.177	1809.33
1466.42	1787.88
1469.663	1770.6
1472.906	1786.86
1476.148	1822.51
1479.391	1785.66
1482.633	1768.76
1485.874	1792.55
1489.115	1797.97
1492.356	1781.7
1495.597	1763.23
1498.838	1749.49
1502.078	1740.26
1505.318	1723.18
1508.557	1744.07
1511.797	1743.74
1515.036	1786.78
1518.274	1755.31
1521.513	1707.8
1524.751	1714.59
1527.989	1733.43
1531.227	1747.83
1534.464	1762.18
1537.701	1749.95
1540.938	1755.74
1544.174	1714.03
1547.41	1699.23
1550.646	1728.12
1553.882	1766.13
1557.117	1814.12
1560.352	1816.35
1563.587	1785.84
1566.821	1761.49
1570.055	1770.47
1573.289	1755.5
1576.523	1796.06
1579.756	1808.74
1582.989	1827.02
1586.222	1790.46
1589.454	1817.78
1592.686	1805.96
1595.918	1827.45
1599.15	1824.52
1602.381	1855.08
1605.612	1845.7
1608.843	1915.71
1612.073	1856.37
1615.303	1847.79
1618.533	1844.82
1621.762	1846.77
1624.992	1819.4
1628.221	1821.14
1631.449	1813.25
1634.678	1829.24
1637.906	1803.16
1641.134	1819.76
1644.361	1793.89
1647.588	1787.41
1650.815	1806.07
1654.042	1775.49
1657.269	1795.45
1660.495	1783.43
1663.72	1767.1
1666.946	1742
1670.171	1730.58
1673.396	1707.27
1676.621	1693.56
1679.845	1686.99
1683.069	1687.99
1686.293	1708.93
1689.517	1705.86
1692.74	1672.54
1695.963	1689.23
1699.185	1723.64
1702.408	1708
1705.63	1725.39
1708.852	1742.99
1712.073	1718.73
1715.294	1736.72
1718.515	1769.25
1721.736	1737.78
1724.956	1720.65
1728.176	1739.1
1731.396	1754.97
1734.616	1747.34
1737.835	1777.51
1741.054	1753.47
1744.272	1747.66
1747.491	1784.19
1750.709	1795.7
1753.927	1766.63
1757.144	1784.82
1760.361	1833.49
1763.578	1806.77
1766.795	1769.88
1770.011	1758.09
1773.227	1774.2
1776.443	1809.02
1779.658	1843.1
1782.874	1795.8
1786.089	1793.57
1789.303	1795.02
1792.518	1790.11
1795.732	1781.05
1798.945	1798.73
1802.159	1831.69
1805.372	1792.82
1808.585	1789.29
1811.797	1790.12
1815.01	1807.56
1818.222	1832.99
1821.434	1794.3
1824.645	1826
1827.856	1840.55
1831.067	1862.32
1834.278	1810.9
1837.488	1798.74
1840.698	1891.81
1843.908	1853.15
1847.117	1832.11
1850.326	1778.3
1853.535	1819.55
1856.744	1856.44
1859.952	1796.42
1863.16	1799.03
1866.368	1816.98
1869.575	1910.3
1872.782	1816.23
1875.989	1768.16
1879.196	1803.21
1882.402	1798.49
1885.608	1826.06
1888.814	1788.06
1892.019	1720.02
1895.224	1765.28
1898.429	1734.5
1901.634	1722.31
1904.838	1706.92
1908.042	1758.46
1911.246	1768.38
1914.449	1744.61
1917.652	1727.71
1920.855	1713.25
1924.058	1728.91
1927.26	1769.23
1930.462	1783.82
1933.664	1821.73
1936.865	1775.35
1940.066	1787.7
1943.267	1740.18
1946.467	1751.47
1949.668	1763.96
1952.868	1823.49
1956.067	1817.26
1959.267	1768.56
1962.466	1786.74
1965.665	1772.46
1968.863	1767.81
1972.061	1769.52
1975.259	1761.67
1978.457	1825.57
1981.654	1790.83
1984.852	1792.21
1988.048	1757.35
1991.245	1744.29
1994.441	1820.84
1997.637	1775.74
2000.833	1760.67
2004.028	1789.9
2007.223	1841.34
2010.418	1834.71
2013.613	1788.82
2016.807	1789.32
2020.001	1781.16
2023.194	1796.17
2026.388	1784.25
2029.581	1735.95
2032.774	1793.51
2035.966	1803.29
2039.158	1760.06
2042.35	1772.35
2045.542	1712.6
2048.733	1777.79
2051.924	1762.96
2055.115	1774.91
2058.306	1750.35
2061.496	1792.7
2064.686	1830.25
2067.875	1752.04
2071.065	1749.18
2074.254	1762.15
2077.442	1726.74
2080.631	1791.8
2083.819	1745
2087.007	1741.59
2090.195	1731.48
2093.382	1738.03
2096.569	1729.74
2099.756	1700.13
2102.942	1745.97
2106.128	1759.36
2109.314	1751.11
2112.5	1744.49
2115.685	1714.41
2118.87	1720.65
2122.055	1771.62
2125.239	1757.04
2128.424	1750.44
2131.608	1786.99
2134.791	1773.62
2137.974	1800.28
2141.157	1794.14
2144.34	1774.35
2147.523	1756.41
2150.705	1784.67
2153.887	1754.18
2157.068	1736.17
2160.25	1714.37
2163.431	1730.95
2166.611	1711.71
2169.792	1733.72
2172.972	1661.18
2176.152	1699.05
2179.331	1718.55
2182.511	1728.23
2185.69	1743.63
2188.868	1749.23
2192.047	1773.1
2195.225	1796.56
2198.403	1752.49
2201.58	1739.67
2204.758	1721.18
2207.935	1784.21
2211.111	1719.26
2214.288	1710.52
2217.464	1737.36
2220.64	1697.33
2223.815	1737.8
2226.991	1684.19
2230.166	1694.92
2233.34	1735.65
2236.515	1743.76
2239.689	1800.89
2242.863	1758.13
2246.036	1802.22
2249.209	1785.59
2252.382	1798.3
2255.555	1811.57
2258.727	1773.55
2261.9	1794.41
2265.071	1789.64
2268.243	1787.66
2271.414	1749.74
2274.585	1738.14
2277.756	1790.51
2280.926	1754.86
2284.096	1775.11
2287.266	1723.18
2290.436	1760.45
2293.605	1774.34
2296.774	1811.28
2299.942	1810.5
2303.111	1820.61
2306.279	1866.92
2309.447	1854.65
2312.614	1829.88
2315.781	1848.76
2318.948	1831.1
2322.115	1861.84
2325.281	1775.62
2328.447	1779
2331.613	1752.68
2334.779	1751.27
2337.944	1745.98
2341.109	1748.04
2344.274	1740.31
2347.438	1713.73
2350.602	1732.98
2353.766	1739.93
2356.929	1733.61
2360.092	1761.93
2363.255	1742.11
2366.418	1721.19
2369.58	1757.04
2372.742	1707
2375.904	1687.65
2379.066	1680.16
2382.227	1697.24
2385.388	1665
2388.548	1629.29
2391.709	1657.49
2394.869	1657.61
2398.029	1690.46
2401.188	1679.53
2404.347	1663.83
2407.506	1683.43
2410.665	1730.71
2413.823	1710.94
2416.981	1700.13
2420.139	1709.63
2423.296	1742.92
2426.453	1720.81
2429.61	1736.88
2432.767	1723.54
2435.923	1759.13
2439.079	1706.79
2442.235	1733.64
2445.391	1684.92
2448.546	1724.31
2451.701	1749.54
2454.855	1751.8
2458.009	1769.32
2461.163	1756.88
2464.317	1735.02
2467.471	1756.37
2470.624	1777.91
2473.777	1778.86
2476.929	1791.79
2480.082	1810.49
2483.234	1793.5
2486.385	1741.76
2489.537	1736.28
2492.688	1735.49
2495.839	1749.76
2498.989	1761.87
2502.14	1749.53
2505.29	1746.46
2508.439	1762.37
2511.589	1718.67
2514.738	1714.93
2517.887	1730.43
2521.035	1796.51
2524.183	1757.84
2527.331	1749.01
2530.479	1748.57
2533.627	1749.56
