Data from N_1_DIV_PA_2N_Splice17_11-10-56-040.txt Node
Date: Sat Mar 14 11:10:56 EDT 2020
User: sa697716
Spectrometer: FLMS03696
Trigger mode: 0
Integration Time (sec): 3.180400E-1
Scans to average: 20
Electric dark correction enabled: true
Nonlinearity correction enabled: true
Boxcar width: 5
XAxis mode: Wavelengths
Number of Pixels in Spectrum: 2048
>>>>>Begin Spectral Data<<<<<
187.83	-86228.03
188.298	698.61
188.766	400.69
189.233	407.85
189.701	570.93
190.169	715.88
190.636	280.9
191.104	280.67
191.571	80.6
192.039	36.43
192.506	116.67
192.974	394.97
193.441	-497.04
193.908	-177.33
194.375	28.8
194.842	105.61
195.31	139.86
195.777	135.54
196.244	211.48
196.711	169.21
197.177	166.41
197.644	184.54
198.111	249.59
198.578	283.18
199.045	225.56
199.511	317.36
199.978	307.25
200.445	264.18
200.911	246.75
201.378	260.16
201.844	244.65
202.31	400.16
202.777	435.33
203.243	290.28
203.709	290.11
204.176	328.75
204.642	269.31
205.108	247.58
205.574	208.06
206.04	203.44
206.506	190.45
206.972	178.82
207.438	166.38
207.903	188.74
208.369	180.75
208.835	186.31
209.301	200.47
209.766	190.06
210.232	183.68
210.697	221.01
211.163	261.39
211.628	395.01
212.094	352.29
212.559	478.09
213.024	307.44
213.49	370.95
213.955	347.3
214.42	299.16
214.885	300.12
215.35	306.16
215.815	313.84
216.28	323.03
216.745	246.16
217.21	263.52
217.675	197.21
218.14	201.3
218.604	191.86
219.069	201.78
219.534	229.68
219.998	234.63
220.463	247.59
220.927	225.85
221.392	203.86
221.856	206.06
222.32	215.28
222.785	260.83
223.249	299.16
223.713	312.54
224.177	298.72
224.642	277.01
225.106	308.15
225.57	308.33
226.034	289.02
226.497	433.9
226.961	374.88
227.425	425.8
227.889	476.62
228.353	470.6
228.816	790.06
229.28	743.58
229.744	691.63
230.207	479.57
230.671	456.65
231.134	597.28
231.597	642.76
232.061	627.59
232.524	562.73
232.987	377.44
233.45	345.17
233.914	317.65
234.377	279.26
234.84	242.12
235.303	255.77
235.766	319.71
236.229	312.52
236.691	208.72
237.154	201.95
237.617	156.57
238.08	146.24
238.542	140.58
239.005	117.18
239.468	145.65
239.93	144.51
240.393	126.82
240.855	105.5
241.317	101.67
241.78	96.25
242.242	114.11
242.704	143.39
243.166	145.47
243.629	165.05
244.091	178.63
244.553	189.03
245.015	215.26
245.477	264.94
245.939	376.82
246.4	429.29
246.862	403.9
247.324	359.48
247.786	346.07
248.247	359.39
248.709	244.21
249.17	223.08
249.632	256.67
250.093	333.78
250.555	297.73
251.016	213.76
251.477	200.47
251.939	230.13
252.4	239.17
252.861	273.38
253.322	303.82
253.783	369.71
254.244	475.92
254.705	340.74
255.166	260.34
255.627	245.37
256.088	316.8
256.549	342.95
257.009	304.89
257.47	361.02
257.931	301.77
258.391	210.67
258.852	187.77
259.312	160.59
259.773	165.08
260.233	170.21
260.694	161.53
261.154	173.8
261.614	174.03
262.074	141.28
262.534	164.85
262.994	168.58
263.455	178.17
263.915	190.67
264.374	181.71
264.834	212.4
265.294	215.73
265.754	230.94
266.214	213.58
266.673	189.08
267.133	227.14
267.593	220.63
268.052	253.95
268.512	234.93
268.971	296.76
269.431	349.43
269.89	298.98
270.349	428.81
270.809	443.98
271.268	405.7
271.727	765.39
272.186	518.71
272.645	370.12
273.104	237.45
273.563	339.34
274.022	214.79
274.481	197.11
274.94	165.61
275.399	121.68
275.857	132.41
276.316	183.02
276.775	192.28
277.233	184.88
277.692	184.92
278.15	239.47
278.609	299.51
279.067	276.68
279.525	267.55
279.984	322.32
280.442	371.89
280.9	400.51
281.358	248.83
281.816	228.63
282.274	233.22
282.732	210.09
283.19	199.74
283.648	149.14
284.106	144.63
284.564	136.21
285.021	151.85
285.479	127.8
285.937	109.52
286.394	117.74
286.852	115.65
287.309	122.3
287.767	159.44
288.224	171.04
288.682	187.45
289.139	225.63
289.596	212.56
290.053	204.91
290.511	240.11
290.968	288.93
291.425	355.03
291.882	327
292.339	290.3
292.796	252.15
293.252	222.09
293.709	187.66
294.166	159.68
294.623	168.79
295.079	152.36
295.536	169.44
295.992	169.58
296.449	170.82
296.905	179.05
297.362	175.66
297.818	178.61
298.274	196.7
298.731	198.75
299.187	209.18
299.643	236.53
300.099	283.22
300.555	308.78
301.011	257.95
301.467	277.72
301.923	277.46
302.379	283.77
302.835	277.66
303.291	264.81
303.746	285.09
304.202	343.17
304.658	315.64
305.113	248.93
305.569	234.01
306.024	215.92
306.479	186.24
306.935	194.41
307.39	185.33
307.845	176.08
308.301	187.84
308.756	173.24
309.211	173.08
309.666	166.94
310.121	202.12
310.576	205.49
311.031	204.22
311.486	220.85
311.94	190.71
312.395	243.21
312.85	414.33
313.305	1450.3
313.759	11603.66
314.214	903.94
314.668	847.69
315.123	841.48
315.577	353.26
316.032	349.64
316.486	391.43
316.94	345.87
317.394	260.62
317.849	217.99
318.303	220.06
318.757	210.67
319.211	227.63
319.665	195.5
320.119	191.4
320.572	228.74
321.026	224.79
321.48	209.64
321.934	199.71
322.387	208.49
322.841	234.67
323.295	218.08
323.748	211.6
324.202	204.58
324.655	254.48
325.108	367.68
325.562	306.26
326.015	327.71
326.468	242.91
326.921	284.7
327.374	291.71
327.827	298.67
328.28	327.18
328.733	231.29
329.186	201.68
329.639	188.74
330.092	142.19
330.545	129.63
330.997	136.48
331.45	160.02
331.903	204.34
332.355	302.46
332.808	296.15
333.26	249.33
333.713	279.48
334.165	300.04
334.617	355.48
335.069	274.28
335.522	415.8
335.974	452.88
336.426	386.47
336.878	167.54
337.33	102.31
337.782	82.7
338.234	104.78
338.686	107.02
339.137	100
339.589	104.45
340.041	126.94
340.493	135.7
340.944	143.58
341.396	146.41
341.847	174.64
342.299	219.31
342.75	304.32
343.201	267.76
343.653	306.69
344.104	400.61
344.555	338.38
345.006	456.5
345.457	377.03
345.908	278.22
346.359	270.76
346.81	209.98
347.261	189.8
347.712	163.43
348.163	169.47
348.613	227.59
349.064	203.33
349.515	171.26
349.965	174.49
350.416	182.32
350.866	222.89
351.317	238.01
351.767	411.7
352.217	541.75
352.668	519.71
353.118	470.33
353.568	376.64
354.018	351.06
354.468	402.66
354.918	309.83
355.368	293.19
355.818	363.04
356.268	973.48
356.718	4362.62
357.168	1058.18
357.617	503.12
358.067	567.55
358.517	506.74
358.966	542.52
359.416	628.72
359.865	682.17
360.315	736.28
360.764	397.99
361.213	235.86
361.663	181.19
362.112	224.4
362.561	311.68
363.01	229.44
363.459	186.75
363.908	183.17
364.357	147.64
364.806	152.31
365.255	113.61
365.703	125.84
366.152	111.98
366.601	93.2
367.05	79.8
367.498	100.92
367.947	88.45
368.395	92.74
368.844	86.87
369.292	77.65
369.74	87.86
370.189	94.65
370.637	71.53
371.085	86.19
371.533	112.52
371.981	102.92
372.429	101.15
372.877	124.91
373.325	121.41
373.773	109.51
374.221	104.12
374.669	101.77
375.116	128.61
375.564	161.51
376.012	169.35
376.459	150.42
376.907	165.3
377.354	154.41
377.801	145.69
378.249	175.44
378.696	243.35
379.143	344.62
379.591	368.3
380.038	474.56
380.485	299.47
380.932	298.12
381.379	362.75
381.826	369.68
382.273	264.47
382.72	212.2
383.166	215.38
383.613	161.35
384.06	127.79
384.506	155.72
384.953	132.58
385.4	128.12
385.846	115.52
386.292	87.72
386.739	58.12
387.185	52.72
387.631	66.91
388.078	78.18
388.524	66.1
388.97	71.29
389.416	62.98
389.862	69.65
390.308	77.44
390.754	83.88
391.2	87.08
391.645	89.81
392.091	114.46
392.537	111.49
392.983	90.92
393.428	115.89
393.874	114.71
394.319	128.11
394.765	136.41
395.21	120.27
395.655	112.69
396.101	116.26
396.546	110.44
396.991	94.77
397.436	86.32
397.881	81.99
398.326	63.36
398.771	65.65
399.216	51.47
399.661	42.97
400.106	50.07
400.551	52.32
400.995	46.78
401.44	50.69
401.885	50.78
402.329	52.75
402.774	54.01
403.218	61.81
403.663	58.49
404.107	62.18
404.551	64.08
404.995	64.35
405.44	59.02
405.884	57.58
406.328	52.6
406.772	48.92
407.216	45.05
407.66	41.01
408.104	31.4
408.547	32.43
408.991	31.3
409.435	28.53
409.879	25.76
410.322	27.97
410.766	29.04
411.209	30.59
411.653	30.32
412.096	31.49
412.54	31.78
412.983	33.37
413.426	35.37
413.869	32.67
414.312	34.11
414.756	31.69
415.199	30.69
415.642	32
416.085	29.67
416.527	27.78
416.97	27.25
417.413	26.18
417.856	25.15
418.298	20.39
418.741	19.58
419.184	17.18
419.626	13.29
420.069	12.15
420.511	11.78
420.953	14.54
421.396	15.85
421.838	14.09
422.28	15.47
422.722	17.36
423.164	18.74
423.606	21.42
424.048	20.05
424.49	23.12
424.932	22.38
425.374	20.31
425.816	17.64
426.258	18.7
426.699	20.72
427.141	23.72
427.582	21.76
428.024	20.71
428.465	16.63
428.907	18.97
429.348	19.42
429.789	22.47
430.231	25.34
430.672	26.7
431.113	27.34
431.554	26
431.995	22.1
432.436	22.76
432.877	23.38
433.318	26.54
433.759	24
434.2	23.07
434.64	19.52
435.081	19.83
435.522	21.72
435.962	20.29
436.403	21.54
436.843	20.15
437.284	18.75
437.724	18.47
438.164	15.88
438.604	16.3
439.045	17.81
439.485	19.66
439.925	18.29
440.365	16.05
440.805	15.59
441.245	15.78
441.685	17.72
442.125	17.77
442.564	17.46
443.004	17.78
443.444	17.48
443.883	17.92
444.323	16.67
444.762	13.21
445.202	12.75
445.641	14.15
446.081	11.94
446.52	11.03
446.959	11.74
447.398	12.26
447.837	12.35
448.276	12.44
448.716	13.83
449.154	11.69
449.593	14.16
450.032	14.61
450.471	13.08
450.91	12.32
451.349	14.53
451.787	13.66
452.226	12.75
452.664	12.61
453.103	12.03
453.541	9.93
453.98	13.06
454.418	13.43
454.856	13.92
455.295	14.57
455.733	16.04
456.171	14.96
456.609	15.95
457.047	16.48
457.485	17.97
457.923	19.42
458.361	18.72
458.798	17.6
459.236	17.26
459.674	17.11
460.111	17.39
460.549	17.56
460.987	16.13
461.424	15.27
461.862	15.5
462.299	15.54
462.736	16.25
463.173	16.29
463.611	18.21
464.048	17.71
464.485	18.09
464.922	16.69
465.359	15.49
465.796	21.39
466.233	22.49
466.67	23.36
467.106	24.3
467.543	22.65
467.98	22.35
468.416	20.55
468.853	20.05
469.29	19.25
469.726	19.74
470.162	20.02
470.599	15.62
471.035	14.29
471.471	13.13
471.907	10.81
472.344	11.32
472.78	12.4
473.216	12.48
473.652	13.58
474.088	14.15
474.523	14.31
474.959	13.82
475.395	13.49
475.831	14.32
476.266	14.67
476.702	14.43
477.138	14.76
477.573	13.53
478.008	13.56
478.444	14.15
478.879	14.35
479.314	13.91
479.75	14.2
480.185	13.81
480.62	13
481.055	12.41
481.49	13.33
481.925	12.82
482.36	14.68
482.795	14.54
483.229	13.15
483.664	12.87
484.099	13.31
484.534	13.91
484.968	14.57
485.403	13.89
485.837	13.85
486.271	13.59
486.706	13.04
487.14	12.33
487.574	12.51
488.009	12.41
488.443	11.48
488.877	11.7
489.311	10.7
489.745	10.59
490.179	11.41
490.613	12.49
491.046	12.1
491.48	12.34
491.914	12.67
492.348	12.23
492.781	12.77
493.215	13
493.648	12.15
494.082	12.67
494.515	13.07
494.948	13.54
495.382	12.28
495.815	13.02
496.248	13.55
496.681	12.64
497.114	12.94
497.547	12.82
497.98	13.81
498.413	14.95
498.846	14.94
499.279	14.08
499.711	13.96
500.144	14.14
500.577	14.52
501.009	14.25
501.442	14.93
501.874	14.83
502.306	14.87
502.739	16.31
503.171	16.32
503.603	16.67
504.036	16.84
504.468	16.25
504.9	16.71
505.332	16.03
505.764	16.55
506.196	16.42
506.627	16.89
507.059	17.4
507.491	15.65
507.923	15.51
508.354	16.22
508.786	16.6
509.217	17.46
509.649	17.53
510.08	18
510.512	18.25
510.943	18.12
511.374	18.34
511.805	17.75
512.237	17.51
512.668	17.7
513.099	17.12
513.53	17.65
513.961	17.98
514.391	18.02
514.822	19.21
515.253	19.67
515.684	20.87
516.114	21.06
516.545	21.4
516.975	21.78
517.406	21.59
517.836	21.13
518.267	21.25
518.697	21.66
519.127	21.94
519.558	21.06
519.988	20.44
520.418	19.73
520.848	19.36
521.278	19.39
521.708	33.92
522.138	34.61
522.567	34.87
522.997	34.99
523.427	35.28
523.857	35.46
524.286	35.75
524.716	36.37
525.145	36.59
525.575	37.29
526.004	37.13
526.433	23.54
526.863	23.14
527.292	24.39
527.721	25.14
528.15	24.72
528.579	25.21
529.008	25.1
529.437	24.71
529.866	24.95
530.295	24.84
530.724	25.8
531.152	26.03
531.581	27.06
532.01	26.56
532.438	25.55
532.867	25.59
533.295	26.16
533.723	26.32
534.152	26.94
534.58	27.72
535.008	27.92
535.436	28.41
535.865	28.23
536.293	27.27
536.721	27.25
537.149	28.01
537.576	28.51
538.004	28.35
538.432	27.92
538.86	27.77
539.287	26.91
539.715	26.87
540.143	26.33
540.57	26.75
540.998	27.23
541.425	28.7
541.852	28.51
542.28	28.21
542.707	27.72
543.134	28.47
543.561	28.49
543.988	28.52
544.415	28.34
544.842	28.28
545.269	27.71
545.696	28.24
546.123	27.4
546.549	27.51
546.976	27.63
547.403	27.63
547.829	27.11
548.256	27.4
548.682	27.52
549.108	27.96
549.535	27.74
549.961	27.44
550.387	27.02
550.813	27.5
551.24	27.55
551.666	27.32
552.092	27.22
552.518	26.87
552.943	26.82
553.369	27.05
553.795	27.27
554.221	27.95
554.646	28.56
555.072	29.65
555.498	28.39
555.923	27.7
556.349	27.87
556.774	28.1
557.199	28.71
557.625	28.58
558.05	28.65
558.475	28.17
558.9	27.8
559.325	27.81
559.75	27.01
560.175	27.62
560.6	27.34
561.025	26.89
561.449	27.1
561.874	26.55
562.299	26.34
562.723	26.11
563.148	25.99
563.572	25.84
563.997	25.62
564.421	24.99
564.846	23.9
565.27	24.55
565.694	24.35
566.118	23.67
566.542	24.54
566.966	24.8
567.39	24.72
567.814	24.87
568.238	25.21
568.662	24.71
569.086	24.83
569.509	25.32
569.933	25.95
570.357	25.98
570.78	26.17
571.204	26.25
571.627	25.54
572.05	25.3
572.474	25.77
572.897	25.44
573.32	26.02
573.743	25.52
574.166	25.9
574.589	24.87
575.012	25.24
575.435	24.69
575.858	23.96
576.281	24.4
576.704	23.93
577.126	22.65
577.549	22.15
577.972	21.7
578.394	21.51
578.817	22.51
579.239	22.59
579.661	22.12
580.084	23.48
580.506	23.28
580.928	22.81
581.35	23.53
581.772	23.62
582.194	23.86
582.616	23.54
583.038	22.92
583.46	21.18
583.882	20.62
584.303	20.03
584.725	18.99
585.147	21.98
585.568	21.82
585.99	21.11
586.411	21.41
586.833	21.66
587.254	21.82
587.675	22.92
588.096	22.79
588.518	23.14
588.939	23.5
589.36	23.34
589.781	19.74
590.202	21.52
590.623	21.81
591.043	21.34
591.464	21.02
591.885	21.61
592.305	20.97
592.726	20.7
593.147	20.73
593.567	21.25
593.987	21.14
594.408	20.84
594.828	19.52
595.248	20.27
595.669	20.55
596.089	20.2
596.509	19.05
596.929	18.72
597.349	19.56
597.769	19.16
598.189	18.59
598.608	18.21
599.028	18.8
599.448	17.74
599.867	16.68
600.287	16.35
600.706	16.58
601.126	17.29
601.545	17.9
601.965	17.25
602.384	17.21
602.803	16.48
603.222	17.27
603.641	16.82
604.061	17.24
604.48	17.12
604.898	16.95
605.317	16.49
605.736	16.39
606.155	16.59
606.574	16.36
606.992	16.86
607.411	17.25
607.829	16.12
608.248	16.1
608.666	15.75
609.085	16.1
609.503	16.02
609.921	16.37
610.339	15.7
610.758	14.79
611.176	15.04
611.594	14.93
612.012	15.27
612.43	15.82
612.847	16.06
613.265	16.4
613.683	15.99
614.101	16.13
614.518	15.44
614.936	15.53
615.353	16.2
615.771	16.04
616.188	15.84
616.606	15.62
617.023	15.65
617.44	15.21
617.857	15.1
618.274	15
618.691	15.47
619.108	15.42
619.525	15.12
619.942	15.34
620.359	15.21
620.776	15.19
621.192	15.64
621.609	16.15
622.026	16.21
622.442	15.98
622.859	15.68
623.275	15.09
623.691	15.47
624.108	15.99
624.524	15.87
624.94	16.13
625.356	15.58
625.772	15
626.188	14.15
626.604	13.86
627.02	13.81
627.436	14.09
627.852	15.09
628.268	15.34
628.683	14.99
629.099	14.72
629.514	14.1
629.93	14.32
630.345	13.78
630.761	13.53
631.176	13.56
631.591	15.23
632.007	15.29
632.422	14.12
632.837	13.15
633.252	13.68
633.667	13.85
634.082	14.02
634.497	14.47
634.911	16.49
635.326	16.59
635.741	17.06
636.155	16.16
636.57	17.01
636.984	17.21
637.399	19.38
637.813	18.94
638.228	17.76
638.642	17.63
639.056	17.02
639.47	15.49
639.884	16.44
640.298	15.74
640.712	16.11
641.126	15.68
641.54	15.3
641.954	12.13
642.368	12.32
642.781	15.31
643.195	15.7
643.609	15.68
644.022	15.42
644.436	13.7
644.849	13.91
645.262	13.03
645.676	12.76
646.089	12.94
646.502	15.18
646.915	14.39
647.328	12.98
647.741	13.69
648.154	13.46
648.567	15.2
648.98	16.09
649.393	15.97
649.805	15.81
650.218	15.34
650.631	15.58
651.043	15.05
651.456	15.76
651.868	14.78
652.28	13.51
652.693	13.15
653.105	11.79
653.517	12.12
653.929	11.87
654.341	12.29
654.753	12.72
655.165	12.35
655.577	11.79
655.989	10.99
656.401	10.64
656.813	11.54
657.224	12.47
657.636	12.57
658.047	13.09
658.459	13.41
658.87	11.97
659.282	11.97
659.693	12.22
660.104	12.53
660.515	12.74
660.926	12.75
661.338	12.67
661.749	11.72
662.159	12.04
662.57	10.34
662.981	10.59
663.392	12.05
663.803	11.56
664.213	11.4
664.624	11.35
665.035	11.33
665.445	11.22
665.855	11.53
666.266	12.95
666.676	12.44
667.086	12.41
667.497	12.43
667.907	11.55
668.317	11.59
668.727	13.79
669.137	12.87
669.547	12.81
669.956	12.1
670.366	11.82
670.776	11.3
671.186	11.15
671.595	11.58
672.005	11.15
672.414	11.47
672.824	12.06
673.233	9.45
673.642	10.23
674.052	9.95
674.461	11.56
674.87	10.89
675.279	11.06
675.688	10.04
676.097	11.38
676.506	11.18
676.915	11.72
677.323	11.91
677.732	12.69
678.141	12.66
678.549	13.69
678.958	11.79
679.366	11.46
679.775	10.83
680.183	12.63
680.592	11.85
681	12.32
681.408	11.54
681.816	11.47
682.224	10.85
682.632	11.99
683.04	12.1
683.448	13.09
683.856	14.34
684.264	15.11
684.671	13.97
685.079	13.38
685.487	13.39
685.894	14.12
686.302	12.51
686.709	12.62
687.116	11.85
687.524	11.84
687.931	13.26
688.338	12.31
688.745	11.54
689.152	11.6
689.559	12.21
689.966	13.54
690.373	14.34
690.78	16.23
691.187	16.97
691.593	18.75
692	18.28
692.407	18.95
692.813	21.22
693.22	21.99
693.626	22.08
694.032	22.76
694.439	22.78
694.845	22.56
695.251	22.6
695.657	23.4
696.063	20.78
696.469	21.53
696.875	20.99
697.281	20.22
697.687	20.14
698.093	20.88
698.498	20.94
698.904	20.88
699.31	21.88
699.715	23.11
700.12	22.7
700.526	24.57
700.931	24.58
701.337	25.14
701.742	25.47
702.147	25.79
702.552	26.09
702.957	25.75
703.362	26.13
703.767	25.36
704.172	24.37
704.577	24.23
704.981	23.64
705.386	24.42
705.791	25.15
706.195	25.72
706.6	26.53
707.004	26.15
707.408	26.88
707.813	27.53
708.217	29.25
708.621	29.61
709.025	30.54
709.43	32.21
709.834	32.8
710.237	32.32
710.641	32.13
711.045	32.65
711.449	34.47
711.853	36.26
712.256	36.36
712.66	35.71
713.064	36.55
713.467	38.08
713.87	37.98
714.274	37.85
714.677	39.08
715.08	40.15
715.484	41.16
715.887	42.95
716.29	40.85
716.693	41.42
717.096	42.45
717.499	42.98
717.901	41.42
718.304	41.58
718.707	41.82
719.109	41.4
719.512	41.79
719.915	42.49
720.317	41.8
720.719	43.41
721.122	43.13
721.524	42.6
721.926	45.4
722.328	46.3
722.731	46.29
723.133	46.62
723.535	47.15
723.937	46.03
724.338	47.02
724.74	47.65
725.142	77.95
725.544	80.14
725.945	88.86
726.347	86.07
726.748	86.21
727.15	87.31
727.551	89.33
727.952	87.97
728.354	87.22
728.755	86.37
729.156	84.69
729.557	53.89
729.958	52.33
730.359	43.98
730.76	44.6
731.161	45.22
731.562	44.19
731.962	42.77
732.363	43.47
732.763	44.24
733.164	43.16
733.564	42.97
733.965	44.17
734.365	43.72
734.766	44.01
735.166	42.57
735.566	42.05
735.966	41.95
736.366	42.28
736.766	42.5
737.166	41.46
737.566	42.21
737.966	43.17
738.365	43.67
738.765	44.61
739.165	45.09
739.564	45.54
739.964	44.77
740.363	44.21
740.763	41.86
741.162	42.88
741.561	44.11
741.96	43.59
742.36	42.57
742.759	41.87
743.158	40.09
743.557	39
743.955	39.29
744.354	38.84
744.753	39.08
745.152	41.78
745.55	40.61
745.949	40.4
746.348	40.49
746.746	39.44
747.144	41.64
747.543	41.3
747.941	41.32
748.339	41.46
748.737	42.94
749.136	44.59
749.534	43.08
749.932	44.83
750.33	44.18
750.727	43.69
751.125	44.3
751.523	42.57
751.921	45.04
752.318	47.61
752.716	48.91
753.113	48.91
753.511	48.75
753.908	50.13
754.305	52.5
754.703	53.73
755.1	54.93
755.497	56.37
755.894	57.99
756.291	57.56
756.688	57.54
757.085	56.32
757.482	58.02
757.878	60.31
758.275	62.13
758.672	57.32
759.068	57.38
759.465	58.75
759.861	58.91
760.258	59.76
760.654	61.29
761.05	61.03
761.447	60.78
761.843	57.83
762.239	54.94
762.635	48.61
763.031	48.59
763.427	47.32
763.822	46.24
764.218	46.73
764.614	45.72
765.01	42.44
765.405	40.84
765.801	41.86
766.196	41.62
766.592	40.84
766.987	43.46
767.382	42.97
767.778	43.76
768.173	43.92
768.568	43.86
768.963	43.46
769.358	44.68
769.753	45.65
770.148	45.8
770.542	46.88
770.937	46.97
771.332	46.87
771.726	46.35
772.121	48.47
772.515	48.56
772.91	48.71
773.304	48.99
773.699	50.61
774.093	50.48
774.487	51.33
774.881	50.9
775.275	50.95
775.669	50.39
776.063	52.54
776.457	51.2
776.851	50.75
777.245	50.54
777.638	50.2
778.032	48.36
778.425	49.79
778.819	51.88
779.212	54.06
779.606	56.54
779.999	56.38
780.392	55.71
780.786	54.03
781.179	55.17
781.572	55.14
781.965	56.37
782.358	57.63
782.751	55.67
783.143	52.34
783.536	50.14
783.929	47.19
784.322	48.33
784.714	46.77
785.107	48.53
785.499	49.2
785.891	50
786.284	50.51
786.676	50.11
787.068	51.69
787.46	53.15
787.852	53.08
788.245	53.37
788.636	52.15
789.028	54.73
789.42	56.66
789.812	56.96
790.204	57.63
790.595	58.38
790.987	58.97
791.378	59.43
791.77	58.36
792.161	57.98
792.553	58.35
792.944	58.91
793.335	58.48
793.726	57.71
794.117	58.69
794.508	57.14
794.899	53.58
795.29	52.39
795.681	50.81
796.072	51.44
796.463	64.36
796.853	68.33
797.244	68.37
797.634	68.09
798.025	68.72
798.415	65.7
798.806	67.2
799.196	68.83
799.586	70.19
799.976	72.44
800.366	72.62
800.756	59.08
801.146	55.96
801.536	56.6
801.926	55.64
802.316	54.43
802.706	54.36
803.095	53.72
803.485	54.87
803.874	54.47
804.264	53.66
804.653	55.65
805.043	58.23
805.432	58.72
805.821	59.88
806.21	61.08
806.599	61.59
806.988	62.48
807.377	61.67
807.766	60.24
808.155	59
808.544	57.13
808.933	52.52
809.321	52.78
809.71	50.63
810.098	49.81
810.487	47.6
810.875	45.5
811.264	48.03
811.652	56.55
812.04	59.27
812.428	63.51
812.816	62.5
813.204	68.87
813.592	67.8
813.98	71.54
814.368	74.63
814.756	79.32
815.144	81.16
815.531	84.01
815.919	75.12
816.306	75.38
816.694	71.09
817.081	74.37
817.469	74.43
817.856	71.24
818.243	68.58
818.63	64.44
819.017	63.24
819.404	65.46
819.791	62.01
820.178	61.63
820.565	65.93
820.952	72.62
821.339	71.22
821.725	71.06
822.112	74.08
822.498	76.06
822.885	75.3
823.271	74.66
823.657	72.62
824.044	72.54
824.43	75.61
824.816	75.67
825.202	72.54
825.588	73.47
825.974	75.29
826.36	73.28
826.746	72.74
827.132	72.86
827.517	74.09
827.903	72.93
828.289	75.43
828.674	71.4
829.06	67.37
829.445	65.92
829.83	67.45
830.216	66.77
830.601	72.78
830.986	74.01
831.371	76.19
831.756	76.54
832.141	79.91
832.526	78.78
832.911	78.39
833.295	78.6
833.68	81.58
834.065	82.71
834.449	78.52
834.834	75.73
835.218	75.87
835.603	77.97
835.987	74.53
836.371	71.19
836.755	70.49
837.139	71.71
837.524	69.02
837.908	64.56
838.291	64.54
838.675	64.27
839.059	64.68
839.443	63.71
839.827	58.6
840.21	58.78
840.594	60.2
840.977	61.84
841.361	59.42
841.744	58.82
842.127	62.16
842.511	60.33
842.894	60.48
843.277	59.11
843.66	58.34
844.043	60.52
844.426	62.07
844.809	57.71
845.191	55.86
845.574	60.55
845.957	61.28
846.339	62.89
846.722	60.65
847.104	59.53
847.487	55.41
847.869	58.19
848.252	59.53
848.634	62.38
849.016	62.19
849.398	65.5
849.78	62.35
850.162	64.38
850.544	64.02
850.926	63.43
851.307	58.76
851.689	63.96
852.071	55.82
852.452	55.86
852.834	50.75
853.215	55.45
853.597	51.81
853.978	61.22
854.359	62.52
854.741	61.37
855.122	61.15
855.503	63.83
855.884	63.73
856.265	64.25
856.646	62.11
857.026	65.58
857.407	67.38
857.788	64.85
858.169	56.39
858.549	62.33
858.93	61.51
859.31	65.07
859.69	72.44
860.071	70.82
860.451	76.55
860.831	76.65
861.211	73.29
861.591	70.48
861.971	72.31
862.351	72.97
862.731	63.38
863.111	65.04
863.491	67.23
863.87	65.54
864.25	66.65
864.629	69.66
865.009	69.05
865.388	77.1
865.768	78.43
866.147	76.26
866.526	75.46
866.905	76.12
867.284	76.41
867.663	69.08
868.042	65.67
868.421	64.08
868.8	54.98
869.179	57.62
869.558	52.8
869.936	54.89
870.315	53.56
870.693	57.46
871.072	56.87
871.45	51.22
871.828	54.22
872.207	56.44
872.585	57.58
872.963	60.76
873.341	61.63
873.719	66.28
874.097	63.58
874.475	67.88
874.853	66.14
875.23	71.63
875.608	78.63
875.986	80.99
876.363	78.48
876.741	86.75
877.118	92.67
877.495	95.14
877.873	92.32
878.25	95.04
878.627	90.72
879.004	90.42
879.381	84.46
879.758	85.45
880.135	80.97
880.512	81.39
880.889	76.07
881.265	69.24
881.642	64.17
882.019	66.92
882.395	78.44
882.772	85.03
883.148	89.1
883.524	92.3
883.901	86.16
884.277	86.56
884.653	86.01
885.029	89.08
885.405	99.96
885.781	101.67
886.157	95.45
886.532	86.62
886.908	82.7
887.284	84.8
887.659	82.69
888.035	84.99
888.411	81.86
888.786	83.89
889.161	78.13
889.537	74.96
889.912	75.94
890.287	74.14
890.662	70.5
891.037	67.89
891.412	59.38
891.787	54.86
892.162	57.28
892.536	62.54
892.911	62.56
893.286	60.73
893.66	56.55
894.035	57.37
894.409	54.01
894.784	56.11
895.158	55.37
895.532	57.78
895.906	65.97
896.281	67.63
896.655	68.88
897.029	71.52
897.402	78.23
897.776	78.48
898.15	77.2
898.524	81.5
898.898	78.93
899.271	84.55
899.645	81.6
900.018	76.41
900.392	78.87
900.765	75.53
901.138	76.4
901.511	69.68
901.884	84.9
902.258	84.73
902.631	99.64
903.003	107.3
903.376	99.35
903.749	108.01
904.122	109.32
904.495	102.2
904.867	97.75
905.24	87.26
905.612	80.12
905.985	62.64
906.357	63.11
906.729	55.11
907.102	58.39
907.474	65.76
907.846	71.25
908.218	77.33
908.59	88.08
908.962	91.32
909.334	90.82
909.705	102.95
910.077	107.64
910.449	111.59
910.82	117.29
911.192	124.98
911.563	129.07
911.935	118.87
912.306	103.73
912.677	102.44
913.048	105.42
913.419	121.28
913.79	120.11
914.161	122.44
914.532	128.92
914.903	111.55
915.274	104.36
915.645	96.95
916.015	91.38
916.386	95.39
916.756	86.94
917.127	81.13
917.497	81.84
917.868	89.52
918.238	83.82
918.608	74.52
918.978	78.94
919.348	78.62
919.718	84.9
920.088	88.21
920.458	91.99
920.828	93.62
921.198	85.6
921.567	76.35
921.937	64.45
922.306	53.79
922.676	56.72
923.045	59.78
923.415	63.36
923.784	60.06
924.153	64.49
924.522	74.96
924.891	65.72
925.26	75.87
925.629	73.4
925.998	73.33
926.367	88.63
926.736	92.9
927.104	100.44
927.473	96.39
927.842	107.28
928.21	82.76
928.578	46.74
928.947	73.61
929.315	69.24
929.683	79.7
930.051	80.59
930.42	75.32
930.788	56.37
931.156	43.11
931.523	84.63
931.891	77.04
932.259	104.9
932.627	147.58
932.994	197.66
933.362	204.93
933.729	202.91
934.097	194.84
934.464	166.27
934.831	189.51
935.199	199.68
935.566	176.58
935.933	164.98
936.3	199.6
936.667	176.12
937.034	196.16
937.401	176.84
937.767	143.47
938.134	120.44
938.501	166.97
938.867	204.41
939.234	302.86
939.6	223.96
939.967	305.79
940.333	203.3
940.699	149.83
941.065	76.43
941.431	85.64
941.798	127.69
942.163	219.55
942.529	155.12
942.895	117.8
943.261	95.31
943.627	137.96
943.992	134.59
944.358	141
944.723	174.21
945.089	162.83
945.454	168.67
945.82	169.15
946.185	158.19
946.55	188.09
946.915	177.49
947.28	193.16
947.645	160.55
948.01	161.63
948.375	167.89
948.74	153.81
949.104	181.74
949.469	166.86
949.834	275.82
950.198	325.82
950.562	221.99
950.927	184.53
951.291	250.3
951.655	212.79
952.02	133.25
952.384	105.12
952.748	125.87
953.112	150.82
953.476	150.46
953.839	131.25
954.203	126.43
954.567	115.04
954.931	147.26
955.294	120.46
955.658	116.34
956.021	207.29
956.385	316.76
956.748	385.1
957.111	340.1
957.474	371.57
957.837	465.26
958.2	251.22
958.563	173.13
958.926	158.96
959.289	203.29
959.652	271.97
960.015	229.68
960.377	267.09
960.74	278.58
961.102	380.16
961.465	535.1
961.827	515.82
962.189	906.26
962.552	629.73
962.914	521.2
963.276	332.54
963.638	269.17
964	257.31
964.362	228.54
964.724	199.04
965.085	190.7
965.447	155.9
965.809	130.6
966.17	135.58
966.532	148.28
966.893	116.95
967.255	107.62
967.616	106.87
967.977	99.05
968.338	85.22
968.699	94.79
969.061	80.35
969.421	92.44
969.782	102.02
970.143	105.74
970.504	121.13
970.865	146.9
971.225	178.84
971.586	182.97
971.946	233.49
972.307	203.76
972.667	228
973.027	227.27
973.388	219.71
973.748	150.07
974.108	158.11
974.468	126.97
974.828	166.24
975.188	127.66
975.548	119.36
975.907	115.14
976.267	124.05
976.627	130.59
976.986	136.62
977.346	133.05
977.705	132.59
978.064	121.01
978.424	117.36
978.783	96.32
979.142	90.68
979.501	92.35
979.86	95.13
980.219	92.05
980.578	100.35
980.937	78.42
981.296	84.41
981.654	73.46
982.013	72.18
982.371	120.39
982.73	115.7
983.088	137.11
983.447	158.25
983.805	220.21
984.163	485.34
984.521	490.97
984.879	813.99
985.237	-1240.67
985.595	1389.6
985.953	409.54
986.311	188.27
986.669	100.05
987.026	87.35
987.384	119.8
987.741	104.05
988.099	123.68
988.456	126.01
988.814	140.73
989.171	118.89
989.528	95.94
989.885	93.61
990.242	91.61
990.599	96.6
990.956	71.78
991.313	47.55
991.67	42.32
992.027	58.95
992.383	51.13
992.74	55.22
993.096	59.07
993.453	73.84
993.809	72.54
994.165	91.18
994.522	122.39
994.878	143.71
995.234	168.58
995.59	167.57
995.946	118.68
996.302	124.76
996.658	125.93
997.013	130.62
997.369	157.09
997.725	196.78
998.08	132.41
998.436	96.43
998.791	91.98
999.147	133.29
999.502	207.62
999.857	189.03
1000.212	244
1000.567	304.92
1000.922	217.04
1001.277	130.59
1001.632	142.79
1001.987	127.33
1002.342	112.04
1002.696	113.02
1003.051	107.74
1003.406	124.87
1003.76	97.62
1004.114	127
1004.469	140.14
1004.823	110.46
1005.177	107.7
1005.531	77.6
1005.885	95.05
1006.239	110.41
1006.593	154.65
1006.947	183.86
1007.301	116.63
1007.655	133.69
1008.008	115.7
1008.362	101.45
1008.715	151.55
1009.069	167.63
1009.422	286.8
1009.776	488.82
1010.129	314.36
1010.482	196.66
1010.835	159.92
1011.188	345.77
1011.541	317.16
1011.894	-1434.2
1012.247	6065.1
1012.6	402.76
1012.952	238.22
1013.305	97.67
1013.657	80.48
1014.01	60.84
1014.362	61.4
1014.715	100.3
1015.067	110.46
1015.419	107.87
1015.771	95.1
1016.123	81.49
1016.475	94.08
1016.827	89.6
1017.179	124.74
1017.531	120.2
1017.883	114.89
1018.234	155.97
1018.586	171.17
1018.938	183.62
1019.289	227.07
1019.64	238.01
1019.992	232.46
1020.343	214.48
1020.694	230.08
1021.045	189.34
1021.396	206.57
1021.747	268.66
1022.098	242.28
1022.449	166.29
1022.8	162.23
1023.151	149.52
1023.501	160.81
1023.852	157.32
1024.202	160.8
1024.553	138.72
1024.903	169.82
1025.253	163.58
1025.604	153.16
1025.954	169.64
1026.304	176.88
1026.654	171.41
1027.004	179.1
1027.354	148.79
1027.703	200.89
1028.053	261.83
1028.403	604.98
1028.753	390.59
1029.102	323.57
1029.452	-268.21
1029.801	23.12
1030.15	59.9
1030.499	50.66
897.758	1157.86
901.051	1122.86
904.343	1144.58
907.636	1142.78
910.928	1172.75
914.22	1133.93
917.511	1139.69
920.803	1160.86
924.094	1156.41
927.384	1157.54
930.675	1141.37
933.965	1126.02
937.255	1142.02
940.544	1125.69
943.834	1128.78
947.123	1099.73
950.411	1144.41
953.7	1137.54
956.988	1129.29
960.276	1092.13
963.563	1113.49
966.851	1119.87
970.138	1136.32
973.424	1138.03
976.711	1112.1
979.997	1135.3
983.283	1152.74
986.568	1120.22
989.853	1113.13
993.138	1124.38
996.423	1173.3
999.708	1150.29
1002.992	1161.51
1006.275	1121.99
1009.559	1120.32
1012.842	1168.15
1016.125	1144.83
1019.408	1135.31
1022.69	1162.66
1025.972	1173.44
1029.254	1163.17
1032.536	1144.14
1035.817	1150.3
1039.098	1136.27
1042.379	1158.59
1045.659	1170.74
1048.939	1144.25
1052.219	1144.27
1055.498	1142.23
1058.778	1133.25
1062.057	1127
1065.335	1142.71
1068.614	1143.8
1071.892	1135.54
1075.17	1164.53
1078.447	1163.68
1081.724	1160.01
1085.001	1170.64
1088.278	1158.91
1091.554	1159.9
1094.83	1159.96
1098.106	1172.39
1101.382	1185.77
1104.657	1181.65
1107.932	1185.14
1111.206	1172.35
1114.481	1150.23
1117.755	1153.84
1121.029	1149.34
1124.302	1176.21
1127.575	1162
1130.848	1163.24
1134.121	1148.68
1137.393	1125.01
1140.665	1158.73
1143.937	1142.99
1147.208	1123.23
1150.48	1149.18
1153.75	1142.04
1157.021	1143.99
1160.291	1132.4
1163.561	1155.01
1166.831	1137.7
1170.101	1147.67
1173.37	1132.06
1176.639	1111.37
1179.907	1139.08
1183.176	1140.76
1186.444	1145.29
1189.711	1155.47
1192.979	1168.53
1196.246	1148.54
1199.513	1157.32
1202.78	1159.16
1206.046	1163.33
1209.312	1178.39
1212.578	1182.23
1215.843	1160.98
1219.108	1154.57
1222.373	1160.26
1225.638	1147.96
1228.902	1138.33
1232.166	1127.95
1235.43	1117.99
1238.693	1131.58
1241.956	1131.45
1245.219	1151.32
1248.482	1146.08
1251.744	1148.63
1255.006	1203.5
1258.268	1179.49
1261.529	1164.6
1264.79	1165.37
1268.051	1206.74
1271.312	1216.74
1274.572	1197.12
1277.832	1192.3
1281.092	1184.43
1284.351	1181.63
1287.61	1175.28
1290.869	1144.62
1294.128	1146.83
1297.386	1165.07
1300.644	1163.6
1303.902	1166.16
1307.159	1102.39
1310.416	1126.93
1313.673	1138.41
1316.93	1137.92
1320.186	1148.55
1323.442	1162.36
1326.697	1158.09
1329.953	1148.34
1333.208	1162.01
1336.463	1151.38
1339.717	1135.79
1342.972	1189.42
1346.226	1178.55
1349.479	1159.75
1352.733	1148.7
1355.986	1161.02
1359.238	1152.09
1362.491	1154.03
1365.743	1152.23
1368.995	1153.99
1372.247	1163.7
1375.498	1169.34
1378.749	1184.71
1382	1165.68
1385.251	1175.36
1388.501	1159.25
1391.751	1152.64
1395	1142.15
1398.25	1155.16
1401.499	1167.21
1404.748	1143.07
1407.996	1137.22
1411.244	1137.49
1414.492	1128.76
1417.74	1121.54
1420.987	1131.87
1424.234	1153.94
1427.481	1139.48
1430.728	1162.65
1433.974	1156.14
1437.22	1157.25
1440.465	1151.58
1443.711	1150.18
1446.956	1155.34
1450.201	1146.72
1453.445	1170.41
1456.689	1157.68
1459.933	1167.33
1463.177	1185.16
1466.42	1175.2
1469.663	1162.49
1472.906	1168.06
1476.148	1194.06
1479.391	1175.2
1482.633	1168.24
1485.874	1177.28
1489.115	1177.39
1492.356	1174.28
1495.597	1161.54
1498.838	1157.12
1502.078	1152.25
1505.318	1144.83
1508.557	1154.95
1511.797	1152.67
1515.036	1175.23
1518.274	1155.31
1521.513	1131.7
1524.751	1136.26
1527.989	1142.83
1531.227	1152.2
1534.464	1151.8
1537.701	1147.22
1540.938	1149.84
1544.174	1129.64
1547.41	1121.44
1550.646	1139.13
1553.882	1158.17
1557.117	1189.03
1560.352	1191.49
1563.587	1169.96
1566.821	1156.26
1570.055	1167.32
1573.289	1151.96
1576.523	1176.01
1579.756	1180.98
1582.989	1194.82
1586.222	1172.83
1589.454	1190.74
1592.686	1182.03
1595.918	1191.46
1599.15	1194.18
1602.381	1213.08
1605.612	1206.6
1608.843	1248.73
1612.073	1214.45
1615.303	1208.08
1618.533	1200.98
1621.762	1203.7
1624.992	1192.88
1628.221	1187.25
1631.449	1184.57
1634.678	1196.83
1637.906	1181.86
1641.134	1189.29
1644.361	1175.71
1647.588	1168.81
1650.815	1183.26
1654.042	1168.43
1657.269	1179.1
1660.495	1168.95
1663.72	1166.74
1666.946	1148.98
1670.171	1140.42
1673.396	1126.73
1676.621	1120.01
1679.845	1119.73
1683.069	1121.65
1686.293	1131.69
1689.517	1125.77
1692.74	1106.38
1695.963	1116.57
1699.185	1130.31
1702.408	1120.33
1705.63	1131.97
1708.852	1138.29
1712.073	1126.02
1715.294	1133.4
1718.515	1159.31
1721.736	1138.99
1724.956	1136.06
1728.176	1147.86
1731.396	1152.31
1734.616	1150.46
1737.835	1172.55
1741.054	1156.93
1744.272	1156.8
1747.491	1173.64
1750.709	1183.57
1753.927	1160.23
1757.144	1176.59
1760.361	1198.6
1763.578	1182.14
1766.795	1161.39
1770.011	1157.76
1773.227	1166.09
1776.443	1187.03
1779.658	1203.67
1782.874	1180.41
1786.089	1173.71
1789.303	1175.12
1792.518	1176.71
1795.732	1171.18
1798.945	1178.49
1802.159	1201.8
1805.372	1171.93
1808.585	1167.17
1811.797	1165.89
1815.01	1181.82
1818.222	1194.21
1821.434	1182.39
1824.645	1197.29
1827.856	1197.11
1831.067	1207.98
1834.278	1190.53
1837.488	1179.13
1840.698	1235.94
1843.908	1217.09
1847.117	1203.04
1850.326	1167.32
1853.535	1197.25
1856.744	1211.72
1859.952	1178.44
1863.16	1178.11
1866.368	1194.83
1869.575	1237.74
1872.782	1189.37
1875.989	1161.56
1879.196	1184.41
1882.402	1180.75
1885.608	1195.21
1888.814	1166.83
1892.019	1124.58
1895.224	1152.89
1898.429	1140.73
1901.634	1129.15
1904.838	1122.86
1908.042	1146.85
1911.246	1156.93
1914.449	1139.26
1917.652	1131.76
1920.855	1124.02
1924.058	1135.81
1927.26	1163.02
1930.462	1171.64
1933.664	1189.39
1936.865	1165.69
1940.066	1170.78
1943.267	1146.67
1946.467	1150.08
1949.668	1154.08
1952.868	1191.52
1956.067	1191.67
1959.267	1163.43
1962.466	1173.46
1965.665	1161.18
1968.863	1161.95
1972.061	1157.51
1975.259	1157.43
1978.457	1194.96
1981.654	1176.4
1984.852	1177.42
1988.048	1157.64
1991.245	1145.99
1994.441	1188.43
1997.637	1161.85
2000.833	1156.83
2004.028	1169.2
2007.223	1202.33
2010.418	1188.92
2013.613	1166.92
2016.807	1163.95
2020.001	1164.33
2023.194	1172.79
2026.388	1165.04
2029.581	1139.81
2032.774	1172.46
2035.966	1177.21
2039.158	1151.48
2042.35	1162.91
2045.542	1129.64
2048.733	1168.35
2051.924	1158.91
2055.115	1165.49
2058.306	1151.47
2061.496	1174.1
2064.686	1197.41
2067.875	1149.29
2071.065	1150.04
2074.254	1160.03
2077.442	1139.31
2080.631	1176.92
2083.819	1146.42
2087.007	1142.78
2090.195	1136.48
2093.382	1139
2096.569	1139.23
2099.756	1117.55
2102.942	1148.93
2106.128	1150.25
2109.314	1147.55
2112.5	1140.75
2115.685	1128.37
2118.87	1130.18
2122.055	1166.73
2125.239	1153.66
2128.424	1150.48
2131.608	1174.82
2134.791	1167.55
2137.974	1183.3
2141.157	1179.8
2144.34	1166.02
2147.523	1158.12
2150.705	1174.08
2153.887	1157.4
2157.068	1144.39
2160.25	1132.31
2163.431	1143.14
2166.611	1129.5
2169.792	1140.49
2172.972	1091.99
2176.152	1124.26
2179.331	1133.54
2182.511	1132.6
2185.69	1137.66
2188.868	1137.89
2192.047	1155.49
2195.225	1171.53
2198.403	1143.99
2201.58	1135.56
2204.758	1128.79
2207.935	1165.7
2211.111	1121.05
2214.288	1115.04
2217.464	1130.84
2220.64	1116.26
2223.815	1139.62
2226.991	1103.25
2230.166	1108.9
2233.34	1126.81
2236.515	1135.49
2239.689	1172.29
2242.863	1148.81
2246.036	1173.41
2249.209	1167.89
2252.382	1181.63
2255.555	1182.4
2258.727	1162.07
2261.9	1180.39
2265.071	1177.23
2268.243	1180.11
2271.414	1157.27
2274.585	1142.63
2277.756	1173.01
2280.926	1154.33
2284.096	1170.88
2287.266	1133.69
2290.436	1160.9
2293.605	1164.51
2296.774	1180.45
2299.942	1184.49
2303.111	1192.48
2306.279	1214.13
2309.447	1209.06
2312.614	1197.66
2315.781	1205.22
2318.948	1192.83
2322.115	1214.13
2325.281	1160.38
2328.447	1167.36
2331.613	1151.89
2334.779	1148.57
2337.944	1147.06
2341.109	1146.68
2344.274	1142.53
2347.438	1123.16
2350.602	1136.62
2353.766	1140.57
2356.929	1136.81
2360.092	1159.09
2363.255	1139.35
2366.418	1129.33
2369.58	1144.88
2372.742	1131
2375.904	1121.29
2379.066	1117.95
2382.227	1132.21
2385.388	1112.2
2388.548	1091.94
2391.709	1107.05
2394.869	1102.72
2398.029	1132.55
2401.188	1122.57
2404.347	1115.16
2407.506	1109.77
2410.665	1139.06
2413.823	1126.8
2416.981	1119.32
2420.139	1127.01
2423.296	1145.63
2426.453	1132.6
2429.61	1144.81
2432.767	1129.96
2435.923	1148.26
2439.079	1125.52
2442.235	1142.75
2445.391	1113.18
2448.546	1133.49
2451.701	1149.29
2454.855	1147.88
2458.009	1162.66
2461.163	1157
2464.317	1138.8
2467.471	1151.37
2470.624	1168.95
2473.777	1163.32
2476.929	1170.13
2480.082	1179.36
2483.234	1172.84
2486.385	1144.73
2489.537	1141.45
2492.688	1131.67
2495.839	1145.58
2498.989	1150.18
2502.14	1143.03
2505.29	1136.63
2508.439	1148.58
2511.589	1122.73
2514.738	1124.06
2517.887	1131.25
2521.035	1165.61
2524.183	1146.27
2527.331	1142
2530.479	1134.43
2533.627	1139.24
