Data from N_1_DEC_VA_2N_Splice17_11-18-19-595.txt Node
Date: Sat Mar 14 11:18:19 EDT 2020
User: sa697716
Spectrometer: FLMS03696
Trigger mode: 0
Integration Time (sec): 3.180400E-1
Scans to average: 20
Electric dark correction enabled: true
Nonlinearity correction enabled: true
Boxcar width: 5
XAxis mode: Wavelengths
Number of Pixels in Spectrum: 2048
>>>>>Begin Spectral Data<<<<<
187.83	-60108.99
188.298	581.67
188.766	446.03
189.233	393.77
189.701	541.85
190.169	609.73
190.636	266.69
191.104	296.63
191.571	90.37
192.039	23.68
192.506	13.17
192.974	172.5
193.441	-109.3
193.908	241.4
194.375	98.31
194.842	131.13
195.31	58.39
195.777	102.58
196.244	222.58
196.711	196.31
197.177	230.05
197.644	254.02
198.111	360.12
198.578	490.04
199.045	384.14
199.511	613.96
199.978	696.96
200.445	618.06
200.911	667.94
201.378	692.09
201.844	642.33
202.31	1059.78
202.777	1083.23
203.243	616.66
203.709	596.48
204.176	722.87
204.642	618.75
205.108	587.86
205.574	487.68
206.04	442.35
206.506	415.13
206.972	385.15
207.438	356.98
207.903	396.6
208.369	376.01
208.835	369.96
209.301	378.64
209.766	378.53
210.232	367.44
210.697	440.34
211.163	514.11
211.628	737.19
212.094	634.38
212.559	822.14
213.024	542.55
213.49	651.37
213.955	633.11
214.42	603.75
214.885	541.76
215.35	518.4
215.815	519.73
216.28	544.41
216.745	429.76
217.21	447.01
217.675	363.67
218.14	367.29
218.604	368.71
219.069	386.86
219.534	387.22
219.998	389.52
220.463	423.18
220.927	424.39
221.392	373.17
221.856	367.35
222.32	385.22
222.785	464.44
223.249	550.2
223.713	568.28
224.177	520.13
224.642	597.61
225.106	684.1
225.57	696.23
226.034	543.37
226.497	802.05
226.961	743.61
227.425	878.19
227.889	895.3
228.353	833.02
228.816	1565.84
229.28	1519.85
229.744	1232.43
230.207	822.26
230.671	821.05
231.134	1171.85
231.597	1330.59
232.061	1219.9
232.524	1123.39
232.987	823.92
233.45	802.66
233.914	697.6
234.377	669.8
234.84	620.7
235.303	685.28
235.766	714.62
236.229	754.18
236.691	460.47
237.154	490.86
237.617	388.26
238.08	350.61
238.542	361.76
239.005	288.52
239.468	294.86
239.93	265.24
240.393	242.26
240.855	214.51
241.317	206.74
241.78	235.23
242.242	251.26
242.704	273.35
243.166	254.58
243.629	263.77
244.091	280.77
244.553	288.7
245.015	322.59
245.477	396.54
245.939	589.72
246.4	625.66
246.862	579.09
247.324	560.76
247.786	586.68
248.247	734.62
248.709	617.9
249.17	483.29
249.632	517.64
250.093	621.76
250.555	557.11
251.016	352.81
251.477	339.78
251.939	369.49
252.4	370.17
252.861	431.29
253.322	428.02
253.783	496.61
254.244	638.04
254.705	482.9
255.166	403.21
255.627	380.35
256.088	533.58
256.549	570.33
257.009	520.03
257.47	626.78
257.931	517.13
258.391	382.2
258.852	398.55
259.312	419.64
259.773	487.32
260.233	454.99
260.694	408.99
261.154	444.86
261.614	399.75
262.074	335.46
262.534	349.98
262.994	340.05
263.455	438.81
263.915	391.99
264.374	361.89
264.834	401.14
265.294	412.61
265.754	408.66
266.214	383.18
266.673	344.18
267.133	433.47
267.593	409.91
268.052	471.91
268.512	385.97
268.971	497.78
269.431	536.14
269.89	482.03
270.349	724.69
270.809	823.31
271.268	724.86
271.727	1487.86
272.186	1003.84
272.645	800.54
273.104	559.4
273.563	818.95
274.022	577.44
274.481	508.96
274.94	390.8
275.399	290.72
275.857	323.5
276.316	422.27
276.775	364.41
277.233	335.09
277.692	307.85
278.15	382.08
278.609	425.96
279.067	407.92
279.525	397.5
279.984	483.94
280.442	605.23
280.9	656.68
281.358	433.09
281.816	440.04
282.274	454.87
282.732	448.26
283.19	427.62
283.648	355.63
284.106	364.45
284.564	372.15
285.021	377.71
285.479	265.47
285.937	219.98
286.394	218.9
286.852	219.25
287.309	229.58
287.767	256.18
288.224	270.35
288.682	292.58
289.139	340.21
289.596	315.97
290.053	318.26
290.511	376.78
290.968	479.89
291.425	629.52
291.882	566.81
292.339	488.88
292.796	439.28
293.252	403.72
293.709	358.12
294.166	326.42
294.623	355.62
295.079	326.64
295.536	349.74
295.992	315.7
296.449	308.92
296.905	319.78
297.362	336.69
297.818	346.88
298.274	357.69
298.731	344.3
299.187	317.64
299.643	325.62
300.099	416.7
300.555	461.63
301.011	377.22
301.467	405.4
301.923	419.86
302.379	404.88
302.835	406.73
303.291	397.61
303.746	444.96
304.202	553.33
304.658	568.96
305.113	383.78
305.569	376.46
306.024	406.43
306.479	327.9
306.935	307.98
307.39	300.3
307.845	286.12
308.301	323.36
308.756	316.66
309.211	323.64
309.666	334.11
310.121	428.98
310.576	436.48
311.031	406.43
311.486	474.61
311.94	446.97
312.395	588.98
312.85	1108.38
313.305	4617.57
313.759	27388.14
314.214	1969.11
314.668	1623.43
315.123	1393.03
315.577	532.6
316.032	517.85
316.486	641.6
316.94	545.1
317.394	401.78
317.849	325.39
318.303	306.83
318.757	291.15
319.211	315.45
319.665	281.78
320.119	287.96
320.572	382.56
321.026	381.65
321.48	325.27
321.934	333.89
322.387	340.28
322.841	362.73
323.295	364.62
323.748	377.09
324.202	403.65
324.655	483.56
325.108	698.55
325.562	504.25
326.015	563.87
326.468	435.08
326.921	502.07
327.374	478.03
327.827	522.34
328.28	582.92
328.733	424.94
329.186	381.56
329.639	362.96
330.092	300.6
330.545	304.47
330.997	319.92
331.45	372.54
331.903	448.94
332.355	743.43
332.808	689.36
333.26	546.07
333.713	566.88
334.165	545.52
334.617	681.19
335.069	501.56
335.522	811.59
335.974	863.79
336.426	726.4
336.878	443.48
337.33	244.56
337.782	250.16
338.234	346.49
338.686	435.7
339.137	511.06
339.589	480.72
340.041	418.91
340.493	376.87
340.944	392.62
341.396	392.71
341.847	359.21
342.299	443.65
342.75	554.36
343.201	468.92
343.653	523.75
344.104	610.77
344.555	517.25
345.006	747.69
345.457	606.93
345.908	467.13
346.359	474.11
346.81	389.76
347.261	382.31
347.712	358.57
348.163	351.95
348.613	392.05
349.064	387.6
349.515	318.17
349.965	332.58
350.416	380.86
350.866	416.67
351.317	456.56
351.767	748.41
352.217	917.02
352.668	771.89
353.118	726.67
353.568	601.4
354.018	529.91
354.468	604.4
354.918	451.29
355.368	429.4
355.818	603.34
356.268	1650.84
356.718	7094.96
357.168	1885.44
357.617	940.06
358.067	1060.49
358.517	1030.4
358.966	1215.78
359.416	1380.85
359.865	1456.73
360.315	1513.48
360.764	676.65
361.213	425.63
361.663	369.25
362.112	433
362.561	656.63
363.01	478.67
363.459	397.72
363.908	385.73
364.357	354.82
364.806	579.06
365.255	435.64
365.703	448.99
366.152	426.88
366.601	363.87
367.05	329.31
367.498	327.26
367.947	340.22
368.395	361.74
368.844	335.77
369.292	372.27
369.74	273.16
370.189	382.72
370.637	436.49
371.085	375.48
371.533	439.01
371.981	349.74
372.429	374.97
372.877	396.78
373.325	361.28
373.773	351.83
374.221	300.34
374.669	365.46
375.116	340.5
375.564	348.05
376.012	371.45
376.459	339.95
376.907	428.83
377.354	471.52
377.801	471.22
378.249	516.45
378.696	649.71
379.143	840.43
379.591	842.26
380.038	1293.1
380.485	917.18
380.932	1020.37
381.379	966.17
381.826	780.43
382.273	558.59
382.72	480.19
383.166	464.88
383.613	326.84
384.06	296.34
384.506	352.82
384.953	279.54
385.4	288.92
385.846	248.35
386.292	229.04
386.739	218.72
387.185	218.7
387.631	222.14
388.078	249.54
388.524	283.8
388.97	281.08
389.416	259.74
389.862	288.37
390.308	275.21
390.754	312.19
391.2	367.66
391.645	399.01
392.091	439.02
392.537	471.22
392.983	484.84
393.428	517.68
393.874	569.49
394.319	632.93
394.765	679.48
395.21	780.91
395.655	809.75
396.101	832.82
396.546	822.37
396.991	893.69
397.436	899.15
397.881	947.4
398.326	974.89
398.771	1017.79
399.216	959.3
399.661	926
400.106	983.25
400.551	1068.94
400.995	1013.94
401.44	1054.17
401.885	1033.29
402.329	1083.74
402.774	1077.77
403.218	1077.31
403.663	1070.46
404.107	1137.48
404.551	1186.66
404.995	1131.83
405.44	1129.12
405.884	1185.75
406.328	1185.5
406.772	1212.97
407.216	1141.26
407.66	1141.68
408.104	1131.11
408.547	1104.19
408.991	1105.6
409.435	1094.31
409.879	1106.54
410.322	1121.05
410.766	1112.43
411.209	1089.93
411.653	1080.08
412.096	1090.44
412.54	1119.58
412.983	1134.57
413.426	1155.66
413.869	1176.22
414.312	1174.5
414.756	1152.46
415.199	1117.8
415.642	1101.38
416.085	1114.15
416.527	1121.99
416.97	1149.9
417.413	1102.18
417.856	1099.93
418.298	1096.42
418.741	1088.99
419.184	1088.27
419.626	1134.82
420.069	1139.29
420.511	1149.28
420.953	1133.69
421.396	1131.22
421.838	1111.51
422.28	1142.77
422.722	1157.16
423.164	1188.5
423.606	1186.05
424.048	1205.67
424.49	1161.36
424.932	1167.05
425.374	1164.22
425.816	1190.42
426.258	1207.37
426.699	1205.49
427.141	1165.52
427.582	1163.71
428.024	1144.98
428.465	1141.33
428.907	1122.7
429.348	1131.39
429.789	1150.18
430.231	1138.36
430.672	1167.64
431.113	1161.5
431.554	1181.48
431.995	1205.11
432.436	1209.5
432.877	1223.88
433.318	1235.02
433.759	1254.27
434.2	1271.03
434.64	1272.26
435.081	1294.91
435.522	1247.54
435.962	1227.49
436.403	1222.91
436.843	1256.65
437.284	1247.47
437.724	1229.99
438.164	1247.61
438.604	1236.79
439.045	1199.8
439.485	1164.94
439.925	1159.37
440.365	1150.2
440.805	1149.73
441.245	1143.44
441.685	1108.25
442.125	1107.03
442.564	1117.75
443.004	1093.29
443.444	1091.75
443.883	1099.86
444.323	1101.63
444.762	1112.83
445.202	1134.17
445.641	1158.22
446.081	1162.3
446.52	1179.91
446.959	1178.56
447.398	1162.17
447.837	1164.27
448.276	1155.71
448.716	1175.05
449.154	1187.16
449.593	1155.26
450.032	1148.01
450.471	1127.65
450.91	1127.4
451.349	1120.86
451.787	1112.01
452.226	1120.63
452.664	1112.77
453.103	1109.6
453.541	1105.54
453.98	1100.72
454.418	1110.61
454.856	1090.01
455.295	1085.33
455.733	1087.99
456.171	1091.16
456.609	1086.26
457.047	1085.32
457.485	1095.81
457.923	1094.23
458.361	1077.44
458.798	1082.44
459.236	1079.14
459.674	1092.15
460.111	1101.17
460.549	1094.72
460.987	1094.39
461.424	1097.95
461.862	1095.27
462.299	1084.14
462.736	1085.58
463.173	1093.35
463.611	1080.24
464.048	1081.07
464.485	1093.49
464.922	1089.93
465.359	1093.09
465.796	1077.55
466.233	1078.43
466.67	1076.7
467.106	1080.49
467.543	1081.61
467.98	1079.92
468.416	1070.12
468.853	1077.33
469.29	1059.47
469.726	1058.7
470.162	1040.17
470.599	1048.77
471.035	1051.25
471.471	1038.8
471.907	1047.27
472.344	1050.63
472.78	1057.94
473.216	1075.58
473.652	1064.85
474.088	1066.6
474.523	1067.14
474.959	1082.16
475.395	1074.28
475.831	1066.43
476.266	1073.39
476.702	1070.74
477.138	1057.74
477.573	1054.44
478.008	1049.99
478.444	1053.56
478.879	1059.7
479.314	1060.82
479.75	1055.34
480.185	1056.77
480.62	1061.58
481.055	1059.65
481.49	1058.26
481.925	1061.79
482.36	1059.75
482.795	1066.92
483.229	1070.84
483.664	1069.49
484.099	1055.28
484.534	1055.3
484.968	1051.3
485.403	1043.71
485.837	1033.72
486.271	1024.74
486.706	1024.4
487.14	1018.02
487.574	1008.19
488.009	1005.28
488.443	999.81
488.877	1006.41
489.311	1007.59
489.745	1015.27
490.179	1019.54
490.613	1031.43
491.046	1035.7
491.48	1037.44
491.914	1033.41
492.348	1035.13
492.781	1037.21
493.215	1036.81
493.648	1040.09
494.082	1045.25
494.515	1040.17
494.948	1044.65
495.382	1045.58
495.815	1044.63
496.248	1043.41
496.681	1052.23
497.114	1059.46
497.547	1061.96
497.98	1066.65
498.413	1058.17
498.846	1057.08
499.279	1057.86
499.711	1055.31
500.144	1049.56
500.577	1049.83
501.009	1051.85
501.442	1052.4
501.874	1044.92
502.306	1041.04
502.739	1042.89
503.171	1057.93
503.603	1056.44
504.036	1060.35
504.468	1056.43
504.9	1057.92
505.332	1057.62
505.764	1054.51
506.196	1054.32
506.627	1060.01
507.059	1062.71
507.491	1061.8
507.923	1046.18
508.354	1050.52
508.786	1050.52
509.217	1058.37
509.649	1061.21
510.08	1066.65
510.512	1067.76
510.943	1065.61
511.374	1060.07
511.805	1064.51
512.237	1067.17
512.668	1080.94
513.099	1084.88
513.53	1083.67
513.961	1074.77
514.391	1078.07
514.822	1081.5
515.253	1088.21
515.684	1088.37
516.114	1093.34
516.545	1091.98
516.975	1097.45
517.406	1097.3
517.836	1089.94
518.267	1091.28
518.697	1102.77
519.127	1103.34
519.558	1105.24
519.988	1103.33
520.418	1107.81
520.848	1115.88
521.278	1117.85
521.708	1108.9
522.138	1110.85
522.567	1123.89
522.997	1129.37
523.427	1125.14
523.857	1122.18
524.286	1116.6
524.716	1116.77
525.145	1119.56
525.575	1118.35
526.004	1118.98
526.433	1117.64
526.863	1109.55
527.292	1097.4
527.721	1099.51
528.15	1104.64
528.579	1106.63
529.008	1111.33
529.437	1120.55
529.866	1121.41
530.295	1123.84
530.724	1121.22
531.152	1129.75
531.581	1132.23
532.01	1136.38
532.438	1134.48
532.867	1137.02
533.295	1140.97
533.723	1139.63
534.152	1134.55
534.58	1132.41
535.008	1119.78
535.436	1118.91
535.865	1119.13
536.293	1121.35
536.721	1123.62
537.149	1128.7
537.576	1120.92
538.004	1121.71
538.432	1120.36
538.86	1116.56
539.287	1116.6
539.715	1120.85
540.143	1119.13
540.57	1116.54
540.998	1115.77
541.425	1105.98
541.852	1097.94
542.28	1101.14
542.707	1095.3
543.134	1091.67
543.561	1091.69
543.988	1089.25
544.415	1090.84
544.842	1089.76
545.269	1086.86
545.696	1089.07
546.123	1097.54
546.549	1093.73
546.976	1088.37
547.403	1089.8
547.829	1092.65
548.256	1095.78
548.682	1096.48
549.108	1093.98
549.535	1096.35
549.961	1099.29
550.387	1092.66
550.813	1091.22
551.24	1097.31
551.666	1099.9
552.092	1096.18
552.518	1092.91
552.943	1090.07
553.369	1093.91
553.795	1097.08
554.221	1097.59
554.646	1094.63
555.072	1099.08
555.498	1098.27
555.923	1098.23
556.349	1100.98
556.774	1100.66
557.199	1098.3
557.625	1099.79
558.05	1094.91
558.475	1100.2
558.9	1097.42
559.325	1092.36
559.75	1089.17
560.175	1086.47
560.6	1084.98
561.025	1085.85
561.449	1088.53
561.874	1092.21
562.299	1092.09
562.723	1093.19
563.148	1085.41
563.572	1086.54
563.997	1090.12
564.421	1093.05
564.846	1091.49
565.27	1091.47
565.694	1088.02
566.118	1091.56
566.542	1093.19
566.966	1088.96
567.39	1085.41
567.814	1076.82
568.238	1074.66
568.662	1077.22
569.086	1077.8
569.509	1083.76
569.933	1077.41
570.357	1076.11
570.78	1068.45
571.204	1064.69
571.627	1062.36
572.05	1066.44
572.474	1071.78
572.897	1068.79
573.32	1067.83
573.743	1065.91
574.166	1057.8
574.589	1060.08
575.012	1057.71
575.435	1058.53
575.858	1055.68
576.281	1052.07
576.704	1046.49
577.126	1044.4
577.549	1044.44
577.972	1044.24
578.394	1042.54
578.817	1044.01
579.239	1038.73
579.661	1038.68
580.084	1035.11
580.506	1034.31
580.928	1038.37
581.35	1037.52
581.772	1039.52
582.194	1034.24
582.616	1028.92
583.038	1021.97
583.46	1017.18
583.882	1017.09
584.303	1019.8
584.725	1018.39
585.147	1015.28
585.568	1016.15
585.99	1014.56
586.411	1008.61
586.833	1009.27
587.254	1004.33
587.675	1009.43
588.096	1013.78
588.518	1005.89
588.939	991.59
589.36	988.04
589.781	985.02
590.202	973.03
590.623	975.94
591.043	983.46
591.464	981.87
591.885	983.79
592.305	983.32
592.726	976.72
593.147	981.97
593.567	983.28
593.987	981.39
594.408	979.66
594.828	980.29
595.248	978.85
595.669	968.19
596.089	966.56
596.509	965.53
596.929	958.25
597.349	961.98
597.769	955.5
598.189	950.5
598.608	952.24
599.028	953.48
599.448	953.25
599.867	944.95
600.287	943.52
600.706	941.89
601.126	937.24
601.545	939.03
601.965	938.83
602.384	937.55
602.803	941.9
603.222	939.56
603.641	937.38
604.061	935.9
604.48	934.11
604.898	939.96
605.317	944.03
605.736	944.85
606.155	941.91
606.574	935.09
606.992	937.84
607.411	933.91
607.829	928.43
608.248	926.43
608.666	924.56
609.085	924.4
609.503	918.94
609.921	914.61
610.339	915.85
610.758	915.7
611.176	913.65
611.594	908.47
612.012	906.95
612.43	909.57
612.847	913.67
613.265	914.97
613.683	917.25
614.101	918.24
614.518	916.61
614.936	911.17
615.353	904.03
615.771	902.87
616.188	905.52
616.606	905.93
617.023	904.56
617.44	898.19
617.857	897.03
618.274	894.19
618.691	891.92
619.108	887.28
619.525	884.69
619.942	888.08
620.359	889.97
620.776	884.24
621.192	879.31
621.609	874.64
622.026	875.59
622.442	875.66
622.859	874.94
623.275	867.34
623.691	868.5
624.108	872.81
624.524	878.97
624.94	875.67
625.356	880.13
625.772	886.72
626.188	891.59
626.604	888.97
627.02	883.63
627.436	880.53
627.852	883.23
628.268	888.45
628.683	880.39
629.099	873.82
629.514	870.03
629.93	872.57
630.345	875.35
630.761	873
631.176	877.22
631.591	875.59
632.007	873.3
632.422	873.9
632.837	868.61
633.252	869.83
633.667	865.14
634.082	861.92
634.497	855.53
634.911	846.22
635.326	847.71
635.741	840.35
636.155	837.5
636.57	841.97
636.984	843.78
637.399	847.53
637.813	851.03
638.228	854.95
638.642	861.41
639.056	858.81
639.47	861.69
639.884	860.34
640.298	859.56
640.712	863.78
641.126	859.57
641.54	860.29
641.954	863.61
642.368	859.84
642.781	859.17
643.195	850.86
643.609	854.41
644.022	853.07
644.436	852.38
644.849	846.13
645.262	837.87
645.676	840.12
646.089	837.19
646.502	825.88
646.915	823.16
647.328	814.5
647.741	815.93
648.154	810.54
648.567	811.49
648.98	805.25
649.393	810.39
649.805	812.52
650.218	812.07
650.631	805.33
651.043	805.17
651.456	804.82
651.868	805.62
652.28	819.02
652.693	824.92
653.105	824.38
653.517	823.6
653.929	816.29
654.341	816.44
654.753	805.24
655.165	807.94
655.577	807.65
655.989	806.28
656.401	804.96
656.813	784.07
657.224	779.89
657.636	772.34
658.047	774.58
658.459	772.69
658.87	777.56
659.282	778.21
659.693	769.96
660.104	764.93
660.515	760.52
660.926	766.77
661.338	770.92
661.749	771.82
662.159	768.93
662.57	770.7
662.981	773.31
663.392	772.75
663.803	781.38
664.213	783.92
664.624	784.93
665.035	793
665.445	783.94
665.855	780.94
666.266	776.68
666.676	777.87
667.086	771.24
667.497	771.8
667.907	766.32
668.317	758.66
668.727	754.21
669.137	755.87
669.547	752.16
669.956	753.82
670.366	755.57
670.776	756.24
671.186	758.54
671.595	761.37
672.005	763.61
672.414	761.18
672.824	757.02
673.233	762.55
673.642	761.13
674.052	761.93
674.461	761.31
674.87	762.88
675.279	756.19
675.688	754.4
676.097	750.95
676.506	743.78
676.915	753.94
677.323	752.64
677.732	746.15
678.141	742.97
678.549	729.78
678.958	725.36
679.366	720.41
679.775	720.52
680.183	723.6
680.592	724.27
681	722.69
681.408	710.07
681.816	709.99
682.224	709.47
682.632	707.36
683.04	720.71
683.448	723.88
683.856	726.98
684.264	728.92
684.671	726.32
685.079	727.27
685.487	730.86
685.894	743.68
686.302	746.7
686.709	743.51
687.116	742.92
687.524	737.83
687.931	735.12
688.338	732.94
688.745	730.88
689.152	730.83
689.559	733.42
689.966	733.36
690.373	721.28
690.78	716.61
691.187	720.6
691.593	718.5
692	711.42
692.407	711.19
692.813	716.93
693.22	718.15
693.626	719.81
694.032	718.65
694.439	727.18
694.845	729.77
695.251	737.91
695.657	742.07
696.063	755.56
696.469	761.57
696.875	764.99
697.281	757.6
697.687	752.45
698.093	745.19
698.498	746.94
698.904	743.67
699.31	749.06
699.715	749.5
700.12	759.28
700.526	751.07
700.931	756.64
701.337	759.28
701.742	758.9
702.147	770.76
702.552	770.13
702.957	775.53
703.362	773.97
703.767	774.7
704.172	778.79
704.577	762.73
704.981	766.28
705.386	763.72
705.791	755.84
706.195	765.13
706.6	761.33
707.004	772.02
707.408	761.51
707.813	762.14
708.217	755.24
708.621	749.06
709.025	763.22
709.43	759.81
709.834	766.81
710.237	774.96
710.641	766.97
711.045	766.26
711.449	760.63
711.853	761.64
712.256	762.89
712.66	762.5
713.064	767.94
713.467	765.28
713.87	770.1
714.274	759.72
714.677	759.47
715.08	764.04
715.484	767.57
715.887	774.95
716.29	775.7
716.693	779.13
717.096	786.61
717.499	783
717.901	768.49
718.304	766.03
718.707	771.56
719.109	764.29
719.512	770.35
719.915	763.67
720.317	761.87
720.719	773.66
721.122	776.16
721.524	773.52
721.926	771.5
722.328	785.11
722.731	777.5
723.133	772.52
723.535	790.64
723.937	782.77
724.338	779.44
724.74	780.16
725.142	796.02
725.544	794.96
725.945	803.96
726.347	799.48
726.748	798.27
727.15	800.88
727.551	798.48
727.952	790.97
728.354	785.8
728.755	787.34
729.156	784.6
729.557	762.96
729.958	751.53
730.359	746.19
730.76	754.29
731.161	756.52
731.562	762.52
731.962	771.68
732.363	773.3
732.763	772.89
733.164	783.12
733.564	777.94
733.965	768.4
734.365	767.43
734.766	773.49
735.166	767.45
735.566	758.67
735.966	754.9
736.366	753.5
736.766	744.26
737.166	749.18
737.566	744.74
737.966	742.35
738.365	748.78
738.765	747.93
739.165	737.13
739.564	734.32
739.964	741.87
740.363	734.9
740.763	736.12
741.162	736.64
741.561	734.41
741.96	728.24
742.36	732.61
742.759	733.47
743.158	739.15
743.557	742.32
743.955	749.04
744.354	742.05
744.753	750.6
745.152	742.41
745.55	749.79
745.949	745.98
746.348	744.62
746.746	744.69
747.144	738.83
747.543	735.44
747.941	740.56
748.339	726.71
748.737	725.2
749.136	724.63
749.534	732.86
749.932	728.73
750.33	731.84
750.727	739.04
751.125	736.04
751.523	732.69
751.921	739.49
752.318	733.43
752.716	743.37
753.113	743.08
753.511	744.74
753.908	744.35
754.305	741.19
754.703	749.09
755.1	756.96
755.497	760.42
755.894	778.48
756.291	786.47
756.688	803.75
757.085	818.83
757.482	842.16
757.878	858.17
758.275	858.06
758.672	870.63
759.068	865.6
759.465	873.16
759.861	891.24
760.258	915.46
760.654	895.77
761.05	857.37
761.447	819.91
761.843	791.44
762.239	767.18
762.635	772.08
763.031	778.84
763.427	766.5
763.822	758.26
764.218	749.06
764.614	723
765.01	715.61
765.405	718.44
765.801	729.24
766.196	723.94
766.592	730.31
766.987	719.17
767.382	713.63
767.778	719.72
768.173	715.72
768.568	716.29
768.963	707.94
769.358	716.7
769.753	715.89
770.148	706.94
770.542	709.81
770.937	705.37
771.332	718.13
771.726	719.06
772.121	713.17
772.515	718.42
772.91	717.01
773.304	725.74
773.699	715.45
774.093	721.03
774.487	727.43
774.881	728.93
775.275	727.54
775.669	719.32
776.063	725.49
776.457	727.42
776.851	717.25
777.245	714.35
777.638	715.75
778.032	728.19
778.425	724.16
778.819	727.98
779.212	724.95
779.606	719.22
779.999	721.73
780.392	717.47
780.786	723.43
781.179	722.32
781.572	724.93
781.965	725.15
782.358	715.8
782.751	717.5
783.143	707.48
783.536	710.89
783.929	710.71
784.322	719.34
784.714	715.61
785.107	711.63
785.499	717.48
785.891	709.75
786.284	701.56
786.676	711.06
787.068	704.53
787.46	705.35
787.852	702.28
788.245	708.36
788.636	705.75
789.028	711.03
789.42	711.44
789.812	707.73
790.204	714.68
790.595	722.26
790.987	698.12
791.378	697.86
791.77	707.3
792.161	717.42
792.553	717.15
792.944	701.64
793.335	688.2
793.726	691.26
794.117	696.31
794.508	704.96
794.899	697.8
795.29	709.54
795.681	710.63
796.072	693.41
796.463	682.77
796.853	683.79
797.244	694.92
797.634	695.57
798.025	690.69
798.415	685.59
798.806	693.7
799.196	697.03
799.586	699.19
799.976	691.86
800.366	706.93
800.756	710.86
801.146	701.03
801.536	700.58
801.926	702.67
802.316	703.19
802.706	709.39
803.095	693.04
803.485	699.04
803.874	696.08
804.264	714.83
804.653	712.14
805.043	725.41
805.432	731.56
805.821	729.68
806.21	728.78
806.599	732.77
806.988	729.18
807.377	729.61
807.766	730.1
808.155	742.97
808.544	712.23
808.933	701.8
809.321	688.05
809.71	697
810.098	695
810.487	712.78
810.875	727.03
811.264	710.69
811.652	718.13
812.04	708.38
812.428	704.55
812.816	731.2
813.204	735.93
813.592	743.56
813.98	741.85
814.368	718.4
814.756	725.98
815.144	707.16
815.531	721.66
815.919	698.55
816.306	709.38
816.694	682.31
817.081	681.66
817.469	700.36
817.856	699.88
818.243	712.35
818.63	732.26
819.017	713.61
819.404	714.77
819.791	718.72
820.178	734.83
820.565	738.77
820.952	781.7
821.339	754.6
821.725	756.36
822.112	718.22
822.498	715.11
822.885	710.36
823.271	701.37
823.657	718.68
824.044	726.44
824.43	735.97
824.816	738.17
825.202	714.52
825.588	751.67
825.974	743.15
826.36	760.28
826.746	747.69
827.132	755.75
827.517	747.47
827.903	707.32
828.289	705.24
828.674	668.18
829.06	655.27
829.445	663.77
829.83	671.64
830.216	683.66
830.601	694.55
830.986	686.26
831.371	680.63
831.756	702.58
832.141	690.54
832.526	689.13
832.911	698.12
833.295	692.66
833.68	708.93
834.065	688.29
834.449	656.15
834.834	651.69
835.218	646.1
835.603	659.75
835.987	644.64
836.371	670.72
836.755	663.59
837.139	675.85
837.524	681.03
837.908	671.61
838.291	671.08
838.675	668.26
839.059	673.19
839.443	668.53
839.827	655.16
840.21	668.95
840.594	662.3
840.977	665
841.361	661.99
841.744	669.32
842.127	662.66
842.511	671.13
842.894	689.62
843.277	701.29
843.66	713.11
844.043	711.35
844.426	685.01
844.809	667.99
845.191	667.9
845.574	649.33
845.957	637.21
846.339	631.94
846.722	605.37
847.104	602.31
847.487	587.62
847.869	586.59
848.252	594.16
848.634	600.86
849.016	605.16
849.398	603.35
849.78	627.52
850.162	624.91
850.544	626.15
850.926	637.06
851.307	623.38
851.689	626.07
852.071	630.53
852.452	637.17
852.834	632.42
853.215	641.42
853.597	641.6
853.978	648.62
854.359	656.33
854.741	634.44
855.122	632.39
855.503	626.28
855.884	631.05
856.265	633.79
856.646	629.5
857.026	617.88
857.407	612.25
857.788	612.58
858.169	610.34
858.549	590.01
858.93	601.67
859.31	606.27
859.69	616.17
860.071	602.2
860.451	591.32
860.831	570.51
861.211	591.78
861.591	602.76
861.971	598.49
862.351	601.61
862.731	598.69
863.111	598.19
863.491	600.87
863.87	613.78
864.25	615.67
864.629	603.5
865.009	605.96
865.388	626.96
865.768	664.65
866.147	660.03
866.526	623.86
866.905	630.2
867.284	661.58
867.663	619.64
868.042	592.01
868.421	589.06
868.8	593.65
869.179	607.27
869.558	570.43
869.936	528.51
870.315	533.16
870.693	549.68
871.072	587.14
871.45	557.35
871.828	569.44
872.207	598.18
872.585	590.1
872.963	599.27
873.341	578.13
873.719	577.04
874.097	567.65
874.475	574.34
874.853	577.14
875.23	556.03
875.608	581.8
875.986	622.62
876.363	592.06
876.741	612.88
877.118	605.17
877.495	631.15
877.873	630.79
878.25	660.07
878.627	633.71
879.004	637.37
879.381	626.5
879.758	612.11
880.135	569.93
880.512	593.82
880.889	567.31
881.265	553.23
881.642	543.25
882.019	551.29
882.395	543.36
882.772	563.06
883.148	543.01
883.524	539.51
883.901	527.06
884.277	529.96
884.653	527.9
885.029	547.34
885.405	611.44
885.781	598.59
886.157	570.56
886.532	570.23
886.908	567.59
887.284	620.66
887.659	638.76
888.035	653.49
888.411	662.3
888.786	662.48
889.161	674.51
889.537	646.97
889.912	664.35
890.287	662.66
890.662	669.69
891.037	644.38
891.412	596.16
891.787	579.12
892.162	554.9
892.536	560.07
892.911	537.79
893.286	515
893.66	489.1
894.035	492.98
894.409	515.73
894.784	487.99
895.158	486.84
895.532	500.76
895.906	507.25
896.281	509.28
896.655	498.37
897.029	549.22
897.402	565.15
897.776	611.01
898.15	595.32
898.524	582.92
898.898	574.27
899.271	643.59
899.645	565.04
900.018	533.86
900.392	556.62
900.765	550.32
901.138	523.61
901.511	514.64
901.884	491.25
902.258	466.55
902.631	500.71
903.003	578.33
903.376	521.05
903.749	584.08
904.122	631.5
904.495	671.82
904.867	681.97
905.24	583.4
905.612	542.33
905.985	535.06
906.357	542.61
906.729	493.42
907.102	428.89
907.474	415.05
907.846	412.3
908.218	401.09
908.59	375.59
908.962	358.47
909.334	384.26
909.705	402.78
910.077	391.12
910.449	405.75
910.82	426.99
911.192	467.22
911.563	484.43
911.935	510.55
912.306	512.68
912.677	510.71
913.048	509.45
913.419	546.95
913.79	536.78
914.161	572.27
914.532	565.61
914.903	514.85
915.274	482.58
915.645	470.63
916.015	409.2
916.386	386.77
916.756	411.39
917.127	420.38
917.497	392.01
917.868	434.48
918.238	419.57
918.608	419.08
918.978	436.2
919.348	457.29
919.718	484.95
920.088	482.36
920.458	512.52
920.828	531.14
921.198	511.27
921.567	540.64
921.937	434.39
922.306	426.16
922.676	463.51
923.045	402.21
923.415	387.07
923.784	343.77
924.153	356.42
924.522	362.28
924.891	337.58
925.26	359.52
925.629	337.86
925.998	371.51
926.367	374.43
926.736	370.18
927.104	407.38
927.473	424.82
927.842	492.64
928.21	465.91
928.578	445.87
928.947	421.52
929.315	414.36
929.683	482.31
930.051	472.12
930.42	492.76
930.788	389.98
931.156	369.66
931.523	373.26
931.891	348.22
932.259	340.89
932.627	412.94
932.994	553.39
933.362	491.75
933.729	419.75
934.097	417.07
934.464	364.59
934.831	401.99
935.199	391.96
935.566	359.61
935.933	339.64
936.3	403.04
936.667	328.71
937.034	380.15
937.401	375.16
937.767	351.39
938.134	302.6
938.501	396.65
938.867	452.28
939.234	773.86
939.6	669.26
939.967	836.57
940.333	595.38
940.699	471.74
941.065	310.74
941.431	385.76
941.798	386.96
942.163	553.82
942.529	374.98
942.895	325.32
943.261	240.06
943.627	298.22
943.992	261.27
944.358	244.27
944.723	279.83
945.089	278.26
945.454	256.43
945.82	266.21
946.185	242.97
946.55	301.35
946.915	280.52
947.28	316.11
947.645	298.59
948.01	283.45
948.375	310.44
948.74	352.81
949.104	386.87
949.469	505.73
949.834	837.26
950.198	889.22
950.562	532.65
950.927	450.53
951.291	523.16
951.655	441.53
952.02	365.06
952.384	283.37
952.748	264.29
953.112	300.49
953.476	279.36
953.839	242.39
954.203	236.4
954.567	283.93
954.931	387.82
955.294	346.27
955.658	342.05
956.021	588.77
956.385	932.85
956.748	1320.41
957.111	1846.28
957.474	2044.12
957.837	2494.28
958.2	1666.4
958.563	595.84
958.926	452.25
959.289	658.16
959.652	718.42
960.015	541.87
960.377	744.03
960.74	841.3
961.102	1292.57
961.465	1468.83
961.827	1071.28
962.189	2064.51
962.552	1574.45
962.914	1240.92
963.276	794.38
963.638	689.39
964	683.41
964.362	498.49
964.724	467.69
965.085	366.04
965.447	299.68
965.809	287.44
966.17	292.97
966.532	315.29
966.893	300.36
967.255	280.9
967.616	308.23
967.977	259.9
968.338	269.9
968.699	250.16
969.061	238.26
969.421	246.42
969.782	268.55
970.143	240.77
970.504	260.19
970.865	308.84
971.225	337.51
971.586	351.2
971.946	490.15
972.307	433.25
972.667	524.27
973.027	558.44
973.388	667.6
973.748	476.39
974.108	534.83
974.468	624.39
974.828	529.7
975.188	394.53
975.548	351.27
975.907	310.84
976.267	360.31
976.627	317.66
976.986	316.41
977.346	288.61
977.705	280.78
978.064	249.09
978.424	229.04
978.783	210.13
979.142	239.28
979.501	240.99
979.86	252.49
980.219	226.89
980.578	273.93
980.937	292.57
981.296	281.84
981.654	291.9
982.013	410.73
982.371	542.63
982.73	480.47
983.088	524.05
983.447	571.88
983.805	853.43
984.163	1874.43
984.521	2043.02
984.879	3026.65
985.237	-4532.7
985.595	4515.92
985.953	1184.17
986.311	672.1
986.669	440.07
987.026	384.7
987.384	459.53
987.741	439.79
988.099	355.59
988.456	309.09
988.814	335.66
989.171	314.41
989.528	274.37
989.885	278.8
990.242	233.88
990.599	248.5
990.956	218.82
991.313	172.53
991.67	151.57
992.027	191.51
992.383	166.98
992.74	148.82
993.096	163.1
993.453	183.03
993.809	197.01
994.165	257.14
994.522	288.59
994.878	310.21
995.234	402.83
995.59	396.13
995.946	312.37
996.302	373.58
996.658	429.41
997.013	443.69
997.369	535.76
997.725	689.25
998.08	463.13
998.436	556.75
998.791	771.26
999.147	735.37
999.502	811.41
999.857	643.91
1000.212	1060.94
1000.567	1440.26
1000.922	899.64
1001.277	587.56
1001.632	464.54
1001.987	585.45
1002.342	474.22
1002.696	402.23
1003.051	336.89
1003.406	403.77
1003.76	377.22
1004.114	380.42
1004.469	330.9
1004.823	266.34
1005.177	259.43
1005.531	211.04
1005.885	196.21
1006.239	238.92
1006.593	302.15
1006.947	393.21
1007.301	304.37
1007.655	335.21
1008.008	239.49
1008.362	259.65
1008.715	392.36
1009.069	397.86
1009.422	639.26
1009.776	1225.99
1010.129	762.88
1010.482	626.61
1010.835	490.92
1011.188	1016.31
1011.541	1025.57
1011.894	-6628.8
1012.247	21250.36
1012.6	1448.97
1012.952	894.37
1013.305	394.3
1013.657	292.07
1014.01	270.18
1014.362	223.32
1014.715	254.05
1015.067	237.72
1015.419	229.46
1015.771	205.8
1016.123	193.25
1016.475	205.04
1016.827	208.06
1017.179	245.28
1017.531	235.09
1017.883	232.46
1018.234	277.67
1018.586	328.69
1018.938	354.42
1019.289	480.12
1019.64	515.84
1019.992	450.45
1020.343	384.6
1020.694	354.6
1021.045	313.84
1021.396	366.23
1021.747	443.06
1022.098	410.39
1022.449	315.1
1022.8	306.16
1023.151	253.61
1023.501	254.01
1023.852	278.16
1024.202	301.28
1024.553	322.55
1024.903	345.62
1025.253	332.45
1025.604	303.94
1025.954	391.3
1026.304	450.63
1026.654	511.18
1027.004	653.83
1027.354	957.83
1027.703	950.37
1028.053	1258.41
1028.403	1845.45
1028.753	2394.3
1029.102	2871.72
1029.452	13032.84
1029.801	543.67
1030.15	358.47
1030.499	272.56
897.758	1302.05
901.051	1264.48
904.343	1288.76
907.636	1288.69
910.928	1322.93
914.22	1277.99
917.511	1283.96
920.803	1309.68
924.094	1302.36
927.384	1309.57
930.675	1287.72
933.965	1272.04
937.255	1288.57
940.544	1270.31
943.834	1271.34
947.123	1238.71
950.411	1290.08
953.7	1280.59
956.988	1272.23
960.276	1232.24
963.563	1254.52
966.851	1259.96
970.138	1279.47
973.424	1281.65
976.711	1251.92
979.997	1278.56
983.283	1301.19
986.568	1263.33
989.853	1254.52
993.138	1266.47
996.423	1321.55
999.708	1298.42
1002.992	1311.85
1006.275	1264.57
1009.559	1266.05
1012.842	1321.62
1016.125	1294.31
1019.408	1280.97
1022.69	1310.61
1025.972	1326.49
1029.254	1314.22
1032.536	1292.15
1035.817	1294.9
1039.098	1281.8
1042.379	1305.99
1045.659	1318.51
1048.939	1287.51
1052.219	1290.01
1055.498	1286.56
1058.778	1278.55
1062.057	1267.4
1065.335	1283.46
1068.614	1284.61
1071.892	1278.5
1075.17	1309.61
1078.447	1308.75
1081.724	1304.83
1085.001	1317.67
1088.278	1304.23
1091.554	1305.91
1094.83	1308.74
1098.106	1323.93
1101.382	1340
1104.657	1338.23
1107.932	1340.72
1111.206	1326.06
1114.481	1301.61
1117.755	1304.02
1121.029	1298.96
1124.302	1331.79
1127.575	1314.57
1130.848	1311.96
1134.121	1298.86
1137.393	1273.1
1140.665	1309.49
1143.937	1294.61
1147.208	1267.72
1150.48	1298.64
1153.75	1291.67
1157.021	1294.08
1160.291	1278.48
1163.561	1306.74
1166.831	1286.38
1170.101	1298.28
1173.37	1277.25
1176.639	1254.42
1179.907	1284
1183.176	1290.46
1186.444	1294.18
1189.711	1306.02
1192.979	1319.64
1196.246	1296.79
1199.513	1304.42
1202.78	1308.93
1206.046	1313.77
1209.312	1330.87
1212.578	1334.99
1215.843	1310.83
1219.108	1304.11
1222.373	1312.5
1225.638	1297.8
1228.902	1291.2
1232.166	1272.39
1235.43	1263.96
1238.693	1279.11
1241.956	1277.21
1245.219	1302.95
1248.482	1296.32
1251.744	1300.37
1255.006	1358.64
1258.268	1330.58
1261.529	1312.56
1264.79	1309.99
1268.051	1363.29
1271.312	1371.4
1274.572	1350.18
1277.832	1342.83
1281.092	1331.29
1284.351	1328.33
1287.61	1320.61
1290.869	1286
1294.128	1288.49
1297.386	1308.24
1300.644	1305.88
1303.902	1309.55
1307.159	1234.96
1310.416	1263.53
1313.673	1276.18
1316.93	1280.56
1320.186	1292.14
1323.442	1307.22
1326.697	1306.34
1329.953	1293.56
1333.208	1313.25
1336.463	1298.86
1339.717	1280.46
1342.972	1343.41
1346.226	1329.87
1349.479	1309.47
1352.733	1293
1355.986	1305.87
1359.238	1295.37
1362.491	1297.64
1365.743	1296.64
1368.995	1295.21
1372.247	1310.02
1375.498	1316.41
1378.749	1336.2
1382	1315.78
1385.251	1328.89
1388.501	1308.43
1391.751	1302.82
1395	1291.54
1398.25	1306.05
1401.499	1322.58
1404.748	1296.6
1407.996	1285.19
1411.244	1284.86
1414.492	1276.45
1417.74	1263.93
1420.987	1273.31
1424.234	1302.69
1427.481	1284.2
1430.728	1311
1433.974	1302.22
1437.22	1299.69
1440.465	1295.28
1443.711	1296.4
1446.956	1304.45
1450.201	1290.59
1453.445	1318.88
1456.689	1306.68
1459.933	1315.81
1463.177	1337.98
1466.42	1324.6
1469.663	1311.97
1472.906	1319.56
1476.148	1345.61
1479.391	1323.18
1482.633	1314.08
1485.874	1327.58
1489.115	1329.56
1492.356	1320.99
1495.597	1306.51
1498.838	1299.25
1502.078	1295
1505.318	1284.46
1508.557	1298.29
1511.797	1296.38
1515.036	1324.3
1518.274	1300.92
1521.513	1272.48
1524.751	1275.58
1527.989	1288.5
1531.227	1298.32
1534.464	1301.85
1537.701	1295.34
1540.938	1298.4
1544.174	1271.07
1547.41	1265.91
1550.646	1284.07
1553.882	1308.43
1557.117	1339.73
1560.352	1344.94
1563.587	1320.68
1566.821	1304.96
1570.055	1318.45
1573.289	1303.08
1576.523	1329.8
1579.756	1338.4
1582.989	1346.71
1586.222	1323.87
1589.454	1346
1592.686	1338.66
1595.918	1350.3
1599.15	1350.29
1602.381	1373.9
1605.612	1362.09
1608.843	1410.36
1612.073	1370.29
1615.303	1363.15
1618.533	1360.23
1621.762	1360.08
1624.992	1342.89
1628.221	1340.74
1631.449	1333.37
1634.678	1346.94
1637.906	1328.45
1641.134	1340.72
1644.361	1322.83
1647.588	1316.94
1650.815	1332.3
1654.042	1312.9
1657.269	1328.31
1660.495	1318.46
1663.72	1312.04
1666.946	1295.05
1670.171	1285.58
1673.396	1269.21
1676.621	1261.62
1679.845	1259.42
1683.069	1263.59
1686.293	1276.48
1689.517	1271.4
1692.74	1248.68
1695.963	1256.56
1699.185	1276.18
1702.408	1264.52
1705.63	1278.95
1708.852	1288.2
1712.073	1270.74
1715.294	1282.26
1718.515	1308.29
1721.736	1285.57
1724.956	1279.39
1728.176	1291.66
1731.396	1302.62
1734.616	1298.24
1737.835	1322.24
1741.054	1302.8
1744.272	1303.05
1747.491	1325.47
1750.709	1335.18
1753.927	1310.6
1757.144	1325.39
1760.361	1355.18
1763.578	1337.11
1766.795	1311.51
1770.011	1305.37
1773.227	1317
1776.443	1342.64
1779.658	1360.32
1782.874	1332.37
1786.089	1327.55
1789.303	1327.04
1792.518	1328.54
1795.732	1321.21
1798.945	1328.7
1802.159	1355.59
1805.372	1324.02
1808.585	1318.34
1811.797	1316.62
1815.01	1333.78
1818.222	1347.84
1821.434	1328.8
1824.645	1350.38
1827.856	1353.07
1831.067	1366.67
1834.278	1340.55
1837.488	1327.72
1840.698	1392.97
1843.908	1368.38
1847.117	1352.56
1850.326	1312.75
1853.535	1345.56
1856.744	1365.28
1859.952	1324.98
1863.16	1324.65
1866.368	1341.49
1869.575	1399.33
1872.782	1340.48
1875.989	1305.55
1879.196	1335.27
1882.402	1331.17
1885.608	1348.85
1888.814	1317.71
1892.019	1269.71
1895.224	1302.16
1898.429	1287.02
1901.634	1274.87
1904.838	1264.72
1908.042	1294.7
1911.246	1309.49
1914.449	1286.18
1917.652	1277.99
1920.855	1268.26
1924.058	1280.93
1927.26	1310.52
1930.462	1319.36
1933.664	1341.47
1936.865	1313.37
1940.066	1321.25
1943.267	1291.63
1946.467	1296.05
1949.668	1302.02
1952.868	1343.17
1956.067	1342.35
1959.267	1308.13
1962.466	1320.96
1965.665	1310.85
1968.863	1310.09
1972.061	1308.68
1975.259	1305.12
1978.457	1348.29
1981.654	1325.84
1984.852	1327.05
1988.048	1304.04
1991.245	1293.71
1994.441	1342.78
1997.637	1312.49
2000.833	1303.98
2004.028	1320.19
2007.223	1358.09
2010.418	1347.11
2013.613	1319.77
2016.807	1316.53
2020.001	1316.73
2023.194	1326.19
2026.388	1314.89
2029.581	1286.49
2032.774	1323.25
2035.966	1329.21
2039.158	1299.94
2042.35	1310.31
2045.542	1271.86
2048.733	1316.96
2051.924	1306.99
2055.115	1314.64
2058.306	1299.54
2061.496	1326.58
2064.686	1354.07
2067.875	1300.31
2071.065	1300.1
2074.254	1308.36
2077.442	1282.76
2080.631	1328.17
2083.819	1294.68
2087.007	1291.98
2090.195	1285.07
2093.382	1287.16
2096.569	1285.47
2099.756	1262.61
2102.942	1296.55
2106.128	1300.36
2109.314	1297.4
2112.5	1290.77
2115.685	1274.08
2118.87	1276.97
2122.055	1315.27
2125.239	1299.78
2128.424	1295.91
2131.608	1324.79
2134.791	1314.26
2137.974	1333.12
2141.157	1328.29
2144.34	1314.15
2147.523	1304.55
2150.705	1321.29
2153.887	1300.02
2157.068	1284.28
2160.25	1272.63
2163.431	1285.34
2166.611	1268.5
2169.792	1282.17
2172.972	1228.65
2176.152	1262.85
2179.331	1273.64
2182.511	1275.32
2185.69	1282.41
2188.868	1286.92
2192.047	1306.93
2195.225	1322.7
2198.403	1292.56
2201.58	1281.68
2204.758	1274.68
2207.935	1317.58
2211.111	1269.21
2214.288	1262.21
2217.464	1280.16
2220.64	1262.66
2223.815	1287.01
2226.991	1248.1
2230.166	1254.03
2233.34	1277.11
2236.515	1287.01
2239.689	1326.45
2242.863	1297.31
2246.036	1323.8
2249.209	1317.87
2252.382	1330.25
2255.555	1331.14
2258.727	1308.88
2261.9	1324.35
2265.071	1321.19
2268.243	1323.2
2271.414	1295.62
2274.585	1282.37
2277.756	1316.27
2280.926	1296.59
2284.096	1314.77
2287.266	1276.77
2290.436	1304.52
2293.605	1311.35
2296.774	1333.63
2299.942	1337.68
2303.111	1346.32
2306.279	1376.89
2309.447	1368.84
2312.614	1356.98
2315.781	1364.96
2318.948	1350.74
2322.115	1371.75
2325.281	1312.38
2328.447	1317.48
2331.613	1299.22
2334.779	1296.71
2337.944	1292.32
2341.109	1292.11
2344.274	1286.73
2347.438	1266
2350.602	1279.3
2353.766	1285.1
2356.929	1282.36
2360.092	1303.19
2363.255	1282.85
2366.418	1269.97
2369.58	1290.78
2372.742	1274.85
2375.904	1263.15
2379.066	1260.09
2382.227	1273.58
2385.388	1251.57
2388.548	1225.52
2391.709	1242.16
2394.869	1240.83
2398.029	1272.76
2401.188	1261.98
2404.347	1252.72
2407.506	1247.63
2410.665	1281.31
2413.823	1268.91
2416.981	1261.23
2420.139	1271.25
2423.296	1292.92
2426.453	1278
2429.61	1289.47
2432.767	1273.92
2435.923	1296.45
2439.079	1267.23
2442.235	1285.7
2445.391	1250.66
2448.546	1273.02
2451.701	1291.15
2454.855	1289.4
2458.009	1302.49
2461.163	1298.63
2464.317	1281.84
2467.471	1294.93
2470.624	1315.18
2473.777	1308.53
2476.929	1317.76
2480.082	1329.5
2483.234	1320.07
2486.385	1288.42
2489.537	1284.14
2492.688	1279.4
2495.839	1291.28
2498.989	1297.59
2502.14	1290.74
2505.29	1284.42
2508.439	1296.57
2511.589	1267.12
2514.738	1267.62
2517.887	1277.29
2521.035	1318.84
2524.183	1294.21
2527.331	1289.35
2530.479	1282.38
2533.627	1286.45
