Data from N_1_DEC_NC_4N_Splice17_11-36-34-818.txt Node
Date: Sat Mar 14 11:36:34 EDT 2020
User: sa697716
Spectrometer: FLMS03696
Trigger mode: 0
Integration Time (sec): 3.180400E-1
Scans to average: 20
Electric dark correction enabled: true
Nonlinearity correction enabled: true
Boxcar width: 5
XAxis mode: Wavelengths
Number of Pixels in Spectrum: 2048
>>>>>Begin Spectral Data<<<<<
187.83	-181184.02
188.298	1343.23
188.766	807.31
189.233	683.71
189.701	859.56
190.169	1211.2
190.636	422.97
191.104	383.09
191.571	54.39
192.039	-33.14
192.506	-39.44
192.974	218.37
193.441	-293.2
193.908	123.31
194.375	12.11
194.842	2.84
195.31	63.32
195.777	125.13
196.244	246.98
196.711	146.63
197.177	112.96
197.644	60.27
198.111	52.9
198.578	41.23
199.045	5.27
199.511	-2.51
199.978	-101.49
200.445	-78.43
200.911	-132.25
201.378	-209.11
201.844	-175.51
202.31	-370.06
202.777	-337.73
203.243	-164.67
203.709	-171.61
204.176	-182.14
204.642	-156.82
205.108	-112.06
205.574	-109.26
206.04	-119.61
206.506	-116.39
206.972	-133.53
207.438	-123.7
207.903	-149.95
208.369	-110.07
208.835	-84.52
209.301	-88.57
209.766	-106.59
210.232	-111.21
210.697	-123.78
211.163	-162.72
211.628	-290.39
212.094	-180.67
212.559	-127.4
213.024	-67.79
213.49	-98.09
213.955	-128.48
214.42	-148.5
214.885	-116.22
215.35	-96.56
215.815	-18.91
216.28	-10.01
216.745	5.43
217.21	24.8
217.675	-13.08
218.14	-11.57
218.604	-7.99
219.069	8.32
219.534	44.88
219.998	42.65
220.463	52.87
220.927	-21.68
221.392	-15.86
221.856	-10.52
222.32	-76.5
222.785	-73.43
223.249	-98.81
223.713	-128.7
224.177	-113.32
224.642	-210.99
225.106	-288.18
225.57	-330.52
226.034	-178.31
226.497	-282.44
226.961	-182.28
227.425	-104.77
227.889	-148.2
228.353	-134.22
228.816	-387.26
229.28	-384.33
229.744	-312.93
230.207	-100.5
230.671	-104.08
231.134	-341.43
231.597	-312
232.061	-369.81
232.524	-459.33
232.987	-276.07
233.45	-221.32
233.914	-172.49
234.377	-211.52
234.84	-178.58
235.303	-264.24
235.766	-274.67
236.229	-226.41
236.691	-160.52
237.154	-222.91
237.617	-148.26
238.08	-167.69
238.542	-222.98
239.005	-134.06
239.468	-111.02
239.93	-107.7
240.393	-86.67
240.855	-76.45
241.317	-105.19
241.78	-143.16
242.242	-120.29
242.704	-93.85
243.166	-68.16
243.629	-28.57
244.091	-32.25
244.553	-45.88
245.015	-18.22
245.477	-48.89
245.939	-99.75
246.4	-59.11
246.862	-64.67
247.324	-71.29
247.786	-123.05
248.247	-248.17
248.709	-347.84
249.17	-270.77
249.632	-190.24
250.093	-211.15
250.555	-185.09
251.016	-72.67
251.477	-50.92
251.939	-39.23
252.4	-48.59
252.861	-89.14
253.322	-45.43
253.783	-90.95
254.244	-152.45
254.705	-159.75
255.166	-203.68
255.627	-206.03
256.088	-310.08
256.549	-375.09
257.009	-314.7
257.47	-386.56
257.931	-331.42
258.391	-238.46
258.852	-221.01
259.312	-219.46
259.773	-283.53
260.233	-157.94
260.694	-93.37
261.154	-96.99
261.614	-4.62
262.074	-14.36
262.534	0.45
262.994	22.31
263.455	-7.92
263.915	2.49
264.374	4.21
264.834	5.73
265.294	-36.07
265.754	-30.28
266.214	-38.47
266.673	-59.27
267.133	-79.06
267.593	-86.25
268.052	-122.29
268.512	-103.82
268.971	-76.78
269.431	-70.34
269.89	-54.28
270.349	-44.82
270.809	-36.96
271.268	-22.26
271.727	-192.58
272.186	-113.05
272.645	-108.06
273.104	-122.63
273.563	-148.04
274.022	-195.02
274.481	-138.54
274.94	-84.61
275.399	-74.35
275.857	-118.05
276.316	-202.21
276.775	-184.7
277.233	-189.97
277.692	-156.38
278.15	-132.92
278.609	-96.77
279.067	-85.6
279.525	-69.72
279.984	-161.08
280.442	-212.15
280.9	-124.09
281.358	-44.1
281.816	-44.36
282.274	-48.72
282.732	-92.4
283.19	-120.92
283.648	-137.25
284.106	-159.22
284.564	-182.3
285.021	-124.42
285.479	-91.52
285.937	-119.93
286.394	-106.01
286.852	-111.43
287.309	-108.78
287.767	-51.31
288.224	-24.24
288.682	-33.26
289.139	-10.16
289.596	-8.69
290.053	-33.55
290.511	-66.54
290.968	-58.57
291.425	-100.18
291.882	-14.8
292.339	9.8
292.796	-47.11
293.252	-78.32
293.709	-22.03
294.166	-22.03
294.623	-41.38
295.079	-48.92
295.536	-11.05
295.992	-14.07
296.449	-7.22
296.905	-20.77
297.362	-8.2
297.818	-19.12
298.274	7.94
298.731	-12.17
299.187	-23.56
299.643	-27.22
300.099	-6.87
300.555	-23.29
301.011	13.03
301.467	75.36
301.923	51.14
302.379	44.86
302.835	38.04
303.291	24.33
303.746	18.61
304.202	6.26
304.658	26.37
305.113	5.51
305.569	-2.28
306.024	-78.77
306.479	-150.33
306.935	-109.84
307.39	-162.66
307.845	-126.46
308.301	-108.71
308.756	-113.44
309.211	-83.58
309.666	-108.7
310.121	-92.6
310.576	-118.15
311.031	-110.27
311.486	-148.35
311.94	-170.16
312.395	-238.15
312.85	-548.09
313.305	-3393.81
313.759	-12048.49
314.214	-1008.41
314.668	-710.95
315.123	-625.55
315.577	-181.12
316.032	-134.45
316.486	-183.54
316.94	-100.02
317.394	-28.42
317.849	-11.75
318.303	-20.77
318.757	-28.6
319.211	-28.34
319.665	-33.85
320.119	-40.82
320.572	-81.37
321.026	-56.35
321.48	-30.33
321.934	-63.09
322.387	-82.22
322.841	-70.84
323.295	-23.7
323.748	-78.9
324.202	-81.55
324.655	-83.35
325.108	-46
325.562	-11.96
326.015	-73.64
326.468	-63.99
326.921	-59.62
327.374	-46.6
327.827	-38.75
328.28	-47.96
328.733	7.68
329.186	14.48
329.639	12.3
330.092	-6
330.545	-2.46
330.997	18.99
331.45	36.75
331.903	56.47
332.355	49.65
332.808	25.67
333.26	-7.43
333.713	-27.18
334.165	-39.04
334.617	-104.92
335.069	-142.73
335.522	-313.06
335.974	-387.18
336.426	-463.34
336.878	-392.87
337.33	-182.68
337.782	-181.76
338.234	-167.1
338.686	-220.62
339.137	-281.76
339.589	-235.48
340.041	-145.23
340.493	-130.57
340.944	-119.18
341.396	-82.17
341.847	-24.38
342.299	21.07
342.75	79.84
343.201	-3.7
343.653	-31.22
344.104	-49.11
344.555	-47.17
345.006	-179.18
345.457	-32.83
345.908	-47.73
346.359	-27.54
346.81	-31.34
347.261	-57.65
347.712	-106.6
348.163	-116.68
348.613	-42.03
349.064	-44.98
349.515	-31.1
349.965	-14.48
350.416	-71.99
350.866	-80.66
351.317	-167.8
351.767	-271.4
352.217	-367.09
352.668	-283.9
353.118	-239.96
353.568	-366.78
354.018	-236.03
354.468	-223.46
354.918	-125.8
355.368	-106.97
355.818	-184.06
356.268	-465.82
356.718	-1708.68
357.168	-343.09
357.617	-196.2
358.067	-253.68
358.517	-158.94
358.966	-124.99
359.416	-57.95
359.865	-169.97
360.315	-283.97
360.764	-105.72
361.213	-64.46
361.663	-104.52
362.112	-181.87
362.561	-265.09
363.01	-201.36
363.459	-209.04
363.908	-293.76
364.357	-241.93
364.806	-466.63
365.255	-328.9
365.703	-233.3
366.152	-211.83
366.601	-164.69
367.05	-119.13
367.498	-101.69
367.947	-120.32
368.395	-139.25
368.844	-121.5
369.292	-182.73
369.74	-92.63
370.189	-132.24
370.637	-206.02
371.085	-175.36
371.533	-212.84
371.981	-207.82
372.429	-186.15
372.877	-183.04
373.325	-123.74
373.773	-116.78
374.221	-115.21
374.669	-167.56
375.116	-153.31
375.564	-134.4
376.012	-166.85
376.459	-119.41
376.907	-157.38
377.354	-221.04
377.801	-186.98
378.249	-202.99
378.696	-310.75
379.143	-355.85
379.591	-334.5
380.038	-589.29
380.485	-400.96
380.932	-414.45
381.379	-330.68
381.826	-113.33
382.273	-62.67
382.72	-87.09
383.166	-84.64
383.613	-19.45
384.06	-13.18
384.506	-25.21
384.953	-11.29
385.4	-26.97
385.846	-20.05
386.292	-37.35
386.739	-57.37
387.185	-74.88
387.631	-76.8
388.078	-52.71
388.524	-55.87
388.97	-54.36
389.416	-39.21
389.862	-37.28
390.308	-38.21
390.754	-39.72
391.2	-47.01
391.645	-59.91
392.091	-19.13
392.537	-6.35
392.983	-33.41
393.428	-13.22
393.874	-20.05
394.319	-1.73
394.765	19.49
395.21	24.85
395.655	23.45
396.101	30.87
396.546	38.73
396.991	12.29
397.436	8.38
397.881	9.4
398.326	-9.23
398.771	0.71
399.216	-12.61
399.661	-18.5
400.106	-19.68
400.551	-16.27
400.995	-17.11
401.44	-17.7
401.885	-13.49
402.329	-10.47
402.774	-3.96
403.218	8.7
403.663	7.33
404.107	9.86
404.551	13.41
404.995	12.21
405.44	7.1
405.884	4.96
406.328	-0.28
406.772	-0.87
407.216	0.58
407.66	-4.42
408.104	-13.78
408.547	-14.29
408.991	-13.83
409.435	-17.86
409.879	-13.95
410.322	-13.23
410.766	-10.77
411.209	-4.42
411.653	-4.59
412.096	-3.51
412.54	-3.96
412.983	-1.47
413.426	2.48
413.869	-0.16
414.312	4.11
414.756	2.56
415.199	2.07
415.642	3.87
416.085	4.12
416.527	5.19
416.97	2.89
417.413	3.71
417.856	2.01
418.298	-0.61
418.741	-1.61
419.184	-4.66
419.626	-11.21
420.069	-11.7
420.511	-12.57
420.953	-12.58
421.396	-12.87
421.838	-14.32
422.28	-13.86
422.722	-12.93
423.164	-15.81
423.606	-14.31
424.048	-16.46
424.49	-12.35
424.932	-12.5
425.374	-13.8
425.816	-17.48
426.258	-17.71
426.699	-14.7
427.141	-10.28
427.582	-12.9
428.024	-12.79
428.465	-12.91
428.907	-12.32
429.348	-10.55
429.789	-7.03
430.231	-3.13
430.672	-2.54
431.113	-3.65
431.554	-3.28
431.995	-6.93
432.436	-2.37
432.877	-1.13
433.318	0.51
433.759	-0.44
434.2	0.14
434.64	-2.36
435.081	-4.13
435.522	-1.9
435.962	-1.46
436.403	-0.82
436.843	-2.26
437.284	-4.08
437.724	-6.31
438.164	-9.13
438.604	-8.45
439.045	-7.76
439.485	-4.37
439.925	-3.65
440.365	-4.81
440.805	-4.59
441.245	-4.63
441.685	-5.32
442.125	-6.32
442.564	-6.95
443.004	-5.51
443.444	-4.49
443.883	-5.78
444.323	-8.8
444.762	-13.63
445.202	-14.66
445.641	-12.81
446.081	-14.82
446.52	-13.08
446.959	-12.44
447.398	-8.63
447.837	-8.49
448.276	-9.2
448.716	-7.56
449.154	-8.04
449.593	-4.15
450.032	-3.66
450.471	-6.68
450.91	-7.55
451.349	-6.35
451.787	-6.63
452.226	-8.25
452.664	-8.28
453.103	-7.52
453.541	-9.49
453.98	-6.68
454.418	-7.37
454.856	-5.28
455.295	-4.51
455.733	-2.44
456.171	-3.31
456.609	-2.42
457.047	-1.82
457.485	-0.01
457.923	1.59
458.361	1.02
458.798	-0.22
459.236	-0.12
459.674	-2.46
460.111	-1.53
460.549	-1.83
460.987	-2.83
461.424	-3.42
461.862	-2.48
462.299	-3.21
462.736	-3.22
463.173	-2.91
463.611	0.01
464.048	0.66
464.485	2.21
464.922	1.53
465.359	0.96
465.796	9.2
466.233	10.74
466.67	13.1
467.106	15.16
467.543	13.93
467.98	14.56
468.416	12.4
468.853	11.45
469.29	9.68
469.726	9.36
470.162	9.01
470.599	2.73
471.035	1.34
471.471	-0.91
471.907	-4.19
472.344	-4.17
472.78	-3.65
473.216	-4.31
473.652	-4.14
474.088	-3.96
474.523	-3.2
474.959	-3.13
475.395	-2.61
475.831	-2.28
476.266	-1.81
476.702	-1.34
477.138	-1.44
477.573	-1.94
478.008	-1.43
478.444	-0.17
478.879	1.41
479.314	1.17
479.75	1.77
480.185	1.44
480.62	0.8
481.055	0.35
481.49	1.7
481.925	2.17
482.36	4.22
482.795	3.53
483.229	1.92
483.664	0.96
484.099	1.76
484.534	1.8
484.968	1.83
485.403	1.62
485.837	0.93
486.271	-0.51
486.706	-0.68
487.14	-2.29
487.574	-2.22
488.009	-2.09
488.443	-2.31
488.877	-1.99
489.311	-2.53
489.745	-2.88
490.179	-2.33
490.613	-0.58
491.046	-0.68
491.48	-0.55
491.914	-0.44
492.348	-0.36
492.781	0.13
493.215	0.05
493.648	-1.08
494.082	-0.96
494.515	-0.13
494.948	0.68
495.382	-0.71
495.815	0.27
496.248	0.38
496.681	-0.37
497.114	-1.03
497.547	-0.58
497.98	1.17
498.413	2.41
498.846	3.21
499.279	2.54
499.711	1.46
500.144	1.38
500.577	1.55
501.009	0.85
501.442	2.55
501.874	3.41
502.306	3.16
502.739	4.87
503.171	4.58
503.603	4.43
504.036	4.41
504.468	4.83
504.9	5.21
505.332	4.63
505.764	5.34
506.196	4.43
506.627	4.74
507.059	4.49
507.491	1.77
507.923	1.36
508.354	1.25
508.786	1.33
509.217	1.57
509.649	1.72
510.08	1.32
510.512	1.6
510.943	2.22
511.374	2.29
511.805	2.34
512.237	1.93
512.668	1.08
513.099	0.36
513.53	0.19
513.961	0.48
514.391	0.15
514.822	1.57
515.253	1.36
515.684	0.93
516.114	0.89
516.545	1.27
516.975	0.98
517.406	1.74
517.836	1.71
518.267	2.08
518.697	2.84
519.127	2.75
519.558	1.9
519.988	1.48
520.418	1.09
520.848	0.07
521.278	-0.09
521.708	20.32
522.138	20.44
522.567	19.79
522.997	19.86
523.427	18.58
523.857	18.86
524.286	19.23
524.716	19.72
525.145	19.99
525.575	20.8
526.004	20.06
526.433	0.31
526.863	-0.22
527.292	1.34
527.721	1.07
528.15	1.49
528.579	1.85
529.008	1.93
529.437	0.79
529.866	0.91
530.295	0.1
530.724	1.05
531.152	1.44
531.581	2.45
532.01	2.56
532.438	2.16
532.867	1.25
533.295	1.16
533.723	0.9
534.152	1.52
534.58	1.28
535.008	1.75
535.436	2.54
535.865	1.97
536.293	0.79
536.721	-0.3
537.149	0.25
537.576	1.41
538.004	1.07
538.432	1.07
538.86	1.69
539.287	1.89
539.715	2.12
540.143	0.64
540.57	1.39
540.998	2.25
541.425	3.87
541.852	3.72
542.28	3.44
542.707	3.16
543.134	2.9
543.561	2.57
543.988	2.51
544.415	2.02
544.842	2.14
545.269	1.47
545.696	1.81
546.123	1.61
546.549	1.99
546.976	2.13
547.403	2.34
547.829	1.81
548.256	1.44
548.682	1.64
549.108	2.43
549.535	2.5
549.961	2.43
550.387	1.83
550.813	2.56
551.24	2.51
551.666	1.83
552.092	2.24
552.518	2.91
552.943	3.32
553.369	2.8
553.795	2.48
554.221	2.41
554.646	2.67
555.072	4.15
555.498	2.26
555.923	1.58
556.349	1.69
556.774	1.25
557.199	0.41
557.625	-0.11
558.05	0.62
558.475	0.64
558.9	1.23
559.325	2.12
559.75	1.13
560.175	1.22
560.6	1.37
561.025	1.19
561.449	1.43
561.874	1.39
562.299	1.99
562.723	1.05
563.148	1.32
563.572	0.44
563.997	-0.15
564.421	-1.24
564.846	-1.35
565.27	-0.94
565.694	-0.83
566.118	-1.1
566.542	0.28
566.966	0.06
567.39	0.58
567.814	0.61
568.238	0.98
568.662	0.38
569.086	1.22
569.509	1.04
569.933	1.81
570.357	2.07
570.78	2.81
571.204	3.25
571.627	3.22
572.05	3.55
572.474	4.21
572.897	4.61
573.32	5.71
573.743	5.63
574.166	6.51
574.589	6.11
575.012	5.91
575.435	4.96
575.858	4.27
576.281	4.42
576.704	4
577.126	2.9
577.549	2.24
577.972	1.04
578.394	0.83
578.817	2.54
579.239	2.1
579.661	2.51
580.084	3.51
580.506	4.07
580.928	3.78
581.35	3.89
581.772	4.09
582.194	4.99
582.616	5
583.038	4.78
583.46	2.52
583.882	2.69
584.303	1.42
584.725	0.67
585.147	4.04
585.568	4.46
585.99	4.5
586.411	4.89
586.833	4.96
587.254	5.3
587.675	5.29
588.096	5.28
588.518	4.8
588.939	5.27
589.36	5.27
589.781	0.13
590.202	2.15
590.623	2.32
591.043	1.41
591.464	0.82
591.885	0.78
592.305	0.36
592.726	-0.16
593.147	-0.18
593.567	0.05
593.987	-0.24
594.408	-0.19
594.828	-2.37
595.248	-2.42
595.669	-1.44
596.089	-1.57
596.509	-1.69
596.929	-1.73
597.349	-0.53
597.769	-0.06
598.189	0.13
598.608	0.29
599.028	0.44
599.448	-0.12
599.867	-0.35
600.287	-0.97
600.706	-0.33
601.126	-0.09
601.545	0.87
601.965	0.39
602.384	-0.06
602.803	-0.07
603.222	0.52
603.641	0.46
604.061	0.93
604.48	0.68
604.898	0.64
605.317	0.14
605.736	0.37
606.155	0.57
606.574	-0.05
606.992	-0.1
607.411	0
607.829	-1.27
608.248	-1.28
608.666	-0.94
609.085	-0.42
609.503	-0.37
609.921	0.24
610.339	0.28
610.758	-0.34
611.176	0.23
611.594	0.98
612.012	0.9
612.43	2.05
612.847	1.8
613.265	1.99
613.683	1.69
614.101	2.34
614.518	1.77
614.936	1.58
615.353	2.07
615.771	2.61
616.188	2.3
616.606	2.04
617.023	1.93
617.44	2.47
617.857	1.53
618.274	1.34
618.691	1.02
619.108	0.78
619.525	0.94
619.942	1.12
620.359	0.74
620.776	0.64
621.192	1.55
621.609	2.52
622.026	2.79
622.442	3.3
622.859	3.02
623.275	2.55
623.691	2.45
624.108	2.35
624.524	1.43
624.94	1.44
625.356	1.22
625.772	0.03
626.188	-0.94
626.604	-1.78
627.02	-2.11
627.436	-1.62
627.852	-0.12
628.268	0.48
628.683	-0.08
629.099	-0.22
629.514	-0.73
629.93	-0.93
630.345	-0.62
630.761	-1.52
631.176	-1.13
631.591	0.02
632.007	0.59
632.422	-1.08
632.837	-2.06
633.252	-0.81
633.667	-0.66
634.082	0.18
634.497	1.1
634.911	2.9
635.326	4.01
635.741	4.58
636.155	3.96
636.57	4.77
636.984	5.23
637.399	6.6
637.813	4.47
638.228	4.53
638.642	3.36
639.056	3.06
639.47	2.07
639.884	1.59
640.298	1.22
640.712	1.68
641.126	0.44
641.54	0.37
641.954	-2.22
642.368	-1.27
642.781	1.46
643.195	1.87
643.609	2
644.022	1.49
644.436	0.59
644.849	0.09
645.262	-0.98
645.676	-1.56
646.089	-1.6
646.502	0.78
646.915	0.51
647.328	-0.64
647.741	-0.14
648.154	0.03
648.567	2.54
648.98	3.35
649.393	3.46
649.805	3.75
650.218	3.76
650.631	4.15
651.043	3.9
651.456	4.46
651.868	3.76
652.28	1.78
652.693	0.64
653.105	-1.21
653.517	-1.9
653.929	-2.13
654.341	-1.91
654.753	-1.03
655.165	-1.28
655.577	-1.19
655.989	-1.6
656.401	-2.82
656.813	-0.42
657.224	0.12
657.636	-1.23
658.047	0.45
658.459	0.72
658.87	-0.33
659.282	-0.2
659.693	0.02
660.104	0.1
660.515	0.1
660.926	-0.2
661.338	-0.25
661.749	-1.21
662.159	0.56
662.57	-0.79
662.981	-1.63
663.392	-1.72
663.803	-2.61
664.213	-2.65
664.624	-3.35
665.035	-4.37
665.445	-4.09
665.855	-3.51
666.266	-2.62
666.676	-3.38
667.086	-3.72
667.497	-2.39
667.907	-1.76
668.317	-2.28
668.727	0.11
669.137	-0.96
669.547	-0.38
669.956	-1.63
670.366	-3.62
670.776	-3.03
671.186	-3.73
671.595	-3.48
672.005	-4.87
672.414	-3.99
672.824	-2.55
673.233	-5.88
673.642	-4.21
674.052	-3.31
674.461	-1.05
674.87	-0.5
675.279	-0.43
675.688	-1.26
676.097	0.52
676.506	1.4
676.915	-0.21
677.323	-0.67
677.732	0.31
678.141	0.2
678.549	-0.51
678.958	-1.79
679.366	-1.63
679.775	-2.42
680.183	0.33
680.592	-1.44
681	-1.92
681.408	-0.77
681.816	-0.95
682.224	-2.36
682.632	-0.87
683.04	0.04
683.448	0.26
683.856	0.59
684.264	0.99
684.671	-1.15
685.079	-0.78
685.487	-0.87
685.894	-1.68
686.302	-2.56
686.709	-0.78
687.116	-2.36
687.524	-2.64
687.931	-1.4
688.338	-0.59
688.745	-1.42
689.152	-1.95
689.559	-2.09
689.966	0.14
690.373	0.83
690.78	1.42
691.187	0.21
691.593	0.85
692	0.18
692.407	0.24
692.813	2.23
693.22	2.45
693.626	1.88
694.032	2.57
694.439	1.57
694.845	1.23
695.251	1.17
695.657	1.9
696.063	0.03
696.469	-0.01
696.875	-0.36
697.281	-2.75
697.687	-2.93
698.093	-3.1
698.498	-2.53
698.904	-2.82
699.31	-2.93
699.715	-1.06
700.12	-0.8
700.526	0.1
700.931	-0.04
701.337	0.79
701.742	2.2
702.147	1.98
702.552	3.62
702.957	1.57
703.362	1.16
703.767	1.05
704.172	-1.16
704.577	-2.07
704.981	-3.22
705.386	-2.67
705.791	-3.43
706.195	-5.22
706.6	-4
707.004	-5.56
707.408	-5.19
707.813	-4.27
708.217	-3.02
708.621	-2.41
709.025	-2.54
709.43	0.05
709.834	0.18
710.237	-0.27
710.641	0.77
711.045	0.24
711.449	1.96
711.853	6.16
712.256	5.62
712.66	4.4
713.064	4.67
713.467	5.6
713.87	4.32
714.274	4.89
714.677	6.28
715.08	5.78
715.484	6.58
715.887	8.98
716.29	4.18
716.693	5.31
717.096	6.78
717.499	7.93
717.901	7.2
718.304	6.32
718.707	6.05
719.109	4.62
719.512	4.46
719.915	7.29
720.317	4.77
720.719	3.98
721.122	2.78
721.524	1.96
721.926	5.28
722.328	5.61
722.731	5.41
723.133	4.64
723.535	5.07
723.937	4.64
724.338	3.78
724.74	4.17
725.142	52.61
725.544	55.58
725.945	67.24
726.347	64.19
726.748	65.18
727.15	65.72
727.551	69.68
727.952	68.32
728.354	68.32
728.755	67.18
729.156	66.11
729.557	19.5
729.958	16.25
730.359	5.35
730.76	4.55
731.161	4.44
731.562	3.35
731.962	-0.18
732.363	-0.56
732.763	-0.25
733.164	-2.32
733.564	-0.76
733.965	1.03
734.365	2
734.766	1.66
735.166	1.16
735.566	0.81
735.966	2.03
736.366	3.7
736.766	4.46
737.166	3.4
737.566	4.42
737.966	4.01
738.365	4.28
738.765	4.15
739.165	4.71
739.564	4.74
739.964	3.56
740.363	2.85
740.763	0.44
741.162	1.53
741.561	1.72
741.96	1.65
742.36	0.72
742.759	-0.23
743.158	-1.35
743.557	-2.15
743.955	-3.26
744.354	-3.55
744.753	-3.9
745.152	-2.43
745.55	-4.99
745.949	-4.36
746.348	-4.16
746.746	-6.8
747.144	-4.78
747.543	-4.02
747.941	-4.39
748.339	-3.41
748.737	-1.04
749.136	0.75
749.534	-0.29
749.932	3.07
750.33	2.88
750.727	1.98
751.125	4.65
751.523	4.01
751.921	7.18
752.318	8.05
752.716	9.8
753.113	8.7
753.511	7.16
753.908	8.32
754.305	11.43
754.703	11.28
755.1	12.42
755.497	11.56
755.894	10.3
756.291	6.98
756.688	7.27
757.085	5.51
757.482	4.62
757.878	7.12
758.275	6.72
758.672	-1.41
759.068	-2.57
759.465	-5.62
759.861	-5.84
760.258	-8.1
760.654	-9.7
761.05	-10.1
761.447	-10.93
761.843	-7.28
762.239	-7.9
762.635	-10.73
763.031	-11.39
763.427	-9.81
763.822	-8.3
764.218	-8.62
764.614	-7.48
765.01	-9.65
765.405	-9.68
765.801	-8.44
766.196	-8.43
766.592	-8.03
766.987	-5.95
767.382	-5.37
767.778	-5.48
768.173	-5.45
768.568	-4.1
768.963	-3.26
769.358	-1.25
769.753	0.05
770.148	0.91
770.542	1.23
770.937	-0.39
771.332	0.05
771.726	-0.29
772.121	3.57
772.515	4.14
772.91	3.23
773.304	2.23
773.699	2.46
774.093	1.67
774.487	1.97
774.881	0.29
775.275	2.04
775.669	0.79
776.063	0.57
776.457	-1.26
776.851	-1.62
777.245	-1.45
777.638	-0.82
778.032	-1.63
778.425	0.22
778.819	1.89
779.212	4.75
779.606	6.07
779.999	6.04
780.392	8.51
780.786	5.47
781.179	5.9
781.572	7.69
781.965	8.84
782.358	10.62
782.751	8.17
783.143	4.92
783.536	4.63
783.929	2.59
784.322	2.69
784.714	0.92
785.107	3.07
785.499	4.43
785.891	4.3
786.284	5.01
786.676	2.18
787.068	5.57
787.46	8.16
787.852	6.14
788.245	5.92
788.636	4.13
789.028	6.43
789.42	7.2
789.812	7.83
790.204	7.15
790.595	8.32
790.987	10.75
791.378	7.61
791.77	4.83
792.161	4.6
792.553	4.52
792.944	5.76
793.335	3.37
793.726	2.71
794.117	2.67
794.508	-1.56
794.899	-3.65
795.29	-6.48
795.681	-5.77
796.072	-6.07
796.463	13.37
796.853	16.61
797.244	17.91
797.634	18.05
798.025	19.07
798.415	16.63
798.806	21.17
799.196	21.6
799.586	27.32
799.976	29.58
800.366	31.3
800.756	10.38
801.146	8.75
801.536	7.87
801.926	7.56
802.316	7.34
802.706	8.21
803.095	9.46
803.485	8.2
803.874	3.2
804.264	1.07
804.653	0.74
805.043	4.19
805.432	5.12
805.821	7.97
806.21	8.49
806.599	5.5
806.988	4.14
807.377	-1.4
807.766	-2.21
808.155	-1.76
808.544	-2.67
808.933	-0.99
809.321	1.93
809.71	-3.81
810.098	-6.24
810.487	-9.63
810.875	-9.7
811.264	-10.99
811.652	1.26
812.04	2.15
812.428	5.73
812.816	2.91
813.204	1.82
813.592	-8.09
813.98	-5.54
814.368	1
814.756	2.69
815.144	7.86
815.531	11.96
815.919	2.05
816.306	2.38
816.694	-1.95
817.081	1.69
817.469	3.19
817.856	3.12
818.243	3.4
818.63	-5.35
819.017	-2.22
819.404	-3.67
819.791	-3.97
820.178	-9.39
820.565	-5.91
820.952	-1.12
821.339	0.18
821.725	0.01
822.112	5.68
822.498	6.59
822.885	7.1
823.271	6.58
823.657	-0.97
824.044	-1.8
824.43	-0.53
824.816	4.54
825.202	4.73
825.588	1.75
825.974	-1.17
826.36	-1.49
826.746	-3.86
827.132	-4.32
827.517	-1.37
827.903	5.38
828.289	10.69
828.674	13.6
829.06	10.52
829.445	6.75
829.83	4.76
830.216	5.44
830.601	5.91
830.986	15.25
831.371	18.71
831.756	21.51
832.141	26.57
832.526	23.75
832.911	21.84
833.295	19.74
833.68	17.15
834.065	21.21
834.449	21.11
834.834	21.93
835.218	20.76
835.603	23
835.987	16.15
836.371	11.6
836.755	13.28
837.139	12.52
837.524	8.4
837.908	8.5
838.291	10.18
838.675	9.06
839.059	6.73
839.443	1.72
839.827	-5.88
840.21	-8.13
840.594	-5.02
840.977	-7.62
841.361	-6.09
841.744	-6.38
842.127	-4.06
842.511	-4.09
842.894	-4.74
843.277	-5.88
843.66	-9.94
844.043	-7.54
844.426	-0.28
844.809	-6.87
845.191	-6.92
845.574	-6.23
845.957	-4.78
846.339	-2.58
846.722	-3.52
847.104	-5.53
847.487	-6.99
847.869	-2.64
848.252	0.92
848.634	-2.25
849.016	-3.22
849.398	-5.02
849.78	-6.82
850.162	-1.9
850.544	-2.32
850.926	-7.12
851.307	-2.46
851.689	0.62
852.071	-4.37
852.452	-7.61
852.834	-5.09
853.215	2.32
853.597	2.96
853.978	8.7
854.359	4.75
854.741	8.85
855.122	8.7
855.503	5.91
855.884	6.35
856.265	7.33
856.646	3.73
857.026	2.58
857.407	-0.13
857.788	-0.51
858.169	-9.28
858.549	-0.69
858.93	-4.91
859.31	-1.09
859.69	5.27
860.071	4.84
860.451	9.78
860.831	13.66
861.211	8.56
861.591	4.28
861.971	0.87
862.351	3.29
862.731	-7.09
863.111	-6.59
863.491	-1.92
863.87	-7.79
864.25	-11.74
864.629	-7.22
865.009	-10.56
865.388	-4.29
865.768	-8.75
866.147	-2.96
866.526	-1.01
866.905	3.66
867.284	-4.67
867.663	-13.72
868.042	-17.46
868.421	-14.74
868.8	-22.7
869.179	-24.11
869.558	-24.61
869.936	-15.1
870.315	-17.36
870.693	-14.4
871.072	-25.29
871.45	-22.34
871.828	-15.34
872.207	-12.05
872.585	-10.73
872.963	-13.34
873.341	2.94
873.719	13.53
874.097	17.24
874.475	14.87
874.853	9.99
875.23	13.13
875.608	18.97
875.986	15.94
876.363	15.53
876.741	24.74
877.118	38.3
877.495	32.43
877.873	24.77
878.25	14.46
878.627	16.07
879.004	21.29
879.381	24.63
879.758	25.93
880.135	26.79
880.512	24.36
880.889	10.73
881.265	4.64
881.642	-4.61
882.019	-5.54
882.395	7.57
882.772	18.7
883.148	16.7
883.524	17.53
883.901	13.64
884.277	12.45
884.653	14.05
885.029	25.1
885.405	31.63
885.781	37.65
886.157	31.96
886.532	24.51
886.908	13.61
887.284	10.37
887.659	13.67
888.035	16.95
888.411	14.9
888.786	16.96
889.161	9.49
889.537	-3.22
889.912	-4.59
890.287	3.45
890.662	-0.94
891.037	-4.92
891.412	-6.56
891.787	-13.49
892.162	-12.91
892.536	-9.56
892.911	-5.04
893.286	-10.18
893.66	-3.33
894.035	-2.82
894.409	-15.2
894.784	-4.99
895.158	-3.28
895.532	-0.13
895.906	2.91
896.281	1.88
896.655	8.65
897.029	3.31
897.402	16.38
897.776	7.76
898.15	10.32
898.524	21.26
898.898	9.91
899.271	16.17
899.645	20.99
900.018	16.67
900.392	19.87
900.765	4.57
901.138	12.71
901.511	-5.16
901.884	6.35
902.258	11.72
902.631	15.76
903.003	11.68
903.376	7.3
903.749	3.81
904.122	-1.73
904.495	-20.33
904.867	-30.32
905.24	-32.93
905.612	-22.16
905.985	-34.13
906.357	-47.62
906.729	-49.9
907.102	-32.31
907.474	-27.51
907.846	-19.94
908.218	-11.81
908.59	11.07
908.962	20.29
909.334	19.9
909.705	28.16
910.077	28.78
910.449	30.07
910.82	32.84
911.192	31.44
911.563	39.48
911.935	18.71
912.306	-0.28
912.677	-17.5
913.048	-7.31
913.419	-7.65
913.79	-23.58
914.161	-35.98
914.532	-26.89
914.903	-22.86
915.274	-25.55
915.645	-21.95
916.015	-17.89
916.386	-6.5
916.756	-5.37
917.127	-27.24
917.497	-21.75
917.868	-14.06
918.238	-9.95
918.608	-19.95
918.978	-25.6
919.348	-35.53
919.718	-40.89
920.088	-29.1
920.458	-28.82
920.828	-48.61
921.198	-33.48
921.567	-36.04
921.937	-30.02
922.306	-39.62
922.676	-44.33
923.045	-16.24
923.415	2.16
923.784	2.26
924.153	13.01
924.522	16.7
924.891	26.7
925.26	29.17
925.629	23.52
925.998	16.73
926.367	26.9
926.736	49.1
927.104	37.07
927.473	18.99
927.842	-7.04
928.21	-42.01
928.578	-54.31
928.947	-39.78
929.315	-41.21
929.683	-24.22
930.051	-5.71
930.42	-14.73
930.788	-39.26
931.156	-47.02
931.523	-4.27
931.891	15.51
932.259	34.64
932.627	64.1
932.994	46.81
933.362	58.93
933.729	61.77
934.097	47.22
934.464	59.92
934.831	58.4
935.199	44.28
935.566	19.89
935.933	91.72
936.3	130.73
936.667	67.83
937.034	125.49
937.401	116.92
937.767	84.97
938.134	69.71
938.501	71.15
938.867	84.69
939.234	140.38
939.6	91.58
939.967	-32.46
940.333	-9.1
940.699	-12.91
941.065	-76.02
941.431	-102.47
941.798	-64.73
942.163	-34.23
942.529	-28.65
942.895	-38.7
943.261	-6.25
943.627	3.64
943.992	13.32
944.358	-14.04
944.723	28.94
945.089	28.37
945.454	24.03
945.82	0.27
946.185	-17.49
946.55	-8.42
946.915	2.13
947.28	0.44
947.645	15.62
948.01	39.51
948.375	71.66
948.74	41.33
949.104	50.07
949.469	-17.88
949.834	-46.27
950.198	51.95
950.562	66.29
950.927	63.31
951.291	59.65
951.655	19.88
952.02	-53.93
952.384	-41.9
952.748	22.79
953.112	40.79
953.476	55.09
953.839	49.04
954.203	59.47
954.567	46.31
954.931	31.64
955.294	49.78
955.658	49.47
956.021	87.34
956.385	58.39
956.748	-150.41
957.111	-344.83
957.474	-308.77
957.837	-539.55
958.2	-707.21
958.563	-219.08
958.926	-126.85
959.289	-264.1
959.652	-222.75
960.015	-125.92
960.377	-177.22
960.74	-180.68
961.102	-505.24
961.465	-438.38
961.827	229.75
962.189	433.14
962.552	350.87
962.914	263.23
963.276	178.44
963.638	134.44
964	83.71
964.362	79.13
964.724	56.08
965.085	73.35
965.447	64.16
965.809	-21.39
966.17	-30.52
966.532	-42.35
966.893	-42.44
967.255	-42.22
967.616	-75.38
967.977	-36.19
968.338	-45.98
968.699	-16.27
969.061	-20.66
969.421	-14.96
969.782	-28.2
970.143	-0.42
970.504	19.08
970.865	40.7
971.225	73.24
971.586	82.19
971.946	87.46
972.307	78.44
972.667	56.61
973.027	51.35
973.388	-3.06
973.748	41.47
974.108	35.97
974.468	-29.09
974.828	19.54
975.188	-7.08
975.548	-15.02
975.907	-9.97
976.267	-28.96
976.627	24.95
976.986	24.88
977.346	35.62
977.705	32.71
978.064	36.4
978.424	44.06
978.783	5.36
979.142	6.67
979.501	11.34
979.86	15.98
980.219	3.48
980.578	-43.48
980.937	-70.11
981.296	-63.61
981.654	-85.22
982.013	-183.95
982.371	-241.19
982.73	-186.13
983.088	-240.1
983.447	-234.55
983.805	-283.25
984.163	-576.97
984.521	-667.93
984.879	-1025.31
985.237	1346.14
985.595	-922.36
985.953	-206.86
986.311	-158.94
986.669	-113.44
987.026	-107.95
987.384	-221.67
987.741	-303.03
988.099	-142.46
988.456	-97.03
988.814	-59.43
989.171	-67.45
989.528	-104.29
989.885	-128.18
990.242	-83.76
990.599	-123.67
990.956	-95.26
991.313	-39.11
991.67	-18.48
992.027	18.46
992.383	14.05
992.74	17.75
993.096	25.19
993.453	35.85
993.809	38.64
994.165	37.35
994.522	103.62
994.878	104.85
995.234	118.4
995.59	93.48
995.946	9.3
996.302	22.32
996.658	4.65
997.013	-19.59
997.369	18.59
997.725	53.54
998.08	42.88
998.436	-103.56
998.791	-97.56
999.147	-102.28
999.502	-60.89
999.857	-61.49
1000.212	-190.76
1000.567	-269.01
1000.922	-102.14
1001.277	-130.89
1001.632	-111.5
1001.987	-167.09
1002.342	-114.74
1002.696	-77.39
1003.051	-46.54
1003.406	-42.66
1003.76	-47.58
1004.114	-27.86
1004.469	-19.01
1004.823	-21.22
1005.177	-12.49
1005.531	-10.84
1005.885	15.72
1006.239	44.3
1006.593	54.23
1006.947	71.99
1007.301	36.66
1007.655	45.51
1008.008	49.31
1008.362	52.51
1008.715	84.91
1009.069	44.94
1009.422	161.7
1009.776	226.47
1010.129	82.84
1010.482	11.41
1010.835	-46.2
1011.188	-100.41
1011.541	-159.83
1011.894	1731.83
1012.247	-5198.44
1012.6	-445.41
1012.952	-197.07
1013.305	-165.28
1013.657	-109.75
1014.01	-126.33
1014.362	-102.64
1014.715	-28.95
1015.067	-19.74
1015.419	-20.38
1015.771	-1.91
1016.123	21.19
1016.475	38.15
1016.827	25.69
1017.179	52.94
1017.531	41.33
1017.883	40.84
1018.234	91.5
1018.586	73.48
1018.938	114.04
1019.289	160.76
1019.64	161.26
1019.992	94.42
1020.343	32.51
1020.694	84.18
1021.045	75.03
1021.396	84.57
1021.747	115.32
1022.098	51.18
1022.449	59.49
1022.8	41.4
1023.151	69.7
1023.501	85.19
1023.852	72.18
1024.202	97.08
1024.553	55.44
1024.903	68.95
1025.253	74.75
1025.604	81.88
1025.954	102.09
1026.304	83.53
1026.654	84.96
1027.004	38.26
1027.354	-110.38
1027.703	24.4
1028.053	-112.66
1028.403	117.43
1028.753	-322.51
1029.102	-1111.31
1029.452	-10532.72
1029.801	-564.27
1030.15	-378.9
1030.499	-377
897.758	1693.12
901.051	1631.52
904.343	1661.16
907.636	1665.59
910.928	1714.85
914.22	1653.07
917.511	1657.76
920.803	1692.09
924.094	1682.68
927.384	1688.02
930.675	1659.29
933.965	1635.08
937.255	1664.5
940.544	1641.71
943.834	1633.7
947.123	1587.83
950.411	1657.88
953.7	1644.99
956.988	1637.26
960.276	1581.91
963.563	1612.41
966.851	1620.74
970.138	1649.24
973.424	1648.62
976.711	1608.84
979.997	1648.42
983.283	1678.66
986.568	1627.29
989.853	1615.58
993.138	1631.65
996.423	1702.68
999.708	1673.95
1002.992	1695.99
1006.275	1624.86
1009.559	1628.93
1012.842	1703.02
1016.125	1669.95
1019.408	1653.85
1022.69	1689.05
1025.972	1714.76
1029.254	1697.35
1032.536	1673.49
1035.817	1673.61
1039.098	1649.59
1042.379	1687.22
1045.659	1704.62
1048.939	1664.9
1052.219	1662.65
1055.498	1654.65
1058.778	1649.05
1062.057	1630.58
1065.335	1649.78
1068.614	1652.82
1071.892	1650.37
1075.17	1689.28
1078.447	1692.56
1081.724	1687.8
1085.001	1703.07
1088.278	1687.42
1091.554	1687.08
1094.83	1686.79
1098.106	1710.31
1101.382	1730.47
1104.657	1731.81
1107.932	1731.63
1111.206	1713.1
1114.481	1674.37
1117.755	1677.21
1121.029	1673.46
1124.302	1717.77
1127.575	1698.06
1130.848	1697.81
1134.121	1677.45
1137.393	1646.27
1140.665	1689.24
1143.937	1672.55
1147.208	1634.14
1150.48	1679.48
1153.75	1668.09
1157.021	1667.64
1160.291	1651.57
1163.561	1690.19
1166.831	1660.01
1170.101	1676.62
1173.37	1645.97
1176.639	1615.38
1179.907	1649.77
1183.176	1665.64
1186.444	1668.04
1189.711	1685.78
1192.979	1703.59
1196.246	1672.94
1199.513	1681.66
1202.78	1687.06
1206.046	1694.64
1209.312	1717.34
1212.578	1725.92
1215.843	1700.15
1219.108	1677.87
1222.373	1696.18
1225.638	1677.57
1228.902	1672.6
1232.166	1638.31
1235.43	1630.75
1238.693	1654.62
1241.956	1649.02
1245.219	1687.25
1248.482	1675.06
1251.744	1675.52
1255.006	1762.82
1258.268	1723.54
1261.529	1695.6
1264.79	1693.82
1268.051	1766.17
1271.312	1773.44
1274.572	1746.21
1277.832	1735.15
1281.092	1717.01
1284.351	1713.51
1287.61	1702.39
1290.869	1656.09
1294.128	1654.64
1297.386	1681.46
1300.644	1675.77
1303.902	1684.67
1307.159	1583.22
1310.416	1623.53
1313.673	1643.39
1316.93	1647.83
1320.186	1666.33
1323.442	1691.24
1326.697	1695.65
1329.953	1673.68
1333.208	1704.53
1336.463	1685.83
1339.717	1661.37
1342.972	1744.49
1346.226	1720.78
1349.479	1691.24
1352.733	1675.65
1355.986	1682.72
1359.238	1667.75
1362.491	1672.42
1365.743	1672.32
1368.995	1667.1
1372.247	1678.68
1375.498	1692.68
1378.749	1728.95
1382	1696.89
1385.251	1716.6
1388.501	1682.6
1391.751	1685.22
1395	1666.31
1398.25	1683.57
1401.499	1708.28
1404.748	1674.26
1407.996	1660.64
1411.244	1654.11
1414.492	1642.83
1417.74	1633.52
1420.987	1640.27
1424.234	1686.44
1427.481	1654.69
1430.728	1694.6
1433.974	1680.43
1437.22	1675.16
1440.465	1669.32
1443.711	1674.97
1446.956	1690.65
1450.201	1666.67
1453.445	1697.37
1456.689	1687.97
1459.933	1695.32
1463.177	1727.49
1466.42	1707.21
1469.663	1691.64
1472.906	1706.77
1476.148	1741.47
1479.391	1706.24
1482.633	1689.41
1485.874	1709.59
1489.115	1715.62
1492.356	1701.34
1495.597	1684.35
1498.838	1673.69
1502.078	1664.84
1505.318	1648.36
1508.557	1668.25
1511.797	1666.61
1515.036	1707.65
1518.274	1675.07
1521.513	1634.2
1524.751	1638.55
1527.989	1656.32
1531.227	1670.69
1534.464	1680.15
1537.701	1671.29
1540.938	1676.59
1544.174	1635.19
1547.41	1626.32
1550.646	1652.55
1553.882	1690.67
1557.117	1735.77
1560.352	1740.06
1563.587	1709.3
1566.821	1685.64
1570.055	1695.22
1573.289	1677.92
1576.523	1717.63
1579.756	1730.07
1582.989	1743.81
1586.222	1711.67
1589.454	1737.31
1592.686	1724.16
1595.918	1744.96
1599.15	1742.01
1602.381	1773.49
1605.612	1764.38
1608.843	1831.82
1612.073	1774.26
1615.303	1767.41
1618.533	1764.21
1621.762	1763.83
1624.992	1739.65
1628.221	1741.26
1631.449	1732.76
1634.678	1749.81
1637.906	1725.63
1641.134	1741.95
1644.361	1717.6
1647.588	1710.31
1650.815	1728.43
1654.042	1698.11
1657.269	1717.14
1660.495	1706.32
1663.72	1692.2
1666.946	1666.55
1670.171	1655.45
1673.396	1630.51
1676.621	1618.54
1679.845	1613.51
1683.069	1616.06
1686.293	1635.93
1689.517	1632.77
1692.74	1602.89
1695.963	1616.99
1699.185	1647.87
1702.408	1632.46
1705.63	1650.05
1708.852	1667.1
1712.073	1643.34
1715.294	1658.42
1718.515	1691.16
1721.736	1660.7
1724.956	1649.16
1728.176	1665.08
1731.396	1679.37
1734.616	1673.03
1737.835	1704.27
1741.054	1678.96
1744.272	1674.6
1747.491	1709.13
1750.709	1721.55
1753.927	1691.67
1757.144	1711.23
1760.361	1753.8
1763.578	1729.77
1766.795	1695.56
1770.011	1684.63
1773.227	1699.29
1776.443	1735.15
1779.658	1766.1
1782.874	1720.18
1786.089	1717.39
1789.303	1718.89
1792.518	1713.7
1795.732	1706.53
1798.945	1720.59
1802.159	1751.67
1805.372	1713.54
1808.585	1710.33
1811.797	1710.44
1815.01	1726.46
1818.222	1751.77
1821.434	1716.28
1824.645	1743.79
1827.856	1757.91
1831.067	1775.26
1834.278	1731.49
1837.488	1720.1
1840.698	1808.61
1843.908	1772.04
1847.117	1750.65
1850.326	1700.45
1853.535	1739.95
1856.744	1773.95
1859.952	1719.97
1863.16	1719.53
1866.368	1739.5
1869.575	1822.97
1872.782	1737.61
1875.989	1689.46
1879.196	1723.88
1882.402	1719.83
1885.608	1745.62
1888.814	1708.14
1892.019	1643.06
1895.224	1686.16
1898.429	1658.71
1901.634	1645.9
1904.838	1632.34
1908.042	1678.2
1911.246	1692.05
1914.449	1668.16
1917.652	1652.12
1920.855	1636.61
1924.058	1653.22
1927.26	1691.67
1930.462	1706.29
1933.664	1738.25
1936.865	1697.83
1940.066	1709.85
1943.267	1665.54
1946.467	1674.31
1949.668	1685.01
1952.868	1741.03
1956.067	1739.55
1959.267	1690.06
1962.466	1708.56
1965.665	1692.53
1968.863	1691.5
1972.061	1687.46
1975.259	1683.21
1978.457	1739.9
1981.654	1707.39
1984.852	1709.42
1988.048	1677.99
1991.245	1664.54
1994.441	1737.71
1997.637	1695.62
2000.833	1682.72
2004.028	1708.61
2007.223	1759.14
2010.418	1747.97
2013.613	1709
2016.807	1709.13
2020.001	1705.05
2023.194	1713.72
2026.388	1704.48
2029.581	1659.62
2032.774	1712.04
2035.966	1720.99
2039.158	1680.37
2042.35	1695.7
2045.542	1639.04
2048.733	1702.58
2051.924	1685.4
2055.115	1696.13
2058.306	1677.12
2061.496	1714.32
2064.686	1752.16
2067.875	1677.17
2071.065	1676.4
2074.254	1688.01
2077.442	1651.79
2080.631	1715.93
2083.819	1669.65
2087.007	1666.44
2090.195	1658.3
2093.382	1664.45
2096.569	1656.99
2099.756	1626
2102.942	1670.89
2106.128	1681.98
2109.314	1675.07
2112.5	1668.78
2115.685	1641.08
2118.87	1646.06
2122.055	1698.87
2125.239	1679.83
2128.424	1673.86
2131.608	1709.95
2134.791	1697.04
2137.974	1722.61
2141.157	1715.15
2144.34	1697.73
2147.523	1682.07
2150.705	1706.41
2153.887	1678.45
2157.068	1659.64
2160.25	1640.63
2163.431	1657.36
2166.611	1637.17
2169.792	1657.69
2172.972	1587.58
2176.152	1626.08
2179.331	1643.12
2182.511	1651.83
2185.69	1665.31
2188.868	1670.47
2192.047	1692.34
2195.225	1714.48
2198.403	1672.12
2201.58	1659.89
2204.758	1647.3
2207.935	1707.12
2211.111	1644.62
2214.288	1637.23
2217.464	1660.56
2220.64	1625.15
2223.815	1661.64
2226.991	1611.16
2230.166	1621.54
2233.34	1656.52
2236.515	1669.53
2239.689	1715.25
2242.863	1676.7
2246.036	1715.76
2249.209	1702.29
2252.382	1715.5
2255.555	1726.33
2258.727	1693.22
2261.9	1713.78
2265.071	1708.69
2268.243	1707.68
2271.414	1670.26
2274.585	1662.61
2277.756	1708.18
2280.926	1677.7
2284.096	1696.35
2287.266	1646.82
2290.436	1683.3
2293.605	1694.89
2296.774	1728.59
2299.942	1731.76
2303.111	1742.42
2306.279	1783.93
2309.447	1772.8
2312.614	1753.38
2315.781	1768.96
2318.948	1754.27
2322.115	1783.48
2325.281	1700.48
2328.447	1705.62
2331.613	1680.17
2334.779	1675.32
2337.944	1671.8
2341.109	1671.3
2344.274	1664.93
2347.438	1637.77
2350.602	1653.83
2353.766	1661.2
2356.929	1654.18
2360.092	1682.32
2363.255	1661.13
2366.418	1643.11
2369.58	1676.14
2372.742	1638.97
2375.904	1622.76
2379.066	1615.46
2382.227	1634.06
2385.388	1605.93
2388.548	1570.45
2391.709	1597.67
2394.869	1597.14
2398.029	1629.45
2401.188	1616.71
2404.347	1602.98
2407.506	1611.31
2410.665	1654.65
2413.823	1636.42
2416.981	1624.58
2420.139	1635.53
2423.296	1666.42
2426.453	1645
2429.61	1660.37
2432.767	1645.84
2435.923	1680.2
2439.079	1631.46
2442.235	1658.32
2445.391	1613.13
2448.546	1650.35
2451.701	1674.42
2454.855	1675.26
2458.009	1691.03
2461.163	1681.53
2464.317	1660.06
2467.471	1679.3
2470.624	1702.14
2473.777	1701.05
2476.929	1712.33
2480.082	1729.21
2483.234	1713.61
2486.385	1666.8
2489.537	1660.81
2492.688	1660.78
2495.839	1675.27
2498.989	1686.06
2502.14	1677.44
2505.29	1671.42
2508.439	1688.28
2511.589	1646.28
2514.738	1644.57
2517.887	1657.27
2521.035	1720.24
2524.183	1681.48
2527.331	1672.06
2530.479	1668.64
2533.627	1671.84
