Data from N_1_DIV_IL_4N_Splice17_11-16-20-427.txt Node
Date: Sat Mar 14 11:16:20 EDT 2020
User: sa697716
Spectrometer: FLMS03696
Trigger mode: 0
Integration Time (sec): 3.180400E-1
Scans to average: 20
Electric dark correction enabled: true
Nonlinearity correction enabled: true
Boxcar width: 5
XAxis mode: Wavelengths
Number of Pixels in Spectrum: 2048
>>>>>Begin Spectral Data<<<<<
187.83	-56491.44
188.298	581.27
188.766	282.14
189.233	215.69
189.701	318.55
190.169	411.03
190.636	76.33
191.104	30.43
191.571	-42.42
192.039	-59.63
192.506	-120.65
192.974	293.16
193.441	-319.37
193.908	-150.14
194.375	-72.35
194.842	-43.85
195.31	-130.82
195.777	15.96
196.244	92.46
196.711	90.47
197.177	131.91
197.644	127.91
198.111	222.94
198.578	310.7
199.045	236.08
199.511	363.77
199.978	394.75
200.445	363.89
200.911	347.22
201.378	348.8
201.844	332.45
202.31	493.76
202.777	547.23
203.243	348.34
203.709	312.31
204.176	406.29
204.642	346.08
205.108	332.89
205.574	269.98
206.04	246.83
206.506	244.12
206.972	225.9
207.438	223.47
207.903	236.74
208.369	218.51
208.835	234.19
209.301	215.52
209.766	214.65
210.232	202.33
210.697	252.6
211.163	307.53
211.628	417.25
212.094	372.02
212.559	469.79
213.024	299.58
213.49	359.93
213.955	323.58
214.42	294.93
214.885	263.97
215.35	268.76
215.815	282.99
216.28	292.5
216.745	246.89
217.21	273.44
217.675	230.27
218.14	225.78
218.604	222.19
219.069	236.57
219.534	259.24
219.998	275.35
220.463	302.91
220.927	291.03
221.392	253.44
221.856	242.6
222.32	235.89
222.785	266.83
223.249	336.89
223.713	338.68
224.177	322.34
224.642	338.52
225.106	351.23
225.57	318.18
226.034	280.72
226.497	406.74
226.961	371.76
227.425	404.09
227.889	436.12
228.353	383.72
228.816	682.15
229.28	634.5
229.744	519.19
230.207	399.68
230.671	432.92
231.134	553.66
231.597	664.32
232.061	597.05
232.524	572.67
232.987	408.93
233.45	380.39
233.914	344.7
234.377	335.24
234.84	328.8
235.303	334.83
235.766	334.65
236.229	355.86
236.691	213.25
237.154	215.65
237.617	190.57
238.08	156.4
238.542	186.09
239.005	160.48
239.468	164.35
239.93	145.99
240.393	145.59
240.855	117.29
241.317	110.53
241.78	114.53
242.242	129.77
242.704	158.78
243.166	162.61
243.629	163.57
244.091	174.24
244.553	173.75
245.015	204.48
245.477	245.25
245.939	362.14
246.4	398.5
246.862	374.35
247.324	345.66
247.786	325.99
248.247	373.27
248.709	295.19
249.17	240.27
249.632	316.17
250.093	377.17
250.555	332.42
251.016	240.09
251.477	218.74
251.939	247.09
252.4	248.36
252.861	273.71
253.322	265.76
253.783	317.53
254.244	361.14
254.705	250.22
255.166	188.84
255.627	171.41
256.088	217.38
256.549	244.57
257.009	230.43
257.47	280.73
257.931	239.45
258.391	203.33
258.852	204.68
259.312	220.02
259.773	243.22
260.233	249.82
260.694	235.17
261.154	267.14
261.614	258.53
262.074	218.02
262.534	238.82
262.994	233.56
263.455	263.54
263.915	233.96
264.374	227.67
264.834	253.56
265.294	249.31
265.754	254.22
266.214	240.08
266.673	210.56
267.133	246.57
267.593	214.62
268.052	255.32
268.512	236.23
268.971	296.96
269.431	327.14
269.89	281.92
270.349	421.71
270.809	470.61
271.268	419.88
271.727	834.33
272.186	579.23
272.645	446.35
273.104	283.92
273.563	399.22
274.022	259.97
274.481	238.39
274.94	184.14
275.399	122.23
275.857	115.77
276.316	122.48
276.775	111.36
277.233	98.28
277.692	112.66
278.15	170.18
278.609	220.38
279.067	225.3
279.525	215.45
279.984	268.44
280.442	345.85
280.9	417.06
281.358	290.84
281.816	288.75
282.274	301.38
282.732	276.21
283.19	252.46
283.648	194.92
284.106	184.87
284.564	163.45
285.021	185.03
285.479	137.59
285.937	95.33
286.394	99.96
286.852	88.21
287.309	76.83
287.767	123.13
288.224	124.43
288.682	130.61
289.139	162.5
289.596	177.61
290.053	164.09
290.511	177.1
290.968	234.87
291.425	283.23
291.882	293.37
292.339	285.96
292.796	238.62
293.252	214.92
293.709	198.98
294.166	180.97
294.623	170.5
295.079	160.11
295.536	196.26
295.992	177.97
296.449	180.57
296.905	187.67
297.362	193.07
297.818	207.32
298.274	222.05
298.731	220.14
299.187	215.12
299.643	233.91
300.099	272.78
300.555	292.6
301.011	245.1
301.467	279.78
301.923	278.81
302.379	267.45
302.835	244.11
303.291	244.05
303.746	264.56
304.202	325.04
304.658	333.72
305.113	253.15
305.569	246.39
306.024	251.11
306.479	186.78
306.935	191.48
307.39	194.3
307.845	184.91
308.301	198.26
308.756	167.22
309.211	165.81
309.666	152.05
310.121	189.87
310.576	173.02
311.031	159.75
311.486	161.49
311.94	121.46
312.395	133.36
312.85	156.98
313.305	323.83
313.759	6436.42
314.214	557.76
314.668	510.79
315.123	550.94
315.577	243.91
316.032	251.12
316.486	336.91
316.94	290.57
317.394	230.95
317.849	199.08
318.303	192.45
318.757	178.59
319.211	184.87
319.665	167.19
320.119	162.69
320.572	208.81
321.026	213.02
321.48	187.55
321.934	186.19
322.387	168.89
322.841	191
323.295	188.96
323.748	189.15
324.202	222.24
324.655	260.72
325.108	382.18
325.562	296.32
326.015	328.26
326.468	242.56
326.921	288.62
327.374	325.08
327.827	337.13
328.28	378.84
328.733	279.04
329.186	246.14
329.639	235.55
330.092	188.38
330.545	191.39
330.997	203.83
331.45	235.98
331.903	292.21
332.355	407.86
332.808	394.5
333.26	344.7
333.713	367.54
334.165	337.6
334.617	462.02
335.069	335.47
335.522	513.37
335.974	551.61
336.426	454.74
336.878	253.27
337.33	171.64
337.782	176.94
338.234	225.42
338.686	220.36
339.137	250.81
339.589	197.42
340.041	183.7
340.493	155.74
340.944	158.95
341.396	174.05
341.847	188.58
342.299	241.55
342.75	314.13
343.201	243.59
343.653	316.01
344.104	397.37
344.555	335.69
345.006	446.99
345.457	410.88
345.908	284.46
346.359	280.94
346.81	204.53
347.261	193.4
347.712	163.96
348.163	163.53
348.613	204.15
349.064	172.4
349.515	153.05
349.965	188.43
350.416	207.72
350.866	245.79
351.317	250.43
351.767	397.01
352.217	413.87
352.668	361.36
353.118	354.38
353.568	268.48
354.018	273.67
354.468	290.51
354.918	201.42
355.368	187.4
355.818	243.84
356.268	589.22
356.718	2717.21
357.168	864.45
357.617	435.38
358.067	396.11
358.517	342.76
358.966	438.57
359.416	621.65
359.865	710.44
360.315	729.42
360.764	383.05
361.213	244.62
361.663	197.58
362.112	213.89
362.561	337.02
363.01	295.06
363.459	267.67
363.908	258.6
364.357	208.25
364.806	289.15
365.255	188.19
365.703	215.15
366.152	239.49
366.601	243.04
367.05	236.32
367.498	220.84
367.947	211.62
368.395	219.54
368.844	194.02
369.292	208.05
369.74	168.36
370.189	243.93
370.637	233.28
371.085	183.66
371.533	167.24
371.981	103.32
372.429	140.24
372.877	155.21
373.325	137.19
373.773	123.19
374.221	89.55
374.669	75.41
375.116	82.88
375.564	101.3
376.012	99.91
376.459	122.01
376.907	136.34
377.354	110.8
377.801	133.21
378.249	160.49
378.696	215.62
379.143	286.24
379.591	324.23
380.038	481.33
380.485	339.59
380.932	393.96
381.379	424.18
381.826	374.7
382.273	253.13
382.72	201
383.166	206.79
383.613	148.16
384.06	133.67
384.506	166.27
384.953	130.1
385.4	125.28
385.846	115.78
386.292	78.86
386.739	60.46
387.185	66.33
387.631	60.79
388.078	79.85
388.524	87.73
388.97	98.05
389.416	78.95
389.862	86.83
390.308	79.25
390.754	74.76
391.2	90.54
391.645	90.71
392.091	109.03
392.537	112.89
392.983	83.55
393.428	96.99
393.874	89.59
394.319	104.8
394.765	109.58
395.21	114.59
395.655	115.81
396.101	107.46
396.546	108.28
396.991	90.85
397.436	86.83
397.881	80.25
398.326	59.39
398.771	60.78
399.216	47.77
399.661	39.33
400.106	41.35
400.551	40.56
400.995	35.28
401.44	36.84
401.885	36.1
402.329	37.12
402.774	42.5
403.218	51.22
403.663	46.28
404.107	46.8
404.551	49.69
404.995	46.51
405.44	43.7
405.884	43.58
406.328	34.26
406.772	29.25
407.216	23.34
407.66	18.65
408.104	12.54
408.547	14.54
408.991	13.24
409.435	9.06
409.879	10.64
410.322	10.16
410.766	13.92
411.209	18.97
411.653	22.43
412.096	26.08
412.54	23.97
412.983	23.48
413.426	24.54
413.869	24.61
414.312	26.83
414.756	22.73
415.199	24.18
415.642	25.1
416.085	23.23
416.527	21.44
416.97	18.99
417.413	20.15
417.856	19.66
418.298	19.25
418.741	18.4
419.184	18.28
419.626	17.44
420.069	15.96
420.511	14.02
420.953	15.57
421.396	14.65
421.838	15.02
422.28	15.39
422.722	17.36
423.164	13.55
423.606	13.23
424.048	11.5
424.49	12.42
424.932	11.37
425.374	9.59
425.816	9.01
426.258	9.73
426.699	12.72
427.141	15.49
427.582	11.83
428.024	12.23
428.465	11.83
428.907	12.31
429.348	12.65
429.789	15.05
430.231	19.98
430.672	18.29
431.113	17.08
431.554	14.32
431.995	12.33
432.436	15.39
432.877	16.36
433.318	16.92
433.759	14.86
434.2	15.63
434.64	14.08
435.081	13.36
435.522	13.76
435.962	15.74
436.403	16.38
436.843	15.26
437.284	13.22
437.724	11.52
438.164	9.7
438.604	11.35
439.045	11.11
439.485	12.35
439.925	9.9
440.365	9.89
440.805	8.16
441.245	9.4
441.685	10.53
442.125	9.75
442.564	9.96
443.004	12.13
443.444	12.41
443.883	13.22
444.323	10.58
444.762	7.17
445.202	6.28
445.641	7.35
446.081	5.74
446.52	4.4
446.959	5.69
447.398	7.29
447.837	7.94
448.276	6.73
448.716	7.04
449.154	6.01
449.593	8.76
450.032	8.63
450.471	6.25
450.91	6.3
451.349	8.01
451.787	7.44
452.226	6.16
452.664	4.31
453.103	4.14
453.541	2.23
453.98	5.29
454.418	4.73
454.856	6.46
455.295	7.78
455.733	8.45
456.171	8.31
456.609	9.39
457.047	10.76
457.485	12.24
457.923	13.98
458.361	13.24
458.798	11.99
459.236	12.31
459.674	10.83
460.111	10.58
460.549	10.13
460.987	9.37
461.424	7.87
461.862	7.59
462.299	8.23
462.736	7.8
463.173	8.67
463.611	10.5
464.048	11.65
464.485	12.76
464.922	12.83
465.359	12.13
465.796	16.83
466.233	18.11
466.67	19.78
467.106	19.33
467.543	18.26
467.98	17.79
468.416	16.92
468.853	15.42
469.29	14.27
469.726	14.11
470.162	13.66
470.599	9.38
471.035	8.33
471.471	7.15
471.907	4.91
472.344	5.06
472.78	4.51
473.216	3.25
473.652	3.99
474.088	4.06
474.523	4.49
474.959	3.71
475.395	3.85
475.831	3.99
476.266	3.55
476.702	3.83
477.138	3.92
477.573	4.61
478.008	5.02
478.444	5.34
478.879	6.16
479.314	5.68
479.75	6.31
480.185	6.45
480.62	6.65
481.055	6.11
481.49	6.96
481.925	7.03
482.36	8.25
482.795	7.96
483.229	7.09
483.664	6.84
484.099	6.92
484.534	7.23
484.968	7.6
485.403	7.07
485.837	6.68
486.271	6.09
486.706	6.25
487.14	5.33
487.574	4.85
488.009	4.94
488.443	4.68
488.877	5.11
489.311	4.28
489.745	3.66
490.179	3.71
490.613	5.55
491.046	5.61
491.48	5.57
491.914	5.6
492.348	6.18
492.781	6.02
493.215	6.2
493.648	5.47
494.082	5.75
494.515	6.36
494.948	7.19
495.382	5.52
495.815	5.72
496.248	5.54
496.681	4.82
497.114	4.2
497.547	4.87
497.98	5.49
498.413	6.82
498.846	7.49
499.279	6.7
499.711	5.87
500.144	5.77
500.577	6.37
501.009	5.85
501.442	6.55
501.874	7.13
502.306	6.26
502.739	7.34
503.171	6.74
503.603	6.8
504.036	6.74
504.468	6.67
504.9	6.83
505.332	6.28
505.764	7.14
506.196	6.82
506.627	6.67
507.059	6.5
507.491	4.91
507.923	5
508.354	5.23
508.786	5.19
509.217	5.53
509.649	5.49
510.08	5.1
510.512	5.56
510.943	6
511.374	6.41
511.805	6.36
512.237	6.06
512.668	5.76
513.099	4.55
513.53	4.88
513.961	4.96
514.391	5.32
514.822	6.43
515.253	6.02
515.684	5.73
516.114	5.75
516.545	6.39
516.975	6.11
517.406	5.64
517.836	6.09
518.267	5.92
518.697	6.22
519.127	5.95
519.558	5.01
519.988	3.91
520.418	3.47
520.848	2.01
521.278	1.49
521.708	17.01
522.138	17.77
522.567	16.65
522.997	16.8
523.427	16.4
523.857	16.28
524.286	16.43
524.716	17.5
525.145	18.16
525.575	18.82
526.004	18.95
526.433	3.98
526.863	2.94
527.292	4.38
527.721	4.43
528.15	4.37
528.579	4.65
529.008	4.55
529.437	3.24
529.866	2.83
530.295	2.81
530.724	3.68
531.152	3.8
531.581	4.82
532.01	4.69
532.438	4.42
532.867	3.89
533.295	3.86
533.723	4.09
534.152	4.76
534.58	5.1
535.008	5.54
535.436	5.64
535.865	5.14
536.293	4.57
536.721	3.72
537.149	3.37
537.576	4.05
538.004	4.43
538.432	3.83
538.86	4.11
539.287	3.85
539.715	3.59
540.143	2.41
540.57	2.88
540.998	2.57
541.425	4.24
541.852	4.05
542.28	4.33
542.707	4.33
543.134	4.43
543.561	4.23
543.988	4.08
544.415	3.9
544.842	4.54
545.269	4.58
545.696	5.38
546.123	4.67
546.549	5.44
546.976	5.31
547.403	4.98
547.829	4.7
548.256	4.64
548.682	5.15
549.108	5.48
549.535	4.84
549.961	4.07
550.387	4.1
550.813	5.16
551.24	5.27
551.666	4.32
552.092	3.91
552.518	4.2
552.943	4.98
553.369	4.46
553.795	4.54
554.221	5.02
554.646	5.45
555.072	5.78
555.498	4.25
555.923	3.27
556.349	3.33
556.774	3.43
557.199	3.49
557.625	2.74
558.05	3.32
558.475	3.07
558.9	2.88
559.325	3.25
559.75	3.27
560.175	2.96
560.6	3.46
561.025	4.05
561.449	4.4
561.874	4.1
562.299	4.21
562.723	4
563.148	4.05
563.572	3.89
563.997	3.54
564.421	2.6
564.846	3.27
565.27	3.67
565.694	3.68
566.118	3.21
566.542	3.86
566.966	4.06
567.39	3.73
567.814	3.87
568.238	3.93
568.662	3.49
569.086	3.54
569.509	2.28
569.933	3.09
570.357	2.87
570.78	3.07
571.204	3.64
571.627	3.51
572.05	3.79
572.474	4.81
572.897	5.42
573.32	6.25
573.743	6.34
574.166	7.44
574.589	6.34
575.012	6.35
575.435	5.66
575.858	5.85
576.281	6.12
576.704	5.46
577.126	4.1
577.549	3.68
577.972	3.26
578.394	3.18
578.817	4.49
579.239	4.17
579.661	4.45
580.084	6.34
580.506	6.15
580.928	5.44
581.35	6.01
581.772	6.38
582.194	6.47
582.616	6.03
583.038	6.06
583.46	4.87
583.882	5.77
584.303	4.79
584.725	3.8
585.147	5.81
585.568	6.46
585.99	6.97
586.411	7.53
586.833	8.05
587.254	8.55
587.675	8.25
588.096	8.06
588.518	7.6
588.939	8.39
589.36	8.51
589.781	5.25
590.202	7.16
590.623	6.55
591.043	5.68
591.464	5
591.885	5.28
592.305	5.06
592.726	5.56
593.147	5.63
593.567	5.97
593.987	5.72
594.408	5.79
594.828	3.43
595.248	4.24
595.669	4.67
596.089	4.7
596.509	3.94
596.929	3.74
597.349	3.41
597.769	3.39
598.189	3.61
598.608	3.59
599.028	3.57
599.448	3.57
599.867	3.19
600.287	3.22
600.706	3.58
601.126	4.23
601.545	5.1
601.965	4.83
602.384	5.18
602.803	4.6
603.222	4.86
603.641	4.88
604.061	5.5
604.48	5.12
604.898	4.28
605.317	3.77
605.736	3.48
606.155	3.62
606.574	4.02
606.992	3.53
607.411	3.48
607.829	2.8
608.248	2.44
608.666	1.6
609.085	1.92
609.503	2.08
609.921	2.86
610.339	3.1
610.758	2.36
611.176	2.25
611.594	2.81
612.012	2.93
612.43	3.87
612.847	4.01
613.265	5.04
613.683	4.77
614.101	5.09
614.518	4.72
614.936	4.64
615.353	5.13
615.771	5.12
616.188	5.07
616.606	5.06
617.023	4.68
617.44	4.83
617.857	4.02
618.274	4.16
618.691	4.05
619.108	3.39
619.525	3.06
619.942	3.15
620.359	3.14
620.776	3.11
621.192	3.88
621.609	4.7
622.026	5.34
622.442	5.48
622.859	5.08
623.275	4.99
623.691	5.72
624.108	6.41
624.524	6.78
624.94	7.26
625.356	7.1
625.772	6.58
626.188	5.61
626.604	5.49
627.02	5.62
627.436	5.76
627.852	7.04
628.268	7.05
628.683	6.84
629.099	6.22
629.514	5.57
629.93	5.4
630.345	5.59
630.761	5.71
631.176	5.78
631.591	6.78
632.007	7.55
632.422	6.78
632.837	6.36
633.252	7.1
633.667	6.93
634.082	7.37
634.497	8.13
634.911	9.28
635.326	9.46
635.741	9.15
636.155	8.37
636.57	8.64
636.984	9.05
637.399	10.04
637.813	9.29
638.228	9.36
638.642	8.99
639.056	8.28
639.47	7.23
639.884	7.61
640.298	7.14
640.712	8.03
641.126	7.69
641.54	7.04
641.954	5.23
642.368	5.54
642.781	7.42
643.195	7.16
643.609	7.9
644.022	7.23
644.436	6.65
644.849	7.06
645.262	6.28
645.676	5.71
646.089	6
646.502	7.48
646.915	6.79
647.328	5.93
647.741	6.71
648.154	6.81
648.567	8.92
648.98	9.71
649.393	9.89
649.805	10.27
650.218	10.28
650.631	10.18
651.043	9.99
651.456	10.34
651.868	9.98
652.28	9.27
652.693	8.04
653.105	6.86
653.517	6.35
653.929	6.69
654.341	6.51
654.753	7.01
655.165	6.79
655.577	6.61
655.989	6.5
656.401	5.67
656.813	6.83
657.224	6.88
657.636	6.13
658.047	6.42
658.459	6.31
658.87	5.05
659.282	4.74
659.693	5.36
660.104	6.06
660.515	6.27
660.926	6.32
661.338	5.9
661.749	5.69
662.159	6.62
662.57	6.65
662.981	6.3
663.392	7.18
663.803	7.04
664.213	7.07
664.624	6.69
665.035	5.76
665.445	5.52
665.855	6.09
666.266	7.18
666.676	7.15
667.086	5.92
667.497	6.71
667.907	7.04
668.317	7.09
668.727	9.4
669.137	8.83
669.547	8.91
669.956	8.64
670.366	8.01
670.776	8
671.186	7.81
671.595	7.71
672.005	6.92
672.414	6.53
672.824	7.05
673.233	4.86
673.642	5.36
674.052	6.07
674.461	7.29
674.87	7.29
675.279	7.35
675.688	6.05
676.097	6.82
676.506	6.97
676.915	6.47
677.323	6.59
677.732	6.3
678.141	5.6
678.549	5.98
678.958	5.06
679.366	4.71
679.775	3.42
680.183	5.17
680.592	5.56
681	5.6
681.408	6.01
681.816	5.1
682.224	4.85
682.632	6.56
683.04	6.66
683.448	6.98
683.856	7.81
684.264	9.29
684.671	8.67
685.079	8.11
685.487	7.73
685.894	7.7
686.302	7.2
686.709	7.81
687.116	6.46
687.524	5.99
687.931	6.97
688.338	7.01
688.745	6.24
689.152	5.87
689.559	6.9
689.966	7.37
690.373	8.2
690.78	9.26
691.187	8.67
691.593	9.6
692	10.37
692.407	10.82
692.813	11.85
693.22	12.82
693.626	11.96
694.032	11.57
694.439	12
694.845	11.42
695.251	11.02
695.657	12.06
696.063	10.91
696.469	10.25
696.875	9.49
697.281	8.42
697.687	7.18
698.093	7.27
698.498	7.49
698.904	6.71
699.31	7.1
699.715	8.9
700.12	8.06
700.526	9.85
700.931	9.37
701.337	10.61
701.742	11.8
702.147	12.4
702.552	13.12
702.957	11.8
703.362	11.94
703.767	11.66
704.172	10.76
704.577	10.54
704.981	7.7
705.386	7.35
705.791	6.22
706.195	4.32
706.6	4.15
707.004	2.83
707.408	3.03
707.813	3.5
708.217	4.42
708.621	3.67
709.025	3.2
709.43	5.9
709.834	6.1
710.237	6.07
710.641	7.33
711.045	8.4
711.449	10.68
711.853	13.62
712.256	13.43
712.66	12.45
713.064	13.28
713.467	14.8
713.87	13.96
714.274	15
714.677	15.93
715.08	16.19
715.484	16.17
715.887	17.65
716.29	15.4
716.693	16.45
717.096	17.15
717.499	18.32
717.901	16.68
718.304	15.36
718.707	14.13
719.109	13.86
719.512	13.11
719.915	14
720.317	12.32
720.719	12.08
721.122	11.79
721.524	12.11
721.926	14.47
722.328	14.83
722.731	15.04
723.133	15.72
723.535	14.81
723.937	15.5
724.338	15.96
724.74	17.03
725.142	53.5
725.544	55.45
725.945	64.25
726.347	61.04
726.748	62.05
727.15	64.16
727.551	66.13
727.952	65.5
728.354	64.33
728.755	64.01
729.156	62.65
729.557	27.09
729.958	24.91
730.359	15.13
730.76	14.65
731.161	14.38
731.562	12.59
731.962	10.55
732.363	10.96
732.763	10.94
733.164	8.26
733.564	8.28
733.965	9.46
734.365	9.9
734.766	11.5
735.166	11.78
735.566	11.99
735.966	13.45
736.366	14.2
736.766	14.1
737.166	13.46
737.566	14.38
737.966	13.47
738.365	12.77
738.765	12.74
739.165	12.61
739.564	11.63
739.964	10.97
740.363	9.08
740.763	7.64
741.162	9.58
741.561	10.21
741.96	10.35
742.36	9.75
742.759	10.47
743.158	8.5
743.557	7.24
743.955	7.57
744.354	6.86
744.753	7.26
745.152	8.38
745.55	5.84
745.949	5.41
746.348	5.36
746.746	5.34
747.144	6.51
747.543	7.88
747.941	7.55
748.339	8.31
748.737	9.59
749.136	10.27
749.534	8.38
749.932	10.55
750.33	10.49
750.727	9.26
751.125	11.25
751.523	9.58
751.921	11.33
752.318	12.75
752.716	12.86
753.113	12.36
753.511	12.2
753.908	13.34
754.305	15.58
754.703	15.82
755.1	16.95
755.497	16.24
755.894	16.09
756.291	14.39
756.688	14.21
757.085	14.11
757.482	14.4
757.878	17.36
758.275	19.4
758.672	13.7
759.068	14.59
759.465	15.57
759.861	16.76
760.258	18.88
760.654	20.39
761.05	24.15
761.447	22.33
761.843	21.96
762.239	19.39
762.635	17.04
763.031	16.64
763.427	14.44
763.822	14.66
764.218	13.16
764.614	11.12
765.01	8.85
765.405	6.69
765.801	7.74
766.196	7.85
766.592	5.95
766.987	6.34
767.382	6.21
767.778	7.72
768.173	6.92
768.568	7.6
768.963	9.19
769.358	10.36
769.753	12.23
770.148	12.07
770.542	12.21
770.937	11.96
771.332	12.94
771.726	12.97
772.121	14.57
772.515	15.32
772.91	14.77
773.304	14.02
773.699	13.64
774.093	12.99
774.487	13.59
774.881	12.75
775.275	13.17
775.669	11.93
776.063	11.62
776.457	10.9
776.851	10
777.245	10.64
777.638	10.93
778.032	10.58
778.425	9.81
778.819	11.92
779.212	13.82
779.606	16.01
779.999	15.89
780.392	18.25
780.786	16.01
781.179	16.68
781.572	17.35
781.965	17.5
782.358	17.46
782.751	17.07
783.143	14.8
783.536	14.78
783.929	14.74
784.322	15.3
784.714	12.92
785.107	14.45
785.499	16.9
785.891	16.82
786.284	17.79
786.676	18.6
787.068	21.16
787.46	21.46
787.852	20.51
788.245	18.09
788.636	17.33
789.028	20.81
789.42	22.9
789.812	22.28
790.204	23.09
790.595	24.9
790.987	24.84
791.378	23.96
791.77	22.93
792.161	22.31
792.553	23.5
792.944	23.87
793.335	19.89
793.726	18.75
794.117	17.53
794.508	16.13
794.899	12.65
795.29	13.03
795.681	12.83
796.072	13.68
796.463	27.83
796.853	29.92
797.244	30.14
797.634	33.43
798.025	33.05
798.415	32.68
798.806	32.34
799.196	35.02
799.586	34.1
799.976	34.08
800.366	33.57
800.756	18.75
801.146	16.98
801.536	17.63
801.926	16.41
802.316	16.92
802.706	16.38
803.095	18.11
803.485	18.43
803.874	19.6
804.264	19.5
804.653	20.97
805.043	23.01
805.432	25.63
805.821	26.69
806.21	27.07
806.599	27.16
806.988	27.54
807.377	24.13
807.766	21.74
808.155	22.66
808.544	21.1
808.933	20.76
809.321	22.12
809.71	17.66
810.098	17.09
810.487	15.56
810.875	13.83
811.264	16.43
811.652	28.45
812.04	30.18
812.428	30.94
812.816	30.24
813.204	31.38
813.592	28.4
813.98	31.18
814.368	35.08
814.756	38.82
815.144	38.19
815.531	40.44
815.919	27.7
816.306	27.58
816.694	26.54
817.081	30.91
817.469	32.67
817.856	32.54
818.243	32.42
818.63	30.37
819.017	27.02
819.404	30.96
819.791	28
820.178	28.82
820.565	32.34
820.952	40.19
821.339	40.82
821.725	39.84
822.112	40.05
822.498	42.81
822.885	41.06
823.271	42.03
823.657	36.72
824.044	37.44
824.43	39.65
824.816	43.39
825.202	40.47
825.588	38.49
825.974	40.94
826.36	40.93
826.746	38.41
827.132	39.1
827.517	41.73
827.903	44.18
828.289	47.2
828.674	46.29
829.06	42.56
829.445	37.09
829.83	36.75
830.216	34.47
830.601	39.23
830.986	43.43
831.371	44.18
831.756	46.14
832.141	48.46
832.526	47.86
832.911	47.62
833.295	46.69
833.68	50.05
834.065	51.32
834.449	48.98
834.834	48.75
835.218	46.37
835.603	44.66
835.987	39.79
836.371	39.58
836.755	39.11
837.139	38.1
837.524	36.36
837.908	33.18
838.291	35.87
838.675	38.7
839.059	37.22
839.443	35.42
839.827	35.03
840.21	33.39
840.594	33.58
840.977	34.55
841.361	33.57
841.744	28.76
842.127	30.23
842.511	26.49
842.894	22.39
843.277	21.64
843.66	21.33
844.043	23.43
844.426	27.28
844.809	21.91
845.191	20.37
845.574	25.34
845.957	30.04
846.339	31.18
846.722	31.22
847.104	30.36
847.487	26.29
847.869	29.15
848.252	29.47
848.634	30.35
849.016	33.72
849.398	35.2
849.78	31.28
850.162	31.36
850.544	30.44
850.926	31.52
851.307	33.02
851.689	37.98
852.071	32.91
852.452	33.5
852.834	31.45
853.215	33.66
853.597	30.44
853.978	34.65
854.359	37.37
854.741	38.95
855.122	32.64
855.503	30.95
855.884	28.39
856.265	30.22
856.646	23.64
857.026	29.08
857.407	28.51
857.788	25.01
858.169	22.01
858.549	23.16
858.93	23.29
859.31	30.34
859.69	38.35
860.071	39.5
860.451	41.1
860.831	45.53
861.211	40.06
861.591	36.03
861.971	39.57
862.351	40.27
862.731	34.97
863.111	38.17
863.491	39.02
863.87	34.42
864.25	29.42
864.629	33.78
865.009	30.14
865.388	33.95
865.768	34.83
866.147	36.19
866.526	35.43
866.905	38.71
867.284	29.39
867.663	20.34
868.042	15.34
868.421	19.55
868.8	14.83
869.179	19.58
869.558	19.26
869.936	26.85
870.315	24.25
870.693	26.75
871.072	26.63
871.45	25.48
871.828	36.01
872.207	41.65
872.585	44.92
872.963	40.54
873.341	44.28
873.719	50.32
874.097	45.66
874.475	43.3
874.853	39.16
875.23	40.53
875.608	48.03
875.986	45.62
876.363	46.57
876.741	53.56
877.118	61.78
877.495	60.89
877.873	58.19
878.25	54.42
878.627	61.89
879.004	62.84
879.381	59.02
879.758	61.12
880.135	57.28
880.512	61.23
880.889	47.33
881.265	42.25
881.642	35.88
882.019	29.83
882.395	33.67
882.772	34.06
883.148	38.03
883.524	40.18
883.901	33.05
884.277	31.99
884.653	27.97
885.029	36.98
885.405	49.25
885.781	54.6
886.157	58.11
886.532	56.84
886.908	56.85
887.284	55.91
887.659	53.68
888.035	57.51
888.411	57.7
888.786	55.78
889.161	51.17
889.537	35.75
889.912	34.74
890.287	31.59
890.662	33.89
891.037	23.89
891.412	19.88
891.787	15.31
892.162	21.74
892.536	24.59
892.911	29.99
893.286	28.07
893.66	33.71
894.035	39.98
894.409	37.98
894.784	43.31
895.158	47.36
895.532	56.74
895.906	61.47
896.281	58.27
896.655	61.63
897.029	60.54
897.402	63.36
897.776	59.69
898.15	57.39
898.524	65.36
898.898	60.2
899.271	71.76
899.645	72.37
900.018	76.69
900.392	80.71
900.765	77.97
901.138	81.25
901.511	79.76
901.884	91.28
902.258	85.06
902.631	91.36
903.003	91.82
903.376	75.81
903.749	73.57
904.122	65.87
904.495	65.95
904.867	63.06
905.24	57.8
905.612	50.54
905.985	39.51
906.357	35.33
906.729	27.65
907.102	35.59
907.474	49.03
907.846	59.73
908.218	65.87
908.59	69.61
908.962	71.54
909.334	75.47
909.705	90.25
910.077	81.34
910.449	81.34
910.82	93.37
911.192	104.4
911.563	106.75
911.935	95.57
912.306	95.83
912.677	86.75
913.048	91.33
913.419	94.13
913.79	84.07
914.161	96.48
914.532	110.89
914.903	83.03
915.274	75.53
915.645	70.94
916.015	58.34
916.386	55.67
916.756	58.6
917.127	39.9
917.497	43.66
917.868	41.85
918.238	49.96
918.608	36.47
918.978	47.66
919.348	41.18
919.718	40.47
920.088	51.74
920.458	64.28
920.828	58.22
921.198	71.41
921.567	68.65
921.937	58.78
922.306	41.33
922.676	43.82
923.045	55.52
923.415	68.89
923.784	60.11
924.153	67.51
924.522	67.55
924.891	66.14
925.26	71.99
925.629	70.98
925.998	80.81
926.367	97.52
926.736	107.05
927.104	106.6
927.473	98.25
927.842	112.87
928.21	102.85
928.578	90.02
928.947	102.97
929.315	110.4
929.683	124.16
930.051	126.19
930.42	126.75
930.788	110.39
931.156	113.63
931.523	157.14
931.891	156.85
932.259	157.1
932.627	204.11
932.994	265.52
933.362	253.27
933.729	222.42
934.097	208.34
934.464	179.48
934.831	192.04
935.199	165.5
935.566	117.12
935.933	162.12
936.3	199.44
936.667	167.95
937.034	220.22
937.401	203.84
937.767	205.61
938.134	197.02
938.501	273.96
938.867	334.18
939.234	597
939.6	516.8
939.967	495.69
940.333	331.76
940.699	245.35
941.065	143.23
941.431	176.04
941.798	171.75
942.163	263.22
942.529	155.43
942.895	104.04
943.261	87.3
943.627	118.5
943.992	118.67
944.358	126.01
944.723	162.65
945.089	146.33
945.454	134.85
945.82	140.79
946.185	107.47
946.55	138.06
946.915	129.68
947.28	139.1
947.645	126.4
948.01	133.18
948.375	148.78
948.74	147.59
949.104	171.44
949.469	168.12
949.834	232.41
950.198	355.16
950.562	272.26
950.927	226.42
951.291	265.6
951.655	206.38
952.02	154.02
952.384	119.22
952.748	126.2
953.112	159.74
953.476	167.52
953.839	152.85
954.203	156.73
954.567	179.23
954.931	242.74
955.294	216.99
955.658	210.97
956.021	329.72
956.385	454.32
956.748	655.37
957.111	732.94
957.474	733.21
957.837	839.72
958.2	349.26
958.563	68.36
958.926	99.89
959.289	130.03
959.652	218.8
960.015	200.63
960.377	255.43
960.74	308.99
961.102	519.96
961.465	656.61
961.827	644
962.189	1281.94
962.552	1012.41
962.914	791.65
963.276	468.72
963.638	348.56
964	310.92
964.362	254.43
964.724	213.02
965.085	172.66
965.447	143.64
965.809	98.96
966.17	100.45
966.532	84.94
966.893	91.03
967.255	100.23
967.616	109.3
967.977	98.21
968.338	95.63
968.699	89.91
969.061	75.36
969.421	81.9
969.782	85.39
970.143	81.49
970.504	110.72
970.865	140.68
971.225	162.56
971.586	168.99
971.946	204.33
972.307	174.89
972.667	195.59
973.027	219.16
973.388	227.12
973.748	185.11
974.108	183.38
974.468	184.5
974.828	158.7
975.188	113.98
975.548	116.06
975.907	132.89
976.267	145.61
976.627	164.21
976.986	162.65
977.346	154.83
977.705	136.85
978.064	130.26
978.424	123.49
978.783	92.49
979.142	85.62
979.501	75.13
979.86	73.55
980.219	75.65
980.578	40.66
980.937	9.13
981.296	24.48
981.654	10.01
982.013	-28.02
982.371	-45.33
982.73	10.17
983.088	20.71
983.447	71.55
983.805	75.82
984.163	159.99
984.521	207.16
984.879	504.95
985.237	-665.94
985.595	1495.12
985.953	466.32
986.311	255.59
986.669	169.36
987.026	129.39
987.384	134.41
987.741	120.28
988.099	123.54
988.456	123.31
988.814	135.1
989.171	125.46
989.528	94.28
989.885	85.3
990.242	85.74
990.599	77.24
990.956	84.53
991.313	79.15
991.67	82.18
992.027	109.5
992.383	103.95
992.74	90.84
993.096	99.61
993.453	104.84
993.809	99.92
994.165	111.21
994.522	145.34
994.878	152.21
995.234	176.69
995.59	148.74
995.946	88.35
996.302	104.11
996.658	120.01
997.013	105.99
997.369	174.32
997.725	271.09
998.08	210.37
998.436	161.63
998.791	236.41
999.147	267.97
999.502	359.82
999.857	281.07
1000.212	396.65
1000.567	609.9
1000.922	385.61
1001.277	201.64
1001.632	174.56
1001.987	189.46
1002.342	179.83
1002.696	162.85
1003.051	125.16
1003.406	159.89
1003.76	165.25
1004.114	180.11
1004.469	161.44
1004.823	147.79
1005.177	150.52
1005.531	114.69
1005.885	124.12
1006.239	138
1006.593	174.49
1006.947	234.48
1007.301	141.79
1007.655	143.78
1008.008	114.56
1008.362	135.64
1008.715	176.15
1009.069	160.97
1009.422	308.85
1009.776	462.24
1010.129	270.09
1010.482	208.26
1010.835	136.11
1011.188	325.22
1011.541	314.92
1011.894	-1570.75
1012.247	3513.14
1012.6	305.68
1012.952	239.79
1013.305	67.35
1013.657	69.89
1014.01	70.82
1014.362	56.7
1014.715	119.21
1015.067	119.22
1015.419	107.34
1015.771	102.89
1016.123	112.39
1016.475	114.54
1016.827	108.78
1017.179	137.34
1017.531	136.43
1017.883	145.92
1018.234	180.95
1018.586	186.69
1018.938	220.5
1019.289	334.53
1019.64	362.09
1019.992	344.86
1020.343	285
1020.694	259.98
1021.045	215.83
1021.396	243.74
1021.747	276.69
1022.098	270.12
1022.449	184.03
1022.8	176.39
1023.151	136.26
1023.501	138.54
1023.852	121.15
1024.202	152.83
1024.553	165.42
1024.903	189.13
1025.253	199.06
1025.604	184.72
1025.954	227.63
1026.304	264.2
1026.654	282.5
1027.004	381.34
1027.354	532.51
1027.703	547.96
1028.053	589.45
1028.403	963.21
1028.753	1152.18
1029.102	1021.14
1029.452	4048.34
1029.801	162.76
1030.15	127.23
1030.499	92.32
897.758	1270.1
901.051	1228.62
904.343	1251.37
907.636	1252.96
910.928	1286.38
914.22	1242.82
917.511	1250.57
920.803	1273.27
924.094	1268.31
927.384	1273.62
930.675	1253.67
933.965	1236.28
937.255	1254.28
940.544	1237.88
943.834	1239.38
947.123	1207.04
950.411	1257.07
953.7	1247.61
956.988	1241.39
960.276	1199.83
963.563	1224.08
966.851	1228.22
970.138	1246.89
973.424	1249.88
976.711	1220.49
979.997	1245.17
983.283	1266.63
986.568	1230.67
989.853	1222.28
993.138	1232.11
996.423	1286.02
999.708	1261.65
1002.992	1276.83
1006.275	1231.28
1009.559	1231
1012.842	1283.64
1016.125	1258.36
1019.408	1245.96
1022.69	1274.76
1025.972	1288.41
1029.254	1279.87
1032.536	1259.44
1035.817	1263.54
1039.098	1246.68
1042.379	1271.22
1045.659	1284.49
1048.939	1255.95
1052.219	1255.76
1055.498	1253.93
1058.778	1245.88
1062.057	1238.26
1065.335	1252.32
1068.614	1253.01
1071.892	1247.75
1075.17	1279.82
1078.447	1280.65
1081.724	1277.25
1085.001	1286.96
1088.278	1275
1091.554	1275.05
1094.83	1275.24
1098.106	1289.39
1101.382	1303.5
1104.657	1303.15
1107.932	1303.29
1111.206	1287.6
1114.481	1264.9
1117.755	1266.17
1121.029	1263.53
1124.302	1293.59
1127.575	1278.41
1130.848	1278.25
1134.121	1263.21
1137.393	1239.08
1140.665	1271.85
1143.937	1256.09
1147.208	1235.32
1150.48	1261.08
1153.75	1255.12
1157.021	1259.1
1160.291	1245.34
1163.561	1270.98
1166.831	1252.71
1170.101	1262.72
1173.37	1244.83
1176.639	1223.9
1179.907	1253.26
1183.176	1255.53
1186.444	1259.87
1189.711	1271.03
1192.979	1284.18
1196.246	1261.89
1199.513	1270.67
1202.78	1272.09
1206.046	1278.71
1209.312	1293
1212.578	1296.05
1215.843	1273.76
1219.108	1266.14
1222.373	1275.38
1225.638	1262.16
1228.902	1251.62
1232.166	1235.94
1235.43	1227.08
1238.693	1242.95
1241.956	1241.06
1245.219	1266.67
1248.482	1261.88
1251.744	1264.01
1255.006	1325.16
1258.268	1299.17
1261.529	1281.15
1264.79	1282.16
1268.051	1333.12
1271.312	1341.36
1274.572	1319.58
1277.832	1314
1281.092	1302.14
1284.351	1299.34
1287.61	1291.65
1290.869	1255.8
1294.128	1254.86
1297.386	1277.08
1300.644	1272.76
1303.902	1274.24
1307.159	1201.64
1310.416	1230.64
1313.673	1240.94
1316.93	1244.68
1320.186	1256.37
1323.442	1272.56
1326.697	1271.3
1329.953	1260.21
1333.208	1277.3
1336.463	1265.37
1339.717	1248.67
1342.972	1310.21
1346.226	1297.12
1349.479	1278.44
1352.733	1262.35
1355.986	1274.73
1359.238	1264.26
1362.491	1266.68
1365.743	1265.44
1368.995	1265
1372.247	1275.71
1375.498	1281.28
1378.749	1300.67
1382	1280.69
1385.251	1292.58
1388.501	1274.35
1391.751	1267.78
1395	1256.38
1398.25	1271.22
1401.499	1286.94
1404.748	1260.14
1407.996	1252.4
1411.244	1254.27
1414.492	1245.39
1417.74	1232.37
1420.987	1242.13
1424.234	1268.68
1427.481	1252.93
1430.728	1278.74
1433.974	1268.36
1437.22	1267.79
1440.465	1260.44
1443.711	1261.37
1446.956	1267.89
1450.201	1255.8
1453.445	1283.14
1456.689	1270.62
1459.933	1281.82
1463.177	1299.62
1466.42	1288.08
1469.663	1277.72
1472.906	1283.48
1476.148	1310.67
1479.391	1290.36
1482.633	1281.7
1485.874	1293.51
1489.115	1295.49
1492.356	1288.06
1495.597	1272.28
1498.838	1266.74
1502.078	1262.38
1505.318	1251.48
1508.557	1264.82
1511.797	1263.75
1515.036	1287.72
1518.274	1265.04
1521.513	1237.91
1524.751	1241.86
1527.989	1251.29
1531.227	1260.79
1534.464	1265.11
1537.701	1257.9
1540.938	1261.28
1544.174	1235.49
1547.41	1229.79
1550.646	1249.71
1553.882	1271.8
1557.117	1303.1
1560.352	1307.36
1563.587	1285.02
1566.821	1270.47
1570.055	1281.12
1573.289	1265.79
1576.523	1292.28
1579.756	1300.74
1582.989	1311.61
1586.222	1286.35
1589.454	1307.69
1592.686	1299.44
1595.918	1310.2
1599.15	1311.64
1602.381	1334.2
1605.612	1325.28
1608.843	1371.66
1612.073	1333.65
1615.303	1327.14
1618.533	1322.05
1621.762	1323.66
1624.992	1310.18
1628.221	1306.98
1631.449	1301.96
1634.678	1315.91
1637.906	1297.98
1641.134	1306.33
1644.361	1292.07
1647.588	1284.92
1650.815	1299.25
1654.042	1281.74
1657.269	1296.43
1660.495	1284.71
1663.72	1281.73
1666.946	1262.44
1670.171	1252.26
1673.396	1235.71
1676.621	1228.75
1679.845	1227.01
1683.069	1230.56
1686.293	1243.97
1689.517	1237.89
1692.74	1215.73
1695.963	1223.96
1699.185	1239.92
1702.408	1230.99
1705.63	1243.14
1708.852	1252.71
1712.073	1239.1
1715.294	1248.51
1718.515	1274.49
1721.736	1250.25
1724.956	1245.47
1728.176	1256.9
1731.396	1265.84
1734.616	1261.28
1737.835	1283.38
1741.054	1268.66
1744.272	1269.07
1747.491	1287.63
1750.709	1298.02
1753.927	1273.71
1757.144	1289.96
1760.361	1316.86
1763.578	1299.83
1766.795	1276.61
1770.011	1272.17
1773.227	1283.88
1776.443	1305.38
1779.658	1322.17
1782.874	1296.82
1786.089	1291.92
1789.303	1291.64
1792.518	1292.46
1795.732	1286.42
1798.945	1293.75
1802.159	1318.62
1805.372	1288.07
1808.585	1281.15
1811.797	1282.42
1815.01	1299.64
1818.222	1313.46
1821.434	1292.47
1824.645	1312.86
1827.856	1315.22
1831.067	1330.1
1834.278	1305.11
1837.488	1294.84
1840.698	1357.17
1843.908	1334.91
1847.117	1317.94
1850.326	1279
1853.535	1312.03
1856.744	1333.6
1859.952	1293.51
1863.16	1293.54
1866.368	1308.52
1869.575	1363.92
1872.782	1306.05
1875.989	1274.13
1879.196	1300.25
1882.402	1297.52
1885.608	1313.18
1888.814	1280.99
1892.019	1235.85
1895.224	1267.76
1898.429	1252.96
1901.634	1240.57
1904.838	1232.54
1908.042	1262.05
1911.246	1273.1
1914.449	1253.21
1917.652	1245.05
1920.855	1236.42
1924.058	1250.11
1927.26	1277.5
1930.462	1285.2
1933.664	1306.24
1936.865	1278.54
1940.066	1282.85
1943.267	1256.39
1946.467	1261.87
1949.668	1267.14
1952.868	1304.63
1956.067	1303.86
1959.267	1271.89
1962.466	1284.47
1965.665	1273.59
1968.863	1272.48
1972.061	1273.4
1975.259	1270.54
1978.457	1308.92
1981.654	1288.95
1984.852	1289.9
1988.048	1269.52
1991.245	1258.25
1994.441	1304.29
1997.637	1275.08
2000.833	1268.98
2004.028	1284.25
2007.223	1317.96
2010.418	1307.63
2013.613	1283.69
2016.807	1278.6
2020.001	1278.98
2023.194	1287.27
2026.388	1279.45
2029.581	1250.27
2032.774	1286.64
2035.966	1290.74
2039.158	1262.78
2042.35	1273.93
2045.542	1237.44
2048.733	1280.87
2051.924	1271.38
2055.115	1279.47
2058.306	1265.54
2061.496	1288.4
2064.686	1318.49
2067.875	1263.76
2071.065	1267.96
2074.254	1275.67
2077.442	1250.69
2080.631	1293.85
2083.819	1260.24
2087.007	1256.46
2090.195	1248.99
2093.382	1250.3
2096.569	1250.33
2099.756	1226.4
2102.942	1260.6
2106.128	1261.81
2109.314	1259.36
2112.5	1253.16
2115.685	1237.72
2118.87	1240.25
2122.055	1279.33
2125.239	1264.94
2128.424	1260.22
2131.608	1288.14
2134.791	1279.59
2137.974	1296.95
2141.157	1291.06
2144.34	1277.82
2147.523	1269.02
2150.705	1285.44
2153.887	1263.48
2157.068	1248.37
2160.25	1236.99
2163.431	1253.7
2166.611	1236.37
2169.792	1247.74
2172.972	1197.21
2176.152	1232.57
2179.331	1243.05
2182.511	1242.57
2185.69	1251.29
2188.868	1256.46
2192.047	1274.63
2195.225	1291.58
2198.403	1258.05
2201.58	1250.21
2204.758	1242.52
2207.935	1282.37
2211.111	1235.01
2214.288	1227.35
2217.464	1246.71
2220.64	1226.49
2223.815	1250.97
2226.991	1213.92
2230.166	1218.89
2233.34	1240.93
2236.515	1251.47
2239.689	1289.26
2242.863	1262.85
2246.036	1287.53
2249.209	1282.49
2252.382	1294.91
2255.555	1297.05
2258.727	1275.69
2261.9	1290.78
2265.071	1287.16
2268.243	1289.67
2271.414	1261.75
2274.585	1248.38
2277.756	1281.06
2280.926	1260.9
2284.096	1278.11
2287.266	1238.13
2290.436	1268.45
2293.605	1273.62
2296.774	1292.95
2299.942	1298.08
2303.111	1306.92
2306.279	1333.32
2309.447	1329.14
2312.614	1316.14
2315.781	1324.77
2318.948	1311.28
2322.115	1334.59
2325.281	1273.07
2328.447	1281.16
2331.613	1265.07
2334.779	1261.55
2337.944	1258.31
2341.109	1259.06
2344.274	1253.07
2347.438	1235.02
2350.602	1248.21
2353.766	1253.02
2356.929	1248.74
2360.092	1271.76
2363.255	1249.59
2366.418	1237.19
2369.58	1256.96
2372.742	1241.31
2375.904	1230.09
2379.066	1225.49
2382.227	1239.93
2385.388	1218.12
2388.548	1193.27
2391.709	1211.73
2394.869	1209.53
2398.029	1239.68
2401.188	1229.99
2404.347	1221.07
2407.506	1215.23
2410.665	1248.56
2413.823	1236.73
2416.981	1227.33
2420.139	1237.71
2423.296	1258.39
2426.453	1243.79
2429.61	1255.56
2432.767	1242.11
2435.923	1261.4
2439.079	1236.08
2442.235	1255.16
2445.391	1220.01
2448.546	1243.16
2451.701	1260.32
2454.855	1258.21
2458.009	1273.55
2461.163	1267.25
2464.317	1249.38
2467.471	1264.8
2470.624	1283.64
2473.777	1273.93
2476.929	1282.7
2480.082	1295.69
2483.234	1285.73
2486.385	1255.08
2489.537	1250.22
2492.688	1245.36
2495.839	1257.71
2498.989	1262.5
2502.14	1252.62
2505.29	1247.09
2508.439	1262
2511.589	1231.92
2514.738	1231.68
2517.887	1240.15
2521.035	1283.19
2524.183	1260.58
2527.331	1253.07
2530.479	1247.02
2533.627	1252.6
