Data from N_1_HIR_IL_4N_Splice17_11-27-31-655.txt Node
Date: Sat Mar 14 11:27:31 EDT 2020
User: sa697716
Spectrometer: FLMS03696
Trigger mode: 0
Integration Time (sec): 3.180400E-1
Scans to average: 20
Electric dark correction enabled: true
Nonlinearity correction enabled: true
Boxcar width: 5
XAxis mode: Wavelengths
Number of Pixels in Spectrum: 2048
>>>>>Begin Spectral Data<<<<<
187.83	-172010.35
188.298	1370.08
188.766	777.73
189.233	650.96
189.701	922.38
190.169	1210.37
190.636	464.66
191.104	331.68
191.571	27.15
192.039	-22.36
192.506	-84.61
192.974	89.27
193.441	-121.49
193.908	139.12
194.375	-19.24
194.842	63.75
195.31	54.96
195.777	114.32
196.244	180.6
196.711	145.71
197.177	138.48
197.644	144.58
198.111	207.3
198.578	309.44
199.045	246.68
199.511	441.37
199.978	448.8
200.445	396.33
200.911	431.28
201.378	480.46
201.844	447.91
202.31	770.3
202.777	806.05
203.243	474.27
203.709	442.78
204.176	544.26
204.642	431.97
205.108	410.95
205.574	337.49
206.04	280.15
206.506	248.38
206.972	223.73
207.438	206.25
207.903	225.04
208.369	219.41
208.835	238.47
209.301	239.14
209.766	222.56
210.232	217.56
210.697	257.42
211.163	315.64
211.628	407.08
212.094	352.85
212.559	504.93
213.024	340.88
213.49	397.26
213.955	351.45
214.42	320.74
214.885	305.09
215.35	289.79
215.815	330.09
216.28	353.03
216.745	289.31
217.21	313.28
217.675	245.9
218.14	250.88
218.604	256.19
219.069	271.14
219.534	284.78
219.998	300.34
220.463	339.82
220.927	312.17
221.392	253.15
221.856	270.77
222.32	266.07
222.785	328.85
223.249	345.82
223.713	342.06
224.177	331.7
224.642	361.57
225.106	396.99
225.57	373.07
226.034	326.92
226.497	513.69
226.961	467.96
227.425	578.75
227.889	596.1
228.353	611.43
228.816	1134.79
229.28	1088.06
229.744	911.53
230.207	628.89
230.671	614
231.134	829.27
231.597	952.55
232.061	855.28
232.524	756.17
232.987	512.64
233.45	493.34
233.914	459.8
234.377	410.32
234.84	364.59
235.303	363.52
235.766	397.86
236.229	420.4
236.691	255.61
237.154	238.8
237.617	205.3
238.08	182.17
238.542	188.55
239.005	146
239.468	165.54
239.93	158.31
240.393	151.87
240.855	135.83
241.317	121.79
241.78	132.12
242.242	162.68
242.704	194.79
243.166	187.85
243.629	195.7
244.091	216.12
244.553	233.75
245.015	262.15
245.477	314.91
245.939	440.99
246.4	517.96
246.862	473.28
247.324	459.54
247.786	465.36
248.247	564.75
248.709	489.21
249.17	385.14
249.632	430.47
250.093	515.81
250.555	489.95
251.016	326.4
251.477	293.88
251.939	338.66
252.4	318.18
252.861	355.44
253.322	355.16
253.783	401.05
254.244	458.23
254.705	285.48
255.166	222.44
255.627	188.35
256.088	265.23
256.549	290.39
257.009	258
257.47	317.17
257.931	260.96
258.391	210.08
258.852	217.7
259.312	231.43
259.773	282.56
260.233	266.76
260.694	242.74
261.154	277.16
261.614	283.3
262.074	222.79
262.534	246.53
262.994	246.55
263.455	272.98
263.915	246.32
264.374	239.84
264.834	283.4
265.294	290.62
265.754	304.61
266.214	265.45
266.673	221.76
267.133	273.33
267.593	248.29
268.052	296.8
268.512	256.72
268.971	330.64
269.431	350.95
269.89	304.75
270.349	470.27
270.809	517.03
271.268	483.46
271.727	981.22
272.186	705.22
272.645	558.9
273.104	339.05
273.563	499.64
274.022	355.66
274.481	335.19
274.94	255.68
275.399	182.37
275.857	192.14
276.316	227.2
276.775	187.38
277.233	179.37
277.692	160.91
278.15	238.57
278.609	275.17
279.067	219.24
279.525	230.72
279.984	284.04
280.442	330.02
280.9	387.92
281.358	275.09
281.816	286.77
282.274	267.06
282.732	265.6
283.19	236.35
283.648	191.32
284.106	209.68
284.564	191.23
285.021	185.77
285.479	139.63
285.937	102.1
286.394	111.37
286.852	105.2
287.309	113.12
287.767	136.43
288.224	147.52
288.682	179.07
289.139	214.33
289.596	216.94
290.053	217.73
290.511	250.07
290.968	333.95
291.425	391.09
291.882	361.46
292.339	319.76
292.796	286.17
293.252	248.91
293.709	209.63
294.166	191.66
294.623	170.79
295.079	145.72
295.536	173.33
295.992	148.52
296.449	161.04
296.905	181.23
297.362	197.85
297.818	207.89
298.274	238.13
298.731	217.26
299.187	223.13
299.643	263.48
300.099	335.02
300.555	373.95
301.011	351.14
301.467	379.85
301.923	396.73
302.379	387.35
302.835	389.13
303.291	373.05
303.746	433.61
304.202	521.06
304.658	482.59
305.113	333.9
305.569	308.57
306.024	282.94
306.479	205.91
306.935	182.91
307.39	166.69
307.845	158.68
308.301	163.12
308.756	141.13
309.211	145.55
309.666	153.4
310.121	230.39
310.576	239.51
311.031	224.36
311.486	261.69
311.94	242.72
312.395	322.89
312.85	475.63
313.305	1942.2
313.759	16273.95
314.214	1284.65
314.668	1094.77
315.123	881.81
315.577	363.1
316.032	351.69
316.486	433.04
316.94	377.89
317.394	275.72
317.849	232.45
318.303	218.7
318.757	200.67
319.211	207.67
319.665	179.77
320.119	182.64
320.572	230.12
321.026	232.6
321.48	186.42
321.934	177.11
322.387	182.98
322.841	219.14
323.295	242.1
323.748	229.84
324.202	244.3
324.655	318.94
325.108	480.33
325.562	352.58
326.015	382.73
326.468	302.99
326.921	357.19
327.374	347.01
327.827	353.45
328.28	388.94
328.733	300.69
329.186	283.33
329.639	269.51
330.092	217.57
330.545	219.12
330.997	243.63
331.45	293.36
331.903	368.65
332.355	574.26
332.808	545.31
333.26	431.64
333.713	476.85
334.165	437.9
334.617	537
335.069	390.58
335.522	623.11
335.974	603.8
336.426	508.46
336.878	277.59
337.33	183.7
337.782	175.76
338.234	240.8
338.686	249.9
339.137	284.91
339.589	296.87
340.041	251.72
340.493	221.57
340.944	232.72
341.396	251.86
341.847	250.29
342.299	293.87
342.75	403.83
343.201	316.8
343.653	349.97
344.104	402.19
344.555	297.22
345.006	398.96
345.457	393.76
345.908	293.55
346.359	284.68
346.81	217.52
347.261	222.21
347.712	190.09
348.163	173.41
348.613	235.11
349.064	234.05
349.515	199.8
349.965	229.34
350.416	223.45
350.866	226.59
351.317	201.63
351.767	339.27
352.217	354.97
352.668	349.38
353.118	352.37
353.568	231.85
354.018	196.21
354.468	251.65
354.918	204.73
355.368	208.68
355.818	322.33
356.268	952.16
356.718	4109.6
357.168	1154.88
357.617	521.75
358.067	588.78
358.517	599.87
358.966	758.73
359.416	930.93
359.865	921.36
360.315	1099.66
360.764	491.01
361.213	299.3
361.663	260.61
362.112	311.92
362.561	489.48
363.01	371.76
363.459	305.77
363.908	301.59
364.357	258.61
364.806	373.36
365.255	202.36
365.703	210.89
366.152	183.89
366.601	172.62
367.05	162.7
367.498	169.27
367.947	167.83
368.395	169.85
368.844	162.92
369.292	143.08
369.74	122.52
370.189	185.81
370.637	238.79
371.085	208.74
371.533	225.97
371.981	191.47
372.429	201.56
372.877	203.47
373.325	176.87
373.773	172.64
374.221	172.16
374.669	198.35
375.116	176.6
375.564	174.68
376.012	194.09
376.459	192.98
376.907	201.47
377.354	218.02
377.801	243.72
378.249	285.01
378.696	334.89
379.143	433.75
379.591	484.5
380.038	817.56
380.485	576.57
380.932	634.41
381.379	594.32
381.826	491.94
382.273	326.67
382.72	267.46
383.166	288.65
383.613	208.71
384.06	183.22
384.506	206.42
384.953	159.93
385.4	164.79
385.846	143.96
386.292	115.58
386.739	110.69
387.185	109.19
387.631	106.74
388.078	110.21
388.524	110.91
388.97	97.45
389.416	88.62
389.862	86.07
390.308	76.29
390.754	82.94
391.2	93.94
391.645	82.91
392.091	104.92
392.537	113.88
392.983	91.23
393.428	115.51
393.874	114.23
394.319	121.36
394.765	139.87
395.21	137.34
395.655	124.74
396.101	121.73
396.546	116.55
396.991	95.74
397.436	82.42
397.881	77.96
398.326	57.79
398.771	64.27
399.216	53.84
399.661	46.29
400.106	50.67
400.551	58.72
400.995	49.22
401.44	50.05
401.885	50.12
402.329	52.6
402.774	55.73
403.218	62.97
403.663	60.68
404.107	63.9
404.551	62.67
404.995	54.94
405.44	47.9
405.884	48.31
406.328	43.56
406.772	44.68
407.216	39.88
407.66	33.75
408.104	23.83
408.547	22.17
408.991	20.14
409.435	17.49
409.879	21.72
410.322	22.71
410.766	23.81
411.209	24.14
411.653	21.51
412.096	24.13
412.54	23.75
412.983	25.97
413.426	27.6
413.869	23.89
414.312	26.07
414.756	22.77
415.199	21.71
415.642	24.31
416.085	26.86
416.527	27.32
416.97	24.17
417.413	25.3
417.856	23.2
418.298	22.75
418.741	24.3
419.184	21.03
419.626	17.94
420.069	17.35
420.511	14.19
420.953	16.11
421.396	15.36
421.838	15.13
422.28	15.8
422.722	18.32
423.164	16.38
423.606	17.1
424.048	17.23
424.49	20
424.932	17.94
425.374	18.07
425.816	14.06
426.258	14.23
426.699	16.64
427.141	17.52
427.582	13.55
428.024	12.17
428.465	9.39
428.907	10.66
429.348	8.44
429.789	10.31
430.231	12.58
430.672	15.46
431.113	16.73
431.554	14.95
431.995	12.75
432.436	15.68
432.877	17.33
433.318	20.6
433.759	18.78
434.2	19
434.64	18.52
435.081	17.62
435.522	16.19
435.962	14.47
436.403	15.76
436.843	14.6
437.284	13.37
437.724	10.02
438.164	7.66
438.604	6.99
439.045	9.25
439.485	11.06
439.925	10.91
440.365	10.66
440.805	9.31
441.245	8.8
441.685	10.33
442.125	9.28
442.564	9.58
443.004	10.57
443.444	11.44
443.883	12.57
444.323	10.03
444.762	5.51
445.202	4.16
445.641	6.76
446.081	5.06
446.52	5.57
446.959	6.96
447.398	9.91
447.837	10.42
448.276	9.11
448.716	8.22
449.154	7.56
449.593	10.96
450.032	10.75
450.471	8.19
450.91	7.91
451.349	9.38
451.787	8.49
452.226	6.74
452.664	5.04
453.103	6.06
453.541	4.5
453.98	6.89
454.418	5.43
454.856	6.97
455.295	8.05
455.733	10.25
456.171	8.11
456.609	9.62
457.047	9.8
457.485	11.58
457.923	11.83
458.361	11.38
458.798	9.96
459.236	10.29
459.674	9.08
460.111	9.54
460.549	9.66
460.987	8.7
461.424	6.78
461.862	6.84
462.299	6.39
462.736	7.56
463.173	7.19
463.611	9.59
464.048	11.18
464.485	12.5
464.922	12.39
465.359	10.57
465.796	17.56
466.233	18.65
466.67	20.8
467.106	21.29
467.543	19.35
467.98	19.86
468.416	18.3
468.853	16.99
469.29	15.48
469.726	14.58
470.162	15.16
470.599	9.97
471.035	8.87
471.471	7.97
471.907	5.68
472.344	6.02
472.78	5.78
473.216	4.25
473.652	4.76
474.088	4.04
474.523	4.75
474.959	3.84
475.395	3.63
475.831	4.27
476.266	3.42
476.702	3.99
477.138	4.99
477.573	4.64
478.008	5.51
478.444	6.32
478.879	8.36
479.314	8.48
479.75	8.16
480.185	7.99
480.62	7.98
481.055	7.76
481.49	8.51
481.925	7.94
482.36	9.65
482.795	9.17
483.229	8.06
483.664	6.98
484.099	6.52
484.534	7.29
484.968	7.72
485.403	6.65
485.837	6.05
486.271	5.74
486.706	5.5
487.14	5.05
487.574	5.07
488.009	4.77
488.443	4.34
488.877	4.78
489.311	3.95
489.745	3.58
490.179	4.18
490.613	6.14
491.046	5.82
491.48	5.36
491.914	4.69
492.348	4.76
492.781	5.11
493.215	5.29
493.648	4.51
494.082	4.95
494.515	5.29
494.948	6.07
495.382	4.54
495.815	4.48
496.248	5.01
496.681	4.88
497.114	4.15
497.547	4.21
497.98	4.89
498.413	6.6
498.846	7.06
499.279	6.63
499.711	5.96
500.144	5.93
500.577	7.07
501.009	6.49
501.442	7.7
501.874	9.34
502.306	9.1
502.739	10.95
503.171	9.58
503.603	9.76
504.036	9.48
504.468	9.77
504.9	9.74
505.332	8.58
505.764	9.32
506.196	8.37
506.627	7.37
507.059	7.03
507.491	4.8
507.923	4.98
508.354	5.42
508.786	5.64
509.217	4.87
509.649	5.26
510.08	5.12
510.512	5.57
510.943	5.74
511.374	6.08
511.805	6.47
512.237	6.13
512.668	5.3
513.099	3.5
513.53	3.5
513.961	4.08
514.391	3.56
514.822	5
515.253	4.34
515.684	4.99
516.114	4.82
516.545	5.01
516.975	5.15
517.406	5.67
517.836	5.78
518.267	5.53
518.697	6.18
519.127	5.72
519.558	4.67
519.988	4.51
520.418	3.19
520.848	2.42
521.278	1.83
521.708	20.44
522.138	20.52
522.567	20.63
522.997	20.5
523.427	19.47
523.857	20.08
524.286	19.8
524.716	19.79
525.145	20.32
525.575	21.22
526.004	20.9
526.433	2.86
526.863	2.7
527.292	3.76
527.721	4.96
528.15	5.26
528.579	5.67
529.008	5.76
529.437	5.21
529.866	4.98
530.295	4.65
530.724	5.37
531.152	4.91
531.581	6.02
532.01	5.8
532.438	4.78
532.867	4.68
533.295	4.55
533.723	4.83
534.152	5.33
534.58	5.64
535.008	5.78
535.436	6.94
535.865	6.73
536.293	5.3
536.721	4.38
537.149	4.4
537.576	5.28
538.004	5.48
538.432	4.86
538.86	5.16
539.287	4.87
539.715	4.9
540.143	3.36
540.57	3.85
540.998	4.29
541.425	6.14
541.852	6.22
542.28	5.37
542.707	5.08
543.134	5.42
543.561	5.66
543.988	5.81
544.415	5.51
544.842	5.29
545.269	5.56
545.696	5.68
546.123	4.86
546.549	5.39
546.976	5.47
547.403	5.15
547.829	4.93
548.256	4.48
548.682	4.81
549.108	5.98
549.535	6.25
549.961	5.67
550.387	5.53
550.813	6.51
551.24	5.94
551.666	5.7
552.092	5.74
552.518	5.69
552.943	6.23
553.369	5.81
553.795	4.92
554.221	4.99
554.646	5.18
555.072	6.34
555.498	4.96
555.923	4.7
556.349	4.92
556.774	4.84
557.199	4.93
557.625	3.79
558.05	4.04
558.475	3.86
558.9	4.01
559.325	4.66
559.75	4.24
560.175	4
560.6	3.68
561.025	3.33
561.449	3.5
561.874	3.19
562.299	3.32
562.723	2.54
563.148	2.45
563.572	2.05
563.997	1.46
564.421	0.19
564.846	-0.11
565.27	0.04
565.694	-0.14
566.118	-0.42
566.542	1.02
566.966	1.89
567.39	2.76
567.814	3.68
568.238	4.16
568.662	3.63
569.086	4.12
569.509	3.91
569.933	5.5
570.357	5.98
570.78	6.16
571.204	6.47
571.627	5.87
572.05	5.47
572.474	5.6
572.897	5.8
573.32	6.65
573.743	6.16
574.166	7.41
574.589	6.21
575.012	6.05
575.435	5.84
575.858	5.02
576.281	5.66
576.704	5.41
577.126	4.84
577.549	4.3
577.972	3.62
578.394	4.13
578.817	5.49
579.239	4.99
579.661	5.36
580.084	6.39
580.506	6.51
580.928	5.39
581.35	5.78
581.772	5.64
582.194	5.98
582.616	5.81
583.038	5.19
583.46	3.44
583.882	4.29
584.303	2.6
584.725	2.03
585.147	5.09
585.568	5.89
585.99	6.26
586.411	7.16
586.833	7.54
587.254	8.24
587.675	8.75
588.096	8.58
588.518	8.92
588.939	10.12
589.36	9.69
589.781	5.84
590.202	7.68
590.623	7.41
591.043	5.86
591.464	5.22
591.885	4.94
592.305	4.37
592.726	4.43
593.147	3.96
593.567	4.36
593.987	4.98
594.408	4.77
594.828	2.26
595.248	2.31
595.669	3.35
596.089	3.06
596.509	2.53
596.929	3.02
597.349	3.44
597.769	3.34
598.189	3.17
598.608	2.62
599.028	2.66
599.448	2.93
599.867	3.03
600.287	2.46
600.706	2.74
601.126	3.94
601.545	5.02
601.965	4.49
602.384	4.68
602.803	4.44
603.222	4.93
603.641	5.13
604.061	5.47
604.48	5.12
604.898	5.28
605.317	5.15
605.736	4.45
606.155	4.08
606.574	4.15
606.992	3.99
607.411	4.35
607.829	3.32
608.248	2.99
608.666	2.47
609.085	2.68
609.503	2.71
609.921	2.84
610.339	3.02
610.758	2.19
611.176	2.14
611.594	2.82
612.012	2.89
612.43	4.79
612.847	4.87
613.265	6.26
613.683	6.2
614.101	6.11
614.518	5.96
614.936	5.72
615.353	6.82
615.771	7.36
616.188	7.35
616.606	6.94
617.023	6.08
617.44	6.41
617.857	5.12
618.274	4.96
618.691	5.2
619.108	5.71
619.525	5.86
619.942	5.69
620.359	5.11
620.776	5.02
621.192	6.12
621.609	6.27
622.026	6.77
622.442	7.28
622.859	6.75
623.275	6.6
623.691	6.4
624.108	6.37
624.524	5.76
624.94	6.53
625.356	5.85
625.772	4.95
626.188	4.33
626.604	3.63
627.02	3.52
627.436	4.67
627.852	5.94
628.268	6.42
628.683	6.48
629.099	6.36
629.514	5.75
629.93	6.16
630.345	5.94
630.761	5.8
631.176	5.56
631.591	7.15
632.007	7.62
632.422	6.03
632.837	4.77
633.252	5.23
633.667	5.95
634.082	6.47
634.497	6.83
634.911	8.31
635.326	8.81
635.741	9.67
636.155	8.57
636.57	8.55
636.984	8.67
637.399	10.68
637.813	10.15
638.228	9.66
638.642	9.08
639.056	8.68
639.47	7.97
639.884	7.94
640.298	7.09
640.712	7.34
641.126	7.21
641.54	7.13
641.954	4.22
642.368	4.42
642.781	7.09
643.195	6.62
643.609	6.88
644.022	6.41
644.436	6.36
644.849	6.29
645.262	5.9
645.676	5.21
646.089	5.77
646.502	8.23
646.915	8.23
647.328	6.46
647.741	6.69
648.154	7.24
648.567	9.34
648.98	10.05
649.393	10.41
649.805	10.52
650.218	10.24
650.631	10.4
651.043	9.56
651.456	10.14
651.868	9.66
652.28	9.1
652.693	8.03
653.105	6.37
653.517	6.07
653.929	5.6
654.341	6.02
654.753	7.22
655.165	7.26
655.577	7.54
655.989	7.12
656.401	6.77
656.813	8.24
657.224	8.17
657.636	7.82
658.047	7.51
658.459	8
658.87	6.82
659.282	6.08
659.693	6.21
660.104	7.11
660.515	6.66
660.926	6.61
661.338	6.41
661.749	5.99
662.159	6.9
662.57	6.39
662.981	6.51
663.392	6.83
663.803	6.12
664.213	6.04
664.624	4.81
665.035	4.89
665.445	4.65
665.855	6.01
666.266	7.32
666.676	6.82
667.086	6.41
667.497	6.86
667.907	6.47
668.317	6.92
668.727	9.47
669.137	9.43
669.547	9.71
669.956	8.9
670.366	7.69
670.776	7.51
671.186	7.33
671.595	7.52
672.005	5.64
672.414	6.6
672.824	7.39
673.233	4.92
673.642	4.88
674.052	4.55
674.461	6.44
674.87	6.24
675.279	6.59
675.688	5.57
676.097	7.75
676.506	8.97
676.915	8.31
677.323	8.33
677.732	7.72
678.141	8
678.549	8.19
678.958	6.47
679.366	6.17
679.775	4.96
680.183	7.14
680.592	5.87
681	5.74
681.408	6.19
681.816	5.85
682.224	6.08
682.632	7.49
683.04	7.87
683.448	8.8
683.856	9.69
684.264	10.67
684.671	9.22
685.079	9.03
685.487	9.53
685.894	8.8
686.302	7.31
686.709	7.33
687.116	5.5
687.524	6.58
687.931	7.29
688.338	7.48
688.745	6.59
689.152	6.69
689.559	6.75
689.966	7.95
690.373	8.45
690.78	10.58
691.187	10.79
691.593	11.9
692	10.84
692.407	10.82
692.813	11.96
693.22	12.84
693.626	11.57
694.032	12.16
694.439	13.14
694.845	13.49
695.251	13.43
695.657	14.06
696.063	13.04
696.469	12.42
696.875	12.44
697.281	10.89
697.687	9.77
698.093	9.89
698.498	10.27
698.904	8.11
699.31	7.76
699.715	8.67
700.12	7.48
700.526	7.58
700.931	8.45
701.337	9.46
701.742	10.5
702.147	10.87
702.552	12.49
702.957	10.68
703.362	9.99
703.767	9.57
704.172	8.7
704.577	8.71
704.981	7.53
705.386	6.45
705.791	5.41
706.195	3.6
706.6	4.38
707.004	2.99
707.408	3.1
707.813	4.58
708.217	6.82
708.621	6.01
709.025	4.78
709.43	7.67
709.834	7.98
710.237	7.73
710.641	8.84
711.045	9.29
711.449	11.43
711.853	14.94
712.256	14.29
712.66	12.84
713.064	13.33
713.467	15.82
713.87	14.93
714.274	16.16
714.677	17.37
715.08	18.2
715.484	17.96
715.887	20.05
716.29	17.95
716.693	19.48
717.096	19.34
717.499	20.24
717.901	18.02
718.304	17.74
718.707	17.31
719.109	17.12
719.512	15.02
719.915	17.43
720.317	14.82
720.719	12.68
721.122	11.8
721.524	12.58
721.926	16.96
722.328	17.52
722.731	16.37
723.133	16.42
723.535	14.66
723.937	16.49
724.338	16.42
724.74	17.36
725.142	57.98
725.544	61.1
725.945	70.59
726.347	65.92
726.748	66.67
727.15	68.56
727.551	70.53
727.952	69.63
728.354	67.21
728.755	65.01
729.156	63
729.557	24.32
729.958	21.28
730.359	12.01
730.76	11.59
731.161	11.69
731.562	10.35
731.962	8.46
732.363	8.93
732.763	10.21
733.164	8.56
733.564	9.62
733.965	10.37
734.365	10.54
734.766	9.43
735.166	9.37
735.566	10.24
735.966	11.51
736.366	11.79
736.766	13.01
737.166	11.62
737.566	12.48
737.966	12.5
738.365	12.81
738.765	13.4
739.165	14.57
739.564	14.08
739.964	12.4
740.363	10.64
740.763	8.57
741.162	9.36
741.561	10.46
741.96	11.27
742.36	9.66
742.759	9.94
743.158	8.13
743.557	6.38
743.955	6.35
744.354	6.85
744.753	7.66
745.152	9.75
745.55	8.12
745.949	7.72
746.348	7.23
746.746	6.78
747.144	8.06
747.543	8.84
747.941	10.01
748.339	10.73
748.737	11.4
749.136	11.23
749.534	9.68
749.932	11.39
750.33	11.72
750.727	10.98
751.125	12.44
751.523	11.44
751.921	14.13
752.318	14.5
752.716	15.72
753.113	15.87
753.511	16.13
753.908	17.52
754.305	20.54
754.703	20.62
755.1	21.36
755.497	21.09
755.894	20.27
756.291	17.68
756.688	17.6
757.085	17.6
757.482	18.72
757.878	19.82
758.275	21.02
758.672	14.56
759.068	13.98
759.465	14.6
759.861	14.75
760.258	14.76
760.654	16.43
761.05	21.22
761.447	19.37
761.843	17.43
762.239	16.93
762.635	12.72
763.031	12.89
763.427	13.94
763.822	14.34
764.218	13.73
764.614	13.78
765.01	11.9
765.405	9.74
765.801	8.98
766.196	8.36
766.592	7.82
766.987	10
767.382	9.08
767.778	10.42
768.173	9.12
768.568	9.46
768.963	9.93
769.358	11.25
769.753	12.98
770.148	13.71
770.542	14.19
770.937	14.22
771.332	13.53
771.726	13.83
772.121	15.03
772.515	16.8
772.91	16.42
773.304	17.11
773.699	16.51
774.093	15.18
774.487	15.1
774.881	15.01
775.275	15.02
775.669	15.1
776.063	15.94
776.457	15.39
776.851	15.05
777.245	15.83
777.638	15.21
778.032	14.34
778.425	14.69
778.819	17.27
779.212	18.82
779.606	20.85
779.999	20.86
780.392	21.09
780.786	18.81
781.179	19.26
781.572	19.63
781.965	20.02
782.358	21.42
782.751	20.91
783.143	17.91
783.536	16.64
783.929	14.31
784.322	14.21
784.714	13.93
785.107	14.11
785.499	14.5
785.891	16.49
786.284	16.9
786.676	16.27
787.068	19.72
787.46	21
787.852	20.57
788.245	21.67
788.636	21.64
789.028	23.63
789.42	25.86
789.812	26.53
790.204	25.56
790.595	27.77
790.987	27.94
791.378	25.77
791.77	24.7
792.161	24.18
792.553	23.51
792.944	22.05
793.335	18.28
793.726	18.09
794.117	19.86
794.508	17.13
794.899	14.14
795.29	12.57
795.681	10.54
796.072	10.92
796.463	26.56
796.853	31.47
797.244	33.75
797.634	36.16
798.025	34.78
798.415	29.75
798.806	31.65
799.196	34.92
799.586	38.63
799.976	40.69
800.366	40.77
800.756	23.49
801.146	18.96
801.536	19.21
801.926	18.54
802.316	20.1
802.706	22.24
803.095	22.69
803.485	19.42
803.874	16.36
804.264	15.49
804.653	17.44
805.043	20.92
805.432	22.45
805.821	23.11
806.21	22.91
806.599	21.55
806.988	21
807.377	17.92
807.766	16.73
808.155	17.69
808.544	19.29
808.933	18.69
809.321	21.31
809.71	20.51
810.098	19.97
810.487	19.08
810.875	20.16
811.264	22
811.652	34
812.04	36.33
812.428	39.24
812.816	37.81
813.204	39.26
813.592	35.29
813.98	37.7
814.368	39.33
814.756	41.97
815.144	41.66
815.531	46.23
815.919	36.59
816.306	36.94
816.694	34.63
817.081	38.69
817.469	40.28
817.856	39.07
818.243	35.41
818.63	35.18
819.017	37.94
819.404	36.91
819.791	30.81
820.178	29.37
820.565	35.12
820.952	42.39
821.339	40.08
821.725	40.55
822.112	42.29
822.498	43.49
822.885	40.27
823.271	36.6
823.657	37.51
824.044	39.53
824.43	39.98
824.816	46.13
825.202	44.54
825.588	44.17
825.974	43.81
826.36	43.71
826.746	44.34
827.132	46.57
827.517	51.74
827.903	47.93
828.289	50.32
828.674	48.83
829.06	40.35
829.445	33.05
829.83	31.84
830.216	32.69
830.601	37.15
830.986	42.84
831.371	44.47
831.756	46.92
832.141	52.84
832.526	54.34
832.911	56.01
833.295	56.95
833.68	62.87
834.065	64.97
834.449	62.26
834.834	60.53
835.218	55.86
835.603	53.05
835.987	46.96
836.371	46.57
836.755	44.96
837.139	42.27
837.524	36.6
837.908	31.86
838.291	33.99
838.675	31.61
839.059	27.51
839.443	27.74
839.827	27.07
840.21	23.21
840.594	24.77
840.977	25.39
841.361	25.35
841.744	24.97
842.127	30.74
842.511	30.3
842.894	29.86
843.277	31.87
843.66	29.02
844.043	30.16
844.426	37.15
844.809	28.83
845.191	29.22
845.574	31.13
845.957	34.61
846.339	32.3
846.722	29.59
847.104	29
847.487	25.8
847.869	26.25
848.252	29.54
848.634	28.76
849.016	31.38
849.398	26.74
849.78	25.06
850.162	27.25
850.544	27.35
850.926	25.99
851.307	26.85
851.689	31.21
852.071	29.09
852.452	28.27
852.834	25.82
853.215	31.35
853.597	31.87
853.978	37.75
854.359	33.01
854.741	34.64
855.122	34.33
855.503	28.38
855.884	27.18
856.265	30.11
856.646	22.77
857.026	26.92
857.407	25.72
857.788	28.41
858.169	24.37
858.549	33.41
858.93	29.26
859.31	34.34
859.69	45.65
860.071	47.04
860.451	47.58
860.831	52.76
861.211	48.31
861.591	44.29
861.971	43.73
862.351	45.61
862.731	37.47
863.111	41.24
863.491	40.05
863.87	36.97
864.25	34.25
864.629	37.62
865.009	35.37
865.388	40.12
865.768	43.46
866.147	43.5
866.526	40.49
866.905	44.25
867.284	39.82
867.663	35.14
868.042	33.26
868.421	32.93
868.8	30.02
869.179	36.63
869.558	35.75
869.936	37.66
870.315	35.42
870.693	38.65
871.072	35.33
871.45	33.28
871.828	37.74
872.207	40.77
872.585	42.76
872.963	41.37
873.341	45.77
873.719	50.12
874.097	47.93
874.475	48.45
874.853	46.56
875.23	48.57
875.608	55.34
875.986	58.25
876.363	57.04
876.741	70.04
877.118	78.46
877.495	75.22
877.873	71.15
878.25	68.46
878.627	69.11
879.004	71.89
879.381	73.71
879.758	78.18
880.135	70.12
880.512	68.69
880.889	52.05
881.265	40.74
881.642	34.35
882.019	34.06
882.395	44.42
882.772	48.32
883.148	50.19
883.524	49.34
883.901	44.44
884.277	44.64
884.653	44.66
885.029	53
885.405	70.37
885.781	77.64
886.157	72.77
886.532	63.91
886.908	60.39
887.284	55.94
887.659	55.06
888.035	51.46
888.411	49.35
888.786	48.25
889.161	45.44
889.537	26.6
889.912	20.72
890.287	22.27
890.662	21.8
891.037	19.14
891.412	19.77
891.787	16.6
892.162	23.74
892.536	27.17
892.911	31.9
893.286	28.92
893.66	37.97
894.035	43.24
894.409	41.72
894.784	48.43
895.158	48.97
895.532	57.25
895.906	61.66
896.281	59.37
896.655	60.99
897.029	66.54
897.402	67.45
897.776	60.44
898.15	49.89
898.524	54.23
898.898	53.61
899.271	65.12
899.645	63.22
900.018	60.49
900.392	64.75
900.765	62.36
901.138	61.4
901.511	57.74
901.884	71.19
902.258	78.96
902.631	90.14
903.003	93.48
903.376	84.17
903.749	90.24
904.122	91.71
904.495	86.26
904.867	84.58
905.24	76.83
905.612	76.34
905.985	63.07
906.357	52.55
906.729	45.72
907.102	43.88
907.474	45.32
907.846	44.13
908.218	49.98
908.59	62.5
908.962	59.88
909.334	68.1
909.705	73.98
910.077	72.05
910.449	77.17
910.82	92.19
911.192	103.4
911.563	110.34
911.935	104.49
912.306	96.37
912.677	86
913.048	105.88
913.419	93.65
913.79	97.35
914.161	100.11
914.532	113.31
914.903	83.75
915.274	75.72
915.645	79.37
916.015	72
916.386	72.49
916.756	71.67
917.127	56.31
917.497	57.86
917.868	61.85
918.238	65.21
918.608	59.73
918.978	68.86
919.348	62.15
919.718	58.73
920.088	55.42
920.458	67.14
920.828	60.47
921.198	74.16
921.567	84.74
921.937	72.06
922.306	69.14
922.676	55.37
923.045	62.55
923.415	77.41
923.784	71.25
924.153	87.5
924.522	96.4
924.891	98.08
925.26	99.48
925.629	92.09
925.998	98.85
926.367	103.5
926.736	127.5
927.104	128.97
927.473	113.95
927.842	129.5
928.21	114.92
928.578	87.1
928.947	92.4
929.315	86.76
929.683	96.9
930.051	98.08
930.42	107.57
930.788	77.51
931.156	67.82
931.523	109.75
931.891	113.77
932.259	113.65
932.627	137.91
932.994	179.45
933.362	201.59
933.729	190.32
934.097	180.86
934.464	174.58
934.831	188.68
935.199	207
935.566	197.54
935.933	184.02
936.3	233.47
936.667	196.21
937.034	259.23
937.401	228.14
937.767	190.67
938.134	175.14
938.501	222.49
938.867	246.14
939.234	391.03
939.6	315.69
939.967	361.78
940.333	254.03
940.699	194.48
941.065	68.42
941.431	102.91
941.798	164.83
942.163	262.11
942.529	173.53
942.895	155.25
943.261	109.45
943.627	140.77
943.992	135.33
944.358	142.38
944.723	188.15
945.089	193.14
945.454	170.14
945.82	153.46
946.185	127.81
946.55	137.04
946.915	131.55
947.28	158.27
947.645	151.49
948.01	164
948.375	162.6
948.74	163.98
949.104	187.95
949.469	191.28
949.834	319.81
950.198	437.3
950.562	327.82
950.927	280.52
951.291	330.47
951.655	255.5
952.02	185.4
952.384	158.48
952.748	162.57
953.112	197.87
953.476	199.08
953.839	171.88
954.203	167.67
954.567	187.69
954.931	243.61
955.294	219.86
955.658	210.33
956.021	396.97
956.385	525.92
956.748	659.53
957.111	639.26
957.474	601.63
957.837	847.99
958.2	468.23
958.563	145.65
958.926	134.18
959.289	150.74
959.652	210.8
960.015	99.9
960.377	224.09
960.74	245.64
961.102	299.36
961.465	575.55
961.827	584.83
962.189	937.76
962.552	687.95
962.914	519.99
963.276	336.09
963.638	262.67
964	278.55
964.362	204.64
964.724	202.74
965.085	173.19
965.447	137.35
965.809	86.35
966.17	87.57
966.532	83.75
966.893	87.83
967.255	75.94
967.616	96.36
967.977	85.7
968.338	89.29
968.699	81.75
969.061	69.94
969.421	78.42
969.782	101.05
970.143	115.26
970.504	160.91
970.865	194.62
971.225	232.62
971.586	208.27
971.946	265.97
972.307	218.77
972.667	254.11
973.027	286.52
973.388	293.47
973.748	193.35
974.108	178.55
974.468	147.59
974.828	158.7
975.188	82.56
975.548	97.68
975.907	100.11
976.267	101.72
976.627	116.4
976.986	108.21
977.346	110.98
977.705	103.09
978.064	95
978.424	90.85
978.783	60.73
979.142	76.78
979.501	72.29
979.86	77.44
980.219	85.18
980.578	96.64
980.937	83.08
981.296	75.71
981.654	85.19
982.013	105.82
982.371	163.95
982.73	147.06
983.088	177.77
983.447	196.4
983.805	311
984.163	585.79
984.521	477.3
984.879	1006.92
985.237	-1448.98
985.595	1990.63
985.953	443.71
986.311	202.16
986.669	138.02
987.026	84.39
987.384	70.68
987.741	15.04
988.099	70.29
988.456	79.07
988.814	84.49
989.171	72.78
989.528	27.77
989.885	42.36
990.242	46.41
990.599	32.35
990.956	36.02
991.313	35.87
991.67	38.61
992.027	76.3
992.383	70.87
992.74	71.34
993.096	91.15
993.453	98.09
993.809	95.59
994.165	117.63
994.522	169.89
994.878	194.21
995.234	251.02
995.59	253.42
995.946	155.06
996.302	178.21
996.658	177.95
997.013	180.48
997.369	230.19
997.725	358.84
998.08	231.98
998.436	159.27
998.791	225.38
999.147	280.58
999.502	321.64
999.857	265.08
1000.212	384.36
1000.567	517.11
1000.922	308.34
1001.277	217.02
1001.632	141.9
1001.987	152.7
1002.342	147.37
1002.696	121.61
1003.051	100.52
1003.406	134.07
1003.76	126.11
1004.114	136.97
1004.469	134.26
1004.823	108.27
1005.177	112.51
1005.531	106.12
1005.885	112.84
1006.239	133.81
1006.593	185.14
1006.947	238.58
1007.301	179.74
1007.655	210.92
1008.008	154.91
1008.362	176.73
1008.715	257.63
1009.069	234.12
1009.422	396.79
1009.776	751.96
1010.129	462.49
1010.482	329.15
1010.835	248.67
1011.188	388.49
1011.541	344.67
1011.894	-1857.9
1012.247	4998.28
1012.6	315.09
1012.952	273.78
1013.305	78.4
1013.657	81.67
1014.01	80.34
1014.362	58.19
1014.715	109.76
1015.067	125.17
1015.419	113.7
1015.771	124.55
1016.123	131.11
1016.475	137.84
1016.827	128.12
1017.179	158.47
1017.531	142.23
1017.883	142.91
1018.234	199.01
1018.586	201.44
1018.938	224.25
1019.289	331.2
1019.64	335.9
1019.992	263.49
1020.343	239.97
1020.694	240.22
1021.045	225.14
1021.396	267.91
1021.747	316.79
1022.098	324.48
1022.449	240.36
1022.8	214.49
1023.151	172.68
1023.501	172.79
1023.852	196.63
1024.202	200.38
1024.553	182.47
1024.903	176.73
1025.253	184.43
1025.604	192.47
1025.954	226.96
1026.304	268.28
1026.654	306.65
1027.004	383.6
1027.354	568.55
1027.703	601.57
1028.053	788.76
1028.403	1347.33
1028.753	1803.78
1029.102	1909.17
1029.452	6744.19
1029.801	265.13
1030.15	194.13
1030.499	152.21
897.758	1495.5
901.051	1444.74
904.343	1470.91
907.636	1474.39
910.928	1516.8
914.22	1464.82
917.511	1470.04
920.803	1500.41
924.094	1493.67
927.384	1499.55
930.675	1470.91
933.965	1450.29
937.255	1474.73
940.544	1455.33
943.834	1450.14
947.123	1410.39
950.411	1469.41
953.7	1459.62
956.988	1451.23
960.276	1401.71
963.563	1430.05
966.851	1439.4
970.138	1463.41
973.424	1464.14
976.711	1428.01
979.997	1462.38
983.283	1489.11
986.568	1444.82
989.853	1434.9
993.138	1447.65
996.423	1511.7
999.708	1484.25
1002.992	1503.25
1006.275	1445.24
1009.559	1445.73
1012.842	1512.01
1016.125	1480.6
1019.408	1465.14
1022.69	1499.32
1025.972	1517.97
1029.254	1505.7
1032.536	1481.93
1035.817	1483.65
1039.098	1464.21
1042.379	1493.84
1045.659	1510.28
1048.939	1473.92
1052.219	1476.33
1055.498	1469.45
1058.778	1462.68
1062.057	1447.71
1065.335	1464.31
1068.614	1466.13
1071.892	1461.69
1075.17	1495.35
1078.447	1497.04
1081.724	1494.47
1085.001	1506.92
1088.278	1491.75
1091.554	1493.42
1094.83	1491.73
1098.106	1514.29
1101.382	1531.41
1104.657	1531.73
1107.932	1532.57
1111.206	1518.2
1114.481	1486.2
1117.755	1486.74
1121.029	1482.73
1124.302	1522.69
1127.575	1502.63
1130.848	1502.88
1134.121	1484.12
1137.393	1455.99
1140.665	1494.69
1143.937	1478.52
1147.208	1444.64
1150.48	1483.03
1153.75	1475.95
1157.021	1478.95
1160.291	1460.57
1163.561	1495.3
1166.831	1470.32
1170.101	1483.77
1173.37	1459.57
1176.639	1433.47
1179.907	1465.02
1183.176	1478.13
1186.444	1479.93
1189.711	1492.94
1192.979	1509.94
1196.246	1484.63
1199.513	1494.31
1202.78	1497.1
1206.046	1502.99
1209.312	1522.03
1212.578	1528.42
1215.843	1505.72
1219.108	1487.33
1222.373	1503
1225.638	1486.99
1228.902	1477.8
1232.166	1452.83
1235.43	1443.01
1238.693	1464.26
1241.956	1461.07
1245.219	1493.45
1248.482	1483.01
1251.744	1483.95
1255.006	1557.7
1258.268	1522.65
1261.529	1499.07
1264.79	1498.62
1268.051	1558.14
1271.312	1565.8
1274.572	1542.7
1277.832	1532.87
1281.092	1518.23
1284.351	1516.14
1287.61	1506.38
1290.869	1469.62
1294.128	1471.24
1297.386	1495.2
1300.644	1490.23
1303.902	1496.17
1307.159	1411.78
1310.416	1444.15
1313.673	1462.36
1316.93	1465.59
1320.186	1480.79
1323.442	1498.77
1326.697	1499.47
1329.953	1482.68
1333.208	1508.02
1336.463	1493.71
1339.717	1472.83
1342.972	1543.37
1346.226	1524.14
1349.479	1500.05
1352.733	1483.37
1355.986	1492.64
1359.238	1481.9
1362.491	1484.75
1365.743	1483.11
1368.995	1480.13
1372.247	1491.23
1375.498	1500.16
1378.749	1528.05
1382	1502.33
1385.251	1518.85
1388.501	1492.57
1391.751	1491.54
1395	1474.87
1398.25	1491.47
1401.499	1511.26
1404.748	1479.74
1407.996	1468.04
1411.244	1467.15
1414.492	1456.15
1417.74	1447.79
1420.987	1454.27
1424.234	1492.14
1427.481	1467.36
1430.728	1503.05
1433.974	1488.93
1437.22	1486.11
1440.465	1480.86
1443.711	1483.78
1446.956	1494.28
1450.201	1478.52
1453.445	1505.14
1456.689	1495
1459.933	1504.55
1463.177	1530.17
1466.42	1513.08
1469.663	1500.4
1472.906	1511.4
1476.148	1543.54
1479.391	1513.58
1482.633	1501.49
1485.874	1516.19
1489.115	1521.36
1492.356	1509.45
1495.597	1492.81
1498.838	1483.91
1502.078	1477.47
1505.318	1464.19
1508.557	1479.01
1511.797	1477.36
1515.036	1511.75
1518.274	1484.34
1521.513	1449.08
1524.751	1453.38
1527.989	1468.2
1531.227	1478.66
1534.464	1485.2
1537.701	1476.42
1540.938	1481.3
1544.174	1451.59
1547.41	1440.23
1550.646	1464.96
1553.882	1494.64
1557.117	1533.95
1560.352	1539.2
1563.587	1509.75
1566.821	1490.95
1570.055	1504.95
1573.289	1488.49
1576.523	1521.07
1579.756	1528.5
1582.989	1543.46
1586.222	1514.91
1589.454	1537.73
1592.686	1528.15
1595.918	1542.53
1599.15	1543.44
1602.381	1569.99
1605.612	1558.04
1608.843	1616.47
1612.073	1567.28
1615.303	1561.29
1618.533	1556.23
1621.762	1557.85
1624.992	1537.71
1628.221	1535.52
1631.449	1530.27
1634.678	1545.54
1637.906	1525.88
1641.134	1539.07
1644.361	1517.88
1647.588	1512.4
1650.815	1528.23
1654.042	1505.24
1657.269	1520.55
1660.495	1511.24
1663.72	1501.82
1666.946	1479.7
1670.171	1469.08
1673.396	1447.8
1676.621	1438.14
1679.845	1434.95
1683.069	1437.65
1686.293	1453.69
1689.517	1452.13
1692.74	1424.33
1695.963	1436.23
1699.185	1460.15
1702.408	1447.55
1705.63	1462.41
1708.852	1477.14
1712.073	1456.74
1715.294	1470.2
1718.515	1500.29
1721.736	1473.89
1724.956	1460.26
1728.176	1476.79
1731.396	1488.08
1734.616	1484.25
1737.835	1510.95
1741.054	1490.62
1744.272	1489.3
1747.491	1515.5
1750.709	1527.17
1753.927	1499.37
1757.144	1515.9
1760.361	1553.42
1763.578	1534.66
1766.795	1504.08
1770.011	1494.56
1773.227	1506.22
1776.443	1535.72
1779.658	1558.05
1782.874	1525.91
1786.089	1521.53
1789.303	1520.46
1792.518	1521.3
1795.732	1514.77
1798.945	1521.68
1802.159	1552.48
1805.372	1517.35
1808.585	1513.71
1811.797	1514.26
1815.01	1531.65
1818.222	1547.72
1821.434	1521.19
1824.645	1547.43
1827.856	1554.07
1831.067	1570.27
1834.278	1536.34
1837.488	1522.67
1840.698	1599.16
1843.908	1569.11
1847.117	1550.93
1850.326	1505.67
1853.535	1541.71
1856.744	1568.67
1859.952	1520
1863.16	1519.53
1866.368	1536.69
1869.575	1609.52
1872.782	1536.88
1875.989	1497.57
1879.196	1530.42
1882.402	1524.89
1885.608	1543.38
1888.814	1510.05
1892.019	1453.39
1895.224	1492.56
1898.429	1472.63
1901.634	1459.07
1904.838	1445.91
1908.042	1485.19
1911.246	1496.6
1914.449	1472.19
1917.652	1462.49
1920.855	1450.63
1924.058	1466.99
1927.26	1501.41
1930.462	1511.28
1933.664	1537.3
1936.865	1503.94
1940.066	1511.97
1943.267	1475.91
1946.467	1483.5
1949.668	1490.61
1952.868	1536.01
1956.067	1536.09
1959.267	1495.43
1962.466	1510.56
1965.665	1497.58
1968.863	1496.19
1972.061	1493.64
1975.259	1489.07
1978.457	1537.07
1981.654	1509.82
1984.852	1511.65
1988.048	1486.43
1991.245	1473.82
1994.441	1532.57
1997.637	1496.16
2000.833	1488.12
2004.028	1508.93
2007.223	1552.41
2010.418	1542.59
2013.613	1510.83
2016.807	1509.01
2020.001	1506.31
2023.194	1516.59
2026.388	1504.96
2029.581	1470.49
2032.774	1513.64
2035.966	1520.18
2039.158	1485.99
2042.35	1500.1
2045.542	1452.56
2048.733	1506.95
2051.924	1493.9
2055.115	1503.03
2058.306	1484.76
2061.496	1519.58
2064.686	1548.98
2067.875	1486.78
2071.065	1485.21
2074.254	1496.88
2077.442	1465.87
2080.631	1519.1
2083.819	1479.61
2087.007	1477.32
2090.195	1469.22
2093.382	1471.97
2096.569	1467.74
2099.756	1440.1
2102.942	1479.79
2106.128	1488.95
2109.314	1480.31
2112.5	1472.9
2115.685	1451.97
2118.87	1455.69
2122.055	1501.89
2125.239	1487.27
2128.424	1482.51
2131.608	1513.7
2134.791	1503.77
2137.974	1525.5
2141.157	1517.54
2144.34	1503.39
2147.523	1491.29
2150.705	1513.24
2153.887	1488.6
2157.068	1470.26
2160.25	1454
2163.431	1471.02
2166.611	1453.46
2169.792	1469.63
2172.972	1408.02
2176.152	1444.71
2179.331	1458.96
2182.511	1463.3
2185.69	1473.41
2188.868	1477.6
2192.047	1498.97
2195.225	1519.47
2198.403	1479.07
2201.58	1470.27
2204.758	1458.48
2207.935	1507.92
2211.111	1454.84
2214.288	1447.89
2217.464	1469.16
2220.64	1442.51
2223.815	1472.83
2226.991	1426.67
2230.166	1433.8
2233.34	1466.16
2236.515	1475.6
2239.689	1523.02
2242.863	1489.81
2246.036	1520.76
2249.209	1509.75
2252.382	1523.39
2255.555	1530.19
2258.727	1502.13
2261.9	1518.37
2265.071	1515.12
2268.243	1515.05
2271.414	1483.27
2274.585	1469.59
2277.756	1509.05
2280.926	1483.51
2284.096	1503.4
2287.266	1458.97
2290.436	1491.32
2293.605	1500.85
2296.774	1529.83
2299.942	1532.19
2303.111	1542.78
2306.279	1576.73
2309.447	1569.38
2312.614	1554.66
2315.781	1568.6
2318.948	1551.93
2322.115	1576.94
2325.281	1503.61
2328.447	1508.79
2331.613	1488.03
2334.779	1485.14
2337.944	1480.18
2341.109	1480.56
2344.274	1473.9
2347.438	1450.97
2350.602	1465.9
2353.766	1472.31
2356.929	1467.53
2360.092	1494.92
2363.255	1472.72
2366.418	1458.89
2369.58	1484.23
2372.742	1460.68
2375.904	1445.24
2379.066	1440.37
2382.227	1457.49
2385.388	1429.68
2388.548	1399.81
2391.709	1422.22
2394.869	1420.04
2398.029	1453.11
2401.188	1440.71
2404.347	1430.93
2407.506	1429.33
2410.665	1467
2413.823	1451.14
2416.981	1439.26
2420.139	1451.61
2423.296	1478.24
2426.453	1459.42
2429.61	1474.22
2432.767	1458.8
2435.923	1485.78
2439.079	1448.35
2442.235	1470.53
2445.391	1432.3
2448.546	1461.47
2451.701	1483.98
2454.855	1482.01
2458.009	1498.12
2461.163	1490.45
2464.317	1469.14
2467.471	1486.66
2470.624	1507.51
2473.777	1500.11
2476.929	1512.3
2480.082	1527.42
2483.234	1516.76
2486.385	1477.34
2489.537	1472.9
2492.688	1466.41
2495.839	1484.28
2498.989	1493.46
2502.14	1483.84
2505.29	1479.51
2508.439	1496.12
2511.589	1459.79
2514.738	1457.37
2517.887	1468.28
2521.035	1517.46
2524.183	1487.89
2527.331	1483.41
2530.479	1474.79
2533.627	1478
