Data from N_1_DIV_OH_2N_Splice17_11-30-05-994.txt Node
Date: Sat Mar 14 11:30:05 EDT 2020
User: sa697716
Spectrometer: FLMS03696
Trigger mode: 0
Integration Time (sec): 3.180400E-1
Scans to average: 20
Electric dark correction enabled: true
Nonlinearity correction enabled: true
Boxcar width: 5
XAxis mode: Wavelengths
Number of Pixels in Spectrum: 2048
>>>>>Begin Spectral Data<<<<<
187.83	-56229.28
188.298	551.15
188.766	356.24
189.233	342.67
189.701	540.55
190.169	786.36
190.636	292.18
191.104	289.88
191.571	106.79
192.039	46.04
192.506	110.76
192.974	426.39
193.441	-732.55
193.908	-250.33
194.375	-32.88
194.842	113.52
195.31	236.02
195.777	158.09
196.244	262.54
196.711	224.21
197.177	240.36
197.644	274.37
198.111	392.83
198.578	522.31
199.045	370.34
199.511	556.71
199.978	566.72
200.445	497.64
200.911	536.5
201.378	555.9
201.844	512.32
202.31	836.69
202.777	865.29
203.243	479.1
203.709	453.09
204.176	577.06
204.642	475.24
205.108	459.15
205.574	353.07
206.04	302.43
206.506	281.59
206.972	252.06
207.438	230.78
207.903	269.61
208.369	265
208.835	279.44
209.301	278.24
209.766	281.92
210.232	263.56
210.697	315.02
211.163	373.58
211.628	487.07
212.094	440.52
212.559	585
213.024	364.21
213.49	435.7
213.955	413.67
214.42	387.87
214.885	364.12
215.35	369.96
215.815	407.07
216.28	420.82
216.745	347.9
217.21	380.7
217.675	313.01
218.14	334.12
218.604	330.62
219.069	345.89
219.534	370.67
219.998	376.01
220.463	403.45
220.927	388.16
221.392	352.14
221.856	353.13
222.32	347.01
222.785	403.16
223.249	456.23
223.713	468.91
224.177	439.61
224.642	468.28
225.106	543.88
225.57	558.26
226.034	443.71
226.497	623.76
226.961	557.65
227.425	725.39
227.889	768
228.353	712.69
228.816	1416.2
229.28	1305.38
229.744	1037.28
230.207	661.79
230.671	594.61
231.134	843.24
231.597	972.26
232.061	885.6
232.524	725.28
232.987	520.05
233.45	502.9
233.914	422.54
234.377	366.99
234.84	333.51
235.303	343.49
235.766	387.58
236.229	403.15
236.691	237.35
237.154	250.87
237.617	206.42
238.08	178.09
238.542	196.36
239.005	172.68
239.468	205.45
239.93	200.5
240.393	193.55
240.855	175.63
241.317	169.67
241.78	191.36
242.242	208.41
242.704	266.06
243.166	257.27
243.629	264.68
244.091	286.56
244.553	290.37
245.015	318.86
245.477	390.54
245.939	544.72
246.4	553.24
246.862	550.87
247.324	500.12
247.786	485.7
248.247	540.63
248.709	403.64
249.17	313.02
249.632	388.68
250.093	498.51
250.555	435.2
251.016	315.57
251.477	326.33
251.939	342.21
252.4	351.84
252.861	373.28
253.322	399.12
253.783	442.88
254.244	558.24
254.705	412.52
255.166	322.73
255.627	311.83
256.088	437.12
256.549	442.41
257.009	374.28
257.47	423.6
257.931	357.94
258.391	254.31
258.852	277.98
259.312	282.56
259.773	309.08
260.233	311.32
260.694	290.35
261.154	300.61
261.614	292.42
262.074	263.01
262.534	297.21
262.994	297.32
263.455	365.21
263.915	330.44
264.374	306.63
264.834	343.39
265.294	338.47
265.754	362.41
266.214	340.07
266.673	281.78
267.133	338.87
267.593	306.18
268.052	371.77
268.512	326.6
268.971	451.95
269.431	511.38
269.89	432.42
270.349	657.34
270.809	684.99
271.268	609.52
271.727	1274.24
272.186	886.73
272.645	673.18
273.104	436.52
273.563	628.25
274.022	393.49
274.481	357.15
274.94	291.41
275.399	207.61
275.857	230.18
276.316	298.58
276.775	280.04
277.233	266.78
277.692	279.51
278.15	342
278.609	407.49
279.067	374.63
279.525	347.88
279.984	425.01
280.442	505.43
280.9	597.6
281.358	400.93
281.816	378.83
282.274	378.12
282.732	368.71
283.19	367.12
283.648	291.68
284.106	306.81
284.564	309.13
285.021	313.7
285.479	242.12
285.937	174.32
286.394	172.53
286.852	183.55
287.309	191.54
287.767	212.26
288.224	210.01
288.682	223.45
289.139	272.81
289.596	267.08
290.053	264.2
290.511	307.05
290.968	397.94
291.425	494.85
291.882	438.56
292.339	379.68
292.796	341.14
293.252	323.36
293.709	301.96
294.166	266.36
294.623	257.06
295.079	239.88
295.536	263.17
295.992	258.11
296.449	253.55
296.905	263.95
297.362	291.13
297.818	303.43
298.274	316.37
298.731	295.66
299.187	278.47
299.643	316.15
300.099	391.64
300.555	430.61
301.011	367.35
301.467	406.25
301.923	430.07
302.379	386.78
302.835	382.18
303.291	384.39
303.746	422.52
304.202	547.61
304.658	547.75
305.113	366.85
305.569	365.53
306.024	329.42
306.479	270.26
306.935	256.14
307.39	262.82
307.845	240.56
308.301	250.61
308.756	245.54
309.211	252.42
309.666	259.86
310.121	352.05
310.576	325.58
311.031	322.8
311.486	338.41
311.94	302.18
312.395	390.6
312.85	720.45
313.305	2903.62
313.759	18303.86
314.214	1302.41
314.668	1106.26
315.123	1056.58
315.577	441.55
316.032	437.34
316.486	532.64
316.94	446.37
317.394	333.65
317.849	272.7
318.303	250.62
318.757	230.34
319.211	249.79
319.665	203.75
320.119	193.73
320.572	259.69
321.026	254.33
321.48	217.44
321.934	219.94
322.387	209.76
322.841	231.64
323.295	264.64
323.748	258.86
324.202	271.53
324.655	356.33
325.108	547.44
325.562	390.48
326.015	424.96
326.468	345.81
326.921	401.49
327.374	419.32
327.827	465.26
328.28	486.49
328.733	378.11
329.186	324.97
329.639	303.7
330.092	234.85
330.545	236.24
330.997	253.17
331.45	284.75
331.903	360.77
332.355	533.5
332.808	470.28
333.26	381.54
333.713	394.5
334.165	390.88
334.617	474.34
335.069	331.61
335.522	486.22
335.974	453.78
336.426	401.75
336.878	197.42
337.33	133.96
337.782	135.81
338.234	219.76
338.686	267.52
339.137	339.3
339.589	336.26
340.041	312.42
340.493	278.79
340.944	312.75
341.396	343.15
341.847	332.2
342.299	423.47
342.75	536.34
343.201	417.62
343.653	445.73
344.104	523.45
344.555	405.13
345.006	553.73
345.457	498.27
345.908	370.64
346.359	373.81
346.81	293.16
347.261	264.88
347.712	236.21
348.163	242.06
348.613	298.59
349.064	269.12
349.515	241.21
349.965	258.21
350.416	294.78
350.866	318.04
351.317	311.97
351.767	536.5
352.217	671.01
352.668	609.49
353.118	580.59
353.568	478.43
354.018	406.48
354.468	465.31
354.918	374.48
355.368	313.09
355.818	458.63
356.268	1241.93
356.718	5318.19
357.168	1401.84
357.617	649.54
358.067	648.12
358.517	592.47
358.966	752.37
359.416	914.4
359.865	903.89
360.315	1052.53
360.764	484.49
361.213	293.18
361.663	224.67
362.112	242.43
362.561	422.14
363.01	347.35
363.459	287.97
363.908	242.34
364.357	234.91
364.806	377.79
365.255	256.04
365.703	268.25
366.152	253.33
366.601	213.62
367.05	207.86
367.498	199.63
367.947	190.51
368.395	203.42
368.844	205.99
369.292	201.58
369.74	144.46
370.189	193.34
370.637	187.99
371.085	171.02
371.533	223.02
371.981	179.1
372.429	184.65
372.877	227.05
373.325	209.27
373.773	223.84
374.221	170.01
374.669	206.34
375.116	184.87
375.564	217.53
376.012	214.03
376.459	201.25
376.907	233.83
377.354	263.01
377.801	245.8
378.249	268.86
378.696	300.83
379.143	420.66
379.591	504.17
380.038	877.39
380.485	585.46
380.932	674.36
381.379	705.11
381.826	643.78
382.273	461.91
382.72	400.15
383.166	379.52
383.613	271.32
384.06	253.69
384.506	277.98
384.953	211.45
385.4	212.28
385.846	186.31
386.292	144.54
386.739	124.4
387.185	116.43
387.631	110.54
388.078	126.26
388.524	117.91
388.97	97.67
389.416	87.39
389.862	91.13
390.308	83.42
390.754	87.49
391.2	92.22
391.645	88.84
392.091	112.51
392.537	118.22
392.983	105.61
393.428	129.98
393.874	137.17
394.319	154.65
394.765	165.97
395.21	169.15
395.655	158.55
396.101	152.65
396.546	145.86
396.991	119.34
397.436	107.36
397.881	101.73
398.326	78.64
398.771	83.79
399.216	66.91
399.661	53.85
400.106	61.14
400.551	68.58
400.995	67.05
401.44	65.09
401.885	66.89
402.329	67.06
402.774	67.48
403.218	79.11
403.663	72.29
404.107	72.16
404.551	75.71
404.995	68.59
405.44	62.9
405.884	63.18
406.328	57.48
406.772	52.14
407.216	51.96
407.66	47.48
408.104	33.23
408.547	33.19
408.991	34.06
409.435	29.84
409.879	30.35
410.322	28.74
410.766	29.45
411.209	31.44
411.653	32.67
412.096	34.56
412.54	34.45
412.983	37.16
413.426	39.97
413.869	37.53
414.312	41.59
414.756	41.45
415.199	43.85
415.642	43.96
416.085	44.66
416.527	45.29
416.97	43.44
417.413	44.2
417.856	42.33
418.298	42.16
418.741	40.21
419.184	36.98
419.626	31.92
420.069	29.95
420.511	30.8
420.953	32.13
421.396	32.12
421.838	30.62
422.28	30.75
422.722	35.19
423.164	33.1
423.606	35.65
424.048	36.82
424.49	39.54
424.932	37.74
425.374	35.48
425.816	32.84
426.258	32.2
426.699	34.1
427.141	35.24
427.582	31.07
428.024	29.39
428.465	25.57
428.907	23.63
429.348	23.75
429.789	26.7
430.231	28.02
430.672	29.32
431.113	28.62
431.554	27.62
431.995	25.69
432.436	29.59
432.877	32.52
433.318	36.97
433.759	35.11
434.2	33.49
434.64	31.05
435.081	31.09
435.522	30.54
435.962	30.91
436.403	31.1
436.843	29.66
437.284	25.96
437.724	22.73
438.164	19.9
438.604	22.65
439.045	24.59
439.485	27.08
439.925	26.69
440.365	24.62
440.805	22.92
441.245	23.62
441.685	24.53
442.125	24.84
442.564	24.99
443.004	24.82
443.444	24.18
443.883	24.54
444.323	22.02
444.762	18.24
445.202	18.82
445.641	22.27
446.081	19.34
446.52	18.21
446.959	18.13
447.398	18.42
447.837	18.22
448.276	17
448.716	17.53
449.154	16.63
449.593	19.77
450.032	19.73
450.471	17.06
450.91	16.74
451.349	19.14
451.787	18.68
452.226	18.33
452.664	18.24
453.103	18.74
453.541	15.93
453.98	18.29
454.418	17.51
454.856	18.28
455.295	19.13
455.733	21.09
456.171	19.5
456.609	20.37
457.047	20.76
457.485	21.96
457.923	22.95
458.361	24.12
458.798	23.66
459.236	23.87
459.674	23.82
460.111	23.43
460.549	23.82
460.987	22.9
461.424	22.1
461.862	22.95
462.299	22.88
462.736	23.32
463.173	22.61
463.611	24.13
464.048	24.51
464.485	24.76
464.922	24.2
465.359	23.23
465.796	30.67
466.233	31.66
466.67	32.74
467.106	33.88
467.543	32.08
467.98	30.71
468.416	29.01
468.853	27.79
469.29	26.84
469.726	26.33
470.162	24.26
470.599	18.97
471.035	17.73
471.471	15.71
471.907	13.26
472.344	13.67
472.78	15.03
473.216	13.89
473.652	14.66
474.088	13.76
474.523	14.47
474.959	14.79
475.395	14.27
475.831	14.73
476.266	15.77
476.702	15.79
477.138	16.11
477.573	15.53
478.008	15.57
478.444	16.18
478.879	17.55
479.314	18.01
479.75	18.19
480.185	18.01
480.62	17.52
481.055	16.86
481.49	17.14
481.925	16.83
482.36	18.41
482.795	17.88
483.229	16.76
483.664	15.85
484.099	15.73
484.534	16.74
484.968	17.3
485.403	17.23
485.837	16.28
486.271	16.1
486.706	15.9
487.14	14.75
487.574	15.48
488.009	15.14
488.443	15.32
488.877	15.29
489.311	14.28
489.745	14
490.179	14.17
490.613	15.77
491.046	15.37
491.48	15.9
491.914	15.81
492.348	15.49
492.781	16.02
493.215	15.68
493.648	14.83
494.082	15.09
494.515	15.45
494.948	16.46
495.382	15.41
495.815	15.92
496.248	15.94
496.681	15.79
497.114	15
497.547	15.39
497.98	16.52
498.413	18.05
498.846	18.9
499.279	17.99
499.711	17
500.144	16.82
500.577	17.86
501.009	17.3
501.442	18.4
501.874	19.45
502.306	18.49
502.739	20.14
503.171	19.37
503.603	19.05
504.036	19.25
504.468	19.53
504.9	20.02
505.332	19.55
505.764	19.81
506.196	19.53
506.627	19.77
507.059	20.27
507.491	17.95
507.923	18.31
508.354	19.25
508.786	19.66
509.217	19.97
509.649	19.73
510.08	19.12
510.512	19.83
510.943	19.94
511.374	20.09
511.805	19.75
512.237	19.38
512.668	18.82
513.099	17.86
513.53	17.68
513.961	17.66
514.391	17.97
514.822	19.58
515.253	19.46
515.684	19.23
516.114	18.73
516.545	19.33
516.975	19.57
517.406	19.12
517.836	18.54
518.267	18.51
518.697	18.82
519.127	18.47
519.558	17.29
519.988	17.42
520.418	16.96
520.848	16.48
521.278	15.94
521.708	34.54
522.138	35.46
522.567	35.17
522.997	35.24
523.427	34.96
523.857	35.2
524.286	35.27
524.716	35.23
525.145	36.04
525.575	36.88
526.004	36.58
526.433	18.8
526.863	18.52
527.292	19.93
527.721	20.5
528.15	20.3
528.579	20.88
529.008	21.18
529.437	20.19
529.866	19.33
530.295	18.57
530.724	19.39
531.152	19.28
531.581	19.92
532.01	19.41
532.438	18.57
532.867	18.35
533.295	18.56
533.723	18.35
534.152	18.9
534.58	19.58
535.008	20.24
535.436	21.08
535.865	20.72
536.293	19.46
536.721	19.37
537.149	20.2
537.576	21.02
538.004	20.56
538.432	20.11
538.86	20.87
539.287	20.44
539.715	20.52
540.143	19.28
540.57	20.1
540.998	20.44
541.425	22.17
541.852	21.61
542.28	21.26
542.707	20.69
543.134	21.47
543.561	20.94
543.988	21.3
544.415	20.48
544.842	20.73
545.269	20.39
545.696	21.44
546.123	20.54
546.549	20.74
546.976	20.98
547.403	21.77
547.829	20.66
548.256	20.79
548.682	20.71
549.108	21.69
549.535	21.47
549.961	20.92
550.387	20.26
550.813	20.95
551.24	21.15
551.666	20.74
552.092	20.88
552.518	21.32
552.943	21.39
553.369	21.24
553.795	21.45
554.221	21.59
554.646	21.93
555.072	23.34
555.498	21.96
555.923	21.15
556.349	20.89
556.774	20.11
557.199	19.85
557.625	19.1
558.05	18.85
558.475	17.88
558.9	17.84
559.325	18.62
559.75	18.05
560.175	18.07
560.6	18.95
561.025	18.95
561.449	19.4
561.874	19.66
562.299	20.23
562.723	20.27
563.148	20.94
563.572	20.75
563.997	20.31
564.421	19.18
564.846	18.75
565.27	18.67
565.694	18.59
566.118	18.58
566.542	19.31
566.966	19.59
567.39	19.86
567.814	19.77
568.238	20.15
568.662	19.47
569.086	19.82
569.509	19.8
569.933	20.38
570.357	20.41
570.78	20.11
571.204	20.62
571.627	20.44
572.05	20.52
572.474	21.62
572.897	21.18
573.32	22.21
573.743	21.84
574.166	22.58
574.589	21.07
575.012	21.32
575.435	20.78
575.858	20.27
576.281	19.9
576.704	19.6
577.126	18.02
577.549	17.81
577.972	16.75
578.394	17.19
578.817	18.26
579.239	18.86
579.661	18.63
580.084	20.09
580.506	19.81
580.928	19.95
581.35	19.89
581.772	20.27
582.194	20.71
582.616	20.76
583.038	19.93
583.46	18.46
583.882	18.44
584.303	17.63
584.725	16.73
585.147	20.11
585.568	20.6
585.99	21.08
586.411	21.48
586.833	21.69
587.254	21.78
587.675	22.1
588.096	22.64
588.518	22.37
588.939	23.48
589.36	23.93
589.781	19.67
590.202	21.5
590.623	21.3
591.043	20.53
591.464	20.6
591.885	21.27
592.305	21
592.726	19.77
593.147	19.77
593.567	19.51
593.987	18.97
594.408	18.61
594.828	15.92
595.248	16.64
595.669	17.1
596.089	16.6
596.509	15.6
596.929	15.45
597.349	16.73
597.769	17.22
598.189	17.26
598.608	16.88
599.028	17.12
599.448	16.57
599.867	16.03
600.287	15.22
600.706	15.79
601.126	16.59
601.545	17.44
601.965	16.37
602.384	15.78
602.803	15.89
603.222	16.33
603.641	16.45
604.061	17.39
604.48	16.79
604.898	17.37
605.317	16.9
605.736	16.48
606.155	16.38
606.574	16.99
606.992	16.69
607.411	16.46
607.829	15.59
608.248	15.14
608.666	14.62
609.085	14.94
609.503	14.66
609.921	15.23
610.339	15.32
610.758	14.74
611.176	14.45
611.594	15.1
612.012	14.97
612.43	15.93
612.847	16.13
613.265	17
613.683	16.99
614.101	17.07
614.518	16.36
614.936	16
615.353	16.08
615.771	16.52
616.188	16.69
616.606	17.07
617.023	16.9
617.44	17.29
617.857	16.07
618.274	15.75
618.691	16.34
619.108	16.01
619.525	16.25
619.942	16.73
620.359	16.11
620.776	16.58
621.192	16.51
621.609	17.26
622.026	16.97
622.442	17.88
622.859	17.35
623.275	16.94
623.691	17.11
624.108	17.68
624.524	17.35
624.94	18.09
625.356	16.8
625.772	16.58
626.188	15.61
626.604	15.45
627.02	15.2
627.436	16.46
627.852	17.24
628.268	17.67
628.683	16.57
629.099	16.45
629.514	15.94
629.93	16.23
630.345	15.88
630.761	16.01
631.176	15.72
631.591	16.62
632.007	16.11
632.422	14.41
632.837	13.49
633.252	14.72
633.667	14.74
634.082	14.67
634.497	15.12
634.911	16.88
635.326	16.66
635.741	17.19
636.155	16.3
636.57	17.28
636.984	18.02
637.399	19.79
637.813	18.85
638.228	18.77
638.642	18.5
639.056	18.14
639.47	17.39
639.884	17.83
640.298	17.99
640.712	18.53
641.126	18.25
641.54	17.95
641.954	15.85
642.368	16.06
642.781	18.61
643.195	18.72
643.609	18.95
644.022	18.59
644.436	17.73
644.849	17.29
645.262	15.97
645.676	14.59
646.089	14.71
646.502	16.5
646.915	16.3
647.328	14.95
647.741	15.45
648.154	15.13
648.567	16.74
648.98	17.2
649.393	17.49
649.805	18.5
650.218	18.7
650.631	19.44
651.043	18.86
651.456	19.13
651.868	18.6
652.28	17.73
652.693	17.98
653.105	16.79
653.517	16.8
653.929	16.53
654.341	16.46
654.753	17.31
655.165	16.36
655.577	17.36
655.989	16.87
656.401	16.03
656.813	17.64
657.224	17.08
657.636	15.86
658.047	16.29
658.459	16.82
658.87	15.55
659.282	14.93
659.693	15.49
660.104	15.55
660.515	16.02
660.926	15.44
661.338	14.8
661.749	14.46
662.159	15.4
662.57	14.42
662.981	13.54
663.392	14.52
663.803	14.6
664.213	14.53
664.624	13.62
665.035	12.39
665.445	12.81
665.855	12.75
666.266	13.84
666.676	14.21
667.086	14.27
667.497	15.23
667.907	15.38
668.317	15.45
668.727	17.47
669.137	16.89
669.547	17.95
669.956	17.99
670.366	18.19
670.776	18.15
671.186	17.52
671.595	18.55
672.005	17.47
672.414	17.24
672.824	18.09
673.233	15.73
673.642	15.96
674.052	16.01
674.461	16.98
674.87	16.6
675.279	17.16
675.688	15.77
676.097	15.18
676.506	15.71
676.915	15.91
677.323	16.05
677.732	16.35
678.141	15.97
678.549	16.38
678.958	15.39
679.366	15.21
679.775	13.18
680.183	15.64
680.592	15.61
681	16.26
681.408	15.3
681.816	14.89
682.224	13.98
682.632	15.78
683.04	15.36
683.448	15.65
683.856	16.28
684.264	19.11
684.671	17.68
685.079	18.26
685.487	17.48
685.894	18.21
686.302	16.99
686.709	18.46
687.116	17.17
687.524	17.71
687.931	18.61
688.338	19.15
688.745	17.5
689.152	17.24
689.559	18.13
689.966	19.72
690.373	20.62
690.78	21.68
691.187	21.52
691.593	22.56
692	21.93
692.407	21.76
692.813	24.1
693.22	24.87
693.626	23.68
694.032	23.31
694.439	23.3
694.845	22.8
695.251	22.36
695.657	22.98
696.063	21.21
696.469	21.01
696.875	21.21
697.281	18.96
697.687	18.68
698.093	19.33
698.498	20.11
698.904	18.97
699.31	18.91
699.715	21.87
700.12	21.18
700.526	22.01
700.931	22.37
701.337	22.34
701.742	22.3
702.147	22.19
702.552	22.43
702.957	20.62
703.362	20.82
703.767	20.09
704.172	17.66
704.577	17.24
704.981	16.48
705.386	16.95
705.791	16.78
706.195	15.65
706.6	15.23
707.004	15.09
707.408	15.31
707.813	16.33
708.217	17.37
708.621	17.04
709.025	16.86
709.43	19.47
709.834	19.74
710.237	20.2
710.641	20.84
711.045	21.8
711.449	23.62
711.853	26.13
712.256	24.89
712.66	25.27
713.064	26.61
713.467	27.95
713.87	26.18
714.274	26.71
714.677	27.89
715.08	28.41
715.484	28.36
715.887	29.84
716.29	27.86
716.693	29.62
717.096	30.12
717.499	29.77
717.901	28.14
718.304	28.54
718.707	27.48
719.109	25.23
719.512	24.77
719.915	26.75
720.317	25.2
720.719	24.12
721.122	24.42
721.524	23.96
721.926	26.89
722.328	28.85
722.731	28.25
723.133	28.09
723.535	28.63
723.937	29.4
724.338	29.63
724.74	30.61
725.142	75.27
725.544	77.66
725.945	89.16
726.347	86.85
726.748	86.3
727.15	87.25
727.551	90.77
727.952	89.4
728.354	87.42
728.755	85.98
729.156	84
729.557	41.26
729.958	37.63
730.359	25.77
730.76	24.08
731.161	24.08
731.562	23.11
731.962	20.1
732.363	20.44
732.763	20.78
733.164	18.45
733.564	19.17
733.965	20.65
734.365	21.4
734.766	22.64
735.166	22.4
735.566	23.13
735.966	24.01
736.366	24.18
736.766	24.68
737.166	24.03
737.566	25.7
737.966	24.96
738.365	25.26
738.765	25.77
739.165	24.74
739.564	25.86
739.964	24.52
740.363	23.45
740.763	22.2
741.162	23.39
741.561	24.06
741.96	23.85
742.36	23.42
742.759	22.57
743.158	21
743.557	20.73
743.955	20.67
744.354	20.64
744.753	20.58
745.152	21.66
745.55	19.9
745.949	20.38
746.348	20.89
746.746	20.44
747.144	21.56
747.543	20.51
747.941	20.68
748.339	19.98
748.737	20.88
749.136	21.51
749.534	20.2
749.932	22.55
750.33	21.28
750.727	20.37
751.125	21.75
751.523	20.45
751.921	24.35
752.318	25.36
752.716	27.16
753.113	27.4
753.511	27.5
753.908	28.74
754.305	30.73
754.703	32.91
755.1	34.98
755.497	35.17
755.894	36.42
756.291	34.65
756.688	36.35
757.085	36.03
757.482	38.35
757.878	42.69
758.275	47.41
758.672	45.33
759.068	46.39
759.465	45.97
759.861	48.81
760.258	50.31
760.654	54.01
761.05	54.6
761.447	55.35
761.843	52.07
762.239	48.8
762.635	42.6
763.031	39.72
763.427	37.24
763.822	38.01
764.218	36.39
764.614	35.63
765.01	32.48
765.405	29.3
765.801	29.26
766.196	28.17
766.592	27.4
766.987	28.19
767.382	28.88
767.778	29.67
768.173	28.5
768.568	27.94
768.963	28.16
769.358	28.69
769.753	30.38
770.148	30.62
770.542	30.9
770.937	29.99
771.332	30.76
771.726	29.78
772.121	33.05
772.515	32.9
772.91	32.87
773.304	32.99
773.699	33.41
774.093	33.07
774.487	33.79
774.881	33.87
775.275	33.96
775.669	32.77
776.063	33.47
776.457	30.85
776.851	30.64
777.245	32.38
777.638	32.11
778.032	32.45
778.425	33.27
778.819	34.79
779.212	37.85
779.606	40.33
779.999	41.57
780.392	44.07
780.786	43.79
781.179	45.11
781.572	45.23
781.965	45.82
782.358	45.84
782.751	44.9
783.143	42.35
783.536	41.42
783.929	39.11
784.322	40.3
784.714	38.47
785.107	38.56
785.499	40.59
785.891	42.28
786.284	42.3
786.676	42.22
787.068	44.25
787.46	45.27
787.852	43.15
788.245	42.58
788.636	40.55
789.028	42.48
789.42	43.85
789.812	43.39
790.204	42.43
790.595	44.83
790.987	45.49
791.378	45.01
791.77	44.26
792.161	45.81
792.553	47.52
792.944	46.43
793.335	43.36
793.726	44
794.117	44.88
794.508	43.41
794.899	41.75
795.29	41.49
795.681	39.65
796.072	38.99
796.463	54.26
796.853	59.51
797.244	60.49
797.634	62.22
798.025	60.68
798.415	57.68
798.806	60.58
799.196	62.08
799.586	65.6
799.976	66.45
800.366	68.02
800.756	50.67
801.146	47.25
801.536	47.84
801.926	46.22
802.316	48.04
802.706	51.75
803.095	50.11
803.485	48.52
803.874	44
804.264	45.9
804.653	46.22
805.043	49.7
805.432	51.85
805.821	53.21
806.21	54.66
806.599	52.31
806.988	50.86
807.377	48.34
807.766	45.95
808.155	47.61
808.544	44.74
808.933	44.78
809.321	43.64
809.71	39.26
810.098	37.98
810.487	37.04
810.875	37.36
811.264	37.15
811.652	50.79
812.04	54.28
812.428	55.81
812.816	58.05
813.204	60.06
813.592	57.49
813.98	59.06
814.368	64.21
814.756	68.85
815.144	69.38
815.531	70.57
815.919	58.54
816.306	60.77
816.694	60.16
817.081	63.55
817.469	64.72
817.856	66.24
818.243	64.28
818.63	59.48
819.017	57.16
819.404	60.74
819.791	61.16
820.178	56.85
820.565	57.48
820.952	65.08
821.339	63.44
821.725	62.07
822.112	64.37
822.498	65.49
822.885	64.65
823.271	64.64
823.657	60.82
824.044	61.23
824.43	64.65
824.816	72.26
825.202	68.89
825.588	68.05
825.974	71.52
826.36	70.43
826.746	68.37
827.132	69.43
827.517	72.08
827.903	69.08
828.289	72.81
828.674	71.58
829.06	65.84
829.445	61.97
829.83	59.67
830.216	56.09
830.601	60.45
830.986	69.91
831.371	73.03
831.756	74.14
832.141	82.53
832.526	82.67
832.911	85.51
833.295	83.88
833.68	84.93
834.065	87.67
834.449	85.09
834.834	82.63
835.218	78.37
835.603	78.13
835.987	71.6
836.371	70.57
836.755	69.47
837.139	64.42
837.524	60.71
837.908	58.91
838.291	60.7
838.675	58.58
839.059	58.6
839.443	57.44
839.827	55.24
840.21	56.17
840.594	53.57
840.977	53.53
841.361	55.28
841.744	56.11
842.127	56.37
842.511	57.34
842.894	57.3
843.277	56.92
843.66	53.63
844.043	55.63
844.426	60.85
844.809	56.25
845.191	58.29
845.574	57.62
845.957	58.16
846.339	61.32
846.722	59.27
847.104	59.31
847.487	54.02
847.869	57.17
848.252	56.31
848.634	52.16
849.016	50.07
849.398	45.07
849.78	47.11
850.162	49.16
850.544	47.49
850.926	43.15
851.307	43.34
851.689	46.12
852.071	42.25
852.452	45.27
852.834	47.95
853.215	55.59
853.597	57.21
853.978	60.77
854.359	63.41
854.741	63.14
855.122	62.51
855.503	61.06
855.884	64.1
856.265	69.96
856.646	65.46
857.026	65.73
857.407	67.72
857.788	66.3
858.169	59.73
858.549	59.93
858.93	61.88
859.31	70.23
859.69	77.95
860.071	75.26
860.451	69.44
860.831	71.74
861.211	68.43
861.591	65.98
861.971	67.88
862.351	70.93
862.731	62.93
863.111	62.93
863.491	62.24
863.87	57.42
864.25	56.86
864.629	69.74
865.009	66.99
865.388	76.96
865.768	77.24
866.147	78.75
866.526	80.47
866.905	87.05
867.284	85.78
867.663	76.98
868.042	73.72
868.421	74.84
868.8	61.89
869.179	65.83
869.558	61.29
869.936	62.27
870.315	57.51
870.693	57.64
871.072	54.98
871.45	51.99
871.828	55.42
872.207	61.62
872.585	63.9
872.963	67.65
873.341	74.39
873.719	78.14
874.097	74.43
874.475	75.41
874.853	74.38
875.23	74.5
875.608	82.8
875.986	85.48
876.363	80.82
876.741	86.33
877.118	92.23
877.495	87.48
877.873	79.98
878.25	81.34
878.627	83.54
879.004	88.78
879.381	87.73
879.758	86.27
880.135	84.29
880.512	86.76
880.889	73.18
881.265	67.77
881.642	58.87
882.019	60.04
882.395	69.56
882.772	77.01
883.148	71.99
883.524	74.35
883.901	72.1
884.277	68.46
884.653	68.71
885.029	81.15
885.405	95.14
885.781	103.7
886.157	100.51
886.532	93.56
886.908	87.15
887.284	99.47
887.659	105.09
888.035	105.74
888.411	106.02
888.786	106.34
889.161	102.18
889.537	91.15
889.912	90.8
890.287	89.95
890.662	88.3
891.037	79.99
891.412	68.05
891.787	60.5
892.162	66.29
892.536	71.39
892.911	70.73
893.286	70.18
893.66	68.25
894.035	69.43
894.409	68.33
894.784	70.55
895.158	77.45
895.532	81.84
895.906	87.83
896.281	84.64
896.655	90.43
897.029	99.92
897.402	101.98
897.776	108.86
898.15	110.86
898.524	115.21
898.898	113.2
899.271	127.21
899.645	124.22
900.018	117.42
900.392	125.6
900.765	119.51
901.138	118.71
901.511	105.84
901.884	111.96
902.258	104.8
902.631	111.28
903.003	122.62
903.376	106.56
903.749	106.13
904.122	105.57
904.495	96.47
904.867	84.9
905.24	72.63
905.612	75.19
905.985	62.57
906.357	63.75
906.729	68.24
907.102	72.44
907.474	74.98
907.846	80.43
908.218	81.95
908.59	88.22
908.962	92.67
909.334	100.2
909.705	111.49
910.077	113.29
910.449	113.54
910.82	122.54
911.192	132.65
911.563	146.65
911.935	141.81
912.306	146.36
912.677	141.47
913.048	145.45
913.419	139.39
913.79	131.3
914.161	129.75
914.532	141.24
914.903	121.01
915.274	117.49
915.645	110.03
916.015	97.16
916.386	95.26
916.756	105.09
917.127	98.03
917.497	100.99
917.868	119.68
918.238	119.16
918.608	105.09
918.978	97.08
919.348	91.23
919.718	87.54
920.088	101.12
920.458	107.34
920.828	101.88
921.198	101.46
921.567	100.77
921.937	81.42
922.306	72.76
922.676	79.49
923.045	95.92
923.415	97.55
923.784	90.81
924.153	92.99
924.522	99.46
924.891	90.67
925.26	95.12
925.629	91.76
925.998	93.78
926.367	97.64
926.736	110.61
927.104	108.8
927.473	106.7
927.842	117.44
928.21	109.98
928.578	81.68
928.947	86.98
929.315	96.9
929.683	133.51
930.051	139.88
930.42	166.05
930.788	141.84
931.156	142.86
931.523	173.51
931.891	178
932.259	198.09
932.627	259.5
932.994	374.26
933.362	321.55
933.729	283.26
934.097	283.69
934.464	258.24
934.831	280.93
935.199	276.04
935.566	253.09
935.933	221.14
936.3	253.59
936.667	200.89
937.034	249.31
937.401	259.72
937.767	233.75
938.134	195.3
938.501	245.9
938.867	299.34
939.234	495.54
939.6	406.64
939.967	546.06
940.333	385.59
940.699	320.25
941.065	182.46
941.431	230.84
941.798	255.31
942.163	409.55
942.529	258.59
942.895	210.19
943.261	147.22
943.627	196.6
943.992	170.85
944.358	157.63
944.723	189.43
945.089	210.82
945.454	199.21
945.82	180.94
946.185	147.74
946.55	182.99
946.915	162.84
947.28	201.06
947.645	172.25
948.01	184.23
948.375	206.01
948.74	228.26
949.104	211.57
949.469	215.88
949.834	405.46
950.198	549.41
950.562	361.45
950.927	327.13
951.291	370.17
951.655	319.84
952.02	245.87
952.384	180.92
952.748	166.1
953.112	218.61
953.476	208.2
953.839	182.89
954.203	170.26
954.567	184.8
954.931	231.98
955.294	203.82
955.658	195.77
956.021	339.56
956.385	504.46
956.748	733.93
957.111	671.6
957.474	551.32
957.837	664.22
958.2	324.4
958.563	137.85
958.926	147.3
959.289	171.51
959.652	244.54
960.015	189.87
960.377	299.34
960.74	265.38
961.102	432.28
961.465	727.76
961.827	735.07
962.189	1408.97
962.552	1026.26
962.914	843.69
963.276	544.32
963.638	440.48
964	414.07
964.362	278.76
964.724	260.87
965.085	221.96
965.447	177.82
965.809	125.1
966.17	125.26
966.532	121.28
966.893	111.8
967.255	113.91
967.616	109.77
967.977	99.81
968.338	113.71
968.699	113.52
969.061	111.29
969.421	124.58
969.782	129.86
970.143	128.65
970.504	169.45
970.865	204.55
971.225	227.37
971.586	232.5
971.946	311.98
972.307	267.02
972.667	318.55
973.027	312.07
973.388	355.25
973.748	265.32
974.108	275.56
974.468	281.03
974.828	256.46
975.188	188.4
975.548	176.78
975.907	158.14
976.267	170.55
976.627	166.83
976.986	173.02
977.346	153.58
977.705	151.54
978.064	132.7
978.424	116.51
978.783	87.47
979.142	92.61
979.501	108.75
979.86	122.06
980.219	111.3
980.578	111.22
980.937	104.08
981.296	114.7
981.654	112.33
982.013	144.42
982.371	253.96
982.73	249.99
983.088	286.41
983.447	281.27
983.805	429.98
984.163	987.6
984.521	1216.31
984.879	1889.92
985.237	-3114.22
985.595	3330.51
985.953	803.88
986.311	350.29
986.669	226.98
987.026	199.98
987.384	216.36
987.741	211.73
988.099	216.52
988.456	181.58
988.814	180.82
989.171	154.75
989.528	117.17
989.885	138.53
990.242	135.92
990.599	127.52
990.956	105.11
991.313	93.27
991.67	88.39
992.027	121.07
992.383	108.18
992.74	106.9
993.096	121.04
993.453	134.02
993.809	136.3
994.165	173.05
994.522	216.42
994.878	236.8
995.234	299.13
995.59	284.93
995.946	198.05
996.302	242.5
996.658	276.3
997.013	257.47
997.369	334.45
997.725	436.71
998.08	301.93
998.436	315.88
998.791	451.09
999.147	401.08
999.502	434.92
999.857	353.86
1000.212	554.9
1000.567	650.95
1000.922	481.17
1001.277	308.67
1001.632	272.02
1001.987	308.3
1002.342	235.43
1002.696	211.96
1003.051	215.5
1003.406	280.51
1003.76	299.27
1004.114	304.82
1004.469	294.79
1004.823	237.57
1005.177	244.54
1005.531	195.41
1005.885	195.65
1006.239	237.2
1006.593	304.71
1006.947	369.85
1007.301	250.44
1007.655	253.6
1008.008	178.27
1008.362	194.71
1008.715	287.69
1009.069	270.09
1009.422	475.43
1009.776	876.77
1010.129	543.62
1010.482	387.59
1010.835	305.38
1011.188	703.14
1011.541	642.65
1011.894	-4010.73
1012.247	11793.71
1012.6	779.37
1012.952	508.7
1013.305	196.25
1013.657	179.58
1014.01	159.7
1014.362	144.14
1014.715	176.86
1015.067	169.75
1015.419	172.41
1015.771	175.9
1016.123	174.76
1016.475	183.63
1016.827	186.79
1017.179	219.68
1017.531	193.89
1017.883	199.86
1018.234	232.25
1018.586	268.44
1018.938	295.55
1019.289	392.06
1019.64	392.37
1019.992	322.68
1020.343	302.99
1020.694	289.67
1021.045	231.38
1021.396	290.46
1021.747	348.97
1022.098	355.09
1022.449	265.94
1022.8	243.72
1023.151	184.7
1023.501	176.26
1023.852	177.4
1024.202	196.59
1024.553	195.69
1024.903	219.69
1025.253	209.54
1025.604	197.47
1025.954	234.51
1026.304	269.14
1026.654	329.46
1027.004	432.02
1027.354	673.63
1027.703	734.94
1028.053	788.25
1028.403	1121.46
1028.753	1411.86
1029.102	1308.19
1029.452	4177.87
1029.801	163.18
1030.15	95.21
1030.499	-6.13
897.758	1559.09
901.051	1502.91
904.343	1531.27
907.636	1533.82
910.928	1577.03
914.22	1522.13
917.511	1526.15
920.803	1559.99
924.094	1551.16
927.384	1555.57
930.675	1530.02
933.965	1507.47
937.255	1533.12
940.544	1511.48
943.834	1508.22
947.123	1466.95
950.411	1527.95
953.7	1517.98
956.988	1506.8
960.276	1456.5
963.563	1485.42
966.851	1492.45
970.138	1518.25
973.424	1519.81
976.711	1483.29
979.997	1517
983.283	1545.36
986.568	1501.32
989.853	1487.62
993.138	1503.59
996.423	1570.67
999.708	1544.07
1002.992	1561.92
1006.275	1500.44
1009.559	1501.33
1012.842	1568.33
1016.125	1537.88
1019.408	1521.99
1022.69	1556.47
1025.972	1579.74
1029.254	1562.66
1032.536	1538.38
1035.817	1541.01
1039.098	1521.29
1042.379	1553.61
1045.659	1569.25
1048.939	1534.36
1052.219	1533.66
1055.498	1528.02
1058.778	1520.1
1062.057	1505.2
1065.335	1522.26
1068.614	1526.95
1071.892	1518.89
1075.17	1555.99
1078.447	1557.86
1081.724	1555.2
1085.001	1568.63
1088.278	1553.37
1091.554	1554.15
1094.83	1553.94
1098.106	1575.55
1101.382	1595.03
1104.657	1590.99
1107.932	1593.03
1111.206	1574.81
1114.481	1541.89
1117.755	1543.5
1121.029	1538.66
1124.302	1579.36
1127.575	1559.4
1130.848	1558.25
1134.121	1540.72
1137.393	1510.37
1140.665	1551.99
1143.937	1537.22
1147.208	1503.05
1150.48	1542.05
1153.75	1532.58
1157.021	1534.36
1160.291	1518.33
1163.561	1551.81
1166.831	1526.93
1170.101	1540.84
1173.37	1514.47
1176.639	1487.17
1179.907	1519.11
1183.176	1531.33
1186.444	1535.26
1189.711	1551.01
1192.979	1568.35
1196.246	1538.49
1199.513	1550.03
1202.78	1552.78
1206.046	1559.31
1209.312	1579.58
1212.578	1586.64
1215.843	1561.41
1219.108	1547.37
1222.373	1558.79
1225.638	1543.1
1228.902	1533.69
1232.166	1509.96
1235.43	1499.99
1238.693	1521.37
1241.956	1516.64
1245.219	1552.34
1248.482	1542.12
1251.744	1543.27
1255.006	1618.39
1258.268	1584.85
1261.529	1559.28
1264.79	1557.5
1268.051	1618.6
1271.312	1627.1
1274.572	1602.49
1277.832	1596.17
1281.092	1579.28
1284.351	1575.95
1287.61	1566.59
1290.869	1525.66
1294.128	1525.3
1297.386	1550.56
1300.644	1548.63
1303.902	1556.26
1307.159	1465.52
1310.416	1500.38
1313.673	1515.63
1316.93	1519.62
1320.186	1536.49
1323.442	1555.96
1326.697	1558.84
1329.953	1540.79
1333.208	1567.5
1336.463	1551.29
1339.717	1528.85
1342.972	1602.24
1346.226	1583.55
1349.479	1558.13
1352.733	1541
1355.986	1550.42
1359.238	1538.92
1362.491	1542.37
1365.743	1542.09
1368.995	1538.96
1372.247	1548.12
1375.498	1558.45
1378.749	1588.74
1382	1559.12
1385.251	1577.75
1388.501	1551.35
1391.751	1547.99
1395	1531.68
1398.25	1547.79
1401.499	1569.19
1404.748	1535.99
1407.996	1526.47
1411.244	1523.33
1414.492	1514.28
1417.74	1503.83
1420.987	1510.65
1424.234	1550.88
1427.481	1525.68
1430.728	1560.52
1433.974	1546.99
1437.22	1543.46
1440.465	1538.39
1443.711	1541.16
1446.956	1552.5
1450.201	1534.56
1453.445	1563.99
1456.689	1553.31
1459.933	1559.66
1463.177	1587.79
1466.42	1571.8
1469.663	1558.14
1472.906	1569.21
1476.148	1602.25
1479.391	1570.67
1482.633	1558.5
1485.874	1573.16
1489.115	1578.81
1492.356	1566.55
1495.597	1549.91
1498.838	1542.92
1502.078	1534.45
1505.318	1519.34
1508.557	1537.06
1511.797	1533.87
1515.036	1572.15
1518.274	1545.29
1521.513	1506.76
1524.751	1512.21
1527.989	1526.89
1531.227	1540.54
1534.464	1544.62
1537.701	1539.48
1540.938	1543.81
1544.174	1510.46
1547.41	1499.41
1550.646	1523.21
1553.882	1553.7
1557.117	1595.42
1560.352	1599.52
1563.587	1571.77
1566.821	1551.21
1570.055	1564.19
1573.289	1544.08
1576.523	1580.92
1579.756	1587.25
1582.989	1603.24
1586.222	1574.08
1589.454	1596.71
1592.686	1587.08
1595.918	1604.19
1599.15	1600.48
1602.381	1631
1605.612	1619.88
1608.843	1681.16
1612.073	1628.72
1615.303	1623.12
1618.533	1621.96
1621.762	1619.87
1624.992	1599.29
1628.221	1598.58
1631.449	1589.71
1634.678	1607.84
1637.906	1582.52
1641.134	1596.56
1644.361	1574.73
1647.588	1568.51
1650.815	1586.41
1654.042	1559.1
1657.269	1576.57
1660.495	1566.1
1663.72	1554.77
1666.946	1535.83
1670.171	1523.62
1673.396	1504.73
1676.621	1495.24
1679.845	1492.98
1683.069	1496.17
1686.293	1512.14
1689.517	1507.88
1692.74	1480.69
1695.963	1494.31
1699.185	1521.08
1702.408	1502.93
1705.63	1520.77
1708.852	1534.1
1712.073	1511.83
1715.294	1523.85
1718.515	1556.01
1721.736	1527.61
1724.956	1518.01
1728.176	1534.08
1731.396	1546.58
1734.616	1542.02
1737.835	1572.33
1741.054	1549.57
1744.272	1547.61
1747.491	1576.64
1750.709	1588.34
1753.927	1558.34
1757.144	1576.92
1760.361	1614.76
1763.578	1594.98
1766.795	1561.82
1770.011	1552.95
1773.227	1565.57
1776.443	1596.26
1779.658	1621.46
1782.874	1584.4
1786.089	1580.21
1789.303	1579.79
1792.518	1577.48
1795.732	1572.3
1798.945	1581.3
1802.159	1610.81
1805.372	1573.93
1808.585	1571
1811.797	1570.45
1815.01	1588.66
1818.222	1608.09
1821.434	1579.26
1824.645	1606
1827.856	1614.58
1831.067	1630.35
1834.278	1591.73
1837.488	1581.41
1840.698	1662.84
1843.908	1630.3
1847.117	1612.51
1850.326	1564.14
1853.535	1602.46
1856.744	1630.39
1859.952	1580.29
1863.16	1582.9
1866.368	1598.81
1869.575	1677.31
1872.782	1599.83
1875.989	1558.23
1879.196	1589.92
1882.402	1585.7
1885.608	1606.9
1888.814	1571.56
1892.019	1513.37
1895.224	1553.59
1898.429	1530.45
1901.634	1518.51
1904.838	1505.64
1908.042	1546.13
1911.246	1558.49
1914.449	1535.63
1917.652	1521.77
1920.855	1508.98
1924.058	1522.69
1927.26	1557.92
1930.462	1569.89
1933.664	1598.1
1936.865	1561.97
1940.066	1569.87
1943.267	1532.16
1946.467	1538.34
1949.668	1549.21
1952.868	1598.72
1956.067	1598.23
1959.267	1555.54
1962.466	1571.89
1965.665	1557.21
1968.863	1554.76
1972.061	1551.24
1975.259	1546.67
1978.457	1599.76
1981.654	1569.24
1984.852	1569.38
1988.048	1541.7
1991.245	1529.07
1994.441	1592.75
1997.637	1556.38
2000.833	1548.84
2004.028	1571.89
2007.223	1620.65
2010.418	1609.85
2013.613	1573.32
2016.807	1573.18
2020.001	1570.77
2023.194	1580.9
2026.388	1569.74
2029.581	1532.43
2032.774	1580.17
2035.966	1583
2039.158	1546.31
2042.35	1558.11
2045.542	1507.76
2048.733	1561.38
2051.924	1550.11
2055.115	1557.27
2058.306	1538.56
2061.496	1574.46
2064.686	1605.79
2067.875	1537.79
2071.065	1539.09
2074.254	1552.53
2077.442	1519.35
2080.631	1577.04
2083.819	1537.95
2087.007	1533.26
2090.195	1524.88
2093.382	1529.67
2096.569	1523.64
2099.756	1497.78
2102.942	1538
2106.128	1545.59
2109.314	1537.86
2112.5	1531.78
2115.685	1507.62
2118.87	1512.76
2122.055	1557.66
2125.239	1544.26
2128.424	1538.22
2131.608	1573.92
2134.791	1560.82
2137.974	1583.6
2141.157	1577.17
2144.34	1560.68
2147.523	1548.62
2150.705	1571.67
2153.887	1546.18
2157.068	1530.21
2160.25	1513.88
2163.431	1530.63
2166.611	1509.65
2169.792	1527.95
2172.972	1464.58
2176.152	1503.15
2179.331	1516.9
2182.511	1521.23
2185.69	1533.24
2188.868	1535.01
2192.047	1558.44
2195.225	1576.89
2198.403	1537.31
2201.58	1527.95
2204.758	1514.12
2207.935	1568.5
2211.111	1511.11
2214.288	1503.22
2217.464	1525.18
2220.64	1497.56
2223.815	1531.54
2226.991	1482.91
2230.166	1491.52
2233.34	1524.01
2236.515	1533.03
2239.689	1582.16
2242.863	1544.79
2246.036	1581.07
2249.209	1569.82
2252.382	1584.71
2255.555	1589.9
2258.727	1559.7
2261.9	1580.5
2265.071	1576.54
2268.243	1575.72
2271.414	1542.21
2274.585	1529.23
2277.756	1572.6
2280.926	1543.53
2284.096	1562.22
2287.266	1515.18
2290.436	1549.75
2293.605	1559.73
2296.774	1586.17
2299.942	1589.85
2303.111	1600.08
2306.279	1637.31
2309.447	1629.43
2312.614	1612.1
2315.781	1625.93
2318.948	1611.17
2322.115	1637.98
2325.281	1561.65
2328.447	1567.54
2331.613	1545.43
2334.779	1541.8
2337.944	1536.08
2341.109	1537.17
2344.274	1530.78
2347.438	1506.87
2350.602	1522.46
2353.766	1529.45
2356.929	1522.74
2360.092	1549.33
2363.255	1528
2366.418	1512.04
2369.58	1538.81
2372.742	1516.36
2375.904	1499.69
2379.066	1492.91
2382.227	1509.73
2385.388	1482.24
2388.548	1450.83
2391.709	1474.95
2394.869	1474.27
2398.029	1506.94
2401.188	1495.77
2404.347	1483.38
2407.506	1480.48
2410.665	1521.81
2413.823	1506.51
2416.981	1495.05
2420.139	1506.18
2423.296	1532.88
2426.453	1515.31
2429.61	1530.31
2432.767	1514.55
2435.923	1544.25
2439.079	1505.13
2442.235	1529.09
2445.391	1487.39
2448.546	1519.53
2451.701	1543.36
2454.855	1543.12
2458.009	1559.66
2461.163	1548.88
2464.317	1527.02
2467.471	1544.62
2470.624	1565.64
2473.777	1560.82
2476.929	1572.47
2480.082	1587.49
2483.234	1573.42
2486.385	1530.13
2489.537	1525
2492.688	1520.38
2495.839	1537.54
2498.989	1547.25
2502.14	1538.44
2505.29	1532.95
2508.439	1549.17
2511.589	1511.13
2514.738	1510.54
2517.887	1522.09
2521.035	1576.74
2524.183	1544.48
2527.331	1538.68
2530.479	1532.45
2533.627	1535.8
