Data from N_1_HIR_IL_4N_Splice17_11-27-25-718.txt Node
Date: Sat Mar 14 11:27:25 EDT 2020
User: sa697716
Spectrometer: FLMS03696
Trigger mode: 0
Integration Time (sec): 3.180400E-1
Scans to average: 20
Electric dark correction enabled: true
Nonlinearity correction enabled: true
Boxcar width: 5
XAxis mode: Wavelengths
Number of Pixels in Spectrum: 2048
>>>>>Begin Spectral Data<<<<<
187.83	-178756.86
188.298	1277.59
188.766	663.13
189.233	545.56
189.701	684.4
190.169	1058.23
190.636	444.84
191.104	358.46
191.571	53.3
192.039	14.47
192.506	4.05
192.974	374.18
193.441	-763.1
193.908	-388.41
194.375	-144.57
194.842	-128.72
195.31	-5.49
195.777	130.67
196.244	241.51
196.711	186.33
197.177	182.67
197.644	207.15
198.111	330.91
198.578	471.17
199.045	375.2
199.511	538.12
199.978	546.09
200.445	434.18
200.911	450.43
201.378	498.53
201.844	487.81
202.31	804.09
202.777	839.73
203.243	463.78
203.709	426.44
204.176	496.75
204.642	431.49
205.108	426.34
205.574	356.92
206.04	316.28
206.506	275.63
206.972	231.76
207.438	223.27
207.903	243.67
208.369	240.97
208.835	253.29
209.301	258.75
209.766	262.35
210.232	238.44
210.697	286.46
211.163	331.29
211.628	481.19
212.094	470.45
212.559	652.89
213.024	422.54
213.49	486.26
213.955	451.4
214.42	420.14
214.885	399.1
215.35	398.42
215.815	423.05
216.28	449.36
216.745	365.18
217.21	388.05
217.675	302.08
218.14	314.12
218.604	319.2
219.069	340.47
219.534	352.09
219.998	352.06
220.463	388.2
220.927	365.5
221.392	317.57
221.856	297.51
222.32	293.53
222.785	354.75
223.249	409.57
223.713	436.63
224.177	415.27
224.642	452.54
225.106	505.45
225.57	493.72
226.034	417.93
226.497	585.53
226.961	548.74
227.425	638.76
227.889	649.48
228.353	627.28
228.816	1167
229.28	1057.63
229.744	903.65
230.207	641.4
230.671	634.56
231.134	871.95
231.597	1105.62
232.061	1012.89
232.524	966.38
232.987	666.49
233.45	598.74
233.914	519.41
234.377	478.17
234.84	420.49
235.303	420.12
235.766	474.86
236.229	491.01
236.691	256.38
237.154	260.63
237.617	197.31
238.08	198.04
238.542	206.93
239.005	158.8
239.468	180.83
239.93	168.3
240.393	161.61
240.855	146.37
241.317	139.8
241.78	152.38
242.242	166.7
242.704	214.01
243.166	197.62
243.629	217.71
244.091	251.51
244.553	279.74
245.015	308.96
245.477	388.06
245.939	522.46
246.4	550.58
246.862	561.12
247.324	531.39
247.786	505.05
248.247	619.24
248.709	465.36
249.17	363.82
249.632	399.74
250.093	483.64
250.555	407.37
251.016	288.52
251.477	291.75
251.939	307.07
252.4	294.2
252.861	348.02
253.322	337.44
253.783	386.47
254.244	469.94
254.705	321.16
255.166	266.45
255.627	275.65
256.088	385.84
256.549	417.45
257.009	366.36
257.47	509.51
257.931	417.75
258.391	329.8
258.852	354.08
259.312	389.86
259.773	454.11
260.233	424.06
260.694	348.81
261.154	379.3
261.614	330.03
262.074	286.39
262.534	283.22
262.994	286.16
263.455	365.19
263.915	321.09
264.374	293.48
264.834	326.64
265.294	316.97
265.754	341.02
266.214	297.13
266.673	269.1
267.133	328.52
267.593	312.84
268.052	337.86
268.512	262
268.971	356.74
269.431	363.66
269.89	303.11
270.349	461.46
270.809	512.11
271.268	488.99
271.727	968.62
272.186	668.44
272.645	514.37
273.104	367.85
273.563	538
274.022	346.65
274.481	348.49
274.94	293.73
275.399	200.8
275.857	208.45
276.316	264.88
276.775	250.49
277.233	241.83
277.692	260.26
278.15	304.4
278.609	341.66
279.067	334.92
279.525	317.79
279.984	362.41
280.442	457.89
280.9	533.95
281.358	369.4
281.816	355.74
282.274	356.56
282.732	328.96
283.19	324.16
283.648	273.68
284.106	278.07
284.564	263.04
285.021	282.44
285.479	219.83
285.937	168.55
286.394	157.14
286.852	151.22
287.309	166.53
287.767	194.6
288.224	210.05
288.682	231.73
289.139	273.72
289.596	244.82
290.053	240.39
290.511	290.23
290.968	363.77
291.425	461.37
291.882	436.8
292.339	377.9
292.796	331.19
293.252	291.4
293.709	259.46
294.166	222.49
294.623	256.37
295.079	246.15
295.536	257.12
295.992	241.25
296.449	229.98
296.905	237.64
297.362	254.73
297.818	269.2
298.274	284.76
298.731	261.38
299.187	257.45
299.643	266.31
300.099	324.98
300.555	359.59
301.011	331.09
301.467	385.16
301.923	378.98
302.379	339.46
302.835	328.8
303.291	330.87
303.746	373.54
304.202	456.75
304.658	467.99
305.113	325.93
305.569	327.54
306.024	302.79
306.479	239.66
306.935	257.06
307.39	276.64
307.845	265.12
308.301	277.25
308.756	286.69
309.211	301.2
309.666	293.79
310.121	382.31
310.576	352.14
311.031	329.97
311.486	365.35
311.94	308.56
312.395	381.1
312.85	650.76
313.305	2631.89
313.759	15907.89
314.214	1083.38
314.668	951.82
315.123	727.33
315.577	335.57
316.032	319.24
316.486	382.29
316.94	364.79
317.394	277.21
317.849	213.28
318.303	193.53
318.757	183.79
319.211	208.01
319.665	186.53
320.119	194.36
320.572	246.67
321.026	249.54
321.48	208.71
321.934	201.55
322.387	195.01
322.841	238.99
323.295	261.95
323.748	270.54
324.202	273.38
324.655	330.64
325.108	525.83
325.562	386.67
326.015	442.79
326.468	370.34
326.921	438.58
327.374	434.01
327.827	458.34
328.28	523.36
328.733	367.01
329.186	325.31
329.639	309.45
330.092	245.13
330.545	244.75
330.997	254.19
331.45	271.97
331.903	320.41
332.355	482.99
332.808	448.66
333.26	330.5
333.713	361.58
334.165	359.35
334.617	424.68
335.069	294.8
335.522	493.9
335.974	551.2
336.426	488.26
336.878	282.73
337.33	178.49
337.782	172.53
338.234	238.24
338.686	258.13
339.137	295.14
339.589	305.72
340.041	275.78
340.493	234.75
340.944	232
341.396	257.99
341.847	250.65
342.299	320.65
342.75	421.66
343.201	339.08
343.653	385.83
344.104	435.99
344.555	354.28
345.006	472.41
345.457	411.43
345.908	321.12
346.359	320.38
346.81	251
347.261	242.3
347.712	194.62
348.163	215.62
348.613	274.66
349.064	272.51
349.515	247.44
349.965	280.48
350.416	316.47
350.866	333.94
351.317	316.59
351.767	501.87
352.217	627.08
352.668	578.15
353.118	566.13
353.568	454.25
354.018	415.71
354.468	439.21
354.918	333.33
355.368	296.4
355.818	394.32
356.268	1119.28
356.718	5560.82
357.168	1422.24
357.617	700
358.067	682.6
358.517	636.09
358.966	740.66
359.416	919.53
359.865	968.75
360.315	1094.15
360.764	578.4
361.213	342.12
361.663	255.02
362.112	288.47
362.561	477.36
363.01	387.05
363.459	331.82
363.908	329.86
364.357	295.6
364.806	439.61
365.255	309.84
365.703	275.98
366.152	297.12
366.601	252.43
367.05	247.76
367.498	234.64
367.947	240.18
368.395	229.5
368.844	208.9
369.292	186.87
369.74	146.34
370.189	199.77
370.637	230.58
371.085	194.44
371.533	222.04
371.981	153.89
372.429	164.41
372.877	162.75
373.325	168.55
373.773	144.59
374.221	119.37
374.669	128.03
375.116	122.58
375.564	132.65
376.012	118.73
376.459	112.73
376.907	131.93
377.354	134.35
377.801	164.05
378.249	190.04
378.696	265.34
379.143	369.1
379.591	418.34
380.038	672.51
380.485	503.18
380.932	581.84
381.379	654.34
381.826	562.53
382.273	407.37
382.72	303.89
383.166	288.08
383.613	209.83
384.06	202.37
384.506	224.11
384.953	172.27
385.4	163.3
385.846	136.9
386.292	117.19
386.739	92.92
387.185	78.34
387.631	85.68
388.078	107.44
388.524	102.8
388.97	97.84
389.416	84.11
389.862	92.7
390.308	90.91
390.754	107.67
391.2	106.04
391.645	107.5
392.091	137.53
392.537	144.36
392.983	129.92
393.428	152.7
393.874	146.65
394.319	164.78
394.765	162.27
395.21	163.07
395.655	151.84
396.101	154.79
396.546	149.11
396.991	130.5
397.436	112.42
397.881	106.46
398.326	82.57
398.771	84.79
399.216	69.01
399.661	58.39
400.106	59.33
400.551	62.81
400.995	57.57
401.44	54.83
401.885	52.32
402.329	56.55
402.774	52.69
403.218	62.91
403.663	63.64
404.107	67.08
404.551	72.09
404.995	66.46
405.44	58.04
405.884	54.99
406.328	49.83
406.772	48.71
407.216	43.98
407.66	41.55
408.104	29.36
408.547	25.33
408.991	24.85
409.435	20.17
409.879	23.65
410.322	26.65
410.766	25.76
411.209	29.44
411.653	30.08
412.096	32.31
412.54	32.48
412.983	35.48
413.426	37.28
413.869	34.65
414.312	38.82
414.756	34.85
415.199	31.09
415.642	33.18
416.085	31.68
416.527	29.95
416.97	27.38
417.413	26.96
417.856	22.69
418.298	21.79
418.741	19.07
419.184	14.46
419.626	10.24
420.069	11.02
420.511	11.15
420.953	14.48
421.396	13.63
421.838	13.67
422.28	14.2
422.722	18.39
423.164	16.75
423.606	19.53
424.048	20.48
424.49	23.77
424.932	23.22
425.374	20.8
425.816	15.95
426.258	17.11
426.699	17.73
427.141	19.37
427.582	17.06
428.024	15.98
428.465	12.33
428.907	11.98
429.348	11.56
429.789	12.66
430.231	15.23
430.672	17.11
431.113	17.31
431.554	16.82
431.995	15.89
432.436	19.01
432.877	21.05
433.318	25.04
433.759	24.18
434.2	22.67
434.64	21.35
435.081	20.88
435.522	19.95
435.962	19.11
436.403	20.04
436.843	16.35
437.284	14.59
437.724	12.57
438.164	8.78
438.604	10.29
439.045	13.02
439.485	16.5
439.925	16.03
440.365	15.22
440.805	14.97
441.245	15.44
441.685	17.38
442.125	17.49
442.564	16.65
443.004	18.17
443.444	17.81
443.883	18.18
444.323	15.01
444.762	10.49
445.202	10.1
445.641	12.16
446.081	9.11
446.52	8.37
446.959	8.34
447.398	10.34
447.837	9.39
448.276	8.61
448.716	8.61
449.154	6.94
449.593	10.08
450.032	10.71
450.471	7.32
450.91	7.36
451.349	9.08
451.787	7.71
452.226	6.21
452.664	7.19
453.103	6.32
453.541	4.63
453.98	6.75
454.418	7.81
454.856	8.86
455.295	9.16
455.733	10.77
456.171	9.59
456.609	10.74
457.047	11.11
457.485	12.23
457.923	14.12
458.361	13.61
458.798	13.8
459.236	12.94
459.674	11.5
460.111	11.58
460.549	11.3
460.987	9.93
461.424	7.7
461.862	7.48
462.299	6.68
462.736	7.11
463.173	7.62
463.611	9.77
464.048	10.64
464.485	11.96
464.922	12.15
465.359	10.85
465.796	17.84
466.233	20.52
466.67	22.66
467.106	24.58
467.543	23.16
467.98	22.01
468.416	20.12
468.853	18.14
469.29	17.87
469.726	17.22
470.162	17.26
470.599	12.24
471.035	10.51
471.471	9.14
471.907	6.39
472.344	6.07
472.78	6.52
473.216	5.12
473.652	5.61
474.088	4.28
474.523	4.84
474.959	4.33
475.395	3.74
475.831	3.93
476.266	3.67
476.702	3.62
477.138	3.45
477.573	3.31
478.008	4.28
478.444	6
478.879	6.93
479.314	6.85
479.75	7.23
480.185	7.32
480.62	7.34
481.055	7.49
481.49	8.47
481.925	9.22
482.36	10.79
482.795	9.61
483.229	7.75
483.664	7.76
484.099	7.81
484.534	8.47
484.968	9.5
485.403	9.1
485.837	7.96
486.271	7.55
486.706	7.24
487.14	6.05
487.574	6.84
488.009	6.75
488.443	5.67
488.877	6.66
489.311	6.1
489.745	5.87
490.179	5.89
490.613	8.1
491.046	7.23
491.48	7.38
491.914	7.58
492.348	7.29
492.781	7.57
493.215	8.79
493.648	7.38
494.082	6.86
494.515	6.67
494.948	7.11
495.382	5.52
495.815	6.08
496.248	5.8
496.681	5.06
497.114	4.42
497.547	5.04
497.98	5.32
498.413	6.82
498.846	7.62
499.279	6.8
499.711	6.04
500.144	6.14
500.577	6.57
501.009	6.06
501.442	7.17
501.874	8.29
502.306	7.67
502.739	8.49
503.171	7.44
503.603	7.35
504.036	7.31
504.468	7.84
504.9	7.8
505.332	7.29
505.764	8.07
506.196	7.5
506.627	7.16
507.059	7.47
507.491	5.25
507.923	5.57
508.354	6.03
508.786	6.41
509.217	6.36
509.649	6.47
510.08	6.26
510.512	6.38
510.943	6.37
511.374	6.14
511.805	5.58
512.237	5.76
512.668	5.17
513.099	3.75
513.53	3.83
513.961	4.17
514.391	3.74
514.822	4.92
515.253	5.39
515.684	6.03
516.114	6.72
516.545	7.28
516.975	7.3
517.406	7.23
517.836	7.42
518.267	6.96
518.697	7.12
519.127	6.63
519.558	5.54
519.988	4.9
520.418	3.7
520.848	2.55
521.278	2
521.708	29.4
522.138	29.92
522.567	29.78
522.997	29.75
523.427	29.46
523.857	30
524.286	30.21
524.716	30
525.145	30.49
525.575	31.38
526.004	30.87
526.433	4
526.863	3.48
527.292	4.42
527.721	5.08
528.15	4.9
528.579	5.11
529.008	5.17
529.437	4.18
529.866	3.75
530.295	2.56
530.724	3.48
531.152	3.37
531.581	3.83
532.01	3.85
532.438	3.43
532.867	3.44
533.295	3.92
533.723	3.67
534.152	4.52
534.58	5.2
535.008	5.96
535.436	7.01
535.865	7.04
536.293	6.62
536.721	5.86
537.149	5.6
537.576	6.31
538.004	6.17
538.432	5.71
538.86	5.91
539.287	5.72
539.715	5.73
540.143	4.71
540.57	5.02
540.998	5.06
541.425	6.55
541.852	6.61
542.28	6.33
542.707	6.07
543.134	6.45
543.561	6.39
543.988	6.17
544.415	5.84
544.842	5.07
545.269	5.36
545.696	5.59
546.123	5.67
546.549	6.26
546.976	5.32
547.403	5.08
547.829	4.64
548.256	4.24
548.682	4.49
549.108	5.22
549.535	5.49
549.961	4.97
550.387	5.17
550.813	5.52
551.24	5.26
551.666	5.62
552.092	5.9
552.518	6.25
552.943	6.82
553.369	6.66
553.795	6.43
554.221	6.73
554.646	6.96
555.072	7.8
555.498	6.54
555.923	6.32
556.349	6.68
556.774	6.45
557.199	6.18
557.625	5.94
558.05	6.12
558.475	6.21
558.9	6.46
559.325	6.4
559.75	5.45
560.175	5.06
560.6	4.79
561.025	4.16
561.449	4.07
561.874	4.14
562.299	4.32
562.723	4.41
563.148	4.21
563.572	3.4
563.997	3.13
564.421	2.56
564.846	1.95
565.27	2.11
565.694	2.09
566.118	2.35
566.542	3.05
566.966	3.4
567.39	3.34
567.814	4.02
568.238	4.55
568.662	4.19
569.086	4.73
569.509	5.12
569.933	6.87
570.357	7.04
570.78	6.69
571.204	7.29
571.627	6.56
572.05	6.53
572.474	7.08
572.897	7.33
573.32	8.18
573.743	7.62
574.166	8.15
574.589	6.47
575.012	6.71
575.435	6.34
575.858	5.87
576.281	6.72
576.704	6.2
577.126	5.13
577.549	4.47
577.972	4.05
578.394	4.46
578.817	6.02
579.239	6.12
579.661	6.26
580.084	7.76
580.506	7.61
580.928	6.55
581.35	6.6
581.772	6.58
582.194	7.34
582.616	7.17
583.038	7.05
583.46	5.46
583.882	5.54
584.303	4.62
584.725	3.43
585.147	7.56
585.568	8.45
585.99	9.16
586.411	9.5
586.833	9.58
587.254	10.03
587.675	9.55
588.096	9.52
588.518	9.53
588.939	10.03
589.36	10.9
589.781	6.16
590.202	8.16
590.623	8.02
591.043	7.17
591.464	7.4
591.885	7.49
592.305	7.41
592.726	7.1
593.147	7.28
593.567	7.23
593.987	6.96
594.408	6.35
594.828	3.57
595.248	4.18
595.669	5.19
596.089	4.71
596.509	4
596.929	3.68
597.349	3.88
597.769	3.77
598.189	3.73
598.608	3.71
599.028	4.27
599.448	4.24
599.867	3.7
600.287	3.32
600.706	3.6
601.126	4.25
601.545	5.26
601.965	4.9
602.384	4.92
602.803	5.25
603.222	5.58
603.641	5.2
604.061	5.94
604.48	5.69
604.898	5.5
605.317	5.3
605.736	5.09
606.155	5.5
606.574	6.16
606.992	6.05
607.411	6.09
607.829	4.78
608.248	4.72
608.666	4.11
609.085	4.72
609.503	4.52
609.921	4.35
610.339	4.27
610.758	3.13
611.176	3.04
611.594	3.83
612.012	4.25
612.43	5.76
612.847	6.1
613.265	6.99
613.683	6.86
614.101	7.03
614.518	6.94
614.936	6.62
615.353	7.45
615.771	7.24
616.188	6.84
616.606	6.56
617.023	6.54
617.44	6.59
617.857	5.72
618.274	4.95
618.691	5.12
619.108	4.94
619.525	5.05
619.942	4.7
620.359	4.7
620.776	4.66
621.192	5.13
621.609	5.18
622.026	5.67
622.442	5.91
622.859	5.86
623.275	5.69
623.691	5.96
624.108	6.64
624.524	7.04
624.94	7.42
625.356	6.66
625.772	5.24
626.188	4.55
626.604	3.94
627.02	3.8
627.436	4.34
627.852	5.45
628.268	5.8
628.683	5.04
629.099	4.65
629.514	4.1
629.93	4.28
630.345	4.67
630.761	4.15
631.176	4.26
631.591	5.94
632.007	6.07
632.422	4.83
632.837	4.24
633.252	5.23
633.667	5.24
634.082	5.4
634.497	5.96
634.911	7.68
635.326	8.61
635.741	8.88
636.155	7.56
636.57	8.52
636.984	9.13
637.399	10.39
637.813	9.42
638.228	9.71
638.642	10.03
639.056	10.09
639.47	8.96
639.884	8.82
640.298	9.04
640.712	9.75
641.126	8.79
641.54	8.19
641.954	6.25
642.368	6.63
642.781	8.54
643.195	8.89
643.609	9.05
644.022	9.31
644.436	8.54
644.849	7.79
645.262	7.42
645.676	6.93
646.089	6.72
646.502	8.52
646.915	8.29
647.328	7.3
647.741	7.29
648.154	7.19
648.567	9.25
648.98	10.31
649.393	10.51
649.805	10.54
650.218	10.71
650.631	11.37
651.043	10.82
651.456	11.16
651.868	10.74
652.28	9.19
652.693	8.92
653.105	6.85
653.517	5.92
653.929	5.57
654.341	5.77
654.753	6.23
655.165	6.29
655.577	5.53
655.989	6
656.401	5.49
656.813	6.93
657.224	6.53
657.636	6.01
658.047	7.37
658.459	7.83
658.87	6.4
659.282	6.59
659.693	7.17
660.104	8.48
660.515	7.58
660.926	7.02
661.338	6.8
661.749	6.27
662.159	7.22
662.57	5.72
662.981	5.77
663.392	6.44
663.803	6.29
664.213	4.96
664.624	4.37
665.035	4.45
665.445	4.43
665.855	5.92
666.266	7.39
666.676	7.02
667.086	7.05
667.497	7.51
667.907	7.7
668.317	7.15
668.727	10.83
669.137	10.27
669.547	10.34
669.956	9.65
670.366	8.33
670.776	8.87
671.186	9.04
671.595	9.43
672.005	8.74
672.414	9.33
672.824	10.5
673.233	8
673.642	8.8
674.052	8.54
674.461	10.36
674.87	10.71
675.279	11.51
675.688	9.59
676.097	10.89
676.506	10.79
676.915	9.77
677.323	9.09
677.732	8.72
678.141	8.14
678.549	8.77
678.958	7.67
679.366	6.91
679.775	4.83
680.183	7.24
680.592	7.23
681	7.34
681.408	8.15
681.816	8.75
682.224	8.8
682.632	10.11
683.04	10.26
683.448	10.74
683.856	11.38
684.264	12.39
684.671	10.96
685.079	10.08
685.487	9.81
685.894	8.92
686.302	7.55
686.709	8.4
687.116	7.73
687.524	7.62
687.931	8.81
688.338	10.42
688.745	10.05
689.152	10.88
689.559	11.94
689.966	14.14
690.373	15.44
690.78	16.79
691.187	16.51
691.593	16.56
692	15.98
692.407	15.85
692.813	16.98
693.22	17.7
693.626	16.62
694.032	16.24
694.439	15.36
694.845	15.12
695.251	14.01
695.657	13.98
696.063	12.67
696.469	13.59
696.875	12.6
697.281	10.65
697.687	9.55
698.093	9.51
698.498	9.15
698.904	8.39
699.31	8.02
699.715	10.59
700.12	9.76
700.526	10.27
700.931	9.34
701.337	10.77
701.742	11.46
702.147	11.42
702.552	12.52
702.957	11.54
703.362	12.21
703.767	12.14
704.172	9.59
704.577	9.23
704.981	9.28
705.386	10.16
705.791	9.64
706.195	8.31
706.6	8.68
707.004	7.49
707.408	8.02
707.813	9.09
708.217	10.14
708.621	10.43
709.025	10.11
709.43	11.97
709.834	11.77
710.237	11.45
710.641	12.56
711.045	13.54
711.449	14.63
711.853	17.59
712.256	15.67
712.66	14.66
713.064	14.91
713.467	16.95
713.87	15.54
714.274	16.63
714.677	17.57
715.08	17.75
715.484	17.97
715.887	20.58
716.29	17.8
716.693	18.52
717.096	19.26
717.499	20.22
717.901	18.25
718.304	17.44
718.707	16.38
719.109	16.17
719.512	14.87
719.915	15.25
720.317	13.9
720.719	12.95
721.122	13.84
721.524	13.73
721.926	16.84
722.328	18.31
722.731	18.4
723.133	17.04
723.535	15.96
723.937	16.74
724.338	17.77
724.74	17.99
725.142	59.68
725.544	62.28
725.945	72.88
726.347	69.16
726.748	68.98
727.15	70.28
727.551	74.69
727.952	74.25
728.354	73.97
728.755	72.05
729.156	71.34
729.557	31.11
729.958	28.13
730.359	17.9
730.76	18
731.161	18.14
731.562	17.14
731.962	13.76
732.363	13.83
732.763	13.06
733.164	12.03
733.564	11.93
733.965	12.98
734.365	13.31
734.766	13.53
735.166	13.4
735.566	14.74
735.966	15.44
736.366	15.13
736.766	15.25
737.166	14.79
737.566	14.9
737.966	14.8
738.365	15.06
738.765	15.95
739.165	15.82
739.564	15.02
739.964	12.29
740.363	10.63
740.763	10.25
741.162	10.63
741.561	10.25
741.96	10.83
742.36	9.11
742.759	9.06
743.158	7.17
743.557	6.5
743.955	6.5
744.354	6.83
744.753	6.81
745.152	8.35
745.55	7.14
745.949	7.62
746.348	7.91
746.746	7.6
747.144	9.47
747.543	9.32
747.941	9.34
748.339	10.31
748.737	12.16
749.136	13.42
749.534	11.86
749.932	14.87
750.33	15
750.727	13.88
751.125	15.9
751.523	14.66
751.921	17.68
752.318	19.11
752.716	20.59
753.113	19.37
753.511	18.86
753.908	19.74
754.305	21.62
754.703	21.7
755.1	22.59
755.497	22.39
755.894	21.26
756.291	19.25
756.688	19.11
757.085	17.63
757.482	19.7
757.878	22.76
758.275	24.4
758.672	18.19
759.068	17.98
759.465	18.76
759.861	18.29
760.258	21
760.654	23.53
761.05	24.11
761.447	23.23
761.843	19.88
762.239	19.03
762.635	16.46
763.031	15.37
763.427	15.73
763.822	15.82
764.218	14.73
764.614	12.39
765.01	9.2
765.405	8.81
765.801	10.18
766.196	10.24
766.592	8.68
766.987	10.56
767.382	10.94
767.778	10.78
768.173	10.4
768.568	11.06
768.963	11.76
769.358	12.9
769.753	12.62
770.148	12.44
770.542	11.99
770.937	10.62
771.332	9.74
771.726	10.34
772.121	14.01
772.515	14.43
772.91	14.25
773.304	14.21
773.699	14.33
774.093	14.34
774.487	14.68
774.881	15.42
775.275	17.74
775.669	17.07
776.063	16.57
776.457	15.61
776.851	15.3
777.245	16.6
777.638	16.55
778.032	16.5
778.425	17.27
778.819	19.16
779.212	21.84
779.606	22.81
779.999	22.89
780.392	24.7
780.786	21.73
781.179	21.53
781.572	21.6
781.965	22.34
782.358	22.37
782.751	21.32
783.143	17.99
783.536	15.57
783.929	12.64
784.322	13.28
784.714	12.15
785.107	13.2
785.499	14.58
785.891	16.45
786.284	15.76
786.676	15.6
787.068	17.2
787.46	19.5
787.852	18.02
788.245	19.12
788.636	16.91
789.028	19.3
789.42	20.83
789.812	20.6
790.204	19.87
790.595	22.02
790.987	22.13
791.378	21.25
791.77	19.51
792.161	19.71
792.553	20.91
792.944	23.84
793.335	20.74
793.726	20.78
794.117	21.5
794.508	18.8
794.899	17.48
795.29	16.95
795.681	16.72
796.072	17.79
796.463	35.09
796.853	38.7
797.244	39.1
797.634	40.67
798.025	40.75
798.415	37.44
798.806	40.23
799.196	42.44
799.586	46.38
799.976	48
800.366	45.97
800.756	26.76
801.146	24.35
801.536	25.49
801.926	23.09
802.316	23.58
802.706	26.94
803.095	24.68
803.485	23.52
803.874	18.93
804.264	18.49
804.653	19.91
805.043	23.01
805.432	23.29
805.821	24.13
806.21	27.16
806.599	26.29
806.988	24.68
807.377	22.08
807.766	21.79
808.155	24.85
808.544	23.11
808.933	25
809.321	27.06
809.71	25.32
810.098	23.25
810.487	21.86
810.875	22.58
811.264	23.78
811.652	36.36
812.04	36.4
812.428	37.86
812.816	39.73
813.204	40.97
813.592	37.52
813.98	37.8
814.368	40.42
814.756	43.07
815.144	45.18
815.531	49.44
815.919	39.54
816.306	41.16
816.694	40.44
817.081	45.09
817.469	46.75
817.856	42.94
818.243	42.98
818.63	40.52
819.017	41.67
819.404	38.23
819.791	36.53
820.178	33.04
820.565	35.57
820.952	40.29
821.339	39.73
821.725	40.21
822.112	46.26
822.498	47.52
822.885	45.76
823.271	41.64
823.657	39.51
824.044	37.87
824.43	37.56
824.816	41.78
825.202	41.07
825.588	37.29
825.974	36.97
826.36	35.86
826.746	35.12
827.132	36.44
827.517	39.72
827.903	42.24
828.289	48.64
828.674	50.9
829.06	47.21
829.445	41.31
829.83	40.92
830.216	41.21
830.601	43.8
830.986	52.58
831.371	55.59
831.756	57.7
832.141	62.72
832.526	61.26
832.911	62.41
833.295	58.61
833.68	62.72
834.065	63.68
834.449	58.41
834.834	59.12
835.218	55.17
835.603	55.29
835.987	52.18
836.371	48.79
836.755	47.35
837.139	43.81
837.524	42.97
837.908	39.63
838.291	40.63
838.675	40.55
839.059	37.67
839.443	33.81
839.827	30.11
840.21	26.75
840.594	29.81
840.977	29.05
841.361	30.8
841.744	30.92
842.127	33.45
842.511	31.56
842.894	32.92
843.277	33.95
843.66	31.33
844.043	33.95
844.426	36.59
844.809	31.23
845.191	30.24
845.574	29.98
845.957	29.71
846.339	30.66
846.722	31.78
847.104	30.91
847.487	29.97
847.869	33.83
848.252	34.22
848.634	36.91
849.016	35.86
849.398	36.53
849.78	39.97
850.162	42.38
850.544	43.65
850.926	40.25
851.307	38.85
851.689	40.09
852.071	37.57
852.452	37.32
852.834	33.58
853.215	37.64
853.597	35.65
853.978	39.9
854.359	40.17
854.741	38.58
855.122	40.41
855.503	39.29
855.884	36.52
856.265	36.62
856.646	28.76
857.026	33.04
857.407	34.64
857.788	35.7
858.169	28.06
858.549	36.28
858.93	36.89
859.31	40.4
859.69	46.22
860.071	43.63
860.451	43.11
860.831	49.16
861.211	46.82
861.591	43.85
861.971	41.84
862.351	44.81
862.731	35.5
863.111	36.02
863.491	40
863.87	38.73
864.25	40.4
864.629	48.63
865.009	48.17
865.388	53.71
865.768	51.69
866.147	58.37
866.526	56.35
866.905	60.98
867.284	55.69
867.663	47.03
868.042	44.67
868.421	48.26
868.8	40.62
869.179	46.9
869.558	42.49
869.936	45.92
870.315	42.14
870.693	49
871.072	47.65
871.45	48.85
871.828	52.81
872.207	58.19
872.585	58.15
872.963	59.75
873.341	58.83
873.719	64.66
874.097	63.41
874.475	61.91
874.853	57.18
875.23	53.16
875.608	56.5
875.986	56.6
876.363	51.41
876.741	60.48
877.118	67.57
877.495	69.45
877.873	65.92
878.25	70.51
878.627	72.42
879.004	71.15
879.381	74.71
879.758	75.85
880.135	72.54
880.512	75.39
880.889	61.88
881.265	52.65
881.642	47.31
882.019	42.29
882.395	45.92
882.772	50.01
883.148	53.34
883.524	55.74
883.901	50.49
884.277	48.89
884.653	48.23
885.029	57.13
885.405	69.12
885.781	70.01
886.157	70.15
886.532	62.42
886.908	55.56
887.284	52.67
887.659	48.41
888.035	51.64
888.411	50.28
888.786	53.97
889.161	51.94
889.537	42.87
889.912	40.04
890.287	38.92
890.662	39.71
891.037	39.29
891.412	36.3
891.787	34.51
892.162	34.13
892.536	34.69
892.911	33.64
893.286	25.7
893.66	24.49
894.035	29.56
894.409	26.24
894.784	31.91
895.158	33.07
895.532	38.55
895.906	45.69
896.281	48.45
896.655	54.65
897.029	52.58
897.402	63.47
897.776	71.06
898.15	79.6
898.524	84.17
898.898	85.56
899.271	109.3
899.645	105.8
900.018	95.44
900.392	105.09
900.765	97.24
901.138	102.07
901.511	97.63
901.884	102.46
902.258	85.74
902.631	96.55
903.003	106.63
903.376	84.63
903.749	86.05
904.122	88.98
904.495	87.25
904.867	84.08
905.24	80.07
905.612	79.54
905.985	77.33
906.357	80.27
906.729	78.04
907.102	71.1
907.474	79.29
907.846	85.16
908.218	92.02
908.59	88.25
908.962	95.4
909.334	101.15
909.705	110.71
910.077	97.53
910.449	97.4
910.82	103.34
911.192	114.61
911.563	118.66
911.935	112.22
912.306	103.44
912.677	101.27
913.048	101.64
913.419	109.06
913.79	92.25
914.161	99.36
914.532	109.02
914.903	82.75
915.274	72.31
915.645	69.75
916.015	64.91
916.386	66.49
916.756	64.16
917.127	54.59
917.497	55.73
917.868	67.92
918.238	72.97
918.608	66.38
918.978	76.05
919.348	77.24
919.718	80.84
920.088	83.84
920.458	108.24
920.828	116.18
921.198	129.98
921.567	122.82
921.937	99.06
922.306	89.54
922.676	95.6
923.045	94.96
923.415	98.37
923.784	96.13
924.153	106.01
924.522	101.06
924.891	98.39
925.26	92.58
925.629	88.45
925.998	97.18
926.367	103.27
926.736	113.46
927.104	115.04
927.473	103.4
927.842	107.87
928.21	97.43
928.578	76.11
928.947	80.66
929.315	92.19
929.683	127.34
930.051	135.04
930.42	155.83
930.788	149.35
931.156	153.5
931.523	183.67
931.891	170.47
932.259	182.69
932.627	234.03
932.994	300.24
933.362	282.98
933.729	259.74
934.097	244.26
934.464	218.7
934.831	230.01
935.199	231.34
935.566	223.58
935.933	193.66
936.3	198.92
936.667	156.21
937.034	234.24
937.401	224.46
937.767	185.78
938.134	170.46
938.501	223.21
938.867	259.72
939.234	438.11
939.6	348.36
939.967	474.29
940.333	348.85
940.699	260.19
941.065	132.91
941.431	139.45
941.798	196.41
942.163	304.09
942.529	175.02
942.895	134.5
943.261	90.58
943.627	113.81
943.992	97.02
944.358	95.83
944.723	147.65
945.089	155.91
945.454	162.72
945.82	143.03
946.185	111.12
946.55	154.35
946.915	158.99
947.28	177.76
947.645	167.34
948.01	173.31
948.375	195.2
948.74	198.13
949.104	203.7
949.469	212.38
949.834	302.4
950.198	419.62
950.562	295.56
950.927	241.75
951.291	314.22
951.655	260.43
952.02	205.31
952.384	155.32
952.748	161.05
953.112	199.49
953.476	190.54
953.839	190.15
954.203	192.04
954.567	214.28
954.931	291.29
955.294	243.08
955.658	242.25
956.021	421.62
956.385	639.3
956.748	879.39
957.111	888.96
957.474	958.47
957.837	893.35
958.2	378.13
958.563	150.96
958.926	143.82
959.289	213.66
959.652	288.35
960.015	235.71
960.377	322.33
960.74	347.17
961.102	600.96
961.465	780.09
961.827	778.63
962.189	1592.17
962.552	1109.21
962.914	842.75
963.276	540.18
963.638	430.75
964	432.55
964.362	314.59
964.724	296.97
965.085	231.17
965.447	197.92
965.809	142.54
966.17	127.91
966.532	133.3
966.893	126.29
967.255	120.2
967.616	102
967.977	83.32
968.338	84.18
968.699	94.16
969.061	97.24
969.421	101.15
969.782	123.34
970.143	116.1
970.504	152.46
970.865	187.91
971.225	205.95
971.586	233.21
971.946	312.74
972.307	271.3
972.667	310.84
973.027	317.45
973.388	356.18
973.748	236.66
974.108	272.6
974.468	266.39
974.828	241.87
975.188	177.41
975.548	147.01
975.907	145.68
976.267	164.45
976.627	170.76
976.986	172.14
977.346	146.47
977.705	146.75
978.064	129.19
978.424	122.05
978.783	96.75
979.142	112.55
979.501	122.47
979.86	125.9
980.219	115.29
980.578	119.44
980.937	132.81
981.296	140.11
981.654	140.91
982.013	186.7
982.371	256.94
982.73	273.3
983.088	280.81
983.447	273.86
983.805	434.19
984.163	873.87
984.521	744.4
984.879	825.01
985.237	-1290.37
985.595	1805.88
985.953	421.01
986.311	239.09
986.669	150.99
987.026	140.89
987.384	168.46
987.741	112.02
988.099	133.99
988.456	153.51
988.814	158.71
989.171	166.13
989.528	125.75
989.885	128.7
990.242	108.15
990.599	99.55
990.956	76.44
991.313	69.8
991.67	69.58
992.027	114.48
992.383	104.63
992.74	100.54
993.096	101.21
993.453	110.2
993.809	117.16
994.165	139.15
994.522	187.17
994.878	204.82
995.234	251.41
995.59	240.34
995.946	148.38
996.302	149.74
996.658	176.05
997.013	178.36
997.369	216.33
997.725	308.41
998.08	208.5
998.436	141.19
998.791	255.55
999.147	309.01
999.502	304.32
999.857	224.12
1000.212	343.61
1000.567	478.77
1000.922	335.94
1001.277	236.32
1001.632	184.03
1001.987	262.66
1002.342	208.36
1002.696	174.08
1003.051	145.49
1003.406	194.14
1003.76	194.81
1004.114	203.77
1004.469	168.54
1004.823	131.75
1005.177	132.05
1005.531	108.24
1005.885	118.34
1006.239	151.03
1006.593	181.63
1006.947	219.53
1007.301	176.59
1007.655	198.85
1008.008	169.79
1008.362	203.15
1008.715	293.6
1009.069	272.41
1009.422	449.09
1009.776	754.15
1010.129	455.31
1010.482	382.53
1010.835	292.17
1011.188	412.76
1011.541	373.77
1011.894	-1854.15
1012.247	6276.3
1012.6	389.82
1012.952	282.63
1013.305	131.42
1013.657	119.28
1014.01	129.96
1014.362	84.87
1014.715	130.38
1015.067	153.3
1015.419	144.46
1015.771	141.87
1016.123	132.69
1016.475	140.76
1016.827	148.02
1017.179	161.54
1017.531	152.82
1017.883	131.96
1018.234	184.93
1018.586	212.65
1018.938	266.5
1019.289	379.36
1019.64	361.94
1019.992	313.77
1020.343	299.95
1020.694	277.03
1021.045	234.78
1021.396	285.69
1021.747	349.99
1022.098	341.06
1022.449	239.98
1022.8	190.61
1023.151	154.99
1023.501	175.61
1023.852	188.85
1024.202	211.85
1024.553	193.33
1024.903	221.58
1025.253	210.08
1025.604	214.35
1025.954	262.14
1026.304	296.01
1026.654	334.55
1027.004	447.91
1027.354	620.13
1027.703	633.11
1028.053	756.96
1028.403	1263.08
1028.753	1594.84
1029.102	1596.09
1029.452	4586.18
1029.801	183.7
1030.15	144.75
1030.499	102.31
897.758	1494.91
901.051	1443.69
904.343	1471.86
907.636	1474.72
910.928	1515.51
914.22	1464.62
917.511	1469.29
920.803	1499.52
924.094	1493.32
927.384	1498.65
930.675	1472.27
933.965	1451.83
937.255	1476.44
940.544	1455.37
943.834	1452.01
947.123	1413.59
950.411	1470.97
953.7	1461.3
956.988	1452.34
960.276	1402.92
963.563	1430.94
966.851	1438.84
970.138	1462.78
973.424	1462.91
976.711	1429.73
979.997	1460.56
983.283	1487.84
986.568	1444.86
989.853	1434.44
993.138	1448.19
996.423	1512.04
999.708	1484.92
1002.992	1503.29
1006.275	1446.53
1009.559	1447.67
1012.842	1510.93
1016.125	1482.46
1019.408	1465.68
1022.69	1499.14
1025.972	1517.54
1029.254	1503.92
1032.536	1479.47
1035.817	1481.26
1039.098	1463.16
1042.379	1490.18
1045.659	1506.48
1048.939	1470.22
1052.219	1472.75
1055.498	1466.6
1058.778	1460.22
1062.057	1445.65
1065.335	1463.17
1068.614	1464.73
1071.892	1461.36
1075.17	1495.29
1078.447	1497.08
1081.724	1494.63
1085.001	1507.16
1088.278	1490.33
1091.554	1492.8
1094.83	1490.71
1098.106	1516
1101.382	1530.46
1104.657	1530.79
1107.932	1531.14
1111.206	1514.59
1114.481	1483.49
1117.755	1485.18
1121.029	1480.98
1124.302	1520.05
1127.575	1500.46
1130.848	1500.09
1134.121	1479.02
1137.393	1452.96
1140.665	1493.44
1143.937	1477.01
1147.208	1443.31
1150.48	1482.42
1153.75	1474.22
1157.021	1477.11
1160.291	1459.85
1163.561	1494.59
1166.831	1469.59
1170.101	1483.63
1173.37	1460.2
1176.639	1432.29
1179.907	1463.96
1183.176	1478.45
1186.444	1480.01
1189.711	1492.83
1192.979	1510.63
1196.246	1484.41
1199.513	1493.02
1202.78	1495.66
1206.046	1502.25
1209.312	1520.75
1212.578	1527.58
1215.843	1503
1219.108	1486.33
1222.373	1500.4
1225.638	1484.23
1228.902	1475.08
1232.166	1452.5
1235.43	1443.13
1238.693	1463.91
1241.956	1459.52
1245.219	1491.38
1248.482	1481.21
1251.744	1483.94
1255.006	1556.06
1258.268	1521.73
1261.529	1498.41
1264.79	1496.82
1268.051	1555.46
1271.312	1562.88
1274.572	1541.3
1277.832	1532.74
1281.092	1518.57
1284.351	1516.17
1287.61	1506.41
1290.869	1468.77
1294.128	1470.02
1297.386	1494.61
1300.644	1491.22
1303.902	1496.4
1307.159	1411.98
1310.416	1443.66
1313.673	1461.26
1316.93	1464.19
1320.186	1478.66
1323.442	1497.68
1326.697	1498.36
1329.953	1482.4
1333.208	1506.73
1336.463	1491.64
1339.717	1471.26
1342.972	1542.35
1346.226	1524.37
1349.479	1499.61
1352.733	1482.88
1355.986	1494.81
1359.238	1481.85
1362.491	1484.18
1365.743	1482.94
1368.995	1480.09
1372.247	1492.27
1375.498	1501.63
1378.749	1529.09
1382	1501.9
1385.251	1519.09
1388.501	1492.32
1391.751	1489.45
1395	1474.31
1398.25	1492.12
1401.499	1511.27
1404.748	1479.52
1407.996	1467.59
1411.244	1465.76
1414.492	1454.06
1417.74	1445.11
1420.987	1451.41
1424.234	1489.75
1427.481	1465.23
1430.728	1500.26
1433.974	1486.53
1437.22	1486.39
1440.465	1480.6
1443.711	1483.48
1446.956	1493.25
1450.201	1477.63
1453.445	1506.22
1456.689	1496.05
1459.933	1504.54
1463.177	1530.88
1466.42	1514.02
1469.663	1501.07
1472.906	1509.7
1476.148	1542.72
1479.391	1512.6
1482.633	1501.62
1485.874	1515.19
1489.115	1520.04
1492.356	1508.79
1495.597	1493.03
1498.838	1483.87
1502.078	1476.92
1505.318	1463.49
1508.557	1479.32
1511.797	1477.66
1515.036	1512.3
1518.274	1485.9
1521.513	1451.09
1524.751	1454.72
1527.989	1468.51
1531.227	1479.6
1534.464	1485.43
1537.701	1476.94
1540.938	1481.54
1544.174	1450.7
1547.41	1438.62
1550.646	1463.78
1553.882	1492.05
1557.117	1532.26
1560.352	1538.04
1563.587	1510.03
1566.821	1490.64
1570.055	1503.1
1573.289	1487.94
1576.523	1519.59
1579.756	1527.61
1582.989	1544.12
1586.222	1513.51
1589.454	1536.23
1592.686	1526.64
1595.918	1540.84
1599.15	1540.49
1602.381	1567.85
1605.612	1557.68
1608.843	1614.44
1612.073	1566.35
1615.303	1560.5
1618.533	1554.18
1621.762	1554.45
1624.992	1535.65
1628.221	1533.05
1631.449	1526.84
1634.678	1544.81
1637.906	1523.9
1641.134	1536.19
1644.361	1514.59
1647.588	1508.84
1650.815	1524.37
1654.042	1503.37
1657.269	1519.91
1660.495	1509.47
1663.72	1500.53
1666.946	1479.79
1670.171	1467.03
1673.396	1446.7
1676.621	1436.76
1679.845	1435.69
1683.069	1439.05
1686.293	1455.09
1689.517	1452
1692.74	1425.26
1695.963	1437.88
1699.185	1461.47
1702.408	1446.48
1705.63	1462.63
1708.852	1475.74
1712.073	1457.29
1715.294	1468.83
1718.515	1497.93
1721.736	1470.73
1724.956	1459.26
1728.176	1475.8
1731.396	1486.42
1734.616	1481.68
1737.835	1509.77
1741.054	1487.53
1744.272	1485.99
1747.491	1510.92
1750.709	1523.35
1753.927	1496.04
1757.144	1514.77
1760.361	1550.38
1763.578	1530.82
1766.795	1499.78
1770.011	1492.54
1773.227	1504.44
1776.443	1534.75
1779.658	1559.35
1782.874	1524.96
1786.089	1520.95
1789.303	1520.81
1792.518	1519.67
1795.732	1513.54
1798.945	1521.83
1802.159	1552.87
1805.372	1516.36
1808.585	1512.56
1811.797	1511.57
1815.01	1528.53
1818.222	1547.44
1821.434	1519.31
1824.645	1544.52
1827.856	1550.98
1831.067	1566.77
1834.278	1532.25
1837.488	1518.19
1840.698	1596.67
1843.908	1566.71
1847.117	1549.88
1850.326	1504.25
1853.535	1540.2
1856.744	1567.25
1859.952	1519.36
1863.16	1519.73
1866.368	1538.45
1869.575	1609.94
1872.782	1536.03
1875.989	1496.9
1879.196	1528.55
1882.402	1522.92
1885.608	1541.99
1888.814	1509
1892.019	1452.23
1895.224	1491.01
1898.429	1470.69
1901.634	1456.14
1904.838	1444.51
1908.042	1485.77
1911.246	1494.77
1914.449	1471.34
1917.652	1462.1
1920.855	1449.86
1924.058	1466.06
1927.26	1500.96
1930.462	1508.68
1933.664	1535.17
1936.865	1500.67
1940.066	1509.93
1943.267	1474.25
1946.467	1482.34
1949.668	1488.52
1952.868	1535.16
1956.067	1535.03
1959.267	1493.9
1962.466	1509.21
1965.665	1498.51
1968.863	1496.44
1972.061	1493.29
1975.259	1489.9
1978.457	1537.14
1981.654	1509.38
1984.852	1512.56
1988.048	1485.55
1991.245	1473.32
1994.441	1532.19
1997.637	1496.04
2000.833	1486.5
2004.028	1507.34
2007.223	1552.13
2010.418	1540.46
2013.613	1508.56
2016.807	1507.4
2020.001	1505.23
2023.194	1515.43
2026.388	1505.22
2029.581	1470.32
2032.774	1515.02
2035.966	1521.74
2039.158	1487.05
2042.35	1501.01
2045.542	1452.32
2048.733	1505.87
2051.924	1492.44
2055.115	1502.87
2058.306	1484.39
2061.496	1518.03
2064.686	1548.48
2067.875	1485.47
2071.065	1485.27
2074.254	1497.27
2077.442	1466.01
2080.631	1519.31
2083.819	1480.81
2087.007	1479.45
2090.195	1468.99
2093.382	1471.18
2096.569	1466.47
2099.756	1439.59
2102.942	1478.38
2106.128	1486.02
2109.314	1479.64
2112.5	1472.62
2115.685	1451.78
2118.87	1455.34
2122.055	1501.15
2125.239	1486.44
2128.424	1484.16
2131.608	1513.56
2134.791	1502.2
2137.974	1523.09
2141.157	1516.41
2144.34	1499.58
2147.523	1488.21
2150.705	1510.47
2153.887	1485.34
2157.068	1466.33
2160.25	1452.47
2163.431	1468.09
2166.611	1452.28
2169.792	1468.09
2172.972	1407.29
2176.152	1444.15
2179.331	1457.84
2182.511	1461.23
2185.69	1471.43
2188.868	1477.34
2192.047	1498.29
2195.225	1517.03
2198.403	1476.96
2201.58	1467.37
2204.758	1457.68
2207.935	1507.31
2211.111	1453.38
2214.288	1447.02
2217.464	1468.14
2220.64	1441.75
2223.815	1471.14
2226.991	1426.11
2230.166	1432.39
2233.34	1465.94
2236.515	1474.7
2239.689	1521.09
2242.863	1486.88
2246.036	1518.8
2249.209	1508.44
2252.382	1524.26
2255.555	1529.23
2258.727	1501.39
2261.9	1520.12
2265.071	1517.82
2268.243	1514.39
2271.414	1484.23
2274.585	1470.63
2277.756	1512.66
2280.926	1483.96
2284.096	1502.77
2287.266	1455.97
2290.436	1490.17
2293.605	1499.71
2296.774	1526.72
2299.942	1528.55
2303.111	1541.1
2306.279	1575.86
2309.447	1566.44
2312.614	1551.42
2315.781	1567.76
2318.948	1552.47
2322.115	1578
2325.281	1504.43
2328.447	1510.55
2331.613	1487.85
2334.779	1485.87
2337.944	1480.46
2341.109	1480.21
2344.274	1475.28
2347.438	1450.63
2350.602	1465.71
2353.766	1470.96
2356.929	1465.92
2360.092	1492.74
2363.255	1470.06
2366.418	1456.21
2369.58	1482.04
2372.742	1458.38
2375.904	1442.43
2379.066	1437.05
2382.227	1453.87
2385.388	1427.62
2388.548	1398.04
2391.709	1420.49
2394.869	1417.59
2398.029	1452.09
2401.188	1440.36
2404.347	1429.15
2407.506	1427.94
2410.665	1465.48
2413.823	1449.43
2416.981	1439.02
2420.139	1449.92
2423.296	1476.13
2426.453	1459.52
2429.61	1474.52
2432.767	1457.49
2435.923	1483.93
2439.079	1448.61
2442.235	1470.4
2445.391	1431.59
2448.546	1461.72
2451.701	1482.46
2454.855	1482.02
2458.009	1498.71
2461.163	1487.99
2464.317	1467.52
2467.471	1484.2
2470.624	1506.9
2473.777	1498.06
2476.929	1511.62
2480.082	1526.29
2483.234	1514.43
2486.385	1476.95
2489.537	1470.84
2492.688	1465.45
2495.839	1483.77
2498.989	1492.92
2502.14	1483.64
2505.29	1476.82
2508.439	1492.99
2511.589	1455.96
2514.738	1456.07
2517.887	1466.59
2521.035	1514.71
2524.183	1485.35
2527.331	1479.43
2530.479	1471.34
2533.627	1474.07
