Data from N_1_DEC_OH_4N_Splice17_11-20-42-072.txt Node
Date: Sat Mar 14 11:20:42 EDT 2020
User: sa697716
Spectrometer: FLMS03696
Trigger mode: 0
Integration Time (sec): 3.180400E-1
Scans to average: 20
Electric dark correction enabled: true
Nonlinearity correction enabled: true
Boxcar width: 5
XAxis mode: Wavelengths
Number of Pixels in Spectrum: 2048
>>>>>Begin Spectral Data<<<<<
187.83	-137381.77
188.298	989.04
188.766	631.26
189.233	586.38
189.701	814
190.169	1109.44
190.636	472.6
191.104	452.04
191.571	134.64
192.039	79.9
192.506	180.91
192.974	532.3
193.441	-708.12
193.908	-40.54
194.375	38.93
194.842	93.16
195.31	142.62
195.777	168.37
196.244	259.06
196.711	209.56
197.177	228.08
197.644	251.77
198.111	357.46
198.578	416.1
199.045	305.49
199.511	440.01
199.978	429.41
200.445	390.18
200.911	397.23
201.378	410.48
201.844	390.93
202.31	627.87
202.777	634.59
203.243	354.62
203.709	347.4
204.176	406.86
204.642	356.6
205.108	346.54
205.574	277.46
206.04	255.78
206.506	238.92
206.972	222.14
207.438	206.27
207.903	229.93
208.369	228.61
208.835	241.37
209.301	248.66
209.766	236.72
210.232	249.61
210.697	297.18
211.163	340.71
211.628	496.62
212.094	404.43
212.559	535.83
213.024	359.96
213.49	431.78
213.955	383.8
214.42	350.51
214.885	342.61
215.35	321.59
215.815	330.6
216.28	346.83
216.745	275.72
217.21	304.9
217.675	251.56
218.14	246.46
218.604	241.14
219.069	269.76
219.534	293.19
219.998	285.26
220.463	309.3
220.927	302.6
221.392	274.39
221.856	264.91
222.32	264.47
222.785	325.28
223.249	383.53
223.713	382.67
224.177	376.67
224.642	396.02
225.106	443.44
225.57	446.02
226.034	384.53
226.497	518.83
226.961	491.07
227.425	571.16
227.889	570.3
228.353	537.59
228.816	1009.9
229.28	869.6
229.744	709.92
230.207	515.91
230.671	523.2
231.134	664.85
231.597	797.62
232.061	717.18
232.524	665.02
232.987	466.58
233.45	467.94
233.914	426.99
234.377	356.77
234.84	322.85
235.303	315.7
235.766	334.67
236.229	359.46
236.691	182.48
237.154	174.31
237.617	147.02
238.08	111.07
238.542	101
239.005	82.72
239.468	109.28
239.93	96.99
240.393	97.35
240.855	87.47
241.317	73.67
241.78	91.19
242.242	120.34
242.704	134.87
243.166	142.02
243.629	160.43
244.091	186.85
244.553	190.23
245.015	207.53
245.477	238.07
245.939	315.95
246.4	362.99
246.862	339.7
247.324	279.66
247.786	286.04
248.247	278.83
248.709	146.54
249.17	112.58
249.632	198.52
250.093	293.01
250.555	309.02
251.016	216.57
251.477	213.85
251.939	248.62
252.4	257.98
252.861	300.3
253.322	328.31
253.783	398.88
254.244	482.6
254.705	336.29
255.166	268.83
255.627	227.59
256.088	324.58
256.549	353.01
257.009	301.89
257.47	369
257.931	282.19
258.391	221.11
258.852	216.07
259.312	205.68
259.773	232.99
260.233	244
260.694	241.72
261.154	244.47
261.614	220.53
262.074	182.07
262.534	191.7
262.994	204.1
263.455	247.52
263.915	240.17
264.374	240.91
264.834	262.83
265.294	262.3
265.754	269.91
266.214	259.58
266.673	224.04
267.133	268.1
267.593	246.44
268.052	285.5
268.512	229.24
268.971	293.79
269.431	321.44
269.89	299.44
270.349	421.72
270.809	482.13
271.268	436.2
271.727	913.87
272.186	619.71
272.645	497.12
273.104	326.24
273.563	489.26
274.022	298.89
274.481	290.13
274.94	222.62
275.399	163.38
275.857	162.79
276.316	215.45
276.775	198.84
277.233	188.62
277.692	197.96
278.15	232.2
278.609	272.5
279.067	268.96
279.525	277.78
279.984	335.06
280.442	431.5
280.9	487.6
281.358	303.07
281.816	286.05
282.274	288.86
282.732	241.05
283.19	235.05
283.648	191.46
284.106	185.89
284.564	149.61
285.021	178.96
285.479	137.53
285.937	88.69
286.394	100.66
286.852	96.41
287.309	92.05
287.767	127.03
288.224	139.23
288.682	152.84
289.139	195.69
289.596	184.63
290.053	170.39
290.511	181.15
290.968	241
291.425	311.36
291.882	304.01
292.339	292.11
292.796	273.72
293.252	245.92
293.709	211.3
294.166	177.76
294.623	183.62
295.079	166.62
295.536	190.27
295.992	182.81
296.449	180.68
296.905	192.04
297.362	211.45
297.818	209.01
298.274	233.98
298.731	229.04
299.187	224.21
299.643	246.81
300.099	299.83
300.555	317.57
301.011	261.72
301.467	282.47
301.923	290.72
302.379	266.05
302.835	267.79
303.291	244.23
303.746	256.12
304.202	310.98
304.658	313.08
305.113	232.28
305.569	233.24
306.024	246.03
306.479	200.61
306.935	197.12
307.39	184.35
307.845	182.2
308.301	204.88
308.756	199.19
309.211	227.76
309.666	224.58
310.121	303.74
310.576	291.34
311.031	263.26
311.486	248.94
311.94	208.26
312.395	293.54
312.85	473.49
313.305	1466.4
313.759	12722.5
314.214	657.06
314.668	596.19
315.123	433.36
315.577	215.4
316.032	268.07
316.486	369.75
316.94	327.99
317.394	245
317.849	207.93
318.303	201
318.757	191.78
319.211	209.7
319.665	189.51
320.119	204.89
320.572	278.94
321.026	253.43
321.48	228.09
321.934	223.62
322.387	213.03
322.841	239.03
323.295	268.01
323.748	265.77
324.202	303.45
324.655	354.82
325.108	523.56
325.562	365.83
326.015	388.67
326.468	282.56
326.921	350.18
327.374	360.95
327.827	374.53
328.28	395.94
328.733	265.81
329.186	217.92
329.639	194.93
330.092	152.3
330.545	151.72
330.997	169.34
331.45	202.55
331.903	234.52
332.355	321.3
332.808	306.9
333.26	238.08
333.713	290
334.165	305.85
334.617	396.77
335.069	271.56
335.522	411.8
335.974	414.68
336.426	337.01
336.878	197.43
337.33	124.08
337.782	106.27
338.234	135.92
338.686	129.8
339.137	138.49
339.589	145.4
340.041	159.7
340.493	132.79
340.944	132.91
341.396	141.24
341.847	158.62
342.299	229.26
342.75	313.53
343.201	260.05
343.653	289.11
344.104	315.52
344.555	249.9
345.006	283.04
345.457	323.95
345.908	241.25
346.359	259.58
346.81	210.74
347.261	205.07
347.712	182.53
348.163	185.88
348.613	247.96
349.064	256.63
349.515	230.02
349.965	249.37
350.416	253.15
350.866	307.95
351.317	312.69
351.767	459.73
352.217	553.39
352.668	451.7
353.118	444.95
353.568	304.94
354.018	246.2
354.468	276.12
354.918	220.53
355.368	202.47
355.818	259.86
356.268	677.62
356.718	3379.98
357.168	899.88
357.617	506.21
358.067	507.73
358.517	483.03
358.966	581.69
359.416	725.94
359.865	752.89
360.315	789.57
360.764	390.5
361.213	217.87
361.663	178.93
362.112	196.54
362.561	268.28
363.01	218.22
363.459	166.76
363.908	183.27
364.357	181.8
364.806	306.22
365.255	206.04
365.703	218.89
366.152	230.94
366.601	193.89
367.05	182.7
367.498	182.55
367.947	185.09
368.395	193.92
368.844	167.98
369.292	152.3
369.74	112.5
370.189	169.72
370.637	173.32
371.085	170.73
371.533	210.72
371.981	150.07
372.429	159.49
372.877	165.36
373.325	154.13
373.773	166.07
374.221	134.55
374.669	144.48
375.116	136.79
375.564	133.26
376.012	122.5
376.459	105.56
376.907	146.57
377.354	151.57
377.801	176.33
378.249	212.05
378.696	200.27
379.143	301.63
379.591	323.34
380.038	459.92
380.485	367.32
380.932	368.52
381.379	421.09
381.826	377.95
382.273	259.58
382.72	168.89
383.166	193.93
383.613	158.55
384.06	131.74
384.506	171.72
384.953	141.87
385.4	137.97
385.846	127.61
386.292	89.09
386.739	68.45
387.185	56.12
387.631	68.31
388.078	82.07
388.524	87.32
388.97	87.17
389.416	68.74
389.862	75.1
390.308	75.73
390.754	86.7
391.2	97.76
391.645	90.35
392.091	119.1
392.537	120.37
392.983	94.86
393.428	114.44
393.874	113.02
394.319	130.48
394.765	142.57
395.21	138.67
395.655	131
396.101	128.67
396.546	121.53
396.991	105.01
397.436	97.21
397.881	93.26
398.326	67.24
398.771	73.96
399.216	54.18
399.661	41.31
400.106	43.28
400.551	44.25
400.995	40.41
401.44	40.56
401.885	41.68
402.329	40.28
402.774	42.35
403.218	51.03
403.663	46.69
404.107	51.76
404.551	54.96
404.995	50.06
405.44	41.14
405.884	37.64
406.328	32.5
406.772	28
407.216	27.77
407.66	23.16
408.104	17.42
408.547	16.34
408.991	16.63
409.435	13.65
409.879	14.07
410.322	18.17
410.766	18.85
411.209	23.41
411.653	24.4
412.096	25.74
412.54	25.06
412.983	25.59
413.426	28.59
413.869	24.54
414.312	27.09
414.756	27.75
415.199	26.57
415.642	28.92
416.085	29.02
416.527	26.5
416.97	23.92
417.413	25.48
417.856	22.86
418.298	21.31
418.741	21.13
419.184	17.46
419.626	12.03
420.069	10.94
420.511	10.21
420.953	11.09
421.396	13.54
421.838	13.04
422.28	12.64
422.722	14.63
423.164	13.27
423.606	13.46
424.048	12.94
424.49	15.66
424.932	14.08
425.374	13.76
425.816	11.36
426.258	10.04
426.699	9.61
427.141	13.17
427.582	11.2
428.024	10.43
428.465	9.31
428.907	8.8
429.348	8.66
429.789	11.76
430.231	14.2
430.672	14.64
431.113	15.63
431.554	18.19
431.995	15.34
432.436	17.8
432.877	19.43
433.318	23.68
433.759	22.97
434.2	23.46
434.64	21.88
435.081	19.73
435.522	18.72
435.962	18.21
436.403	17.51
436.843	14.77
437.284	12.59
437.724	9.3
438.164	4.6
438.604	5.22
439.045	5.85
439.485	7.41
439.925	6.59
440.365	6.63
440.805	5.21
441.245	5.04
441.685	6.59
442.125	5.81
442.564	4.99
443.004	6.88
443.444	6.38
443.883	7.04
444.323	4.19
444.762	1.52
445.202	0.53
445.641	1.98
446.081	1.71
446.52	3.31
446.959	4.14
447.398	7.2
447.837	6.75
448.276	6.94
448.716	7.74
449.154	6.39
449.593	9.34
450.032	9.73
450.471	8.73
450.91	7.21
451.349	7.03
451.787	6.8
452.226	5.47
452.664	5.05
453.103	5.23
453.541	3.27
453.98	7.52
454.418	6.92
454.856	7.97
455.295	7.87
455.733	9.53
456.171	8.89
456.609	10.17
457.047	10.59
457.485	11.93
457.923	13.46
458.361	13.35
458.798	11.76
459.236	11.21
459.674	9.18
460.111	9.87
460.549	10.44
460.987	9.65
461.424	8.44
461.862	8.54
462.299	8.36
462.736	8.65
463.173	8.59
463.611	10.46
464.048	11.77
464.485	14.15
464.922	12.61
465.359	10.99
465.796	17.15
466.233	17.98
466.67	19.47
467.106	20.73
467.543	19.09
467.98	18.42
468.416	17.12
468.853	16.5
469.29	14.68
469.726	15.88
470.162	16.07
470.599	11.36
471.035	10.26
471.471	8.91
471.907	6.63
472.344	6.71
472.78	7.82
473.216	7.01
473.652	6.41
474.088	5.9
474.523	5.39
474.959	5.18
475.395	4.77
475.831	5.46
476.266	4.68
476.702	4.59
477.138	4.92
477.573	4.47
478.008	3.8
478.444	4.95
478.879	7.29
479.314	7.07
479.75	6.87
480.185	6.38
480.62	5.83
481.055	5.63
481.49	6.85
481.925	7.08
482.36	7.99
482.795	7.85
483.229	6.69
483.664	5.34
484.099	5.83
484.534	6.68
484.968	7.36
485.403	7.45
485.837	7.76
486.271	7.04
486.706	6.22
487.14	5.07
487.574	5.78
488.009	6.05
488.443	5.53
488.877	5.64
489.311	4.96
489.745	5.1
490.179	5.06
490.613	6.99
491.046	7.08
491.48	7.4
491.914	7.88
492.348	7.8
492.781	7.68
493.215	8.24
493.648	7.62
494.082	7.43
494.515	7.61
494.948	8.27
495.382	6.4
495.815	6.91
496.248	7.27
496.681	6.71
497.114	5.84
497.547	6.41
497.98	7.46
498.413	8.61
498.846	9.2
499.279	8.64
499.711	7.97
500.144	8.42
500.577	8.71
501.009	8.07
501.442	9.38
501.874	10.52
502.306	9.42
502.739	10.71
503.171	10.41
503.603	10.23
504.036	10.07
504.468	10.82
504.9	10.4
505.332	9.69
505.764	10.93
506.196	10.25
506.627	10.56
507.059	11.73
507.491	8.77
507.923	8.69
508.354	9.18
508.786	9.58
509.217	9.81
509.649	10.05
510.08	10.21
510.512	10.55
510.943	10.69
511.374	10.62
511.805	10.14
512.237	10.85
512.668	10.61
513.099	9.86
513.53	9.94
513.961	9.94
514.391	10.1
514.822	11.02
515.253	10.65
515.684	11.39
516.114	11.13
516.545	11.96
516.975	12.2
517.406	12.44
517.836	12.74
518.267	13.16
518.697	13.94
519.127	14
519.558	13.24
519.988	13.12
520.418	12.85
520.848	12.68
521.278	12.12
521.708	28.59
522.138	28.93
522.567	28.31
522.997	27.99
523.427	27.28
523.857	27.69
524.286	27.8
524.716	28.19
525.145	28.49
525.575	29.35
526.004	29.13
526.433	13.35
526.863	13.3
527.292	15.29
527.721	16.09
528.15	16.05
528.579	16.61
529.008	16.86
529.437	16.24
529.866	15.74
530.295	15.38
530.724	16.89
531.152	17.17
531.581	17.85
532.01	17.36
532.438	16.94
532.867	17.02
533.295	16.89
533.723	16.75
534.152	16.99
534.58	17.53
535.008	18.03
535.436	17.75
535.865	17.11
536.293	16.1
536.721	15.66
537.149	15.92
537.576	16.34
538.004	16.17
538.432	16.13
538.86	16.8
539.287	16.49
539.715	16.72
540.143	16.61
540.57	17.54
540.998	18.12
541.425	19.8
541.852	19.44
542.28	19.24
542.707	18.93
543.134	19.36
543.561	19.05
543.988	19.47
544.415	18.99
544.842	18.28
545.269	17.63
545.696	18.14
546.123	17.83
546.549	18.42
546.976	18.29
547.403	19.22
547.829	18.42
548.256	17.74
548.682	17.66
549.108	18.24
549.535	18.34
549.961	18.41
550.387	17.87
550.813	18.25
551.24	18.35
551.666	18.46
552.092	17.89
552.518	18.07
552.943	19.14
553.369	18.7
553.795	18.72
554.221	18.96
554.646	18.96
555.072	19.97
555.498	18.23
555.923	17.17
556.349	16.87
556.774	16.44
557.199	16.62
557.625	15.6
558.05	16.41
558.475	16.24
558.9	16.42
559.325	16.8
559.75	16.47
560.175	17.05
560.6	17.25
561.025	17.15
561.449	17.64
561.874	17.06
562.299	18.1
562.723	17.1
563.148	16.73
563.572	16.21
563.997	16.15
564.421	15.32
564.846	14.68
565.27	15.13
565.694	15.4
566.118	15.14
566.542	16.71
566.966	16.83
567.39	17.22
567.814	17.14
568.238	17.37
568.662	16.6
569.086	16.46
569.509	16.39
569.933	16.94
570.357	16.82
570.78	16.65
571.204	16.53
571.627	15.72
572.05	15.62
572.474	16.13
572.897	15.85
573.32	16.75
573.743	16.79
574.166	17.03
574.589	16.29
575.012	16.36
575.435	15.97
575.858	15.43
576.281	15.95
576.704	15.32
577.126	13.84
577.549	13.9
577.972	13.09
578.394	13.32
578.817	15.05
579.239	15.06
579.661	14.83
580.084	16
580.506	15.43
580.928	14.44
581.35	14.94
581.772	15.73
582.194	15.68
582.616	15.33
583.038	13.98
583.46	12.31
583.882	11.93
584.303	11.49
584.725	10.52
585.147	14.43
585.568	14.64
585.99	14.88
586.411	14.83
586.833	14.95
587.254	15.4
587.675	15.6
588.096	15.6
588.518	15.99
588.939	15.76
589.36	16.09
589.781	11.77
590.202	13.94
590.623	14
591.043	13.83
591.464	13.6
591.885	14.1
592.305	14.67
592.726	14.3
593.147	14.16
593.567	14.86
593.987	14.88
594.408	14.64
594.828	12.47
595.248	12.68
595.669	13.44
596.089	13.17
596.509	12.48
596.929	12.32
597.349	12.03
597.769	11.97
598.189	11.48
598.608	11.05
599.028	11.17
599.448	10.69
599.867	9.83
600.287	8.87
600.706	9.3
601.126	9.24
601.545	9.74
601.965	9.85
602.384	9.23
602.803	9.01
603.222	9.13
603.641	8.84
604.061	9.59
604.48	9.7
604.898	9.66
605.317	9.74
605.736	9.8
606.155	10.15
606.574	10.03
606.992	10.99
607.411	11.6
607.829	10.61
608.248	10.54
608.666	9.59
609.085	10.06
609.503	10.27
609.921	10.11
610.339	10.12
610.758	9.32
611.176	10
611.594	9.83
612.012	9.76
612.43	11.19
612.847	11.03
613.265	11.84
613.683	11.66
614.101	11.53
614.518	11.47
614.936	11.34
615.353	11.78
615.771	11.65
616.188	12.01
616.606	11.66
617.023	11.47
617.44	11.47
617.857	11.07
618.274	10.76
618.691	11.12
619.108	10.75
619.525	10.75
619.942	10.6
620.359	10.02
620.776	9.19
621.192	9.84
621.609	10.34
622.026	11.27
622.442	11.21
622.859	10.5
623.275	9.74
623.691	10.09
624.108	10.09
624.524	10.11
624.94	10.8
625.356	10.42
625.772	9.52
626.188	8.46
626.604	7.65
627.02	7.4
627.436	8.24
627.852	8.7
628.268	8.82
628.683	8.25
629.099	8.22
629.514	7.23
629.93	7.75
630.345	8.11
630.761	7.68
631.176	8.02
631.591	10.26
632.007	10.3
632.422	10.12
632.837	8.84
633.252	10.1
633.667	10.34
634.082	10.6
634.497	10.5
634.911	12.04
635.326	11.92
635.741	12.13
636.155	10.67
636.57	11.46
636.984	11.84
637.399	13.87
637.813	12.92
638.228	13.04
638.642	12.78
639.056	12.59
639.47	10.83
639.884	11.59
640.298	11.55
640.712	12.18
641.126	11.62
641.54	10.84
641.954	8.82
642.368	9.41
642.781	11.23
643.195	11.16
643.609	11.85
644.022	11.64
644.436	10.89
644.849	10.26
645.262	9.14
645.676	8.36
646.089	8.94
646.502	10.39
646.915	9.82
647.328	7.92
647.741	8.49
648.154	8.51
648.567	10.74
648.98	11.94
649.393	12.67
649.805	13.08
650.218	13.55
650.631	14.13
651.043	14.23
651.456	14.5
651.868	13.84
652.28	13.44
652.693	13.09
653.105	11.72
653.517	10.9
653.929	10.51
654.341	10.12
654.753	10.77
655.165	10.28
655.577	9.81
655.989	10.03
656.401	9.6
656.813	10.91
657.224	10.4
657.636	9.2
658.047	10.34
658.459	9.84
658.87	9.07
659.282	8.68
659.693	9.43
660.104	10.02
660.515	9.81
660.926	9.9
661.338	9.12
661.749	8.44
662.159	10.14
662.57	8.71
662.981	8.72
663.392	9.25
663.803	8.45
664.213	7.21
664.624	6.46
665.035	5.71
665.445	5.91
665.855	6.89
666.266	8.03
666.676	7.62
667.086	7.74
667.497	8.2
667.907	8.36
668.317	9.43
668.727	11.23
669.137	10.02
669.547	10.45
669.956	10.21
670.366	9.05
670.776	9.06
671.186	8.68
671.595	8.72
672.005	8.17
672.414	9.17
672.824	9.11
673.233	7.08
673.642	7.96
674.052	8.16
674.461	9.56
674.87	9.84
675.279	10.44
675.688	9
676.097	10
676.506	10.77
676.915	8.77
677.323	8.92
677.732	9.08
678.141	9.2
678.549	8.89
678.958	6.82
679.366	6.44
679.775	5.81
680.183	8.21
680.592	8.06
681	7.69
681.408	9.14
681.816	8.49
682.224	8.27
682.632	9.01
683.04	9.11
683.448	9.54
683.856	10.15
684.264	10.35
684.671	9.72
685.079	9.07
685.487	9.34
685.894	9.07
686.302	8.58
686.709	9.61
687.116	10.46
687.524	12.24
687.931	14.36
688.338	15.68
688.745	15.02
689.152	14.37
689.559	14.81
689.966	16.21
690.373	16.1
690.78	18.16
691.187	18.83
691.593	18.64
692	17.88
692.407	17.58
692.813	18.89
693.22	20.17
693.626	19.34
694.032	20.22
694.439	19.76
694.845	20.03
695.251	19.33
695.657	19.36
696.063	18.07
696.469	18.58
696.875	18.97
697.281	17.11
697.687	16.89
698.093	17.61
698.498	17.92
698.904	17.08
699.31	17.65
699.715	19.39
700.12	19.4
700.526	20.8
700.931	19.81
701.337	19.8
701.742	21.33
702.147	21.46
702.552	23.07
702.957	21.98
703.362	23.29
703.767	22.94
704.172	21.53
704.577	21.07
704.981	19.73
705.386	20.61
705.791	21.36
706.195	21
706.6	21.17
707.004	19.06
707.408	19.44
707.813	19.86
708.217	21.4
708.621	21.37
709.025	21.22
709.43	23.47
709.834	23.91
710.237	22.82
710.641	21.77
711.045	22.32
711.449	24.4
711.853	27.11
712.256	25.93
712.66	24.9
713.064	25.23
713.467	26.61
713.87	25.19
714.274	25.87
714.677	27.19
715.08	29.25
715.484	29.33
715.887	32.27
716.29	30.03
716.693	31.76
717.096	32.32
717.499	32.95
717.901	32.7
718.304	33.94
718.707	33.09
719.109	32.92
719.512	31.7
719.915	32.73
720.317	30.99
720.719	30.03
721.122	30.01
721.524	30.96
721.926	33.02
722.328	33.7
722.731	34.11
723.133	34.21
723.535	34.38
723.937	34.5
724.338	35.69
724.74	34.74
725.142	71.14
725.544	73.88
725.945	82.99
726.347	81.48
726.748	81.14
727.15	81.69
727.551	84.39
727.952	83.65
728.354	82.56
728.755	81.07
729.156	81.05
729.557	46.51
729.958	42.58
730.359	34.61
730.76	33
731.161	33.15
731.562	31.7
731.962	28.6
732.363	27.76
732.763	28.03
733.164	26.85
733.564	26.97
733.965	27.15
734.365	27.71
734.766	26.94
735.166	27.55
735.566	27.7
735.966	28.46
736.366	29.09
736.766	29.91
737.166	29.21
737.566	29.45
737.966	27.89
738.365	27.44
738.765	28.42
739.165	29.07
739.564	27.87
739.964	26.97
740.363	25.57
740.763	24.66
741.162	25.9
741.561	26.32
741.96	25.72
742.36	26.05
742.759	26.38
743.158	25.87
743.557	24.41
743.955	25.86
744.354	25.58
744.753	26.2
745.152	27.19
745.55	24.93
745.949	24.38
746.348	24.84
746.746	23.3
747.144	25.65
747.543	24.88
747.941	24.75
748.339	24.93
748.737	26.25
749.136	26.72
749.534	25.04
749.932	26.56
750.33	26.26
750.727	26.58
751.125	28.14
751.523	26.7
751.921	29.27
752.318	30.13
752.716	30.36
753.113	29.85
753.511	30.21
753.908	32.12
754.305	34.57
754.703	35.16
755.1	35.86
755.497	35.87
755.894	36.13
756.291	34.42
756.688	34.99
757.085	35.61
757.482	37.61
757.878	39.83
758.275	41.21
758.672	36.73
759.068	38.33
759.465	40.06
759.861	43.21
760.258	42.42
760.654	44.92
761.05	45.74
761.447	40.7
761.843	38.15
762.239	35.62
762.635	32.46
763.031	33.12
763.427	33.12
763.822	33.09
764.218	31.92
764.614	31.42
765.01	28.36
765.405	27.07
765.801	29.2
766.196	27.98
766.592	28.51
766.987	30.37
767.382	30.03
767.778	29.86
768.173	28.09
768.568	27.84
768.963	28.18
769.358	29.27
769.753	30.29
770.148	30.09
770.542	30.65
770.937	29.09
771.332	28.08
771.726	27.4
772.121	29.85
772.515	29.67
772.91	29.59
773.304	29.91
773.699	30.09
774.093	29.88
774.487	29.71
774.881	29.21
775.275	29.58
775.669	29.82
776.063	29.78
776.457	28.9
776.851	30.02
777.245	31.37
777.638	31.89
778.032	30.82
778.425	30.93
778.819	32.83
779.212	35.56
779.606	37.34
779.999	36.29
780.392	38.36
780.786	36.69
781.179	37.25
781.572	37.72
781.965	38.22
782.358	39.04
782.751	38.1
783.143	36.67
783.536	34.09
783.929	32.65
784.322	33.88
784.714	31.54
785.107	32.19
785.499	32.99
785.891	33.19
786.284	31.55
786.676	32.19
787.068	34.85
787.46	35.54
787.852	35.8
788.245	35.5
788.636	33.73
789.028	37.36
789.42	39.2
789.812	38.51
790.204	37.93
790.595	40.13
790.987	39.55
791.378	38.45
791.77	37.14
792.161	37.02
792.553	37.78
792.944	38.5
793.335	34.91
793.726	32.81
794.117	34.04
794.508	32.17
794.899	29.76
795.29	29.22
795.681	27.39
796.072	27.56
796.463	41.93
796.853	44.64
797.244	44.43
797.634	45.67
798.025	46.71
798.415	44.18
798.806	47.96
799.196	51.27
799.586	54.1
799.976	56.18
800.366	55.78
800.756	39.68
801.146	38.22
801.536	37.65
801.926	37.32
802.316	36.88
802.706	37.63
803.095	34.5
803.485	32.43
803.874	29.11
804.264	27.72
804.653	28.7
805.043	33.1
805.432	34.58
805.821	39.24
806.21	40.91
806.599	40.82
806.988	41.92
807.377	40.63
807.766	40.89
808.155	42.54
808.544	41.7
808.933	42.41
809.321	42.78
809.71	37.94
810.098	35.21
810.487	34.61
810.875	34.97
811.264	35.18
811.652	43.21
812.04	45.76
812.428	48.19
812.816	46.51
813.204	49.49
813.592	45.5
813.98	48.18
814.368	51.74
814.756	53.73
815.144	56.36
815.531	61.5
815.919	54.33
816.306	53.53
816.694	50.94
817.081	55.05
817.469	52.81
817.856	50.15
818.243	49.75
818.63	45.63
819.017	44.25
819.404	42.17
819.791	37.59
820.178	36.04
820.565	39.8
820.952	47.75
821.339	46.79
821.725	49.49
822.112	55.84
822.498	57.82
822.885	57.98
823.271	55.83
823.657	53.45
824.044	54.74
824.43	56.85
824.816	58.18
825.202	55.03
825.588	59.3
825.974	58.11
826.36	55.89
826.746	54.09
827.132	56.54
827.517	60.23
827.903	60.53
828.289	62
828.674	61.12
829.06	57.89
829.445	51.34
829.83	47.72
830.216	46.79
830.601	49.68
830.986	56.4
831.371	55.62
831.756	56.93
832.141	61.01
832.526	58.47
832.911	58.84
833.295	57.93
833.68	60.01
834.065	61.52
834.449	59.36
834.834	59.6
835.218	56.61
835.603	57.8
835.987	52.09
836.371	51.86
836.755	55.85
837.139	54.31
837.524	51.82
837.908	50.78
838.291	53.41
838.675	55.32
839.059	54.52
839.443	51.74
839.827	47.67
840.21	47.3
840.594	45.25
840.977	44.04
841.361	44.31
841.744	40.34
842.127	40.69
842.511	39.83
842.894	36.76
843.277	33.2
843.66	30.06
844.043	36
844.426	40.64
844.809	34.95
845.191	34.24
845.574	33.44
845.957	37.58
846.339	41.08
846.722	41.72
847.104	41.24
847.487	40.55
847.869	43.93
848.252	43.17
848.634	43.91
849.016	46.48
849.398	43.9
849.78	44.42
850.162	49.05
850.544	46.52
850.926	42.2
851.307	43.02
851.689	46.47
852.071	44.17
852.452	44.41
852.834	40.08
853.215	44.69
853.597	44.36
853.978	51.01
854.359	48.08
854.741	51.61
855.122	51.39
855.503	51.48
855.884	52.68
856.265	58.21
856.646	53.45
857.026	59.9
857.407	62.09
857.788	60.48
858.169	54.32
858.549	57.76
858.93	58.37
859.31	62.46
859.69	65.67
860.071	65.11
860.451	59.03
860.831	59.36
861.211	53.11
861.591	48.4
861.971	50.24
862.351	51.65
862.731	45.67
863.111	45.61
863.491	49.03
863.87	49.86
864.25	42.9
864.629	51.76
865.009	53.69
865.388	60.63
865.768	61.25
866.147	69.25
866.526	70.21
866.905	68.34
867.284	62.46
867.663	53.16
868.042	46.07
868.421	48.5
868.8	40.47
869.179	44.29
869.558	39.56
869.936	39.85
870.315	33.04
870.693	36.06
871.072	39.17
871.45	38.49
871.828	45.54
872.207	48.8
872.585	53.24
872.963	54.51
873.341	62.02
873.719	69.5
874.097	72.74
874.475	74.17
874.853	65.81
875.23	68.38
875.608	73.44
875.986	70.8
876.363	71.59
876.741	78.87
877.118	87.37
877.495	81.12
877.873	78.18
878.25	76.82
878.627	78.5
879.004	81.51
879.381	72.92
879.758	72.55
880.135	69.61
880.512	70.4
880.889	59.9
881.265	51.57
881.642	45.92
882.019	47.05
882.395	54.8
882.772	58.2
883.148	62.81
883.524	64.14
883.901	63.96
884.277	61.05
884.653	60.43
885.029	67.88
885.405	80.02
885.781	81.8
886.157	75.13
886.532	70.23
886.908	62.65
887.284	61.58
887.659	64.55
888.035	68.21
888.411	66.01
888.786	67.22
889.161	65.24
889.537	56.36
889.912	56.21
890.287	60.24
890.662	57.93
891.037	56.47
891.412	50.5
891.787	48.51
892.162	45.53
892.536	50.41
892.911	51.17
893.286	47.42
893.66	48.81
894.035	54.15
894.409	49.19
894.784	51.15
895.158	51.81
895.532	61.85
895.906	67.73
896.281	72.44
896.655	78.78
897.029	84.86
897.402	91.62
897.776	87.55
898.15	81.49
898.524	90.33
898.898	84.53
899.271	105.33
899.645	95.12
900.018	84.73
900.392	86.74
900.765	70.68
901.138	68.27
901.511	56.36
901.884	74.73
902.258	74.68
902.631	83.03
903.003	91.78
903.376	75.64
903.749	75.1
904.122	80.05
904.495	74.99
904.867	75.35
905.24	66.55
905.612	75.39
905.985	64.96
906.357	67.69
906.729	60.53
907.102	70.3
907.474	76.97
907.846	89.71
908.218	93.34
908.59	97.68
908.962	103.24
909.334	111.65
909.705	114.97
910.077	101.56
910.449	100.81
910.82	105.54
911.192	113.32
911.563	118.63
911.935	102.85
912.306	85.23
912.677	84.27
913.048	85.06
913.419	92.51
913.79	78.65
914.161	82.98
914.532	85.63
914.903	65.57
915.274	46.2
915.645	44.49
916.015	40.33
916.386	52.56
916.756	49.76
917.127	33.9
917.497	37.64
917.868	46.85
918.238	58.69
918.608	58.42
918.978	66.57
919.348	63.86
919.718	56.98
920.088	63.94
920.458	68.55
920.828	68.99
921.198	80.35
921.567	80.44
921.937	69.88
922.306	59.03
922.676	58.62
923.045	62.32
923.415	64.64
923.784	61.5
924.153	70.52
924.522	75.32
924.891	65.08
925.26	69.78
925.629	59.2
925.998	58.59
926.367	65.71
926.736	76.19
927.104	78.4
927.473	78.47
927.842	86.37
928.21	65.9
928.578	46.79
928.947	72.91
929.315	74.47
929.683	97.34
930.051	114.57
930.42	132.29
930.788	113.42
931.156	111.69
931.523	143.76
931.891	133.65
932.259	139.27
932.627	183.41
932.994	214.38
933.362	207.27
933.729	194.79
934.097	175.17
934.464	152.68
934.831	150.85
935.199	145.29
935.566	122.87
935.933	97.82
936.3	140.71
936.667	98.84
937.034	154.59
937.401	145.86
937.767	139.69
938.134	119.77
938.501	147.22
938.867	186.32
939.234	323.61
939.6	247.69
939.967	373.55
940.333	249.03
940.699	210.74
941.065	116.47
941.431	143.7
941.798	176.88
942.163	287.62
942.529	185.99
942.895	155.94
943.261	104.93
943.627	154.15
943.992	139.17
944.358	143.14
944.723	179.85
945.089	178.28
945.454	176.39
945.82	151.73
946.185	138.63
946.55	169.33
946.915	141.75
947.28	183.96
947.645	153.95
948.01	148.87
948.375	159
948.74	148.96
949.104	137.54
949.469	142.84
949.834	203.92
950.198	289.44
950.562	218.16
950.927	202.62
951.291	199.62
951.655	193.39
952.02	134.58
952.384	93.7
952.748	115.2
953.112	167.9
953.476	160.26
953.839	157.09
954.203	150.33
954.567	165.24
954.931	218.11
955.294	210.24
955.658	182.07
956.021	326.81
956.385	441.09
956.748	512.96
957.111	406.2
957.474	335.2
957.837	337.5
958.2	110.78
958.563	49.9
958.926	54.67
959.289	11.67
959.652	82.62
960.015	103.55
960.377	194.14
960.74	280.38
961.102	441.18
961.465	492.43
961.827	621.74
962.189	1161.35
962.552	785.93
962.914	702.27
963.276	449.96
963.638	349.65
964	290.57
964.362	246.68
964.724	221.07
965.085	186.28
965.447	162.8
965.809	101.67
966.17	99.18
966.532	99.87
966.893	89.35
967.255	89.53
967.616	80.05
967.977	74.69
968.338	69.14
968.699	77.1
969.061	71.39
969.421	83.12
969.782	85.77
970.143	88.23
970.504	117.25
970.865	147.59
971.225	183.87
971.586	206.38
971.946	279.91
972.307	230.13
972.667	254.05
973.027	257.3
973.388	274.51
973.748	217.14
974.108	240.24
974.468	243.88
974.828	211.1
975.188	134.25
975.548	105.63
975.907	117.47
976.267	129.78
976.627	135.34
976.986	145.82
977.346	119.61
977.705	117.71
978.064	107.56
978.424	97.46
978.783	75.1
979.142	86.54
979.501	95.71
979.86	99.21
980.219	84.04
980.578	81.96
980.937	76.66
981.296	105.21
981.654	87.71
982.013	85.67
982.371	139
982.73	158.36
983.088	143.56
983.447	173.63
983.805	233.8
984.163	567.03
984.521	581.59
984.879	443.41
985.237	-828.82
985.595	1637.81
985.953	512.61
986.311	273.32
986.669	175.22
987.026	163.03
987.384	161.8
987.741	131.35
988.099	158.87
988.456	168.92
988.814	204.46
989.171	176.91
989.528	128.4
989.885	113.64
990.242	104.43
990.599	87.04
990.956	71.74
991.313	67.26
991.67	68.13
992.027	95.01
992.383	76.3
992.74	65.44
993.096	73.88
993.453	79.48
993.809	83.8
994.165	86.91
994.522	128.64
994.878	145.75
995.234	182.58
995.59	160.49
995.946	94.66
996.302	99.69
996.658	122.36
997.013	109.37
997.369	145.69
997.725	215.94
998.08	181.22
998.436	140.81
998.791	185.85
999.147	187.4
999.502	249.05
999.857	172.04
1000.212	309.57
1000.567	506.78
1000.922	379.24
1001.277	248.87
1001.632	203.36
1001.987	219.23
1002.342	186.23
1002.696	155.9
1003.051	145.44
1003.406	201.67
1003.76	195.58
1004.114	211.35
1004.469	179.7
1004.823	134.94
1005.177	145.32
1005.531	103.01
1005.885	120.94
1006.239	152.16
1006.593	220.22
1006.947	283.49
1007.301	192.67
1007.655	223.88
1008.008	164.14
1008.362	179.09
1008.715	248.59
1009.069	242.61
1009.422	395.5
1009.776	706.2
1010.129	425.12
1010.482	285.04
1010.835	196.6
1011.188	361.89
1011.541	301.46
1011.894	-1305.32
1012.247	4136.54
1012.6	200.57
1012.952	108.12
1013.305	30.31
1013.657	45.64
1014.01	53.19
1014.362	32.21
1014.715	76.54
1015.067	93.82
1015.419	92.26
1015.771	104.93
1016.123	107.24
1016.475	125.36
1016.827	114.67
1017.179	141.26
1017.531	126.42
1017.883	119.1
1018.234	178.62
1018.586	198.07
1018.938	215.78
1019.289	328.43
1019.64	311.78
1019.992	249.68
1020.343	214.2
1020.694	227.27
1021.045	198.86
1021.396	248.41
1021.747	314.86
1022.098	279.83
1022.449	224.63
1022.8	198.15
1023.151	149.88
1023.501	166.8
1023.852	201.27
1024.202	220.53
1024.553	228.39
1024.903	246.13
1025.253	232.01
1025.604	207.28
1025.954	246.34
1026.304	274.35
1026.654	314.02
1027.004	414.62
1027.354	571.14
1027.703	535.97
1028.053	687.15
1028.403	1053.74
1028.753	1355.61
1029.102	1201.59
1029.452	3486.64
1029.801	147.15
1030.15	101.64
1030.499	64.77
897.758	1350.49
901.051	1305.23
904.343	1329.66
907.636	1329.91
910.928	1367.71
914.22	1322.03
917.511	1329.09
920.803	1353.04
924.094	1345.95
927.384	1352.72
930.675	1329.93
933.965	1311.36
937.255	1331.5
940.544	1313.23
943.834	1315.32
947.123	1279.75
950.411	1330.76
953.7	1321
956.988	1314.71
960.276	1270.7
963.563	1294.81
966.851	1301.14
970.138	1322.6
973.424	1324.38
976.711	1293.25
979.997	1319.98
983.283	1343.85
986.568	1306.4
989.853	1296.67
993.138	1308.52
996.423	1367.17
999.708	1342.7
1002.992	1358.17
1006.275	1306.25
1009.559	1308.45
1012.842	1368.13
1016.125	1338.96
1019.408	1325.38
1022.69	1354.75
1025.972	1371.57
1029.254	1360.29
1032.536	1337.97
1035.817	1341.19
1039.098	1323.96
1042.379	1350.53
1045.659	1364.22
1048.939	1330.74
1052.219	1334.16
1055.498	1329.23
1058.778	1322.18
1062.057	1309.09
1065.335	1325.4
1068.614	1326.95
1071.892	1320.76
1075.17	1353.22
1078.447	1356.07
1081.724	1350.54
1085.001	1363.69
1088.278	1348.09
1091.554	1349.87
1094.83	1350.07
1098.106	1369.28
1101.382	1384.42
1104.657	1383.41
1107.932	1386.14
1111.206	1372.2
1114.481	1343.58
1117.755	1346.94
1121.029	1341.23
1124.302	1374.48
1127.575	1358.33
1130.848	1358.01
1134.121	1342.11
1137.393	1316.2
1140.665	1352.28
1143.937	1336.55
1147.208	1308.63
1150.48	1339.88
1153.75	1331.24
1157.021	1336.13
1160.291	1322.59
1163.561	1352.04
1166.831	1330.33
1170.101	1342.34
1173.37	1320.32
1176.639	1298.07
1179.907	1326.14
1183.176	1335.28
1186.444	1339.46
1189.711	1353.15
1192.979	1367.79
1196.246	1342.61
1199.513	1350.28
1202.78	1353.63
1206.046	1357.63
1209.312	1376.4
1212.578	1379.9
1215.843	1356.46
1219.108	1344.78
1222.373	1355.11
1225.638	1340.81
1228.902	1331.5
1232.166	1312.89
1235.43	1302.71
1238.693	1320.93
1241.956	1318.88
1245.219	1345.73
1248.482	1339.05
1251.744	1342.31
1255.006	1405.75
1258.268	1378.1
1261.529	1358.2
1264.79	1356.3
1268.051	1410.35
1271.312	1417.79
1274.572	1397.32
1277.832	1390.04
1281.092	1377.31
1284.351	1373.58
1287.61	1366.15
1290.869	1331.1
1294.128	1330.03
1297.386	1351.55
1300.644	1350.2
1303.902	1353.62
1307.159	1279.94
1310.416	1307.18
1313.673	1320.84
1316.93	1324.02
1320.186	1337.22
1323.442	1355.09
1326.697	1352.72
1329.953	1339.13
1333.208	1358.65
1336.463	1343.57
1339.717	1326.3
1342.972	1387.89
1346.226	1374.59
1349.479	1354.11
1352.733	1337.49
1355.986	1349.3
1359.238	1336.85
1362.491	1341.29
1365.743	1341.42
1368.995	1340.94
1372.247	1351.29
1375.498	1357.22
1378.749	1380.22
1382	1357.62
1385.251	1372.09
1388.501	1351.49
1391.751	1346.3
1395	1333.65
1398.25	1348.2
1401.499	1364.52
1404.748	1336.32
1407.996	1327.97
1411.244	1328.72
1414.492	1320.35
1417.74	1307.73
1420.987	1317.01
1424.234	1347.53
1427.481	1328.72
1430.728	1358.63
1433.974	1347.76
1437.22	1345.57
1440.465	1341.63
1443.711	1343.35
1446.956	1351.69
1450.201	1335.68
1453.445	1364.1
1456.689	1351.84
1459.933	1360.64
1463.177	1381.27
1466.42	1368.39
1469.663	1356.66
1472.906	1364.74
1476.148	1392.7
1479.391	1367.48
1482.633	1357.82
1485.874	1372.96
1489.115	1376.69
1492.356	1367.25
1495.597	1351.89
1498.838	1348.07
1502.078	1341.2
1505.318	1329.98
1508.557	1343.94
1511.797	1341.42
1515.036	1371.27
1518.274	1346.57
1521.513	1314.09
1524.751	1318.44
1527.989	1331.05
1531.227	1342.44
1534.464	1345.25
1537.701	1339.13
1540.938	1342.08
1544.174	1314.6
1547.41	1304.95
1550.646	1326.98
1553.882	1352.65
1557.117	1387.55
1560.352	1389.6
1563.587	1366.5
1566.821	1349.55
1570.055	1361.7
1573.289	1344.62
1576.523	1374.63
1579.756	1382.16
1582.989	1395.23
1586.222	1369.75
1589.454	1391.71
1592.686	1383.28
1595.918	1396.8
1599.15	1395.11
1602.381	1422.12
1605.612	1411.84
1608.843	1463.1
1612.073	1420.66
1615.303	1415.6
1618.533	1413.51
1621.762	1411.52
1624.992	1393.88
1628.221	1390.77
1631.449	1387.68
1634.678	1399.98
1637.906	1377.44
1641.134	1388.71
1644.361	1370.21
1647.588	1366.15
1650.815	1380.1
1654.042	1358.77
1657.269	1375.51
1660.495	1364.63
1663.72	1359.53
1666.946	1338.1
1670.171	1330.1
1673.396	1314.06
1676.621	1305.99
1679.845	1303.85
1683.069	1304.7
1686.293	1319.57
1689.517	1314.43
1692.74	1290.54
1695.963	1301.31
1699.185	1320.28
1702.408	1308.1
1705.63	1321.76
1708.852	1330.72
1712.073	1316
1715.294	1328.2
1718.515	1354.57
1721.736	1329.7
1724.956	1322.54
1728.176	1334.62
1731.396	1345.57
1734.616	1342.67
1737.835	1368.65
1741.054	1349.62
1744.272	1350.46
1747.491	1369.11
1750.709	1379.29
1753.927	1354.5
1757.144	1370.46
1760.361	1401.44
1763.578	1384.33
1766.795	1356.45
1770.011	1349.37
1773.227	1359.81
1776.443	1385.47
1779.658	1404.45
1782.874	1377.82
1786.089	1372.45
1789.303	1372.42
1792.518	1372.83
1795.732	1366.65
1798.945	1374.74
1802.159	1402.56
1805.372	1369.08
1808.585	1364.68
1811.797	1364.57
1815.01	1382.48
1818.222	1396.87
1821.434	1376.54
1824.645	1398.71
1827.856	1402.5
1831.067	1417.88
1834.278	1388.34
1837.488	1374.91
1840.698	1444.75
1843.908	1419.19
1847.117	1402.99
1850.326	1360.55
1853.535	1396.13
1856.744	1415.38
1859.952	1372.95
1863.16	1373.58
1866.368	1388.56
1869.575	1452.6
1872.782	1388.61
1875.989	1354.62
1879.196	1383.99
1882.402	1377.93
1885.608	1396.76
1888.814	1363.49
1892.019	1314.6
1895.224	1348.15
1898.429	1332.97
1901.634	1320.71
1904.838	1308.52
1908.042	1343.24
1911.246	1353.14
1914.449	1331
1917.652	1322.04
1920.855	1311.68
1924.058	1322.62
1927.26	1354.69
1930.462	1365.03
1933.664	1386.08
1936.865	1357.42
1940.066	1363.93
1943.267	1332.8
1946.467	1338.02
1949.668	1344.38
1952.868	1388.87
1956.067	1387.79
1959.267	1354.39
1962.466	1367.66
1965.665	1354.84
1968.863	1355.31
1972.061	1352.6
1975.259	1350.04
1978.457	1393.21
1981.654	1372.45
1984.852	1373.16
1988.048	1348.13
1991.245	1337.12
1994.441	1387.5
1997.637	1358.61
2000.833	1349
2004.028	1365.81
2007.223	1405.37
2010.418	1395.06
2013.613	1367.77
2016.807	1363.61
2020.001	1360.06
2023.194	1368.89
2026.388	1361.22
2029.581	1330.91
2032.774	1367.74
2035.966	1375.85
2039.158	1344.51
2042.35	1356.3
2045.542	1314.15
2048.733	1360.22
2051.924	1350.51
2055.115	1360.57
2058.306	1345.84
2061.496	1372.05
2064.686	1402.3
2067.875	1343.39
2071.065	1344.97
2074.254	1353.46
2077.442	1327.88
2080.631	1375.53
2083.819	1341.34
2087.007	1335.06
2090.195	1327.44
2093.382	1329.67
2096.569	1326.3
2099.756	1302.74
2102.942	1338.57
2106.128	1341.87
2109.314	1339.98
2112.5	1331.92
2115.685	1312.78
2118.87	1315.64
2122.055	1356.87
2125.239	1343.41
2128.424	1340.04
2131.608	1368.25
2134.791	1355.8
2137.974	1376.64
2141.157	1371.82
2144.34	1355.56
2147.523	1344.98
2150.705	1364.36
2153.887	1345.1
2157.068	1329.65
2160.25	1316.56
2163.431	1329.67
2166.611	1313.39
2169.792	1330.37
2172.972	1271.87
2176.152	1306.87
2179.331	1318.83
2182.511	1320.6
2185.69	1328.54
2188.868	1329.18
2192.047	1351.05
2195.225	1367.64
2198.403	1336.66
2201.58	1326.6
2204.758	1316.81
2207.935	1363.26
2211.111	1312.29
2214.288	1306.47
2217.464	1326.26
2220.64	1303.86
2223.815	1332.17
2226.991	1291.18
2230.166	1297.76
2233.34	1322.57
2236.515	1332.05
2239.689	1370.85
2242.863	1341.52
2246.036	1370.84
2249.209	1363.48
2252.382	1376.44
2255.555	1380.4
2258.727	1355.52
2261.9	1372.76
2265.071	1368.85
2268.243	1368.25
2271.414	1340.62
2274.585	1329.3
2277.756	1365.29
2280.926	1344.3
2284.096	1359.13
2287.266	1320.34
2290.436	1351.6
2293.605	1358.57
2296.774	1378.57
2299.942	1381.94
2303.111	1391.55
2306.279	1421.77
2309.447	1413.33
2312.614	1400.66
2315.781	1408.72
2318.948	1396.97
2322.115	1417.66
2325.281	1353.53
2328.447	1357.98
2331.613	1341.34
2334.779	1338.84
2337.944	1335.14
2341.109	1336.03
2344.274	1331.51
2347.438	1308.66
2350.602	1323.15
2353.766	1328.81
2356.929	1325.3
2360.092	1351.25
2363.255	1330.49
2366.418	1317.7
2369.58	1337.64
2372.742	1320.19
2375.904	1307.75
2379.066	1302.97
2382.227	1318.9
2385.388	1293.62
2388.548	1266.81
2391.709	1284.74
2394.869	1280.89
2398.029	1313.07
2401.188	1302.95
2404.347	1292.86
2407.506	1287.88
2410.665	1322.44
2413.823	1310.04
2416.981	1300.84
2420.139	1313.62
2423.296	1334.26
2426.453	1319.73
2429.61	1331.85
2432.767	1317.35
2435.923	1339.27
2439.079	1309.29
2442.235	1331
2445.391	1294.34
2448.546	1318.32
2451.701	1338.2
2454.855	1335.16
2458.009	1352.88
2461.163	1344.68
2464.317	1327.44
2467.471	1341.08
2470.624	1361.81
2473.777	1357.07
2476.929	1364.3
2480.082	1377.01
2483.234	1368.4
2486.385	1332.61
2489.537	1328.03
2492.688	1323.36
2495.839	1337.7
2498.989	1344.11
2502.14	1336.78
2505.29	1330.23
2508.439	1343.08
2511.589	1312.42
2514.738	1312.26
2517.887	1321.43
2521.035	1366.93
2524.183	1340.43
2527.331	1334.14
2530.479	1328.24
2533.627	1331.2
