Data from N_1_DIV_PA_2N_Splice17_11-11-32-974.txt Node
Date: Sat Mar 14 11:11:32 EDT 2020
User: sa697716
Spectrometer: FLMS03696
Trigger mode: 0
Integration Time (sec): 3.180400E-1
Scans to average: 20
Electric dark correction enabled: true
Nonlinearity correction enabled: true
Boxcar width: 5
XAxis mode: Wavelengths
Number of Pixels in Spectrum: 2048
>>>>>Begin Spectral Data<<<<<
187.83	-186936.09
188.298	1269.61
188.766	644.87
189.233	560.65
189.701	824.87
190.169	1109.7
190.636	453.77
191.104	410.94
191.571	138.92
192.039	107.58
192.506	114.19
192.974	362.3
193.441	-487.72
193.908	-125.42
194.375	-74.97
194.842	-1.55
195.31	41.58
195.777	100.51
196.244	180.97
196.711	154.55
197.177	156.27
197.644	147.28
198.111	190.82
198.578	202.07
199.045	147.07
199.511	229.58
199.978	193.38
200.445	173.15
200.911	205.87
201.378	206.22
201.844	226.57
202.31	334.83
202.777	392.3
203.243	202.93
203.709	186.65
204.176	221.31
204.642	184.55
205.108	210.04
205.574	165.93
206.04	132.9
206.506	124.23
206.972	94.24
207.438	94.09
207.903	76.39
208.369	111.8
208.835	130.77
209.301	137.94
209.766	129.97
210.232	119.82
210.697	151.66
211.163	161.8
211.628	223.31
212.094	199.73
212.559	299.08
213.024	214.9
213.49	237.98
213.955	208.52
214.42	176.69
214.885	181.92
215.35	193.24
215.815	205.16
216.28	221.19
216.745	180.4
217.21	200.79
217.675	143.79
218.14	144.1
218.604	140.92
219.069	158.94
219.534	178.14
219.998	171.73
220.463	167.12
220.927	143.9
221.392	136.15
221.856	135.33
222.32	121.12
222.785	150.78
223.249	188.31
223.713	190.16
224.177	155.37
224.642	140.24
225.106	142.66
225.57	139.85
226.034	151.78
226.497	155.96
226.961	168.4
227.425	225.95
227.889	270.96
228.353	234.49
228.816	388.96
229.28	435.35
229.744	349.02
230.207	303.55
230.671	297.19
231.134	323.28
231.597	430.58
232.061	343.01
232.524	273.02
232.987	162.9
233.45	150.55
233.914	144.43
234.377	125.11
234.84	126.47
235.303	79
235.766	93.82
236.229	128.31
236.691	72.14
237.154	64.4
237.617	76.33
238.08	79.58
238.542	104.57
239.005	80.65
239.468	97.75
239.93	86.93
240.393	99.4
240.855	82.63
241.317	77.71
241.78	84.87
242.242	102.09
242.704	127.09
243.166	119.68
243.629	114.1
244.091	140.35
244.553	134.47
245.015	158.36
245.477	163.72
245.939	244.84
246.4	263.27
246.862	255.86
247.324	250.33
247.786	216.48
248.247	242.91
248.709	209.25
249.17	146.4
249.632	217.15
250.093	262.44
250.555	257.55
251.016	195.33
251.477	194.28
251.939	210.77
252.4	198.07
252.861	219.99
253.322	236.11
253.783	234.11
254.244	298.47
254.705	183.77
255.166	128.9
255.627	100.96
256.088	105.46
256.549	97.03
257.009	87.52
257.47	120.33
257.931	104.73
258.391	84.14
258.852	95.43
259.312	90.59
259.773	104.59
260.233	151.1
260.694	152.16
261.154	146.67
261.614	156.49
262.074	140.58
262.534	142.15
262.994	146.97
263.455	158.37
263.915	153.34
264.374	140.09
264.834	148.54
265.294	120.09
265.754	136.13
266.214	139.08
266.673	117.7
267.133	123.22
267.593	111.26
268.052	129.38
268.512	99.22
268.971	168.37
269.431	188.47
269.89	182.62
270.349	292.47
270.809	329.71
271.268	318.54
271.727	610.65
272.186	427.54
272.645	355.32
273.104	222.22
273.563	348.87
274.022	184.91
274.481	193.57
274.94	146.27
275.399	101.96
275.857	93.97
276.316	98.18
276.775	90.36
277.233	82.34
277.692	87.15
278.15	123.95
278.609	167.32
279.067	192.79
279.525	189.26
279.984	215.65
280.442	255.06
280.9	320.75
281.358	220.21
281.816	223.68
282.274	227.19
282.732	213.45
283.19	208.06
283.648	165.47
284.106	145.62
284.564	114.65
285.021	131.46
285.479	102.85
285.937	73.42
286.394	76.75
286.852	59.46
287.309	51.49
287.767	68.04
288.224	76.54
288.682	75.23
289.139	97.44
289.596	124.25
290.053	124.51
290.511	135.07
290.968	182.16
291.425	222.34
291.882	243.65
292.339	225.92
292.796	203.69
293.252	178.11
293.709	160.04
294.166	149.25
294.623	126.17
295.079	108.83
295.536	127.17
295.992	100.91
296.449	93.98
296.905	109.77
297.362	134.4
297.818	136.66
298.274	150.57
298.731	145.73
299.187	141.66
299.643	155.22
300.099	196.33
300.555	208.39
301.011	191.81
301.467	222.99
301.923	210.68
302.379	188.32
302.835	192.69
303.291	176.04
303.746	194.97
304.202	229.73
304.658	218.29
305.113	143.64
305.569	159.58
306.024	124.63
306.479	84.61
306.935	89.64
307.39	76.15
307.845	75.53
308.301	100.78
308.756	96.25
309.211	95.92
309.666	101.78
310.121	151.97
310.576	120.44
311.031	126.76
311.486	123.18
311.94	83.88
312.395	109.89
312.85	70.74
313.305	-303.67
313.759	169.6
314.214	11.59
314.668	118.73
315.123	159.4
315.577	110.81
316.032	109.31
316.486	156.02
316.94	141.08
317.394	110.91
317.849	102.38
318.303	98.35
318.757	112.75
319.211	130.98
319.665	106.72
320.119	109.39
320.572	111.02
321.026	133.54
321.48	110.37
321.934	117.94
322.387	118.68
322.841	143.93
323.295	159.76
323.748	125.91
324.202	128.27
324.655	158.4
325.108	234.58
325.562	226.07
326.015	233.27
326.468	192.53
326.921	220.53
327.374	225.18
327.827	254.88
328.28	252.36
328.733	209.83
329.186	183.17
329.639	181.49
330.092	141.26
330.545	123.41
330.997	132.83
331.45	152.06
331.903	198.61
332.355	289.72
332.808	263.44
333.26	220.99
333.713	225.58
334.165	201.93
334.617	212.97
335.069	139.78
335.522	235.09
335.974	203.39
336.426	156.79
336.878	55.47
337.33	39.89
337.782	26.94
338.234	49.85
338.686	8.97
339.137	17.97
339.589	43.63
340.041	71.48
340.493	65.94
340.944	85.62
341.396	76.28
341.847	90.08
342.299	126.23
342.75	189.67
343.201	156.36
343.653	188.46
344.104	218.01
344.555	147.39
345.006	143.03
345.457	154.17
345.908	96.16
346.359	118.98
346.81	82.63
347.261	66.31
347.712	34.08
348.163	11.48
348.613	75.69
349.064	72.46
349.515	86.79
349.965	99.87
350.416	90.24
350.866	96.47
351.317	87.28
351.767	135.37
352.217	203.73
352.668	223.29
353.118	198.07
353.568	100.6
354.018	110.24
354.468	99.82
354.918	99.04
355.368	99.45
355.818	161.79
356.268	342.58
356.718	1593.85
357.168	369.82
357.617	150.43
358.067	205.9
358.517	182.31
358.966	251.44
359.416	359.76
359.865	335.29
360.315	346.35
360.764	185.66
361.213	106.91
361.663	87.31
362.112	82.25
362.561	119.79
363.01	93.83
363.459	84.84
363.908	57.47
364.357	80.82
364.806	122.66
365.255	77.35
365.703	85.92
366.152	108.06
366.601	102.45
367.05	95.21
367.498	94.06
367.947	82.77
368.395	72.01
368.844	69.12
369.292	31.83
369.74	31.59
370.189	34.52
370.637	28.68
371.085	19.32
371.533	8.8
371.981	5.1
372.429	28.88
372.877	42.87
373.325	48.26
373.773	35.5
374.221	38.81
374.669	45.8
375.116	32.97
375.564	32.05
376.012	32.87
376.459	30.59
376.907	38.4
377.354	22.12
377.801	40.5
378.249	61.97
378.696	75.31
379.143	113.25
379.591	120.7
380.038	246.17
380.485	219
380.932	283.81
381.379	363.16
381.826	317.04
382.273	231.34
382.72	189.34
383.166	203.75
383.613	163.07
384.06	139.7
384.506	143.22
384.953	97.4
385.4	94.71
385.846	75.68
386.292	45.38
386.739	33.55
387.185	19.67
387.631	24.04
388.078	32.83
388.524	21.47
388.97	20.58
389.416	19.49
389.862	32.25
390.308	23.06
390.754	27.36
391.2	34.03
391.645	30.9
392.091	60.25
392.537	57.59
392.983	38.01
393.428	60.9
393.874	56.83
394.319	74.7
394.765	84.11
395.21	83.24
395.655	78.5
396.101	73.79
396.546	71.95
396.991	51.41
397.436	45.94
397.881	46.51
398.326	30.74
398.771	40.48
399.216	34.87
399.661	25.17
400.106	31.06
400.551	33.94
400.995	35.39
401.44	35.42
401.885	36.14
402.329	36.74
402.774	39.26
403.218	47.94
403.663	41.75
404.107	39.49
404.551	41.23
404.995	36.67
405.44	35.52
405.884	31.9
406.328	24.32
406.772	21.16
407.216	19.45
407.66	14.62
408.104	7.01
408.547	7.44
408.991	9.29
409.435	9.53
409.879	11.12
410.322	13.53
410.766	15.66
411.209	20.5
411.653	21.83
412.096	25.11
412.54	23.23
412.983	23.79
413.426	27.34
413.869	23.16
414.312	25.49
414.756	21.89
415.199	19.01
415.642	19.52
416.085	19.72
416.527	18.55
416.97	15.29
417.413	17.8
417.856	13.63
418.298	11.56
418.741	11.69
419.184	7.55
419.626	4.49
420.069	2.05
420.511	0.86
420.953	3.54
421.396	3.81
421.838	4.75
422.28	5.89
422.722	10.2
423.164	9.39
423.606	9.17
424.048	7.74
424.49	8.91
424.932	10.32
425.374	8.41
425.816	4.89
426.258	4.53
426.699	5.07
427.141	6.35
427.582	4.2
428.024	1.81
428.465	2.32
428.907	4.5
429.348	6.09
429.789	5.78
430.231	8.17
430.672	8.47
431.113	7.41
431.554	6.35
431.995	2.71
432.436	3.56
432.877	6.26
433.318	8.52
433.759	6.73
434.2	6.76
434.64	6.06
435.081	6.36
435.522	7.77
435.962	8.74
436.403	10.01
436.843	7.7
437.284	7.37
437.724	4.67
438.164	1.36
438.604	2.17
439.045	4.52
439.485	6.28
439.925	5.79
440.365	3.94
440.805	3.95
441.245	4.94
441.685	8.26
442.125	8.07
442.564	9.28
443.004	11.22
443.444	10.51
443.883	10.9
444.323	9.15
444.762	6.52
445.202	6.36
445.641	7.53
446.081	3.46
446.52	2.27
446.959	2.63
447.398	3.82
447.837	2.05
448.276	2.64
448.716	2.6
449.154	0.69
449.593	2.99
450.032	3.3
450.471	1.07
450.91	2.07
451.349	3.34
451.787	3.2
452.226	1.64
452.664	2.78
453.103	2.99
453.541	0.85
453.98	4.91
454.418	4.99
454.856	6.37
455.295	7.81
455.733	8.59
456.171	7.85
456.609	7.71
457.047	8.79
457.485	10.84
457.923	11.12
458.361	11.02
458.798	9.21
459.236	9.2
459.674	8.49
460.111	8.26
460.549	7.57
460.987	6.02
461.424	6.2
461.862	6.15
462.299	5.38
462.736	6.45
463.173	6.74
463.611	8.94
464.048	8.57
464.485	8.73
464.922	8.85
465.359	8.66
465.796	15.19
466.233	15.96
466.67	18.31
467.106	18.97
467.543	17.41
467.98	17.16
468.416	15.36
468.853	14.22
469.29	13.01
469.726	11.9
470.162	12.38
470.599	7.76
471.035	6.38
471.471	5.25
471.907	2.84
472.344	2.82
472.78	3.51
473.216	2.86
473.652	3.49
474.088	3.9
474.523	4.78
474.959	4.11
475.395	3.01
475.831	3.39
476.266	1.9
476.702	1.74
477.138	2.24
477.573	2.05
478.008	2.61
478.444	3.89
478.879	4.68
479.314	5.08
479.75	5.57
480.185	6.35
480.62	6.22
481.055	6.54
481.49	7.55
481.925	7.37
482.36	8.24
482.795	7.98
483.229	6.78
483.664	5.9
484.099	5.83
484.534	6.23
484.968	6.42
485.403	5.8
485.837	5.45
486.271	5.36
486.706	5.7
487.14	4.97
487.574	5.18
488.009	5.07
488.443	5.34
488.877	5.16
489.311	4.55
489.745	4.76
490.179	5.13
490.613	6.5
491.046	5.83
491.48	5.67
491.914	5.74
492.348	5.14
492.781	5.29
493.215	5.33
493.648	4.36
494.082	4.54
494.515	4.79
494.948	5.51
495.382	4.21
495.815	4.8
496.248	4.84
496.681	4.29
497.114	4.45
497.547	4.97
497.98	5.1
498.413	6.81
498.846	6.83
499.279	6.68
499.711	6.04
500.144	5.79
500.577	6.29
501.009	6.1
501.442	7.17
501.874	7.9
502.306	7.53
502.739	8.82
503.171	8.82
503.603	8.7
504.036	8.15
504.468	8.69
504.9	9.37
505.332	9.05
505.764	9.34
506.196	8.79
506.627	8.49
507.059	8.74
507.491	7.42
507.923	7.36
508.354	7.8
508.786	8.2
509.217	7.88
509.649	7.95
510.08	7.79
510.512	8.27
510.943	8.56
511.374	9.17
511.805	8.7
512.237	8.67
512.668	7.78
513.099	7.29
513.53	6.97
513.961	7.52
514.391	7.29
514.822	8.62
515.253	8.39
515.684	8.14
516.114	7.55
516.545	8.07
516.975	7.88
517.406	8.03
517.836	8.15
518.267	8.51
518.697	9.08
519.127	9.36
519.558	8.31
519.988	7.76
520.418	7.22
520.848	7.12
521.278	7.02
521.708	21.38
522.138	21.8
522.567	21.34
522.997	21.1
523.427	20.23
523.857	20.36
524.286	20.45
524.716	21.1
525.145	21.9
525.575	22.8
526.004	22.7
526.433	9.38
526.863	9
527.292	10.13
527.721	10.87
528.15	11.05
528.579	11.32
529.008	11.14
529.437	10.49
529.866	10.3
530.295	9.51
530.724	10.2
531.152	9.88
531.581	11.13
532.01	11.33
532.438	10.8
532.867	10.65
533.295	10.55
533.723	11.01
534.152	11.69
534.58	12.01
535.008	12.2
535.436	12.65
535.865	12.5
536.293	11.14
536.721	10.91
537.149	11.06
537.576	11.97
538.004	12.57
538.432	12.3
538.86	12.22
539.287	11.78
539.715	12.03
540.143	11.31
540.57	11.55
540.998	12.06
541.425	13.37
541.852	13.46
542.28	13.41
542.707	13
543.134	13.18
543.561	13.47
543.988	13.72
544.415	13.9
544.842	13.75
545.269	13.96
545.696	14.27
546.123	13.66
546.549	14.13
546.976	13.84
547.403	13.54
547.829	13.13
548.256	12.67
548.682	12.89
549.108	12.43
549.535	12.38
549.961	11.94
550.387	11.88
550.813	12.27
551.24	12.62
551.666	12.2
552.092	12.44
552.518	12.57
552.943	13
553.369	12.42
553.795	12.67
554.221	13.12
554.646	13.46
555.072	13.95
555.498	12.89
555.923	12.01
556.349	11.78
556.774	11.75
557.199	11.77
557.625	11.43
558.05	11.97
558.475	11.62
558.9	11.09
559.325	11.42
559.75	11.51
560.175	11.25
560.6	10.45
561.025	10.26
561.449	10.05
561.874	9.79
562.299	9.61
562.723	9.51
563.148	9.6
563.572	9.72
563.997	9.18
564.421	7.82
564.846	7.84
565.27	8.25
565.694	8.64
566.118	8.69
566.542	9.66
566.966	10.41
567.39	10.24
567.814	10.2
568.238	9.93
568.662	9.86
569.086	10.64
569.509	10.49
569.933	11.57
570.357	11.61
570.78	11.49
571.204	11.81
571.627	11.27
572.05	11.36
572.474	12.25
572.897	12.55
573.32	13.12
573.743	12.56
574.166	12.66
574.589	11.67
575.012	11.78
575.435	10.91
575.858	10.67
576.281	10.95
576.704	11.1
577.126	9.98
577.549	10.03
577.972	8.99
578.394	8.93
578.817	10.32
579.239	10.44
579.661	9.92
580.084	11.46
580.506	11.16
580.928	10.93
581.35	10.5
581.772	10.69
582.194	10.44
582.616	10.79
583.038	10.68
583.46	9.65
583.882	9.7
584.303	9.11
584.725	7.98
585.147	10.38
585.568	10.44
585.99	10.81
586.411	11.34
586.833	11.31
587.254	11.18
587.675	11.46
588.096	10.97
588.518	10.55
588.939	11.66
589.36	11.78
589.781	8.27
590.202	9.62
590.623	9.52
591.043	8.71
591.464	8.92
591.885	9.2
592.305	8.94
592.726	8.93
593.147	9.19
593.567	9.21
593.987	8.75
594.408	8.98
594.828	7.39
595.248	7.63
595.669	8.42
596.089	8.37
596.509	7.71
596.929	7.83
597.349	7.9
597.769	7.98
598.189	7.75
598.608	8.34
599.028	7.8
599.448	7.23
599.867	6.88
600.287	6.03
600.706	6.68
601.126	7
601.545	7.39
601.965	7.1
602.384	6.82
602.803	6.78
603.222	6.78
603.641	6.76
604.061	7.4
604.48	7.25
604.898	7.41
605.317	6.29
605.736	6.13
606.155	5.97
606.574	6.17
606.992	6.39
607.411	6.48
607.829	5.93
608.248	5.55
608.666	5.09
609.085	5.5
609.503	5.11
609.921	5.57
610.339	6.13
610.758	5.45
611.176	5.32
611.594	5.62
612.012	6
612.43	6.39
612.847	7.35
613.265	8.24
613.683	8.39
614.101	9.18
614.518	9.26
614.936	9.04
615.353	10.06
615.771	10.41
616.188	9.74
616.606	9.32
617.023	9.8
617.44	9.45
617.857	8.01
618.274	7.09
618.691	6.93
619.108	6.92
619.525	6.39
619.942	5.71
620.359	5.32
620.776	5.42
621.192	5.85
621.609	6.33
622.026	6.44
622.442	7.09
622.859	7.03
623.275	6.33
623.691	6.12
624.108	6.77
624.524	6.95
624.94	7.33
625.356	7.21
625.772	6.53
626.188	5.01
626.604	5.3
627.02	5.31
627.436	5.85
627.852	7.34
628.268	7.09
628.683	6.64
629.099	6.85
629.514	6.73
629.93	7.29
630.345	7.12
630.761	7.06
631.176	7.36
631.591	7.96
632.007	8.08
632.422	7.26
632.837	7.03
633.252	7.5
633.667	7.56
634.082	7.57
634.497	7.76
634.911	9.33
635.326	10.51
635.741	10
636.155	9.2
636.57	9.7
636.984	9.46
637.399	10.29
637.813	9.56
638.228	8.92
638.642	8.8
639.056	8.72
639.47	7.57
639.884	7.5
640.298	7.79
640.712	8.72
641.126	8.59
641.54	7.8
641.954	6.46
642.368	7.04
642.781	8.86
643.195	8.6
643.609	8.24
644.022	8.35
644.436	7.59
644.849	6.86
645.262	6.17
645.676	4.98
646.089	5.48
646.502	6.95
646.915	6.38
647.328	4.85
647.741	5.7
648.154	5.8
648.567	7.19
648.98	7.47
649.393	7.66
649.805	7.5
650.218	8.05
650.631	8.49
651.043	7.26
651.456	7.48
651.868	7.98
652.28	7.21
652.693	7
653.105	5.77
653.517	5.95
653.929	5.71
654.341	6.15
654.753	6.11
655.165	6.29
655.577	7.54
655.989	7.01
656.401	6.62
656.813	7.27
657.224	7.3
657.636	6.29
658.047	6.86
658.459	7.06
658.87	5.63
659.282	5.47
659.693	5.71
660.104	5.37
660.515	5.8
660.926	5.16
661.338	5.12
661.749	4.78
662.159	6.26
662.57	5.09
662.981	4.52
663.392	4.78
663.803	4.16
664.213	4.51
664.624	4.73
665.035	3.55
665.445	3.57
665.855	4.32
666.266	4.69
666.676	3.67
667.086	3.33
667.497	4.52
667.907	5.94
668.317	6.45
668.727	8.51
669.137	7.2
669.547	7.96
669.956	7.68
670.366	6.85
670.776	6.97
671.186	7.12
671.595	7.67
672.005	6.64
672.414	7.09
672.824	7.99
673.233	5.14
673.642	6.27
674.052	6.83
674.461	7.35
674.87	6.62
675.279	7.46
675.688	5.84
676.097	6.63
676.506	7.23
676.915	5.57
677.323	5.5
677.732	5.93
678.141	5.28
678.549	5.14
678.958	4.18
679.366	4.24
679.775	3.24
680.183	5.66
680.592	4.88
681	5.55
681.408	6.11
681.816	5.67
682.224	5.23
682.632	6.63
683.04	6.67
683.448	7.69
683.856	8.69
684.264	9.28
684.671	7.45
685.079	7.26
685.487	5.87
685.894	5.3
686.302	4.62
686.709	5.51
687.116	4.63
687.524	4.9
687.931	6.18
688.338	6.14
688.745	5.27
689.152	5.87
689.559	6.79
689.966	9.19
690.373	9.8
690.78	11.16
691.187	10.86
691.593	11.86
692	11.57
692.407	10.8
692.813	12.03
693.22	12.45
693.626	12.21
694.032	11.79
694.439	10.97
694.845	11.98
695.251	11.02
695.657	11.7
696.063	10.75
696.469	11.17
696.875	11.82
697.281	11.27
697.687	10.69
698.093	11.03
698.498	12.59
698.904	11.43
699.31	10.63
699.715	11.82
700.12	11.62
700.526	12.11
700.931	11.8
701.337	12.65
701.742	13.1
702.147	14.6
702.552	15.23
702.957	13.57
703.362	14.61
703.767	14.68
704.172	14.26
704.577	13.99
704.981	13.7
705.386	14.52
705.791	13.74
706.195	12.78
706.6	11.83
707.004	11.57
707.408	11.16
707.813	12.17
708.217	13.28
708.621	13.62
709.025	13.03
709.43	14.31
709.834	14.12
710.237	13.46
710.641	13.99
711.045	14.77
711.449	15.9
711.853	19.43
712.256	18.79
712.66	18.19
713.064	18.46
713.467	19.88
713.87	19.45
714.274	20.27
714.677	22.65
715.08	22.67
715.484	23.13
715.887	24.07
716.29	20.98
716.693	21.57
717.096	21.95
717.499	22.03
717.901	22.11
718.304	22.11
718.707	20.95
719.109	19.52
719.512	18.36
719.915	20.91
720.317	19.66
720.719	20.01
721.122	19.04
721.524	20.37
721.926	23.38
722.328	22.83
722.731	22.86
723.133	22.8
723.535	22.35
723.937	23.41
724.338	23.09
724.74	24.7
725.142	57.62
725.544	61.68
725.945	68.87
726.347	65.51
726.748	66.39
727.15	67.32
727.551	69.71
727.952	69.79
728.354	69.7
728.755	68.4
729.156	67.38
729.557	35.47
729.958	31.58
730.359	24.1
730.76	24.6
731.161	23.45
731.562	22.72
731.962	21.53
732.363	21.09
732.763	20.99
733.164	19.08
733.564	19.05
733.965	20.18
734.365	20.36
734.766	20.59
735.166	20.26
735.566	22.09
735.966	22.18
736.366	22.42
736.766	22.59
737.166	22.3
737.566	23.23
737.966	23.05
738.365	22.91
738.765	23.47
739.165	22.46
739.564	22.75
739.964	20.97
740.363	20.03
740.763	18.45
741.162	19.75
741.561	20.74
741.96	21
742.36	20.45
742.759	20.4
743.158	19.33
743.557	19.83
743.955	18.95
744.354	18.68
744.753	18.26
745.152	19.09
745.55	17.09
745.949	15.93
746.348	16.44
746.746	15.41
747.144	16.37
747.543	17.05
747.941	15.91
748.339	16.71
748.737	17.49
749.136	19
749.534	18.18
749.932	20.27
750.33	20.33
750.727	19.14
751.125	20.56
751.523	19.86
751.921	21.53
752.318	23.08
752.716	24.08
753.113	24.26
753.511	23.63
753.908	25.02
754.305	26.87
754.703	26.86
755.1	27.7
755.497	27.12
755.894	26.63
756.291	24.76
756.688	24.34
757.085	23.23
757.482	24.2
757.878	26.23
758.275	27.25
758.672	22.26
759.068	23.22
759.465	23.48
759.861	23.88
760.258	23.34
760.654	26.32
761.05	31.33
761.447	29.93
761.843	28.1
762.239	26.5
762.635	22.53
763.031	23.93
763.427	24.22
763.822	25.34
764.218	24.37
764.614	24.73
765.01	21.44
765.405	18.6
765.801	19.84
766.196	18.71
766.592	17.64
766.987	18.48
767.382	18.56
767.778	18.21
768.173	17.23
768.568	17.9
768.963	18.69
769.358	19.77
769.753	21.61
770.148	21.11
770.542	22.01
770.937	22
771.332	22.36
771.726	21.38
772.121	23.63
772.515	23.6
772.91	23.65
773.304	23.7
773.699	24.01
774.093	22.4
774.487	23.41
774.881	23.9
775.275	24.48
775.669	23.83
776.063	24.19
776.457	24.16
776.851	24.64
777.245	25.57
777.638	24.87
778.032	24.83
778.425	25.96
778.819	27.62
779.212	29.59
779.606	30.66
779.999	30.51
780.392	31.14
780.786	28.86
781.179	29.1
781.572	28.24
781.965	28.36
782.358	28.66
782.751	27.91
783.143	26.71
783.536	23.79
783.929	22.47
784.322	23.39
784.714	22.39
785.107	23.89
785.499	25.07
785.891	26.65
786.284	27.86
786.676	26.9
787.068	27.45
787.46	28.34
787.852	28.75
788.245	28.76
788.636	28.17
789.028	30.04
789.42	31.1
789.812	30.83
790.204	31.5
790.595	32.76
790.987	34.35
791.378	35
791.77	32.75
792.161	33.18
792.553	34.37
792.944	36.34
793.335	35.41
793.726	34.67
794.117	36.84
794.508	34.26
794.899	31.4
795.29	30.22
795.681	30.01
796.072	31.51
796.463	42.51
796.853	44.62
797.244	44.83
797.634	45.44
798.025	45.75
798.415	43.41
798.806	45.27
799.196	46.05
799.586	48.72
799.976	49.6
800.366	47.53
800.756	34.97
801.146	34
801.536	31.98
801.926	31.53
802.316	30.97
802.706	31.61
803.095	31.43
803.485	31.88
803.874	29.45
804.264	27.83
804.653	28.91
805.043	31.4
805.432	32
805.821	35.47
806.21	35
806.599	34.12
806.988	32.18
807.377	30.38
807.766	28.82
808.155	28.93
808.544	28.37
808.933	29.51
809.321	31.45
809.71	27.5
810.098	25.84
810.487	25.4
810.875	26.11
811.264	27.84
811.652	35.5
812.04	38.24
812.428	39.5
812.816	39.52
813.204	39.43
813.592	34.11
813.98	35.69
814.368	38.19
814.756	38.87
815.144	39.63
815.531	41.64
815.919	36.44
816.306	34.56
816.694	32.65
817.081	35.56
817.469	36.24
817.856	33.08
818.243	32.13
818.63	25.5
819.017	28.71
819.404	27.28
819.791	26.17
820.178	23.58
820.565	28.27
820.952	36.93
821.339	36.02
821.725	35.11
822.112	40.66
822.498	41.9
822.885	43.85
823.271	42.28
823.657	39.45
824.044	37.29
824.43	35.81
824.816	37.39
825.202	37.03
825.588	34.38
825.974	37.28
826.36	34.7
826.746	36.88
827.132	38.15
827.517	39.17
827.903	42.04
828.289	47.79
828.674	47.62
829.06	44.93
829.445	40.42
829.83	42.94
830.216	41.73
830.601	44.25
830.986	46.87
831.371	43.58
831.756	45.13
832.141	49.25
832.526	46.09
832.911	50.08
833.295	47.12
833.68	49.08
834.065	52.91
834.449	52.02
834.834	51.93
835.218	52.82
835.603	57.42
835.987	52.8
836.371	50.52
836.755	49.54
837.139	45.02
837.524	44.35
837.908	42.32
838.291	40.95
838.675	40.97
839.059	42.3
839.443	36.57
839.827	33.32
840.21	32.62
840.594	32.26
840.977	32.94
841.361	34.58
841.744	34.58
842.127	33.03
842.511	29.71
842.894	25.46
843.277	23.9
843.66	23.89
844.043	23.47
844.426	26.06
844.809	25.29
845.191	23.34
845.574	23.31
845.957	24.82
846.339	26.64
846.722	28.28
847.104	27.91
847.487	25.8
847.869	26.61
848.252	29.8
848.634	31.04
849.016	29.18
849.398	29.84
849.78	28.27
850.162	29.73
850.544	29.41
850.926	26.37
851.307	27.25
851.689	26.88
852.071	22.87
852.452	22.95
852.834	20.19
853.215	22.45
853.597	21.54
853.978	25.89
854.359	26.11
854.741	26.45
855.122	26.74
855.503	26.23
855.884	28
856.265	31.72
856.646	23.51
857.026	28.87
857.407	30.5
857.788	30.06
858.169	26.7
858.549	30.74
858.93	30.1
859.31	31.36
859.69	33.05
860.071	33.92
860.451	34.54
860.831	39.03
861.211	35.26
861.591	30.47
861.971	29.44
862.351	30.75
862.731	24.21
863.111	26.1
863.491	28.53
863.87	28.92
864.25	28.21
864.629	29.77
865.009	27.19
865.388	27.9
865.768	29.89
866.147	32.95
866.526	34.3
866.905	38.78
867.284	35.3
867.663	30.94
868.042	26.83
868.421	26.03
868.8	22.33
869.179	30.78
869.558	30.01
869.936	30.52
870.315	28.64
870.693	27.85
871.072	26.44
871.45	26.45
871.828	32.13
872.207	35.21
872.585	36.6
872.963	36.93
873.341	39.08
873.719	42.98
874.097	45.27
874.475	45.48
874.853	44.2
875.23	42.16
875.608	45.97
875.986	45.33
876.363	47.61
876.741	55.82
877.118	58.11
877.495	55.14
877.873	50.8
878.25	48.79
878.627	49.29
879.004	50.3
879.381	53.32
879.758	53.39
880.135	49.59
880.512	52.13
880.889	44.08
881.265	42.59
881.642	34.16
882.019	36.38
882.395	41.58
882.772	51.44
883.148	54.44
883.524	53.99
883.901	52.74
884.277	52.36
884.653	50.48
885.029	56.99
885.405	66.37
885.781	69.67
886.157	66.31
886.532	60.3
886.908	49.75
887.284	45.95
887.659	47.74
888.035	46.54
888.411	42.95
888.786	44.22
889.161	38.23
889.537	26.27
889.912	30.28
890.287	28.71
890.662	28.91
891.037	27.38
891.412	28.56
891.787	18.13
892.162	17.72
892.536	22.43
892.911	22.93
893.286	21.74
893.66	24.64
894.035	22.63
894.409	20.6
894.784	25.53
895.158	25.14
895.532	27.41
895.906	37.31
896.281	39.57
896.655	39.61
897.029	42.7
897.402	49.95
897.776	46.58
898.15	47.21
898.524	49.32
898.898	42.07
899.271	49.49
899.645	46.21
900.018	43.62
900.392	48.26
900.765	43.69
901.138	38.23
901.511	28.33
901.884	44.52
902.258	47.85
902.631	56.27
903.003	58.75
903.376	52.89
903.749	60.28
904.122	47.42
904.495	41.01
904.867	38.6
905.24	40.35
905.612	33.97
905.985	23.46
906.357	17.44
906.729	11.52
907.102	22.32
907.474	22.45
907.846	29.26
908.218	38.27
908.59	42.69
908.962	43.36
909.334	46.41
909.705	55.6
910.077	51.88
910.449	42.95
910.82	51.62
911.192	53.75
911.563	62.11
911.935	31.89
912.306	20.03
912.677	14.35
913.048	24.19
913.419	17.46
913.79	15.42
914.161	12.99
914.532	40.9
914.903	29.2
915.274	26.2
915.645	30.09
916.015	43.02
916.386	45.79
916.756	48.87
917.127	33.81
917.497	33
917.868	31
918.238	40.03
918.608	37.32
918.978	43.34
919.348	40.98
919.718	30.24
920.088	31.54
920.458	45.37
920.828	29.38
921.198	36.67
921.567	38.47
921.937	29.04
922.306	14.99
922.676	0.87
923.045	15.26
923.415	25.44
923.784	24.51
924.153	22.81
924.522	23.33
924.891	29.78
925.26	30.93
925.629	28.84
925.998	31.48
926.367	37.92
926.736	49.4
927.104	30.4
927.473	11.36
927.842	13.09
928.21	15.16
928.578	-7.83
928.947	6.03
929.315	9.34
929.683	8.54
930.051	13.69
930.42	5.86
930.788	24.51
931.156	32.65
931.523	69.26
931.891	81.53
932.259	86.95
932.627	117.23
932.994	138.22
933.362	148.84
933.729	137.46
934.097	150.73
934.464	137.38
934.831	128.14
935.199	119.97
935.566	104.95
935.933	137.31
936.3	183.02
936.667	162.17
937.034	193.64
937.401	189.12
937.767	173.46
938.134	135.66
938.501	163.77
938.867	172.9
939.234	295.5
939.6	228.09
939.967	156.46
940.333	73.36
940.699	31.77
941.065	1.25
941.431	-29.72
941.798	-13.35
942.163	19.49
942.529	18.93
942.895	28.92
943.261	26.42
943.627	27.85
943.992	29.22
944.358	48.6
944.723	71.67
945.089	66.65
945.454	71.25
945.82	54.95
946.185	42.82
946.55	68.68
946.915	75.33
947.28	98.95
947.645	90.93
948.01	94.68
948.375	93.68
948.74	92.33
949.104	83.27
949.469	50.93
949.834	103.28
950.198	176.25
950.562	120.61
950.927	86.8
951.291	78.75
951.655	58.53
952.02	23.49
952.384	17.3
952.748	25.25
953.112	55.07
953.476	64.07
953.839	61.74
954.203	61.85
954.567	66.69
954.931	46.35
955.294	51.61
955.658	59.23
956.021	125.13
956.385	202.64
956.748	353.87
957.111	271.09
957.474	256.59
957.837	321.53
958.2	123.65
958.563	20.5
958.926	80.51
959.289	133.11
959.652	189.85
960.015	124.81
960.377	110.41
960.74	40.97
961.102	15.65
961.465	137.4
961.827	312.79
962.189	615.79
962.552	482.26
962.914	427.71
963.276	193.37
963.638	140.97
964	136.89
964.362	132.72
964.724	122.5
965.085	111.98
965.447	112.19
965.809	73.8
966.17	57.15
966.532	59.79
966.893	44.5
967.255	52.34
967.616	46.47
967.977	52.5
968.338	44.68
968.699	59.08
969.061	53.35
969.421	35.49
969.782	22.96
970.143	42.9
970.504	73.74
970.865	82.03
971.225	109.43
971.586	113.83
971.946	137.72
972.307	123.19
972.667	122.75
973.027	127.4
973.388	136.99
973.748	116.65
974.108	127.89
974.468	59.88
974.828	110.04
975.188	80.96
975.548	77.15
975.907	64.38
976.267	78.36
976.627	96.75
976.986	100.36
977.346	90.11
977.705	80.12
978.064	71.04
978.424	82.35
978.783	60.71
979.142	55.79
979.501	58.99
979.86	73.21
980.219	54.36
980.578	40
980.937	29.87
981.296	38.66
981.654	33.5
982.013	23.23
982.371	29.46
982.73	26.67
983.088	6.8
983.447	-0.81
983.805	40.43
984.163	100.2
984.521	141.08
984.879	181.47
985.237	-254.83
985.595	747.28
985.953	99.53
986.311	14.41
986.669	-4.2
987.026	13.15
987.384	-8.12
987.741	-89.31
988.099	-13.05
988.456	-2.07
988.814	17.96
989.171	28.92
989.528	-12.01
989.885	5.32
990.242	24.74
990.599	11.96
990.956	0.91
991.313	8.77
991.67	21.04
992.027	51.11
992.383	43.52
992.74	45.46
993.096	46.17
993.453	52.71
993.809	45.02
994.165	40.11
994.522	83.93
994.878	97.88
995.234	133.75
995.59	132.06
995.946	68.06
996.302	81.05
996.658	67.7
997.013	69.17
997.369	142.34
997.725	212.56
998.08	147.92
998.436	99.55
998.791	125.88
999.147	100.71
999.502	87.66
999.857	44.46
1000.212	-40.26
1000.567	-66.58
1000.922	20
1001.277	-16.86
1001.632	-9.32
1001.987	-39.42
1002.342	-22.22
1002.696	2.01
1003.051	19.46
1003.406	35.42
1003.76	19.07
1004.114	43.42
1004.469	57.26
1004.823	36.69
1005.177	27.79
1005.531	29.47
1005.885	38.01
1006.239	57.59
1006.593	61.25
1006.947	69.89
1007.301	42.84
1007.655	56.3
1008.008	63.51
1008.362	63.75
1008.715	87.76
1009.069	89.78
1009.422	181.85
1009.776	378.23
1010.129	213.1
1010.482	203.24
1010.835	133.61
1011.188	204.46
1011.541	201.97
1011.894	-678.51
1012.247	1789.23
1012.6	149.83
1012.952	75.4
1013.305	-20.13
1013.657	-12.22
1014.01	-24.98
1014.362	-42.45
1014.715	-5.15
1015.067	17.58
1015.419	13.5
1015.771	16.84
1016.123	42.12
1016.475	39.77
1016.827	39.72
1017.179	69.73
1017.531	66.58
1017.883	70.13
1018.234	111.71
1018.586	125.19
1018.938	147.19
1019.289	219.62
1019.64	224.17
1019.992	161.49
1020.343	128.48
1020.694	158.64
1021.045	130.17
1021.396	156.3
1021.747	190.11
1022.098	163.61
1022.449	125.57
1022.8	108.35
1023.151	93.27
1023.501	106.39
1023.852	96.19
1024.202	117.07
1024.553	96.32
1024.903	116.31
1025.253	107.05
1025.604	113.73
1025.954	145.7
1026.304	164.15
1026.654	196.58
1027.004	222.33
1027.354	294.12
1027.703	399.28
1028.053	401.66
1028.403	662.32
1028.753	665.32
1029.102	630.16
1029.452	341.03
1029.801	-28.55
1030.15	-16.42
1030.499	-51.12
897.758	1164.99
901.051	1131.65
904.343	1153.31
907.636	1151.55
910.928	1182.86
914.22	1143.73
917.511	1150.66
920.803	1170.51
924.094	1167.42
927.384	1170.65
930.675	1151.93
933.965	1138.02
937.255	1152.13
940.544	1135.9
943.834	1142.03
947.123	1112.09
950.411	1154.97
953.7	1148.59
956.988	1143.12
960.276	1102.55
963.563	1123.5
966.851	1130.22
970.138	1145.17
973.424	1148.59
976.711	1121.57
979.997	1143.55
983.283	1161.43
986.568	1130.64
989.853	1124.07
993.138	1132.69
996.423	1183.83
999.708	1161.54
1002.992	1172.69
1006.275	1135.66
1009.559	1134.09
1012.842	1183.49
1016.125	1159.1
1019.408	1148.96
1022.69	1174.9
1025.972	1186.16
1029.254	1177.77
1032.536	1157.89
1035.817	1162.6
1039.098	1147.59
1042.379	1169.37
1045.659	1181.65
1048.939	1155.79
1052.219	1154.67
1055.498	1153.93
1058.778	1146.85
1062.057	1139.26
1065.335	1153.88
1068.614	1155.01
1071.892	1148.35
1075.17	1177.92
1078.447	1177.48
1081.724	1173.89
1085.001	1184.25
1088.278	1172.91
1091.554	1171.22
1094.83	1172.5
1098.106	1184.61
1101.382	1199.15
1104.657	1195.77
1107.932	1197.62
1111.206	1183.3
1114.481	1162.04
1117.755	1164.66
1121.029	1159.96
1124.302	1188.02
1127.575	1175.49
1130.848	1174.59
1134.121	1160.4
1137.393	1136.01
1140.665	1169.07
1143.937	1155.14
1147.208	1135.92
1150.48	1159.78
1153.75	1155.08
1157.021	1157.86
1160.291	1145.55
1163.561	1167.65
1166.831	1152.24
1170.101	1163.17
1173.37	1146.25
1176.639	1125.92
1179.907	1154.79
1183.176	1156.36
1186.444	1159.4
1189.711	1168.4
1192.979	1180.82
1196.246	1159.22
1199.513	1170.47
1202.78	1170.34
1206.046	1173.55
1209.312	1190.47
1212.578	1193.19
1215.843	1168.18
1219.108	1163.3
1222.373	1171.54
1225.638	1158.69
1228.902	1149.16
1232.166	1137.66
1235.43	1127.28
1238.693	1140.52
1241.956	1140.63
1245.219	1159.35
1248.482	1155.99
1251.744	1160.38
1255.006	1213.84
1258.268	1192.45
1261.529	1176.99
1264.79	1178.1
1268.051	1220.75
1271.312	1227.67
1274.572	1209.09
1277.832	1205.7
1281.092	1198.32
1284.351	1194.63
1287.61	1187.59
1290.869	1158.29
1294.128	1156.43
1297.386	1174.82
1300.644	1173.12
1303.902	1176.87
1307.159	1112.31
1310.416	1137.24
1313.673	1145.89
1316.93	1145.78
1320.186	1156.24
1323.442	1170.15
1326.697	1167.63
1329.953	1157.87
1333.208	1173.98
1336.463	1161.78
1339.717	1146.16
1342.972	1200.24
1346.226	1188.69
1349.479	1171.71
1352.733	1159.32
1355.986	1171.94
1359.238	1163.24
1362.491	1163.69
1365.743	1161.32
1368.995	1161.43
1372.247	1173.28
1375.498	1178.41
1378.749	1196.27
1382	1178.39
1385.251	1189.03
1388.501	1171.29
1391.751	1164.98
1395	1152.55
1398.25	1166.94
1401.499	1180.66
1404.748	1156.23
1407.996	1147.48
1411.244	1148.31
1414.492	1139.05
1417.74	1130.73
1420.987	1139.73
1424.234	1163.04
1427.481	1149.31
1430.728	1174.45
1433.974	1166.32
1437.22	1167.24
1440.465	1161.08
1443.711	1160.52
1446.956	1166.73
1450.201	1158.57
1453.445	1180.49
1456.689	1169.28
1459.933	1178.54
1463.177	1195.42
1466.42	1186.7
1469.663	1173.21
1472.906	1178.42
1476.148	1204.87
1479.391	1186.78
1482.633	1178.79
1485.874	1187.97
1489.115	1191.14
1492.356	1185.79
1495.597	1171.56
1498.838	1169.17
1502.078	1162.36
1505.318	1155.33
1508.557	1164.81
1511.797	1162.53
1515.036	1184.75
1518.274	1165.23
1521.513	1140.39
1524.751	1143.05
1527.989	1151.65
1531.227	1162.18
1534.464	1159.77
1537.701	1156.94
1540.938	1160.27
1544.174	1140.34
1547.41	1131.4
1550.646	1150.12
1553.882	1168.47
1557.117	1199.48
1560.352	1203.6
1563.587	1180.88
1566.821	1167.74
1570.055	1180.37
1573.289	1164.29
1576.523	1187.35
1579.756	1193.98
1582.989	1206.95
1586.222	1183.89
1589.454	1206.33
1592.686	1196.02
1595.918	1205.35
1599.15	1207.06
1602.381	1228.69
1605.612	1220.38
1608.843	1262.75
1612.073	1228.86
1615.303	1221.53
1618.533	1217.94
1621.762	1219.1
1624.992	1203.79
1628.221	1201.33
1631.449	1197.6
1634.678	1213.03
1637.906	1195.8
1641.134	1204.18
1644.361	1189.91
1647.588	1182.73
1650.815	1196.24
1654.042	1180.33
1657.269	1193.28
1660.495	1183.65
1663.72	1179.84
1666.946	1161.91
1670.171	1151.52
1673.396	1135.26
1676.621	1129.94
1679.845	1128.06
1683.069	1131.17
1686.293	1142.54
1689.517	1135.12
1692.74	1115.12
1695.963	1123.52
1699.185	1138.13
1702.408	1129.16
1705.63	1140.01
1708.852	1148.54
1712.073	1133.84
1715.294	1144.13
1718.515	1168.17
1721.736	1147.87
1724.956	1145.24
1728.176	1156.3
1731.396	1163.23
1734.616	1160.51
1737.835	1182.92
1741.054	1167.5
1744.272	1168.26
1747.491	1185.94
1750.709	1193.82
1753.927	1171.33
1757.144	1185.46
1760.361	1208.78
1763.578	1193.58
1766.795	1171.7
1770.011	1168.23
1773.227	1176.42
1776.443	1196.04
1779.658	1211.53
1782.874	1190.5
1786.089	1185.91
1789.303	1186.45
1792.518	1187.53
1795.732	1183.01
1798.945	1189.86
1802.159	1212.51
1805.372	1182.02
1808.585	1177.09
1811.797	1177.58
1815.01	1193.95
1818.222	1204.99
1821.434	1191.85
1824.645	1207.58
1827.856	1209
1831.067	1219.67
1834.278	1198.41
1837.488	1188.37
1840.698	1245.64
1843.908	1226.4
1847.117	1211.68
1850.326	1175.74
1853.535	1207
1856.744	1221.31
1859.952	1187.77
1863.16	1187.19
1866.368	1203.87
1869.575	1249.84
1872.782	1201.26
1875.989	1173.72
1879.196	1196.85
1882.402	1195.09
1885.608	1208.14
1888.814	1177.23
1892.019	1136.84
1895.224	1165.96
1898.429	1152.96
1901.634	1140.51
1904.838	1135.46
1908.042	1157.92
1911.246	1168.53
1914.449	1150.87
1917.652	1142.78
1920.855	1134.59
1924.058	1147.36
1927.26	1171.94
1930.462	1179.91
1933.664	1199.12
1936.865	1174.08
1940.066	1178.05
1943.267	1156.53
1946.467	1160.79
1949.668	1162.66
1952.868	1199.52
1956.067	1200.15
1959.267	1171.72
1962.466	1182.78
1965.665	1172.62
1968.863	1172.4
1972.061	1172.88
1975.259	1168.9
1978.457	1206.99
1981.654	1186.79
1984.852	1190.33
1988.048	1169.68
1991.245	1160.15
1994.441	1200.36
1997.637	1174.36
2000.833	1169.02
2004.028	1184.81
2007.223	1215.12
2010.418	1205.31
2013.613	1182.4
2016.807	1179.31
2020.001	1179.66
2023.194	1188.87
2026.388	1178.38
2029.581	1153.41
2032.774	1187.51
2035.966	1190.12
2039.158	1162.2
2042.35	1172.34
2045.542	1139.13
2048.733	1176.8
2051.924	1168.18
2055.115	1175.38
2058.306	1161.16
2061.496	1184.75
2064.686	1211.53
2067.875	1161.75
2071.065	1163.72
2074.254	1172.23
2077.442	1152.09
2080.631	1190.5
2083.819	1159.79
2087.007	1154.55
2090.195	1148.65
2093.382	1150.67
2096.569	1150.96
2099.756	1129.31
2102.942	1160.3
2106.128	1161.29
2109.314	1160.1
2112.5	1152.49
2115.685	1140.23
2118.87	1141.43
2122.055	1179.28
2125.239	1164.1
2128.424	1160.81
2131.608	1186.38
2134.791	1177.92
2137.974	1193.26
2141.157	1189.45
2144.34	1174.55
2147.523	1167.77
2150.705	1183.08
2153.887	1166.25
2157.068	1152.53
2160.25	1143.26
2163.431	1154.5
2166.611	1138.58
2169.792	1150.38
2172.972	1102.79
2176.152	1136.38
2179.331	1145.91
2182.511	1144.94
2185.69	1149.32
2188.868	1150.88
2192.047	1170.17
2195.225	1183.73
2198.403	1156.27
2201.58	1148.42
2204.758	1141.28
2207.935	1177.33
2211.111	1133.13
2214.288	1127.66
2217.464	1143.55
2220.64	1129.61
2223.815	1152.52
2226.991	1114.11
2230.166	1119.82
2233.34	1138.47
2236.515	1148.9
2239.689	1184.33
2242.863	1161.88
2246.036	1184.46
2249.209	1178.8
2252.382	1191.73
2255.555	1191.97
2258.727	1171.97
2261.9	1190.93
2265.071	1188.13
2268.243	1188.33
2271.414	1165.33
2274.585	1150.49
2277.756	1180.62
2280.926	1162.36
2284.096	1176.01
2287.266	1140.61
2290.436	1167.31
2293.605	1172.49
2296.774	1186.28
2299.942	1190.37
2303.111	1201.94
2306.279	1223.08
2309.447	1218.74
2312.614	1208.25
2315.781	1214.95
2318.948	1206.05
2322.115	1226.05
2325.281	1171.36
2328.447	1178.88
2331.613	1164.02
2334.779	1161.29
2337.944	1158.39
2341.109	1158.02
2344.274	1154.42
2347.438	1134.9
2350.602	1146.63
2353.766	1150.97
2356.929	1147.47
2360.092	1170.66
2363.255	1150.24
2366.418	1140.74
2369.58	1156.39
2372.742	1141.94
2375.904	1131.71
2379.066	1127.67
2382.227	1143.66
2385.388	1123.58
2388.548	1101.79
2391.709	1116.25
2394.869	1112.73
2398.029	1141.2
2401.188	1131.2
2404.347	1122.75
2407.506	1117.67
2410.665	1147.97
2413.823	1137.31
2416.981	1127
2420.139	1137.76
2423.296	1156.06
2426.453	1145.33
2429.61	1155.27
2432.767	1141.61
2435.923	1160
2439.079	1138.06
2442.235	1155.26
2445.391	1124.23
2448.546	1144.11
2451.701	1159.58
2454.855	1157.88
2458.009	1172.52
2461.163	1164.74
2464.317	1147.59
2467.471	1160.46
2470.624	1178.4
2473.777	1171.27
2476.929	1177.31
2480.082	1187.1
2483.234	1179.79
2486.385	1153.92
2489.537	1150.13
2492.688	1142.12
2495.839	1157.23
2498.989	1162
2502.14	1154.43
2505.29	1148.53
2508.439	1159.52
2511.589	1133.97
2514.738	1134.78
2517.887	1141.4
2521.035	1176.79
2524.183	1155.39
2527.331	1150.67
2530.479	1141.78
2533.627	1147.33
