Data from N_1_DEC_ON_6N_Splice17_11-23-07-508.txt Node
Date: Sat Mar 14 11:23:07 EDT 2020
User: sa697716
Spectrometer: FLMS03696
Trigger mode: 0
Integration Time (sec): 3.180400E-1
Scans to average: 20
Electric dark correction enabled: true
Nonlinearity correction enabled: true
Boxcar width: 5
XAxis mode: Wavelengths
Number of Pixels in Spectrum: 2048
>>>>>Begin Spectral Data<<<<<
187.83	-86726.1
188.298	732.57
188.766	432.8
189.233	357.1
189.701	556.95
190.169	826.24
190.636	279.38
191.104	281.58
191.571	36.84
192.039	-34.92
192.506	-44.79
192.974	261.62
193.441	-376.36
193.908	4.58
194.375	1.53
194.842	26.48
195.31	93.1
195.777	85.81
196.244	164.39
196.711	110.86
197.177	123.29
197.644	139.54
198.111	221.92
198.578	297.22
199.045	197.52
199.511	292.82
199.978	319.56
200.445	268.21
200.911	286.49
201.378	283.86
201.844	299.23
202.31	486.57
202.777	486.06
203.243	277.49
203.709	281.41
204.176	378.87
204.642	346.42
205.108	349.19
205.574	279.17
206.04	257.16
206.506	242.09
206.972	196.68
207.438	184.67
207.903	223.72
208.369	223.54
208.835	226.62
209.301	208.22
209.766	183.34
210.232	177
210.697	223.46
211.163	238.66
211.628	362.86
212.094	325.63
212.559	444.64
213.024	275.59
213.49	328.01
213.955	304.51
214.42	284.83
214.885	266.04
215.35	246.69
215.815	283.87
216.28	308.96
216.745	249.52
217.21	281.56
217.675	230.05
218.14	233.68
218.604	223.17
219.069	224.11
219.534	255.8
219.998	275.1
220.463	303.63
220.927	282.05
221.392	253.29
221.856	240.53
222.32	238.31
222.785	255.59
223.249	300.88
223.713	320.69
224.177	318.74
224.642	317.7
225.106	331.62
225.57	342.51
226.034	279.07
226.497	386.77
226.961	368.26
227.425	451.65
227.889	488.44
228.353	442.99
228.816	791.91
229.28	781.26
229.744	634.39
230.207	425.32
230.671	416.59
231.134	580.34
231.597	684.47
232.061	555.85
232.524	474.42
232.987	368.41
233.45	386.72
233.914	336.05
234.377	261.08
234.84	249.48
235.303	273.33
235.766	289.24
236.229	298.72
236.691	157.76
237.154	159.22
237.617	135.79
238.08	117.2
238.542	105.17
239.005	95.29
239.468	127.6
239.93	115.32
240.393	113.4
240.855	97.97
241.317	86.25
241.78	93.38
242.242	120.36
242.704	153.03
243.166	151.5
243.629	166.67
244.091	181.95
244.553	189
245.015	217.31
245.477	259.04
245.939	344.05
246.4	389.38
246.862	379.81
247.324	346.89
247.786	338.27
248.247	361.27
248.709	241.6
249.17	206.25
249.632	243.74
250.093	309.35
250.555	275.32
251.016	206.85
251.477	208.68
251.939	236.91
252.4	232.38
252.861	275.52
253.322	281.15
253.783	331.41
254.244	378.39
254.705	264.73
255.166	192.69
255.627	173.73
256.088	247.67
256.549	242.64
257.009	191.96
257.47	236.68
257.931	168.57
258.391	126.49
258.852	121.31
259.312	141.96
259.773	170.09
260.233	208.12
260.694	217.82
261.154	228.27
261.614	226.17
262.074	208.13
262.534	231.95
262.994	215.01
263.455	253.33
263.915	223.92
264.374	198.51
264.834	221.24
265.294	214.79
265.754	210.68
266.214	193.4
266.673	168.43
267.133	178.28
267.593	154.14
268.052	205.49
268.512	196.22
268.971	284.32
269.431	323.87
269.89	273.25
270.349	429.9
270.809	454.7
271.268	435.62
271.727	853.62
272.186	624.98
272.645	475.68
273.104	297.57
273.563	409.25
274.022	261.66
274.481	249.19
274.94	188.7
275.399	111.8
275.857	123.53
276.316	125.1
276.775	102.4
277.233	67.02
277.692	91.51
278.15	140.06
278.609	180.66
279.067	155.06
279.525	156.67
279.984	196.89
280.442	253.58
280.9	279.31
281.358	206.64
281.816	212.97
282.274	233.79
282.732	201.26
283.19	180.41
283.648	138.67
284.106	144.09
284.564	135.39
285.021	152.18
285.479	119.65
285.937	86.13
286.394	91.78
286.852	90.23
287.309	94.59
287.767	120.89
288.224	133.03
288.682	141.41
289.139	168.08
289.596	160.4
290.053	149.71
290.511	182.08
290.968	245.15
291.425	293.2
291.882	295.76
292.339	273.11
292.796	235.3
293.252	227.65
293.709	203.45
294.166	183.07
294.623	177.6
295.079	159.61
295.536	166.35
295.992	148.96
296.449	146.85
296.905	134.97
297.362	160.87
297.818	174.47
298.274	175.78
298.731	170.17
299.187	165.9
299.643	182.99
300.099	209.87
300.555	225.33
301.011	208.92
301.467	248.6
301.923	260.17
302.379	231.21
302.835	237.89
303.291	233.96
303.746	259.13
304.202	331.4
304.658	344.24
305.113	244.53
305.569	251.78
306.024	248.59
306.479	191.28
306.935	177.86
307.39	169.78
307.845	133.13
308.301	150.75
308.756	131.13
309.211	131.08
309.666	122.35
310.121	194.81
310.576	161.42
311.031	149.54
311.486	140.24
311.94	111.16
312.395	121.04
312.85	214.39
313.305	305.01
313.759	4733.14
314.214	390.33
314.668	353.54
315.123	358.91
315.577	179.43
316.032	178.14
316.486	227.33
316.94	228.92
317.394	193.2
317.849	174.79
318.303	157.88
318.757	144.85
319.211	143.94
319.665	127.91
320.119	121.55
320.572	173.87
321.026	178.87
321.48	151.36
321.934	148.11
322.387	129.2
322.841	134.1
323.295	169.83
323.748	175.2
324.202	196.11
324.655	229.32
325.108	347
325.562	253.4
326.015	241.94
326.468	208.33
326.921	243.62
327.374	265.2
327.827	283.49
328.28	299.71
328.733	229.85
329.186	189.74
329.639	196.79
330.092	148.88
330.545	144.53
330.997	160.52
331.45	189.16
331.903	239.58
332.355	337.85
332.808	306.42
333.26	241.06
333.713	262.76
334.165	280.11
334.617	307.12
335.069	206.53
335.522	282.26
335.974	361.01
336.426	281.6
336.878	120.52
337.33	89.15
337.782	83.74
338.234	124.28
338.686	121.53
339.137	112.13
339.589	119.33
340.041	139.09
340.493	128.16
340.944	115.6
341.396	112.42
341.847	122.33
342.299	167.41
342.75	239.43
343.201	180.18
343.653	188.21
344.104	232.35
344.555	194.36
345.006	205.32
345.457	226.16
345.908	159.93
346.359	177.24
346.81	137.46
347.261	126.47
347.712	109.94
348.163	112.55
348.613	173.22
349.064	172.7
349.515	160.14
349.965	200.89
350.416	202.63
350.866	226.22
351.317	211.65
351.767	359.15
352.217	389.38
352.668	346.8
353.118	345.22
353.568	216.12
354.018	200.21
354.468	219.78
354.918	172.18
355.368	172.01
355.818	226.94
356.268	597.28
356.718	2594.95
357.168	740
357.617	367.34
358.067	369.85
358.517	394.83
358.966	518.22
359.416	685.35
359.865	701.47
360.315	778.04
360.764	402.55
361.213	246.39
361.663	197.37
362.112	215.98
362.561	327.45
363.01	231.57
363.459	204.88
363.908	165.58
364.357	154.84
364.806	195.63
365.255	145.53
365.703	187.75
366.152	191.79
366.601	178.9
367.05	184.83
367.498	175.83
367.947	175.9
368.395	152.5
368.844	144.77
369.292	105.03
369.74	99.06
370.189	121.33
370.637	101.81
371.085	97.24
371.533	105.6
371.981	59.9
372.429	75.77
372.877	101.15
373.325	105.47
373.773	85.04
374.221	98.45
374.669	102.53
375.116	94.22
375.564	90.18
376.012	63.09
376.459	65.72
376.907	67.5
377.354	40.68
377.801	56.75
378.249	63.48
378.696	91.15
379.143	93.26
379.591	129.75
380.038	184.58
380.485	193.62
380.932	203.91
381.379	322.99
381.826	355.28
382.273	289.64
382.72	237.9
383.166	257.65
383.613	176.24
384.06	158.22
384.506	184.01
384.953	137.55
385.4	118.71
385.846	113.14
386.292	70.59
386.739	32.15
387.185	14.57
387.631	11.31
388.078	27.01
388.524	19.37
388.97	21.5
389.416	17.67
389.862	27.23
390.308	29.55
390.754	34.03
391.2	47.92
391.645	50.7
392.091	78.03
392.537	90.44
392.983	71.63
393.428	99.41
393.874	97.09
394.319	110
394.765	118.12
395.21	106.75
395.655	94.28
396.101	87.21
396.546	84.7
396.991	66.64
397.436	55.23
397.881	54.54
398.326	36.34
398.771	42.86
399.216	30.28
399.661	21.14
400.106	34.58
400.551	45.37
400.995	41.15
401.44	41.95
401.885	40.59
402.329	40.28
402.774	41.31
403.218	47.49
403.663	42.45
404.107	48.28
404.551	50.52
404.995	45.51
405.44	38.6
405.884	37.93
406.328	33.17
406.772	34.06
407.216	29.15
407.66	23.43
408.104	16.6
408.547	16.79
408.991	15.47
409.435	11.4
409.879	11.05
410.322	11.72
410.766	13.43
411.209	15.69
411.653	15.72
412.096	20
412.54	19.66
412.983	20.9
413.426	25.33
413.869	21.72
414.312	25.66
414.756	23.3
415.199	22.6
415.642	23.3
416.085	25.62
416.527	22.15
416.97	18.57
417.413	19.17
417.856	18.15
418.298	15.4
418.741	15.94
419.184	12.63
419.626	7.32
420.069	7.01
420.511	6.5
420.953	6.94
421.396	9.28
421.838	10.11
422.28	11.85
422.722	12.27
423.164	8.36
423.606	9.05
424.048	9.02
424.49	13.25
424.932	11.05
425.374	11.01
425.816	7.13
426.258	6.24
426.699	6.7
427.141	8.37
427.582	6.3
428.024	7.28
428.465	4.76
428.907	6.11
429.348	4.3
429.789	6.82
430.231	8.69
430.672	9.88
431.113	9.9
431.554	10.05
431.995	8.21
432.436	10.92
432.877	12.08
433.318	14.73
433.759	13.02
434.2	13.38
434.64	11.71
435.081	10.73
435.522	13.48
435.962	14.14
436.403	15.68
436.843	13.16
437.284	11.28
437.724	10.94
438.164	8.07
438.604	6.56
439.045	9.9
439.485	11.62
439.925	11.3
440.365	9.19
440.805	8.04
441.245	8.9
441.685	10.09
442.125	10.27
442.564	8.92
443.004	9.83
443.444	11.25
443.883	10.01
444.323	7.89
444.762	2.65
445.202	0.97
445.641	2.19
446.081	-1.4
446.52	-2.33
446.959	-0.78
447.398	1.17
447.837	-0.18
448.276	-0.92
448.716	0.09
449.154	-1.25
449.593	3.35
450.032	4.57
450.471	1.99
450.91	1.6
451.349	5.2
451.787	4.9
452.226	3.75
452.664	4.44
453.103	4.88
453.541	3.53
453.98	6.96
454.418	5.91
454.856	7.42
455.295	8.05
455.733	8.57
456.171	5.63
456.609	6.1
457.047	7.44
457.485	9.51
457.923	11.16
458.361	10.44
458.798	9.3
459.236	9.6
459.674	8.17
460.111	8.28
460.549	8.82
460.987	8.03
461.424	6.46
461.862	5.9
462.299	5.61
462.736	4.94
463.173	5.12
463.611	7.69
464.048	8.04
464.485	9.04
464.922	9.93
465.359	9.26
465.796	15.49
466.233	16.42
466.67	17.85
467.106	18.52
467.543	17.35
467.98	16.05
468.416	13.49
468.853	12.91
469.29	11.49
469.726	10.1
470.162	10.46
470.599	5.76
471.035	4.48
471.471	3.02
471.907	0.27
472.344	1.19
472.78	2.27
473.216	1.64
473.652	1.22
474.088	0.24
474.523	1.17
474.959	0.58
475.395	0.36
475.831	1.51
476.266	2.04
476.702	2.66
477.138	2.73
477.573	1.96
478.008	2.44
478.444	3.85
478.879	6.24
479.314	6.12
479.75	6.95
480.185	7.16
480.62	6.39
481.055	6.16
481.49	6.68
481.925	6.92
482.36	9.08
482.795	8
483.229	6.83
483.664	5.5
484.099	5.68
484.534	5.17
484.968	5.51
485.403	5.48
485.837	5.26
486.271	5.12
486.706	4.52
487.14	3.56
487.574	4.32
488.009	4.36
488.443	4.46
488.877	4.45
489.311	4.29
489.745	4.23
490.179	3.66
490.613	4.75
491.046	4.56
491.48	4.45
491.914	4.05
492.348	3.76
492.781	3.84
493.215	3.75
493.648	3.4
494.082	3.45
494.515	3.85
494.948	4.86
495.382	3.41
495.815	3.88
496.248	4.24
496.681	4.63
497.114	4.19
497.547	4.47
497.98	5.44
498.413	6.52
498.846	6.76
499.279	6.35
499.711	6.19
500.144	6.42
500.577	6.4
501.009	5.78
501.442	6.23
501.874	7.06
502.306	6.65
502.739	8.12
503.171	7.56
503.603	7.81
504.036	7.39
504.468	6.99
504.9	6.83
505.332	6.3
505.764	6.37
506.196	5.61
506.627	5.65
507.059	5.87
507.491	3.25
507.923	3.36
508.354	3.42
508.786	3.24
509.217	3.83
509.649	3.94
510.08	3.82
510.512	4.77
510.943	5.3
511.374	5.64
511.805	5.34
512.237	5.19
512.668	4.61
513.099	3.79
513.53	3.81
513.961	3.61
514.391	3.33
514.822	4.41
515.253	3.86
515.684	3.21
516.114	2.57
516.545	3.04
516.975	3.12
517.406	3.27
517.836	2.85
518.267	3.12
518.697	3.78
519.127	4.22
519.558	3.02
519.988	2.9
520.418	2.78
520.848	2.37
521.278	1.81
521.708	30.43
522.138	31.34
522.567	31.47
522.997	31.5
523.427	30.91
523.857	30.83
524.286	31.36
524.716	31.55
525.145	32.08
525.575	32.96
526.004	32.55
526.433	4.81
526.863	3.51
527.292	4.66
527.721	4.86
528.15	4.85
528.579	5.19
529.008	4.99
529.437	4.34
529.866	3.84
530.295	2.95
530.724	3.87
531.152	3.91
531.581	4.78
532.01	4.46
532.438	4.1
532.867	3.72
533.295	3.96
533.723	3.9
534.152	4.29
534.58	4.67
535.008	4.98
535.436	5.62
535.865	5.1
536.293	4.31
536.721	3.47
537.149	3.9
537.576	4.2
538.004	4.08
538.432	3.54
538.86	3.82
539.287	3.81
539.715	4.12
540.143	3.23
540.57	3.81
540.998	3.85
541.425	5.49
541.852	5.27
542.28	4.84
542.707	4.43
543.134	4.78
543.561	4.96
543.988	4.57
544.415	3.95
544.842	4.01
545.269	3.49
545.696	4.08
546.123	4.1
546.549	4.23
546.976	4.97
547.403	4.99
547.829	4.94
548.256	4.23
548.682	4.76
549.108	5.72
549.535	5.63
549.961	5.79
550.387	5.48
550.813	5.38
551.24	5.61
551.666	4.98
552.092	4.91
552.518	4.72
552.943	5.77
553.369	5.3
553.795	4.92
554.221	5.43
554.646	5.32
555.072	6.09
555.498	4.91
555.923	4.13
556.349	4.32
556.774	4.42
557.199	4.05
557.625	2.83
558.05	3.1
558.475	2.9
558.9	2.48
559.325	3.19
559.75	2.94
560.175	3.17
560.6	2.86
561.025	2.48
561.449	2.84
561.874	3.09
562.299	3.57
562.723	3.21
563.148	2.85
563.572	2.42
563.997	2.24
564.421	1.27
564.846	0.98
565.27	1.6
565.694	1.69
566.118	1.3
566.542	2.17
566.966	2.19
567.39	2.45
567.814	3.27
568.238	3.69
568.662	2.71
569.086	3.26
569.509	3.11
569.933	3.95
570.357	4.31
570.78	4.44
571.204	4.69
571.627	4.38
572.05	4.44
572.474	5.08
572.897	5.49
573.32	6.48
573.743	6.09
574.166	7.02
574.589	6.06
575.012	6.26
575.435	6.1
575.858	5.98
576.281	6.3
576.704	6.2
577.126	4.74
577.549	4.13
577.972	3.23
578.394	3.8
578.817	4.67
579.239	5.13
579.661	4.84
580.084	5.57
580.506	5.86
580.928	5.33
581.35	5.08
581.772	5.71
582.194	5.58
582.616	5.42
583.038	4.47
583.46	2.62
583.882	2.48
584.303	1.34
584.725	0.62
585.147	3.74
585.568	4.3
585.99	5.3
586.411	5.15
586.833	5.56
587.254	6.04
587.675	6.18
588.096	6.97
588.518	6.94
588.939	7.69
589.36	7.67
589.781	3.54
590.202	5.66
590.623	4.86
591.043	4.44
591.464	4.34
591.885	5.28
592.305	5.35
592.726	4.87
593.147	4.64
593.567	5.3
593.987	5.22
594.408	5.15
594.828	2.77
595.248	3.3
595.669	4.34
596.089	4.41
596.509	3.17
596.929	2.86
597.349	3.34
597.769	3.57
598.189	3.21
598.608	3.28
599.028	2.8
599.448	2.41
599.867	1.84
600.287	1.19
600.706	1.57
601.126	2.64
601.545	3.77
601.965	3.73
602.384	3.7
602.803	3.41
603.222	3.88
603.641	3.55
604.061	4.47
604.48	4.74
604.898	4.71
605.317	4.01
605.736	3.26
606.155	3.4
606.574	3.39
606.992	3.41
607.411	4.06
607.829	3.01
608.248	3.62
608.666	3.01
609.085	3.32
609.503	2.99
609.921	3.81
610.339	3.85
610.758	2.59
611.176	2.35
611.594	2.84
612.012	2.67
612.43	3.48
612.847	3.68
613.265	4.43
613.683	4.25
614.101	4.76
614.518	4.16
614.936	4.62
615.353	5.53
615.771	5.85
616.188	5.74
616.606	5.74
617.023	6.21
617.44	5.66
617.857	4.49
618.274	4.31
618.691	4.57
619.108	4.33
619.525	3.82
619.942	3.81
620.359	3.22
620.776	2.68
621.192	3.04
621.609	3.23
622.026	4
622.442	4.84
622.859	4.5
623.275	3.67
623.691	3.81
624.108	4.67
624.524	4.65
624.94	5.54
625.356	5.23
625.772	4.7
626.188	3.62
626.604	3.17
627.02	3.07
627.436	3.55
627.852	4.93
628.268	5.38
628.683	4.5
629.099	4.11
629.514	3.17
629.93	3.98
630.345	3.67
630.761	3.86
631.176	4.59
631.591	6.11
632.007	6.63
632.422	4.85
632.837	3.77
633.252	4.58
633.667	4.74
634.082	4.84
634.497	5.02
634.911	6.76
635.326	6.74
635.741	6.78
636.155	5.56
636.57	5.84
636.984	6.8
637.399	8.28
637.813	7.07
638.228	6.81
638.642	6.74
639.056	6.47
639.47	5.47
639.884	5.96
640.298	5.73
640.712	6.67
641.126	5.88
641.54	5.2
641.954	3.5
642.368	4.6
642.781	6.77
643.195	7.61
643.609	7.76
644.022	8.06
644.436	6.57
644.849	5.98
645.262	5.01
645.676	4.63
646.089	5.25
646.502	7.03
646.915	6.27
647.328	5.13
647.741	4.94
648.154	5.13
648.567	6.88
648.98	8.16
649.393	8.04
649.805	7.11
650.218	6.95
650.631	7.31
651.043	6.61
651.456	6.52
651.868	6.21
652.28	5.21
652.693	3.58
653.105	1.49
653.517	1.32
653.929	1.87
654.341	3.42
654.753	4.36
655.165	3.52
655.577	3.61
655.989	5.02
656.401	3.66
656.813	5.41
657.224	6.73
657.636	6.22
658.047	7.43
658.459	7.09
658.87	5.5
659.282	4.89
659.693	6.39
660.104	6.66
660.515	5.63
660.926	6.21
661.338	5.79
661.749	4.82
662.159	5.78
662.57	4.85
662.981	5.15
663.392	5.7
663.803	5.89
664.213	4.9
664.624	4.16
665.035	4.19
665.445	3.54
665.855	4.19
666.266	5.91
666.676	5.24
667.086	4.78
667.497	5.22
667.907	5.4
668.317	4.97
668.727	7.76
669.137	7.62
669.547	7.54
669.956	7.23
670.366	6.99
670.776	6.9
671.186	6.88
671.595	7.18
672.005	6.57
672.414	7.54
672.824	8.36
673.233	5.84
673.642	6.14
674.052	6.94
674.461	8.52
674.87	8.18
675.279	9.32
675.688	8.49
676.097	8.48
676.506	8.52
676.915	7.25
677.323	8.07
677.732	7.94
678.141	8.34
678.549	7.99
678.958	6.29
679.366	5.89
679.775	3.66
680.183	5.92
680.592	6.22
681	6.84
681.408	7.44
681.816	7.12
682.224	6.11
682.632	7.37
683.04	7.28
683.448	8.37
683.856	9.3
684.264	10.26
684.671	9.46
685.079	8.7
685.487	7.3
685.894	6.81
686.302	6.24
686.709	7.69
687.116	6.19
687.524	7.02
687.931	8.57
688.338	8.49
688.745	7.87
689.152	6.73
689.559	7.18
689.966	9.28
690.373	9.75
690.78	10.55
691.187	11.06
691.593	11.43
692	9.77
692.407	9.5
692.813	10.98
693.22	12.06
693.626	11.23
694.032	11.36
694.439	10.39
694.845	9.7
695.251	7.92
695.657	7.89
696.063	6.77
696.469	7.6
696.875	7.17
697.281	5.11
697.687	3.6
698.093	4.73
698.498	5.64
698.904	5.13
699.31	5.62
699.715	7.96
700.12	7.17
700.526	8.31
700.931	8.2
701.337	8.9
701.742	10.08
702.147	10.48
702.552	10.38
702.957	8.87
703.362	9.21
703.767	9.13
704.172	7.85
704.577	7.9
704.981	6.05
705.386	6.33
705.791	6.22
706.195	4.49
706.6	4.5
707.004	3.77
707.408	3.93
707.813	4.82
708.217	6.12
708.621	6.65
709.025	6.49
709.43	8.72
709.834	8.31
710.237	7.84
710.641	8.88
711.045	10.21
711.449	11.69
711.853	14.67
712.256	14.04
712.66	13.09
713.064	12.93
713.467	14.42
713.87	13.73
714.274	15.15
714.677	16.06
715.08	16.89
715.484	17.02
715.887	19.64
716.29	16.79
716.693	17.62
717.096	18.78
717.499	19.03
717.901	17.71
718.304	18.81
718.707	18.12
719.109	17.08
719.512	15.15
719.915	16.29
720.317	14.25
720.719	14.08
721.122	13.69
721.524	13.98
721.926	17.66
722.328	17.89
722.731	16.66
723.133	16.11
723.535	15.29
723.937	16.1
724.338	15.41
724.74	15.36
725.142	54.78
725.544	57.86
725.945	66.47
726.347	62.23
726.748	61.64
727.15	62.58
727.551	65.34
727.952	66.24
728.354	65.2
728.755	64.9
729.156	63.42
729.557	25.06
729.958	22.04
730.359	12.64
730.76	12.94
731.161	14.1
731.562	13.2
731.962	11.29
732.363	10.35
732.763	11.69
733.164	9.43
733.564	9.92
733.965	11.31
734.365	10.68
734.766	11.16
735.166	10.33
735.566	10.5
735.966	11.39
736.366	10.93
736.766	11.29
737.166	10.07
737.566	10.92
737.966	11.43
738.365	10.98
738.765	13.11
739.165	12.76
739.564	12.77
739.964	11.46
740.363	9.87
740.763	8.28
741.162	9.24
741.561	9.46
741.96	9.32
742.36	7.96
742.759	8.18
743.158	5.66
743.557	6.22
743.955	6.43
744.354	6.58
744.753	6.11
745.152	8.35
745.55	7.59
745.949	7.35
746.348	7.52
746.746	7.02
747.144	8.85
747.543	9.23
747.941	8.12
748.339	7.89
748.737	8.99
749.136	10.71
749.534	9.26
749.932	10.31
750.33	10.34
750.727	9.71
751.125	10.92
751.523	9.89
751.921	11.7
752.318	13.04
752.716	14.64
753.113	14.08
753.511	13.5
753.908	14.97
754.305	17.2
754.703	17.48
755.1	18.65
755.497	18.9
755.894	17.28
756.291	15.74
756.688	15.4
757.085	14.44
757.482	15.21
757.878	18.2
758.275	19.01
758.672	14.19
759.068	15.35
759.465	14.79
759.861	13.82
760.258	13.62
760.654	15.33
761.05	14.86
761.447	11.91
761.843	12.37
762.239	10.39
762.635	8.46
763.031	8.56
763.427	7.97
763.822	9.12
764.218	8.84
764.614	11.52
765.01	9.9
765.405	10.36
765.801	12.53
766.196	10.8
766.592	9.96
766.987	11.06
767.382	11.53
767.778	11.06
768.173	10.1
768.568	10.29
768.963	10.01
769.358	9.98
769.753	10.42
770.148	10.08
770.542	10.6
770.937	10.04
771.332	9.85
771.726	8.62
772.121	11.32
772.515	11.85
772.91	12.05
773.304	11.27
773.699	12.12
774.093	10.8
774.487	10.35
774.881	9.79
775.275	10.47
775.669	8.89
776.063	8.29
776.457	7.06
776.851	7.78
777.245	8.7
777.638	8.27
778.032	6.56
778.425	8.04
778.819	10.53
779.212	13.14
779.606	14.63
779.999	14.63
780.392	16.95
780.786	15.29
781.179	14.73
781.572	13.62
781.965	14.11
782.358	15.5
782.751	14.31
783.143	12.38
783.536	10.08
783.929	8.22
784.322	8.81
784.714	7.68
785.107	9.17
785.499	11.03
785.891	12.97
786.284	13.71
786.676	13.33
787.068	15.53
787.46	16.95
787.852	17.58
788.245	17.42
788.636	16.8
789.028	17.83
789.42	18.24
789.812	18.03
790.204	18.6
790.595	19.4
790.987	20.11
791.378	18.62
791.77	15.84
792.161	15.6
792.553	15.56
792.944	16.16
793.335	14.29
793.726	13.28
794.117	14.07
794.508	10.05
794.899	8.37
795.29	8.29
795.681	8.49
796.072	9.51
796.463	23.07
796.853	27.18
797.244	27.9
797.634	30.13
798.025	29.27
798.415	26.34
798.806	29.91
799.196	31.77
799.586	34.39
799.976	34.4
800.366	34.42
800.756	19.54
801.146	17.36
801.536	16.53
801.926	16.47
802.316	18.7
802.706	20.28
803.095	19.6
803.485	19.52
803.874	16.34
804.264	18.52
804.653	19.1
805.043	23.49
805.432	23.85
805.821	26.15
806.21	27.05
806.599	25.54
806.988	23.93
807.377	21.06
807.766	19.55
808.155	20.91
808.544	19.11
808.933	21.01
809.321	19.33
809.71	16.25
810.098	15.34
810.487	11.75
810.875	11.54
811.264	14.42
811.652	25.51
812.04	25.6
812.428	25.58
812.816	24.67
813.204	24.39
813.592	21.79
813.98	23.62
814.368	25.15
814.756	28.11
815.144	31.39
815.531	33.96
815.919	22.31
816.306	25.11
816.694	25.97
817.081	27.91
817.469	28.93
817.856	29.13
818.243	27.41
818.63	24.1
819.017	23.04
819.404	21.42
819.791	15.56
820.178	14.59
820.565	14.6
820.952	23.2
821.339	26.68
821.725	26.02
822.112	28.38
822.498	30.03
822.885	31.56
823.271	31.46
823.657	29.82
824.044	33.89
824.43	38.52
824.816	45.92
825.202	40.05
825.588	36.57
825.974	36.69
826.36	37.62
826.746	38.19
827.132	40.28
827.517	44.14
827.903	44.13
828.289	45.8
828.674	42.4
829.06	36.95
829.445	34.42
829.83	30.74
830.216	29.83
830.601	30.74
830.986	37.74
831.371	34.86
831.756	36.83
832.141	43.77
832.526	43.99
832.911	45.85
833.295	47.13
833.68	46.81
834.065	51.02
834.449	47.22
834.834	44.64
835.218	42.18
835.603	43.92
835.987	39.5
836.371	34.6
836.755	33.28
837.139	29.57
837.524	25.66
837.908	24.61
838.291	28.22
838.675	30.94
839.059	33.05
839.443	29.35
839.827	28.55
840.21	26.06
840.594	27.7
840.977	26.37
841.361	28.15
841.744	26.14
842.127	26.87
842.511	24.27
842.894	23.14
843.277	21.57
843.66	20.28
844.043	19
844.426	24.04
844.809	17.36
845.191	16.4
845.574	17.17
845.957	19.41
846.339	22.45
846.722	21.9
847.104	20.97
847.487	15.91
847.869	17.04
848.252	20.98
848.634	20.14
849.016	20.89
849.398	21.47
849.78	21.37
850.162	25.34
850.544	24.62
850.926	21.9
851.307	20.22
851.689	26.08
852.071	22.22
852.452	20.76
852.834	18.19
853.215	22.42
853.597	25.95
853.978	30.17
854.359	26.96
854.741	26.67
855.122	26.26
855.503	25.34
855.884	25.17
856.265	27.92
856.646	22.16
857.026	26.97
857.407	30.26
857.788	26.91
858.169	19.95
858.549	22.89
858.93	23.89
859.31	26.19
859.69	32.66
860.071	32.25
860.451	35.49
860.831	41.01
861.211	37.09
861.591	32.42
861.971	31.71
862.351	35.8
862.731	33.15
863.111	33.26
863.491	35.33
863.87	34.93
864.25	33.29
864.629	35.7
865.009	30.47
865.388	34.16
865.768	34.33
866.147	40.58
866.526	39.81
866.905	40.22
867.284	32.13
867.663	25.35
868.042	19.5
868.421	21.9
868.8	16.24
869.179	22.03
869.558	19.15
869.936	20.91
870.315	12.58
870.693	12.38
871.072	7.29
871.45	10.36
871.828	13.62
872.207	17.25
872.585	21.68
872.963	22.53
873.341	27.07
873.719	37.16
874.097	38.57
874.475	39.05
874.853	37.71
875.23	42.71
875.608	45.75
875.986	48.84
876.363	50.79
876.741	53.92
877.118	57.96
877.495	57.52
877.873	52.77
878.25	51.4
878.627	54.47
879.004	51.61
879.381	46.22
879.758	51.14
880.135	50.3
880.512	50.24
880.889	39.83
881.265	38.59
881.642	31.48
882.019	28.66
882.395	32.91
882.772	37.14
883.148	43.93
883.524	48.51
883.901	44.17
884.277	38.15
884.653	38.9
885.029	45.38
885.405	53.66
885.781	56.46
886.157	52.47
886.532	49.84
886.908	46.2
887.284	43.02
887.659	43.57
888.035	45.06
888.411	49.46
888.786	45.68
889.161	39.76
889.537	26.02
889.912	23.85
890.287	27.2
890.662	24.57
891.037	20.34
891.412	19.89
891.787	15.1
892.162	20.38
892.536	20.35
892.911	22.87
893.286	23.1
893.66	24.81
894.035	25.62
894.409	24.41
894.784	29.67
895.158	31.66
895.532	34.28
895.906	37.87
896.281	32.6
896.655	41.14
897.029	45.25
897.402	49.47
897.776	56.98
898.15	62.16
898.524	62.3
898.898	65.8
899.271	89.26
899.645	83.41
900.018	85.44
900.392	93.51
900.765	84.39
901.138	76.83
901.511	75.88
901.884	81.31
902.258	75.24
902.631	87.79
903.003	93.59
903.376	69.55
903.749	77.03
904.122	75.59
904.495	57.48
904.867	52.74
905.24	54.35
905.612	47.19
905.985	30.86
906.357	27.83
906.729	13.93
907.102	17.57
907.474	24.83
907.846	26.51
908.218	32.63
908.59	52.1
908.962	54.74
909.334	61.85
909.705	66.96
910.077	70.89
910.449	74.4
910.82	82.9
911.192	87.83
911.563	105.34
911.935	107.14
912.306	95.8
912.677	90.76
913.048	99.07
913.419	97.62
913.79	84.92
914.161	80.69
914.532	93.06
914.903	75.6
915.274	69.19
915.645	52.55
916.015	41.39
916.386	45.88
916.756	39.82
917.127	25.12
917.497	22.65
917.868	40.72
918.238	46.55
918.608	31.1
918.978	36.24
919.348	26.29
919.718	26.36
920.088	39.39
920.458	41.76
920.828	47.28
921.198	63.93
921.567	64.93
921.937	55.65
922.306	47.13
922.676	56.45
923.045	65.6
923.415	80.08
923.784	75.98
924.153	76.05
924.522	73.48
924.891	67.79
925.26	67.65
925.629	72.25
925.998	71.94
926.367	75.51
926.736	84.28
927.104	81.05
927.473	70.05
927.842	74.3
928.21	63.36
928.578	47.07
928.947	57.77
929.315	47.64
929.683	55.24
930.051	70.45
930.42	81.16
930.788	65.03
931.156	67.96
931.523	98.71
931.891	100.54
932.259	96.97
932.627	138.26
932.994	158.24
933.362	173.52
933.729	160.25
934.097	140.34
934.464	131.68
934.831	135.77
935.199	118.72
935.566	95.06
935.933	69.96
936.3	101.26
936.667	75.19
937.034	130.83
937.401	108.14
937.767	96.29
938.134	89.76
938.501	112.65
938.867	130.53
939.234	227.85
939.6	206.35
939.967	273.88
940.333	212.97
940.699	163.1
941.065	93.78
941.431	145.23
941.798	177.75
942.163	251.36
942.529	142.64
942.895	117.22
943.261	96.92
943.627	111.46
943.992	109.65
944.358	98.51
944.723	148.14
945.089	136.14
945.454	126.35
945.82	114.6
946.185	103.36
946.55	128.24
946.915	135.29
947.28	147.23
947.645	137.25
948.01	142.18
948.375	154.18
948.74	145.85
949.104	157.27
949.469	172.87
949.834	285.33
950.198	318.47
950.562	207.94
950.927	164.24
951.291	174.65
951.655	140.67
952.02	90.25
952.384	76.3
952.748	90.07
953.112	126.2
953.476	119.85
953.839	110.11
954.203	121.34
954.567	149.83
954.931	193.91
955.294	186.27
955.658	189.91
956.021	335.38
956.385	482.63
956.748	622.31
957.111	624.95
957.474	544.18
957.837	482.44
958.2	151.6
958.563	55.85
958.926	78.38
959.289	98.83
959.652	130.45
960.015	60.79
960.377	113.45
960.74	160.67
961.102	284.61
961.465	460.4
961.827	563.95
962.189	1183.52
962.552	864.15
962.914	735.08
963.276	472.64
963.638	371.83
964	405.07
964.362	277.96
964.724	252.6
965.085	184.67
965.447	166.65
965.809	110.22
966.17	84.21
966.532	70.96
966.893	61.41
967.255	45.08
967.616	45.68
967.977	44.52
968.338	40.04
968.699	49.47
969.061	56.91
969.421	60.71
969.782	73.12
970.143	96.82
970.504	128.34
970.865	162.73
971.225	205.54
971.586	205.08
971.946	265.79
972.307	244.69
972.667	275.56
973.027	276.09
973.388	280.34
973.748	215.27
974.108	220.97
974.468	212.34
974.828	166.06
975.188	102.38
975.548	99.19
975.907	99.6
976.267	105.51
976.627	115.47
976.986	109.96
977.346	108.5
977.705	90.66
978.064	82.93
978.424	84.59
978.783	65.02
979.142	65.02
979.501	74.85
979.86	66.26
980.219	45.38
980.578	36.74
980.937	37.35
981.296	43.32
981.654	33.91
982.013	7.8
982.371	9.97
982.73	55.47
983.088	63.69
983.447	68.71
983.805	195.74
984.163	533.13
984.521	595.59
984.879	824.56
985.237	-1400.14
985.595	1987.36
985.953	447.86
986.311	222.26
986.669	123.56
987.026	101.45
987.384	69
987.741	0.13
988.099	53.15
988.456	54.37
988.814	72.11
989.171	53.07
989.528	21.26
989.885	34.07
990.242	56.8
990.599	54.24
990.956	55.13
991.313	50.02
991.67	43.08
992.027	70.07
992.383	67.76
992.74	57.01
993.096	75.5
993.453	76.71
993.809	67.33
994.165	67.62
994.522	96.47
994.878	93.71
995.234	123.21
995.59	133.46
995.946	72.59
996.302	66.43
996.658	77.18
997.013	42.39
997.369	125.58
997.725	206.92
998.08	128.69
998.436	64.58
998.791	147.24
999.147	197.23
999.502	229.17
999.857	141.9
1000.212	264.3
1000.567	367.13
1000.922	235.3
1001.277	156.27
1001.632	130.37
1001.987	184.17
1002.342	163.47
1002.696	157.46
1003.051	132.66
1003.406	178.55
1003.76	183.07
1004.114	168.66
1004.469	178.38
1004.823	137.17
1005.177	108.44
1005.531	79.89
1005.885	89.66
1006.239	107.56
1006.593	127.17
1006.947	163.86
1007.301	115.64
1007.655	119.25
1008.008	98.01
1008.362	94.16
1008.715	157.97
1009.069	154.65
1009.422	271.68
1009.776	433.6
1010.129	234.35
1010.482	151.3
1010.835	86.59
1011.188	95.15
1011.541	85.31
1011.894	-118.25
1012.247	514.5
1012.6	37.86
1012.952	125.7
1013.305	43.35
1013.657	69.08
1014.01	74.32
1014.362	46.21
1014.715	101.07
1015.067	105.99
1015.419	104.78
1015.771	109.26
1016.123	112.06
1016.475	113.44
1016.827	94.68
1017.179	119.41
1017.531	80.47
1017.883	87.6
1018.234	141.68
1018.586	153.91
1018.938	191.92
1019.289	285.92
1019.64	295.2
1019.992	236.06
1020.343	223.46
1020.694	240.09
1021.045	196.39
1021.396	278.31
1021.747	300.59
1022.098	279.63
1022.449	175.9
1022.8	159.8
1023.151	119.83
1023.501	125.66
1023.852	134.54
1024.202	140.96
1024.553	107.41
1024.903	131.66
1025.253	123.23
1025.604	137.12
1025.954	155.56
1026.304	161.57
1026.654	190.35
1027.004	259.42
1027.354	293.93
1027.703	405.72
1028.053	496.29
1028.403	1062.86
1028.753	1356.52
1029.102	1272.38
1029.452	2320.16
1029.801	72.78
1030.15	80.03
1030.499	3.78
897.758	1393.95
901.051	1347.89
904.343	1373.57
907.636	1376.09
910.928	1414.31
914.22	1366.83
917.511	1371.64
920.803	1400.39
924.094	1394.39
927.384	1400.22
930.675	1377.29
933.965	1358.62
937.255	1379.35
940.544	1359.6
943.834	1358.24
947.123	1322.92
950.411	1375.2
953.7	1366.76
956.988	1360.19
960.276	1315.89
963.563	1338.8
966.851	1345.52
970.138	1367.02
973.424	1368.66
976.711	1337.57
979.997	1368.17
983.283	1391.24
986.568	1353.16
989.853	1342.13
993.138	1354.69
996.423	1414.59
999.708	1390.3
1002.992	1406.64
1006.275	1351.39
1009.559	1354.88
1012.842	1414.33
1016.125	1383.67
1019.408	1370.7
1022.69	1402.64
1025.972	1419.07
1029.254	1405.65
1032.536	1381.61
1035.817	1388.98
1039.098	1370.06
1042.379	1399.61
1045.659	1411.68
1048.939	1379.52
1052.219	1382.36
1055.498	1377.65
1058.778	1368.6
1062.057	1356.5
1065.335	1373.51
1068.614	1374.76
1071.892	1367.63
1075.17	1400.28
1078.447	1401.78
1081.724	1399
1085.001	1411.69
1088.278	1395.19
1091.554	1396.49
1094.83	1397.71
1098.106	1417.51
1101.382	1431.63
1104.657	1432.38
1107.932	1433.03
1111.206	1419.69
1114.481	1388.89
1117.755	1391.25
1121.029	1384.91
1124.302	1422.65
1127.575	1404.45
1130.848	1404.19
1134.121	1386.09
1137.393	1360.8
1140.665	1398.03
1143.937	1381.27
1147.208	1352.44
1150.48	1388.09
1153.75	1380.1
1157.021	1383.17
1160.291	1367.43
1163.561	1399.49
1166.831	1375.23
1170.101	1389.71
1173.37	1366.88
1176.639	1341.34
1179.907	1372.9
1183.176	1381.73
1186.444	1385.2
1189.711	1398.18
1192.979	1413.94
1196.246	1387.86
1199.513	1395.39
1202.78	1400.08
1206.046	1403.8
1209.312	1426.09
1212.578	1430.23
1215.843	1407.88
1219.108	1393.13
1222.373	1405.14
1225.638	1389.44
1228.902	1380.72
1232.166	1362.17
1235.43	1351.98
1238.693	1370.59
1241.956	1367.52
1245.219	1393.87
1248.482	1386.95
1251.744	1387.06
1255.006	1455.82
1258.268	1423.95
1261.529	1403.71
1264.79	1403.3
1268.051	1457.07
1271.312	1466.43
1274.572	1442.85
1277.832	1435.99
1281.092	1422.21
1284.351	1419.57
1287.61	1412.24
1290.869	1374.98
1294.128	1376.34
1297.386	1396.86
1300.644	1395.01
1303.902	1400.07
1307.159	1321.52
1310.416	1352.12
1313.673	1365.31
1316.93	1369.31
1320.186	1383.07
1323.442	1401.48
1326.697	1399.61
1329.953	1385.32
1333.208	1408.27
1336.463	1393.18
1339.717	1373.38
1342.972	1437.91
1346.226	1424.72
1349.479	1404.96
1352.733	1388.26
1355.986	1398.73
1359.238	1385.89
1362.491	1388.56
1365.743	1388.52
1368.995	1386.78
1372.247	1400.22
1375.498	1408.46
1378.749	1433.24
1382	1406.88
1385.251	1421.76
1388.501	1398.68
1391.751	1394.53
1395	1381.12
1398.25	1399.65
1401.499	1415.84
1404.748	1387.56
1407.996	1375.03
1411.244	1373.69
1414.492	1364.04
1417.74	1352.93
1420.987	1361.83
1424.234	1394.51
1427.481	1372.63
1430.728	1404
1433.974	1392.08
1437.22	1391.77
1440.465	1386.98
1443.711	1388.67
1446.956	1398.09
1450.201	1382.14
1453.445	1410.6
1456.689	1397.3
1459.933	1406.57
1463.177	1431.97
1466.42	1417.36
1469.663	1404.04
1472.906	1411.06
1476.148	1439.54
1479.391	1414.68
1482.633	1404.25
1485.874	1417.63
1489.115	1421.37
1492.356	1414.09
1495.597	1398.25
1498.838	1390.79
1502.078	1384.02
1505.318	1372.23
1508.557	1387.29
1511.797	1387.26
1515.036	1416.88
1518.274	1391.75
1521.513	1361.44
1524.751	1364.26
1527.989	1375.8
1531.227	1387.83
1534.464	1391.67
1537.701	1384.92
1540.938	1389.08
1544.174	1361.85
1547.41	1349.81
1550.646	1373.05
1553.882	1399.85
1557.117	1435.5
1560.352	1441.95
1563.587	1416.5
1566.821	1398.49
1570.055	1411.59
1573.289	1394.96
1576.523	1424.79
1579.756	1430.44
1582.989	1445.12
1586.222	1417.71
1589.454	1440.66
1592.686	1430.15
1595.918	1443.25
1599.15	1444.22
1602.381	1469.29
1605.612	1458.5
1608.843	1512.38
1612.073	1467.32
1615.303	1463.08
1618.533	1459.55
1621.762	1460.44
1624.992	1441.01
1628.221	1440.37
1631.449	1435.1
1634.678	1449.79
1637.906	1427.97
1641.134	1439.07
1644.361	1420.49
1647.588	1412.61
1650.815	1427.06
1654.042	1404.41
1657.269	1420.55
1660.495	1410.08
1663.72	1403.09
1666.946	1383.15
1670.171	1371.35
1673.396	1353.72
1676.621	1347.82
1679.845	1342.98
1683.069	1349.15
1686.293	1362.07
1689.517	1359.84
1692.74	1334.15
1695.963	1344.77
1699.185	1367.01
1702.408	1353.31
1705.63	1366.32
1708.852	1379.47
1712.073	1358.87
1715.294	1372.67
1718.515	1400.85
1721.736	1376.69
1724.956	1366.45
1728.176	1379.16
1731.396	1389.53
1734.616	1385.93
1737.835	1411.73
1741.054	1393.05
1744.272	1392.31
1747.491	1416.62
1750.709	1426.38
1753.927	1399.78
1757.144	1416.45
1760.361	1448.98
1763.578	1432.03
1766.795	1403.74
1770.011	1394.95
1773.227	1407.24
1776.443	1434.13
1779.658	1454.13
1782.874	1422.68
1786.089	1419.55
1789.303	1419.27
1792.518	1421.17
1795.732	1414.73
1798.945	1423.56
1802.159	1452.68
1805.372	1418.93
1808.585	1414.12
1811.797	1414.13
1815.01	1431.98
1818.222	1449.25
1821.434	1426.38
1824.645	1449.43
1827.856	1453.61
1831.067	1469.63
1834.278	1437.34
1837.488	1424.15
1840.698	1497.02
1843.908	1469.92
1847.117	1451.09
1850.326	1407.45
1853.535	1443.61
1856.744	1465.06
1859.952	1421.03
1863.16	1420.74
1866.368	1436.62
1869.575	1502.55
1872.782	1438.65
1875.989	1397.92
1879.196	1427.83
1882.402	1425.42
1885.608	1443.69
1888.814	1409.91
1892.019	1359.39
1895.224	1394.17
1898.429	1377.54
1901.634	1363.79
1904.838	1351.25
1908.042	1385.27
1911.246	1400.04
1914.449	1377.38
1917.652	1369.26
1920.855	1358.95
1924.058	1371.11
1927.26	1402.99
1930.462	1413.85
1933.664	1435.1
1936.865	1406.57
1940.066	1415.04
1943.267	1383.46
1946.467	1389.09
1949.668	1394.17
1952.868	1437.19
1956.067	1436.59
1959.267	1402.52
1962.466	1416.46
1965.665	1402.82
1968.863	1404.77
1972.061	1400.45
1975.259	1396.43
1978.457	1440.7
1981.654	1416.22
1984.852	1420.26
1988.048	1395.45
1991.245	1384.38
1994.441	1436.79
1997.637	1402.57
2000.833	1394.93
2004.028	1411.77
2007.223	1454.39
2010.418	1444.08
2013.613	1414.8
2016.807	1412.49
2020.001	1409.69
2023.194	1418.56
2026.388	1408.15
2029.581	1378.13
2032.774	1418.76
2035.966	1422.87
2039.158	1391.49
2042.35	1405.26
2045.542	1359.87
2048.733	1408.34
2051.924	1399.21
2055.115	1408.17
2058.306	1392.28
2061.496	1421.52
2064.686	1448.58
2067.875	1389.53
2071.065	1391.34
2074.254	1401.12
2077.442	1371.1
2080.631	1423.37
2083.819	1385.92
2087.007	1380.65
2090.195	1372.77
2093.382	1374.55
2096.569	1372.11
2099.756	1348.17
2102.942	1385.13
2106.128	1391.84
2109.314	1387.17
2112.5	1379.81
2115.685	1361.71
2118.87	1366.13
2122.055	1405.72
2125.239	1391.9
2128.424	1388.98
2131.608	1416.78
2134.791	1406.38
2137.974	1426.55
2141.157	1419.74
2144.34	1403.61
2147.523	1393.93
2150.705	1410.86
2153.887	1389.55
2157.068	1375.41
2160.25	1360.95
2163.431	1375.91
2166.611	1360.73
2169.792	1375.4
2172.972	1318.23
2176.152	1351.6
2179.331	1365.64
2182.511	1366.4
2185.69	1377
2188.868	1379.49
2192.047	1402.14
2195.225	1419.88
2198.403	1383.32
2201.58	1374.22
2204.758	1363.5
2207.935	1408.73
2211.111	1360.04
2214.288	1353.18
2217.464	1373.48
2220.64	1349.41
2223.815	1376.48
2226.991	1332.54
2230.166	1339.17
2233.34	1367.68
2236.515	1376.28
2239.689	1419.03
2242.863	1389.32
2246.036	1418.52
2249.209	1410.1
2252.382	1425.4
2255.555	1427.65
2258.727	1402.83
2261.9	1420.04
2265.071	1416.4
2268.243	1415.87
2271.414	1385.94
2274.585	1373.85
2277.756	1410.8
2280.926	1387.02
2284.096	1402.53
2287.266	1359.54
2290.436	1391.28
2293.605	1400.64
2296.774	1425.7
2299.942	1428.77
2303.111	1439.18
2306.279	1469.47
2309.447	1462.25
2312.614	1448.4
2315.781	1458.39
2318.948	1447.14
2322.115	1471.55
2325.281	1403.32
2328.447	1410.41
2331.613	1388.83
2334.779	1386.5
2337.944	1383.44
2341.109	1384.98
2344.274	1380.58
2347.438	1358.68
2350.602	1372.47
2353.766	1378.72
2356.929	1373.85
2360.092	1400.53
2363.255	1376.49
2366.418	1365.15
2369.58	1387.76
2372.742	1366.98
2375.904	1353.46
2379.066	1346.93
2382.227	1363.52
2385.388	1340.97
2388.548	1311.96
2391.709	1330.8
2394.869	1329.96
2398.029	1360.86
2401.188	1349.42
2404.347	1338.72
2407.506	1335.69
2410.665	1372.69
2413.823	1358.88
2416.981	1348.43
2420.139	1358.9
2423.296	1382.36
2426.453	1367.21
2429.61	1378.23
2432.767	1365.46
2435.923	1389.79
2439.079	1355.62
2442.235	1377.5
2445.391	1338.26
2448.546	1365.3
2451.701	1386.44
2454.855	1384.17
2458.009	1400.73
2461.163	1392.79
2464.317	1374.91
2467.471	1390.18
2470.624	1411.12
2473.777	1404.4
2476.929	1413.21
2480.082	1427.26
2483.234	1415.98
2486.385	1379.63
2489.537	1375.62
2492.688	1367.83
2495.839	1384.1
2498.989	1391.58
2502.14	1382.18
2505.29	1375.53
2508.439	1391.79
2511.589	1358.61
2514.738	1358.76
2517.887	1367.67
2521.035	1414.25
2524.183	1386.39
2527.331	1382.26
2530.479	1374.37
2533.627	1377.8
