Data from N_1_DIV_PA_2N_Splice17_11-11-24-065.txt Node
Date: Sat Mar 14 11:11:24 EDT 2020
User: sa697716
Spectrometer: FLMS03696
Trigger mode: 0
Integration Time (sec): 3.180400E-1
Scans to average: 20
Electric dark correction enabled: true
Nonlinearity correction enabled: true
Boxcar width: 5
XAxis mode: Wavelengths
Number of Pixels in Spectrum: 2048
>>>>>Begin Spectral Data<<<<<
187.83	-99856.44
188.298	756.62
188.766	446.7
189.233	410.22
189.701	501.33
190.169	709.18
190.636	276.93
191.104	254.74
191.571	83.17
192.039	23.07
192.506	42.43
192.974	263.26
193.441	-366.88
193.908	-93.34
194.375	-2.23
194.842	10.92
195.31	3.55
195.777	56.22
196.244	162.14
196.711	139.98
197.177	146.92
197.644	143.74
198.111	231.47
198.578	280.03
199.045	212.33
199.511	285.15
199.978	291.32
200.445	232.21
200.911	244.72
201.378	230.17
201.844	250.91
202.31	396.97
202.777	421.32
203.243	238.48
203.709	230.46
204.176	284.49
204.642	281.24
205.108	285
205.574	271.95
206.04	266.37
206.506	248.98
206.972	226.86
207.438	208.35
207.903	239.04
208.369	222.54
208.835	237.44
209.301	237.52
209.766	227.32
210.232	203.26
210.697	232.41
211.163	278.4
211.628	416.05
212.094	369.69
212.559	500.63
213.024	323.01
213.49	372.36
213.955	330.54
214.42	318.14
214.885	308.3
215.35	312.42
215.815	341.55
216.28	343.27
216.745	246.71
217.21	264.44
217.675	221.74
218.14	227.19
218.604	232.64
219.069	259.13
219.534	267.94
219.998	269.86
220.463	284.28
220.927	268.99
221.392	226.42
221.856	236.02
222.32	207.76
222.785	233.84
223.249	258.61
223.713	274.04
224.177	253.69
224.642	264.48
225.106	280.28
225.57	284.87
226.034	234.2
226.497	333.77
226.961	317.87
227.425	420.12
227.889	407.65
228.353	392.9
228.816	689.75
229.28	705.26
229.744	532.02
230.207	392.17
230.671	380.9
231.134	496.03
231.597	643.57
232.061	553.22
232.524	481.77
232.987	342.39
233.45	348.05
233.914	306.85
234.377	265.87
234.84	276.71
235.303	266.91
235.766	291.88
236.229	273.55
236.691	154.18
237.154	171.81
237.617	147.79
238.08	138.19
238.542	149.06
239.005	129.03
239.468	124.02
239.93	109.13
240.393	105.94
240.855	96.12
241.317	98.67
241.78	96.04
242.242	101.18
242.704	127.4
243.166	127.36
243.629	131.45
244.091	143.16
244.553	158.54
245.015	193.4
245.477	238.34
245.939	341.93
246.4	411.09
246.862	395.89
247.324	395.81
247.786	402.52
248.247	472.4
248.709	393.77
249.17	290.98
249.632	352
250.093	413.99
250.555	371.44
251.016	240.32
251.477	219.85
251.939	242.04
252.4	230.53
252.861	253.46
253.322	275.5
253.783	317.56
254.244	365.98
254.705	233.84
255.166	166.64
255.627	157.17
256.088	223.62
256.549	213.52
257.009	173.6
257.47	204.12
257.931	168.7
258.391	120.84
258.852	125.89
259.312	159.34
259.773	155.75
260.233	185.87
260.694	177.39
261.154	197.31
261.614	208.39
262.074	189.51
262.534	214.86
262.994	209.25
263.455	229.13
263.915	213.27
264.374	186.64
264.834	221.77
265.294	225.19
265.754	231.81
266.214	223.32
266.673	188.5
267.133	216.67
267.593	190.97
268.052	244.26
268.512	220.36
268.971	281.68
269.431	318.74
269.89	269.08
270.349	374.49
270.809	389.84
271.268	332.19
271.727	638.65
272.186	424.26
272.645	301.63
273.104	160.71
273.563	235.33
274.022	142.37
274.481	148.23
274.94	119.03
275.399	89.92
275.857	91.62
276.316	93.99
276.775	86.99
277.233	97.43
277.692	122.94
278.15	170.63
278.609	221.71
279.067	189.67
279.525	199.47
279.984	271.07
280.442	349.03
280.9	398.79
281.358	266.32
281.816	255.94
282.274	235.34
282.732	219.31
283.19	223.95
283.648	170.72
284.106	200.31
284.564	189.69
285.021	169.21
285.479	115.46
285.937	88.51
286.394	102.41
286.852	101.09
287.309	120.15
287.767	136.7
288.224	135.38
288.682	147.98
289.139	162.55
289.596	156.03
290.053	153.51
290.511	178.29
290.968	210.45
291.425	256.04
291.882	264.53
292.339	232.71
292.796	217.69
293.252	187.3
293.709	156.63
294.166	137.66
294.623	136.85
295.079	132.52
295.536	167.58
295.992	156.34
296.449	160.16
296.905	150.8
297.362	177.52
297.818	183.09
298.274	207.35
298.731	212.05
299.187	219.27
299.643	234.96
300.099	290.4
300.555	304.53
301.011	276.21
301.467	304.03
301.923	328.4
302.379	305.17
302.835	282.42
303.291	277.97
303.746	313.9
304.202	365.92
304.658	364.72
305.113	246.54
305.569	236.88
306.024	211.06
306.479	154.35
306.935	145.87
307.39	122.97
307.845	124.42
308.301	138.78
308.756	141.9
309.211	166.04
309.666	152.28
310.121	215.59
310.576	177.21
311.031	182.17
311.486	190.55
311.94	212
312.395	264.64
312.85	474.39
313.305	1435.98
313.759	8306.78
314.214	521.22
314.668	427.51
315.123	380.89
315.577	178.79
316.032	183.95
316.486	219.49
316.94	172.77
317.394	137.79
317.849	130.99
318.303	125.49
318.757	125.29
319.211	139.98
319.665	131.41
320.119	123.99
320.572	160.52
321.026	175.13
321.48	146.38
321.934	128.09
322.387	131.82
322.841	131.3
323.295	159.32
323.748	154.06
324.202	154.26
324.655	187.38
325.108	311.49
325.562	243.8
326.015	246.45
326.468	206.89
326.921	260.87
327.374	254.11
327.827	258.34
328.28	244.55
328.733	187.33
329.186	172.18
329.639	174.09
330.092	124.74
330.545	129.46
330.997	149.33
331.45	178.09
331.903	222.98
332.355	353.53
332.808	354.9
333.26	327.17
333.713	356.52
334.165	334.94
334.617	409.91
335.069	304.93
335.522	474.57
335.974	474.81
336.426	358.77
336.878	191.26
337.33	120.09
337.782	129.63
338.234	163.06
338.686	174.38
339.137	211.27
339.589	222.15
340.041	243.19
340.493	204.7
340.944	200.77
341.396	236.58
341.847	232.98
342.299	306.72
342.75	384.4
343.201	323.06
343.653	355.52
344.104	417.72
344.555	312.11
345.006	359.96
345.457	345.48
345.908	272.36
346.359	259.59
346.81	189.63
347.261	161.67
347.712	136.32
348.163	129.05
348.613	184.53
349.064	172.17
349.515	156.43
349.965	164.66
350.416	138.1
350.866	118.93
351.317	124.47
351.767	175.52
352.217	253.17
352.668	223.42
353.118	194.25
353.568	82.41
354.018	121.83
354.468	155.57
354.918	156.24
355.368	171.68
355.818	238.91
356.268	528.76
356.718	3074.95
357.168	743.57
357.617	353.2
358.067	454.07
358.517	442.55
358.966	474
359.416	525.71
359.865	610.01
360.315	666.72
360.764	389.4
361.213	222.92
361.663	180.68
362.112	205.25
362.561	307.13
363.01	177.75
363.459	146.87
363.908	137.84
364.357	148.92
364.806	165.93
365.255	126.66
365.703	135.19
366.152	150.32
366.601	118.61
367.05	153.71
367.498	157.15
367.947	165.84
368.395	160.61
368.844	158.22
369.292	156.28
369.74	130.72
370.189	180.72
370.637	173.29
371.085	156.15
371.533	178.16
371.981	92.31
372.429	117.04
372.877	130.03
373.325	136.95
373.773	115.61
374.221	77.41
374.669	83.4
375.116	90.75
375.564	105.76
376.012	106.74
376.459	132.7
376.907	179.64
377.354	182.5
377.801	190.9
378.249	227.62
378.696	292.99
379.143	385.76
379.591	347.5
380.038	505.74
380.485	369.67
380.932	414.82
381.379	390.61
381.826	345.94
382.273	207.79
382.72	163.25
383.166	135.36
383.613	111.57
384.06	113.28
384.506	152.13
384.953	116.63
385.4	106.29
385.846	95.33
386.292	66.96
386.739	38.23
387.185	40.96
387.631	38.27
388.078	65.21
388.524	51.64
388.97	51.01
389.416	43.17
389.862	54.77
390.308	57.94
390.754	58.59
391.2	54.42
391.645	53.58
392.091	78.5
392.537	80.14
392.983	57.01
393.428	85.6
393.874	84.87
394.319	94.91
394.765	99.14
395.21	92.39
395.655	88.48
396.101	91.04
396.546	84.74
396.991	69.8
397.436	72.19
397.881	65.26
398.326	44.3
398.771	48.2
399.216	39.59
399.661	30.08
400.106	36.31
400.551	37
400.995	33.08
401.44	35.72
401.885	34.45
402.329	33.27
402.774	38.12
403.218	46.12
403.663	44.5
404.107	47.07
404.551	49.67
404.995	43.37
405.44	38.81
405.884	41.48
406.328	34.06
406.772	30.17
407.216	27.78
407.66	24.11
408.104	15.8
408.547	15.4
408.991	15.27
409.435	12.79
409.879	15.05
410.322	20.91
410.766	20.03
411.209	24.7
411.653	25.26
412.096	27.59
412.54	27.1
412.983	28.15
413.426	28.21
413.869	25.49
414.312	28.12
414.756	25.78
415.199	22.63
415.642	23.49
416.085	22.12
416.527	19.66
416.97	18.36
417.413	19.85
417.856	19.04
418.298	16.84
418.741	15.89
419.184	12.81
419.626	9.76
420.069	9.51
420.511	9.45
420.953	11.24
421.396	14.68
421.838	12.76
422.28	12.03
422.722	14.31
423.164	14.8
423.606	16.77
424.048	15.49
424.49	17.28
424.932	16.09
425.374	16.34
425.816	14.7
426.258	13.73
426.699	15.02
427.141	17.18
427.582	14.24
428.024	12.64
428.465	9.78
428.907	10.26
429.348	10.44
429.789	12.32
430.231	13.77
430.672	12.93
431.113	11.67
431.554	11.55
431.995	8.1
432.436	10.08
432.877	11.02
433.318	13.65
433.759	13.55
434.2	14.22
434.64	11.54
435.081	9.29
435.522	10.22
435.962	12.76
436.403	14.8
436.843	13.97
437.284	12.79
437.724	12.73
438.164	10.34
438.604	10.43
439.045	10.7
439.485	12.69
439.925	13.57
440.365	12.78
440.805	10.1
441.245	8.72
441.685	9.72
442.125	9.69
442.564	9.14
443.004	10.72
443.444	10.28
443.883	11.39
444.323	9.87
444.762	7.03
445.202	7.16
445.641	8.83
446.081	7.36
446.52	7.55
446.959	8.57
447.398	10.91
447.837	10.63
448.276	11.66
448.716	10.93
449.154	8.51
449.593	10.5
450.032	11.67
450.471	10.1
450.91	9.82
451.349	11.03
451.787	9.79
452.226	6.42
452.664	6.02
453.103	5.55
453.541	4.26
453.98	8.87
454.418	8.37
454.856	9.02
455.295	9.06
455.733	10.35
456.171	9.03
456.609	10.87
457.047	12.67
457.485	14.07
457.923	15.19
458.361	15.11
458.798	13.29
459.236	13.57
459.674	10.85
460.111	11.74
460.549	11.04
460.987	10.42
461.424	9.51
461.862	8.54
462.299	6.88
462.736	6.71
463.173	5.82
463.611	8.66
464.048	9.28
464.485	10.54
464.922	9.48
465.359	8.41
465.796	14.21
466.233	13.84
466.67	16.79
467.106	18.61
467.543	17.11
467.98	17.48
468.416	16.46
468.853	15.7
469.29	15.98
469.726	16.17
470.162	16.74
470.599	12.74
471.035	12.69
471.471	10.44
471.907	8.58
472.344	9.26
472.78	9.45
473.216	7.35
473.652	6.85
474.088	7.36
474.523	7.71
474.959	6.6
475.395	5.94
475.831	7.07
476.266	7.15
476.702	7.37
477.138	8.09
477.573	8.02
478.008	8.04
478.444	9.66
478.879	9.48
479.314	9.75
479.75	10.43
480.185	10.05
480.62	8.72
481.055	9.26
481.49	9.69
481.925	9.05
482.36	10.62
482.795	10.21
483.229	8.79
483.664	8.62
484.099	8.61
484.534	8.9
484.968	10.17
485.403	10.33
485.837	9.25
486.271	8.62
486.706	8.37
487.14	7.32
487.574	8.01
488.009	7.76
488.443	6.92
488.877	6.86
489.311	6.06
489.745	6.37
490.179	6.71
490.613	8.31
491.046	8.21
491.48	8.28
491.914	8.02
492.348	7.51
492.781	7.9
493.215	8.48
493.648	7.81
494.082	7.84
494.515	6.96
494.948	7.32
495.382	5.7
495.815	6.18
496.248	6.63
496.681	6.73
497.114	6.61
497.547	6.79
497.98	7.13
498.413	8.69
498.846	9.53
499.279	9.28
499.711	8.64
500.144	8.83
500.577	9.36
501.009	8.71
501.442	8.96
501.874	9.75
502.306	9.48
502.739	10.66
503.171	9.95
503.603	9.6
504.036	9.35
504.468	9.3
504.9	9.75
505.332	9.4
505.764	10.19
506.196	10.27
506.627	10.55
507.059	10.44
507.491	9.25
507.923	9.31
508.354	9.21
508.786	9.92
509.217	10.34
509.649	9.93
510.08	9.21
510.512	9.37
510.943	9.78
511.374	9.6
511.805	9.5
512.237	9.18
512.668	9.09
513.099	8.87
513.53	8.83
513.961	8.66
514.391	8.71
514.822	10.15
515.253	10.42
515.684	9.96
516.114	9.93
516.545	10.57
516.975	10.75
517.406	10.62
517.836	11.03
518.267	10.84
518.697	11.93
519.127	12.18
519.558	11.38
519.988	10.74
520.418	10.44
520.848	9.79
521.278	9.35
521.708	23.8
522.138	24.05
522.567	23.75
522.997	23.83
523.427	23.2
523.857	23.22
524.286	23.24
524.716	23.79
525.145	24.51
525.575	25.63
526.004	25.48
526.433	11.62
526.863	11.36
527.292	13
527.721	13.79
528.15	13.69
528.579	14.01
529.008	14.36
529.437	13.81
529.866	13.64
530.295	13.22
530.724	13.75
531.152	13.93
531.581	14.5
532.01	13.97
532.438	13.89
532.867	14.19
533.295	14.79
533.723	15.04
534.152	15.35
534.58	15.45
535.008	15.4
535.436	15.95
535.865	15.48
536.293	15.03
536.721	14.23
537.149	13.48
537.576	13.64
538.004	13.61
538.432	12.62
538.86	12.78
539.287	12.74
539.715	12.9
540.143	12.05
540.57	12.39
540.998	12.25
541.425	13.86
541.852	14.14
542.28	14.03
542.707	13.89
543.134	14.49
543.561	14.69
543.988	15.07
544.415	15.16
544.842	15.31
545.269	15.34
545.696	16.63
546.123	16.26
546.549	16.53
546.976	16.39
547.403	16.01
547.829	15.66
548.256	15.33
548.682	15.29
549.108	15.63
549.535	15.61
549.961	15.24
550.387	14.12
550.813	14.37
551.24	14.45
551.666	13.99
552.092	14.23
552.518	14.24
552.943	14.37
553.369	13.72
553.795	13.46
554.221	14.04
554.646	13.85
555.072	14.93
555.498	13.81
555.923	13.34
556.349	13.79
556.774	13.5
557.199	13.66
557.625	12.65
558.05	13.14
558.475	13.25
558.9	13.01
559.325	13.71
559.75	13.02
560.175	13.58
560.6	13.64
561.025	13.08
561.449	12.98
561.874	12.92
562.299	13.91
562.723	13.61
563.148	13.01
563.572	12.5
563.997	12.01
564.421	11.5
564.846	10.76
565.27	10.8
565.694	10.74
566.118	11.21
566.542	11.56
566.966	11.74
567.39	11.84
567.814	12.42
568.238	12.74
568.662	11.98
569.086	12.39
569.509	12
569.933	13.18
570.357	13.79
570.78	13.33
571.204	13.52
571.627	12.84
572.05	12.6
572.474	13
572.897	13.2
573.32	14.32
573.743	14.03
574.166	14.66
574.589	13.28
575.012	12.92
575.435	12.37
575.858	12.26
576.281	12.98
576.704	12.84
577.126	11.73
577.549	11.49
577.972	10.69
578.394	10.68
578.817	11.41
579.239	10.98
579.661	11.23
580.084	11.92
580.506	11.95
580.928	11.53
581.35	11.79
581.772	12.09
582.194	11.81
582.616	11.98
583.038	11.41
583.46	10.38
583.882	11.32
584.303	10.76
584.725	10.49
585.147	12.77
585.568	12.41
585.99	12.48
586.411	12.6
586.833	13.01
587.254	13.16
587.675	13.38
588.096	13.83
588.518	13.37
588.939	13.15
589.36	13.44
589.781	10.38
590.202	12.64
590.623	12.55
591.043	12.07
591.464	11.86
591.885	12.05
592.305	12.2
592.726	11.31
593.147	11.06
593.567	11.74
593.987	11.62
594.408	11.34
594.828	9.15
595.248	9.21
595.669	9.88
596.089	9.46
596.509	8.98
596.929	8.68
597.349	9.21
597.769	9.61
598.189	9.39
598.608	9.34
599.028	9.43
599.448	9.16
599.867	9.11
600.287	8.55
600.706	9.37
601.126	10.24
601.545	11.42
601.965	11.39
602.384	11.17
602.803	10.53
603.222	10.51
603.641	10.31
604.061	10.99
604.48	11.01
604.898	11
605.317	10.83
605.736	9.77
606.155	9.28
606.574	9.18
606.992	9.23
607.411	9.67
607.829	8.92
608.248	8.81
608.666	8.18
609.085	8.44
609.503	8.31
609.921	7.83
610.339	8.62
610.758	7.93
611.176	7.96
611.594	8.22
612.012	8.34
612.43	9.19
612.847	9.45
613.265	10.18
613.683	9.81
614.101	10.05
614.518	10.2
614.936	9.32
615.353	10.14
615.771	10.54
616.188	10
616.606	10.01
617.023	10.08
617.44	10.19
617.857	9.34
618.274	9.32
618.691	9.49
619.108	9.17
619.525	9.92
619.942	9.53
620.359	8.9
620.776	8.81
621.192	9.2
621.609	9.71
622.026	10.01
622.442	9.85
622.859	9.27
623.275	9.16
623.691	8.99
624.108	8.54
624.524	8.47
624.94	8.94
625.356	8.59
625.772	7.93
626.188	6.88
626.604	6.15
627.02	6.39
627.436	6.44
627.852	7.14
628.268	7.5
628.683	7.42
629.099	7.35
629.514	6.99
629.93	7.17
630.345	7.54
630.761	7.13
631.176	7.44
631.591	8.99
632.007	9.63
632.422	8.63
632.837	8.9
633.252	9.38
633.667	9.62
634.082	9.52
634.497	10.14
634.911	10.9
635.326	11.34
635.741	11.25
636.155	10.24
636.57	10.58
636.984	10.83
637.399	10.72
637.813	10.04
638.228	9.43
638.642	9.74
639.056	9.42
639.47	8.77
639.884	9.29
640.298	9.16
640.712	9.36
641.126	8.63
641.54	8.02
641.954	6.99
642.368	7.52
642.781	9.74
643.195	9.75
643.609	10.28
644.022	9.94
644.436	8.98
644.849	8.94
645.262	8.5
645.676	8.2
646.089	8.26
646.502	9.56
646.915	9.48
647.328	7.61
647.741	7.67
648.154	7.25
648.567	8.94
648.98	9.45
649.393	10.01
649.805	10.1
650.218	10.01
650.631	10.81
651.043	10.59
651.456	10.18
651.868	10.44
652.28	9.87
652.693	9.64
653.105	8.91
653.517	9.51
653.929	8.45
654.341	9.33
654.753	10.68
655.165	9.71
655.577	10.03
655.989	10.61
656.401	10.17
656.813	11.32
657.224	11.15
657.636	10.57
658.047	10.74
658.459	11.61
658.87	10.4
659.282	9.88
659.693	10.73
660.104	10.76
660.515	10.77
660.926	10.58
661.338	9.94
661.749	10.22
662.159	10.41
662.57	8.54
662.981	8.92
663.392	8.45
663.803	7.34
664.213	7.08
664.624	6.88
665.035	5.61
665.445	5.18
665.855	5.71
666.266	6.2
666.676	6.41
667.086	6.67
667.497	5.77
667.907	6.5
668.317	7.06
668.727	9.82
669.137	8.89
669.547	9.81
669.956	10.1
670.366	9.38
670.776	8.42
671.186	7.59
671.595	8
672.005	7.74
672.414	8.35
672.824	8.91
673.233	5.7
673.642	6.61
674.052	6.91
674.461	7.88
674.87	7.57
675.279	8.14
675.688	7.05
676.097	8.29
676.506	8.16
676.915	6.32
677.323	6.85
677.732	6.83
678.141	6.75
678.549	6.52
678.958	4.76
679.366	4.84
679.775	4.35
680.183	6.59
680.592	5.9
681	6.88
681.408	7.88
681.816	6.77
682.224	6.69
682.632	7.14
683.04	7.28
683.448	7.55
683.856	7.77
684.264	8.59
684.671	7.24
685.079	6.81
685.487	6.83
685.894	7.23
686.302	6.38
686.709	7.5
687.116	7.61
687.524	8.79
687.931	11.2
688.338	12.7
688.745	12.14
689.152	11.76
689.559	12.94
689.966	13.76
690.373	14.06
690.78	15.79
691.187	15.57
691.593	16.91
692	15.94
692.407	16.52
692.813	17.97
693.22	18.35
693.626	18.03
694.032	17.79
694.439	17.9
694.845	18.02
695.251	17.26
695.657	18.46
696.063	16.01
696.469	16.92
696.875	15.88
697.281	14.11
697.687	13.97
698.093	14.56
698.498	14.74
698.904	14.19
699.31	13.93
699.715	16.84
700.12	15.85
700.526	17.53
700.931	16.86
701.337	17.7
701.742	17.87
702.147	18.87
702.552	20.06
702.957	19.7
703.362	19.28
703.767	18.95
704.172	16.69
704.577	16.2
704.981	15.67
705.386	16.44
705.791	15.96
706.195	15.48
706.6	15.08
707.004	13.85
707.408	13.62
707.813	13.83
708.217	14.93
708.621	14.85
709.025	15.46
709.43	15.88
709.834	16.06
710.237	16.67
710.641	17.6
711.045	18.61
711.449	19.68
711.853	22.47
712.256	23.31
712.66	22.9
713.064	23.61
713.467	24.72
713.87	24.89
714.274	25.18
714.677	25.65
715.08	26.36
715.484	26.36
715.887	28.82
716.29	27.41
716.693	28.84
717.096	29.07
717.499	29.95
717.901	29.42
718.304	29.57
718.707	28.63
719.109	28.63
719.512	27.66
719.915	28.58
720.317	26.84
720.719	25.86
721.122	24.38
721.524	25.3
721.926	27.76
722.328	27.72
722.731	27.3
723.133	26.79
723.535	26.12
723.937	26.12
724.338	26.46
724.74	26.76
725.142	59.79
725.544	64.23
725.945	71.7
726.347	68.53
726.748	68.16
727.15	69.19
727.551	70.7
727.952	68.96
728.354	68.01
728.755	66.61
729.156	66
729.557	33.28
729.958	29.52
730.359	22.18
730.76	22.44
731.161	23.34
731.562	22.58
731.962	22.87
732.363	23.76
732.763	24.36
733.164	23.83
733.564	24.72
733.965	26.23
734.365	26.11
734.766	26.33
735.166	26.6
735.566	27.26
735.966	27.43
736.366	28.12
736.766	27.78
737.166	26.53
737.566	26.96
737.966	25.98
738.365	25.98
738.765	26.33
739.165	25.96
739.564	25.58
739.964	22.98
740.363	22.23
740.763	20.1
741.162	21.13
741.561	22.01
741.96	22.28
742.36	21.93
742.759	22.22
743.158	21.75
743.557	21.67
743.955	21.74
744.354	22.62
744.753	22.95
745.152	24.72
745.55	24.75
745.949	25.07
746.348	25.43
746.746	25.34
747.144	26.68
747.543	25.79
747.941	25.59
748.339	25.93
748.737	27.14
749.136	28.12
749.534	25.88
749.932	26.34
750.33	26.63
750.727	26.61
751.125	27.2
751.523	25.62
751.921	28.5
752.318	28.5
752.716	29.12
753.113	29.12
753.511	29.62
753.908	31.32
754.305	34.29
754.703	34.02
755.1	33.79
755.497	33.44
755.894	33.48
756.291	31.79
756.688	33.77
757.085	33.69
757.482	33.71
757.878	34.99
758.275	36.79
758.672	30.97
759.068	34.15
759.465	33.95
759.861	37.26
760.258	40.33
760.654	42.71
761.05	42.2
761.447	39.99
761.843	40.73
762.239	39.37
762.635	36.27
763.031	37.31
763.427	34.21
763.822	36.88
764.218	34.69
764.614	32.68
765.01	30.37
765.405	28.48
765.801	29.18
766.196	27.42
766.592	25.81
766.987	25.99
767.382	25
767.778	24.23
768.173	22.44
768.568	22.1
768.963	22.68
769.358	22.76
769.753	24.38
770.148	25.33
770.542	26.53
770.937	26.4
771.332	26.57
771.726	26.94
772.121	30.42
772.515	31.98
772.91	32.21
773.304	31.5
773.699	32.48
774.093	31.68
774.487	32.42
774.881	31.66
775.275	31.76
775.669	31.87
776.063	31.45
776.457	29.63
776.851	27.58
777.245	28.92
777.638	30.12
778.032	29.61
778.425	31.57
778.819	32.43
779.212	34.6
779.606	37.44
779.999	35.85
780.392	38.65
780.786	38.11
781.179	39.64
781.572	39.66
781.965	40.54
782.358	41.44
782.751	40.04
783.143	38.5
783.536	36.82
783.929	34.97
784.322	36.4
784.714	34.69
785.107	34.67
785.499	35.95
785.891	35.84
786.284	35.05
786.676	35.31
787.068	36.07
787.46	35.94
787.852	35.91
788.245	34.05
788.636	32.63
789.028	34.01
789.42	35.17
789.812	35.3
790.204	35.91
790.595	37.72
790.987	36.55
791.378	36.68
791.77	35.87
792.161	35.59
792.553	36.92
792.944	39.66
793.335	37.86
793.726	38.38
794.117	38.59
794.508	37.41
794.899	34.32
795.29	34.89
795.681	33.47
796.072	34.15
796.463	46.89
796.853	50.09
797.244	49.55
797.634	50.09
798.025	48.82
798.415	46.55
798.806	47.08
799.196	49.27
799.586	50.78
799.976	51.03
800.366	48.92
800.756	35.41
801.146	32.86
801.536	33.12
801.926	32.58
802.316	33.38
802.706	34.09
803.095	34.22
803.485	33.86
803.874	30.3
804.264	31.95
804.653	34.12
805.043	36.6
805.432	36.89
805.821	38.69
806.21	39.47
806.599	38.31
806.988	37.85
807.377	36.41
807.766	35.76
808.155	39.33
808.544	36.67
808.933	37.03
809.321	37.46
809.71	34.87
810.098	33.59
810.487	32.79
810.875	31.52
811.264	31.98
811.652	39.43
812.04	41.5
812.428	40.12
812.816	40.99
813.204	42.72
813.592	40.83
813.98	44.79
814.368	46.35
814.756	45.95
815.144	51.23
815.531	55.15
815.919	46.71
816.306	46.7
816.694	47.36
817.081	50.35
817.469	50.85
817.856	47.06
818.243	46.22
818.63	42.53
819.017	45.25
819.404	42.67
819.791	39.69
820.178	38.79
820.565	39.68
820.952	46.94
821.339	47.99
821.725	44.67
822.112	49.33
822.498	51.11
822.885	51.09
823.271	46.72
823.657	44.96
824.044	47.87
824.43	48.59
824.816	50.97
825.202	47.96
825.588	48.18
825.974	50.82
826.36	50.02
826.746	48.33
827.132	51.98
827.517	58.36
827.903	57.36
828.289	59.28
828.674	59.76
829.06	55.76
829.445	52.1
829.83	48.86
830.216	50.09
830.601	51.26
830.986	58.27
831.371	57.79
831.756	56.04
832.141	62.27
832.526	63.02
832.911	63.62
833.295	61.89
833.68	62.98
834.065	65.2
834.449	61.56
834.834	63.94
835.218	59.91
835.603	60.57
835.987	58.8
836.371	59.44
836.755	56.17
837.139	53.61
837.524	54.49
837.908	53.15
838.291	55.93
838.675	55.42
839.059	55.97
839.443	53.34
839.827	50.51
840.21	49.37
840.594	47.05
840.977	47.58
841.361	48.99
841.744	48.05
842.127	47.9
842.511	45.33
842.894	45.52
843.277	42.48
843.66	38.39
844.043	36.34
844.426	39.17
844.809	35.18
845.191	35.43
845.574	41.22
845.957	43.33
846.339	45.01
846.722	43.65
847.104	44.23
847.487	41.98
847.869	44.5
848.252	50.22
848.634	50.59
849.016	49.69
849.398	46.81
849.78	39.75
850.162	40.72
850.544	41.53
850.926	39.14
851.307	38.81
851.689	40.92
852.071	38.14
852.452	37.27
852.834	36.95
853.215	43.01
853.597	47.05
853.978	52.94
854.359	53.11
854.741	51.01
855.122	48.84
855.503	48.17
855.884	46.36
856.265	50.26
856.646	44.11
857.026	46.01
857.407	44.86
857.788	43.57
858.169	37.55
858.549	40.47
858.93	42.26
859.31	46.67
859.69	51.66
860.071	53.39
860.451	56.67
860.831	61.74
861.211	60.49
861.591	57.48
861.971	55.68
862.351	57.21
862.731	50.93
863.111	49.49
863.491	51.89
863.87	51.45
864.25	46.82
864.629	47.26
865.009	43.74
865.388	48.79
865.768	49.21
866.147	52.17
866.526	52.3
866.905	58.56
867.284	55.21
867.663	49.04
868.042	43.38
868.421	50.07
868.8	43.81
869.179	45.99
869.558	38.52
869.936	38.49
870.315	32.01
870.693	34.98
871.072	27.7
871.45	31.66
871.828	35.75
872.207	35.79
872.585	33.41
872.963	36.35
873.341	41.28
873.719	46.12
874.097	50.24
874.475	55.41
874.853	53.79
875.23	58.74
875.608	55.93
875.986	59.21
876.363	61.68
876.741	67.6
877.118	74.08
877.495	73.82
877.873	73.38
878.25	78.02
878.627	74.53
879.004	71.62
879.381	70.1
879.758	72.97
880.135	64.42
880.512	64.25
880.889	58.51
881.265	50.14
881.642	43.75
882.019	44.74
882.395	43.53
882.772	52.81
883.148	60.96
883.524	63.37
883.901	64.55
884.277	66.99
884.653	64.31
885.029	69.6
885.405	80.36
885.781	83.68
886.157	78.37
886.532	74.53
886.908	67.44
887.284	65.96
887.659	63.05
888.035	63.08
888.411	58.46
888.786	60.17
889.161	56.5
889.537	53.49
889.912	51.44
890.287	49.5
890.662	53.89
891.037	47.87
891.412	40.62
891.787	34.81
892.162	37.29
892.536	40.3
892.911	44.68
893.286	39.25
893.66	39.54
894.035	41.29
894.409	38.04
894.784	41.06
895.158	44.92
895.532	52.39
895.906	60.41
896.281	65.55
896.655	66.78
897.029	69.76
897.402	80.39
897.776	73.67
898.15	72.79
898.524	83.65
898.898	78.13
899.271	85.15
899.645	80.08
900.018	72.93
900.392	69.33
900.765	65.53
901.138	63.83
901.511	55.83
901.884	62.88
902.258	65.25
902.631	67.55
903.003	72.23
903.376	64.09
903.749	59.18
904.122	61.52
904.495	47.51
904.867	43.99
905.24	42.41
905.612	41.07
905.985	32.83
906.357	26.24
906.729	23.75
907.102	28.31
907.474	36.8
907.846	51.76
908.218	57.71
908.59	65.96
908.962	72.09
909.334	76.74
909.705	85.68
910.077	84.24
910.449	83.14
910.82	96.85
911.192	104.99
911.563	114.77
911.935	101.47
912.306	89.73
912.677	85.88
913.048	80.7
913.419	78.58
913.79	69.08
914.161	76.37
914.532	86.42
914.903	69.66
915.274	60.12
915.645	58.41
916.015	54.38
916.386	50.01
916.756	55.83
917.127	55.14
917.497	57.6
917.868	68.46
918.238	63.06
918.608	56.52
918.978	51.57
919.348	53.59
919.718	50.56
920.088	61.65
920.458	81.74
920.828	76.57
921.198	83.36
921.567	83.6
921.937	67
922.306	58.73
922.676	62.83
923.045	74.03
923.415	79.36
923.784	74
924.153	78.16
924.522	76.41
924.891	73.53
925.26	76.57
925.629	76.44
925.998	84.7
926.367	98.51
926.736	109.99
927.104	111.94
927.473	107.31
927.842	96.89
928.21	82.81
928.578	63.83
928.947	80.27
929.315	84.74
929.683	90.39
930.051	88.7
930.42	84.6
930.788	71.83
931.156	60.26
931.523	81.35
931.891	95.94
932.259	108.41
932.627	150.96
932.994	177.52
933.362	156.81
933.729	151.58
934.097	149.27
934.464	142.91
934.831	141.11
935.199	144.51
935.566	129.54
935.933	177.08
936.3	204.18
936.667	160.87
937.034	208.54
937.401	197.91
937.767	168.32
938.134	165.01
938.501	217.55
938.867	258.71
939.234	406.35
939.6	327.25
939.967	303.89
940.333	230.1
940.699	189.49
941.065	84.94
941.431	104.78
941.798	146.73
942.163	177.82
942.529	116.05
942.895	67.71
943.261	46.59
943.627	83.12
943.992	79.26
944.358	60.52
944.723	94.36
945.089	111.94
945.454	115.97
945.82	99.54
946.185	82.11
946.55	110.75
946.915	120.74
947.28	176.23
947.645	147.81
948.01	149.34
948.375	159.59
948.74	160.15
949.104	164.36
949.469	147.64
949.834	254.44
950.198	332
950.562	208.67
950.927	171.22
951.291	161.49
951.655	120.78
952.02	70.72
952.384	81.26
952.748	84.63
953.112	116
953.476	139.72
953.839	130.67
954.203	139.6
954.567	161.28
954.931	198.14
955.294	190.38
955.658	185.08
956.021	336.8
956.385	449.72
956.748	597.2
957.111	590.94
957.474	526.41
957.837	571.06
958.2	253.14
958.563	135.87
958.926	167.01
959.289	233.32
959.652	273.41
960.015	197.09
960.377	289.36
960.74	386.74
961.102	635.3
961.465	690.5
961.827	579.62
962.189	1063.21
962.552	678.38
962.914	557.8
963.276	351.44
963.638	316.56
964	285.84
964.362	239.24
964.724	171.66
965.085	145.43
965.447	116.39
965.809	96.18
966.17	90.46
966.532	92.01
966.893	71.39
967.255	62.28
967.616	59.46
967.977	61.37
968.338	53.65
968.699	75.27
969.061	74.73
969.421	95.94
969.782	87.68
970.143	86.3
970.504	115.55
970.865	138.96
971.225	167.87
971.586	159.66
971.946	213.44
972.307	185.19
972.667	213.33
973.027	211.43
973.388	198.98
973.748	143.62
974.108	170.3
974.468	151.25
974.828	142.37
975.188	97.91
975.548	94.84
975.907	84.05
976.267	81.64
976.627	85.83
976.986	92.52
977.346	84.29
977.705	91.35
978.064	82.27
978.424	79.69
978.783	66.08
979.142	70.73
979.501	76.18
979.86	82.43
980.219	69.43
980.578	69.41
980.937	52.01
981.296	63.49
981.654	58.98
982.013	40.1
982.371	51.06
982.73	56.07
983.088	25.81
983.447	13.44
983.805	16.66
984.163	156.11
984.521	220.44
984.879	288.04
985.237	-373.27
985.595	437.15
985.953	107.02
986.311	7.52
986.669	24.43
987.026	55.95
987.384	61.13
987.741	16.31
988.099	44.18
988.456	35.03
988.814	45.51
989.171	61.65
989.528	47.07
989.885	60.17
990.242	70.6
990.599	68.38
990.956	51.98
991.313	45.52
991.67	46.67
992.027	69.88
992.383	69.75
992.74	69.69
993.096	71.57
993.453	68.73
993.809	57.32
994.165	61.3
994.522	96.62
994.878	103.69
995.234	124.24
995.59	138.2
995.946	77.45
996.302	95.66
996.658	109.97
997.013	110.4
997.369	170.46
997.725	278.63
998.08	220.49
998.436	206.46
998.791	272.46
999.147	288.81
999.502	327.73
999.857	292.23
1000.212	367.59
1000.567	391.49
1000.922	244.16
1001.277	157.76
1001.632	131.68
1001.987	116.98
1002.342	115.31
1002.696	120.66
1003.051	101.13
1003.406	113.09
1003.76	87.17
1004.114	109.48
1004.469	125.95
1004.823	104.34
1005.177	99.2
1005.531	84.26
1005.885	101.97
1006.239	125.61
1006.593	149.85
1006.947	224.29
1007.301	163.35
1007.655	192.56
1008.008	145.49
1008.362	132.54
1008.715	193.64
1009.069	190.88
1009.422	307.57
1009.776	461.48
1010.129	217.25
1010.482	150.96
1010.835	73.82
1011.188	93.58
1011.541	58.68
1011.894	-319.15
1012.247	2344.55
1012.6	99.75
1012.952	127.84
1013.305	14.29
1013.657	30.53
1014.01	36.9
1014.362	37.75
1014.715	65.24
1015.067	83.36
1015.419	79.29
1015.771	73.74
1016.123	92.55
1016.475	107.6
1016.827	98.9
1017.179	132.8
1017.531	124.88
1017.883	138.23
1018.234	179.71
1018.586	198.77
1018.938	213.66
1019.289	318.65
1019.64	352.73
1019.992	295.86
1020.343	252.19
1020.694	262.75
1021.045	213.39
1021.396	241.06
1021.747	261.13
1022.098	230.13
1022.449	202.48
1022.8	196.16
1023.151	159.29
1023.501	160.32
1023.852	158.84
1024.202	182.92
1024.553	183.05
1024.903	200.31
1025.253	186.88
1025.604	195.25
1025.954	227.65
1026.304	238
1026.654	257.74
1027.004	320.27
1027.354	376.63
1027.703	485.85
1028.053	508.36
1028.403	803.7
1028.753	1068.12
1029.102	1051.87
1029.452	1053.29
1029.801	15.4
1030.15	37.37
1030.499	7.2
897.758	1164.33
901.051	1130.69
904.343	1151.6
907.636	1149.85
910.928	1180.55
914.22	1141.33
917.511	1147.93
920.803	1169.63
924.094	1165.18
927.384	1167.82
930.675	1148.99
933.965	1134.74
937.255	1149.54
940.544	1133.58
943.834	1138.18
947.123	1108.95
950.411	1153.14
953.7	1145.88
956.988	1141.08
960.276	1099.69
963.563	1121.38
966.851	1129.04
970.138	1144.51
973.424	1146.41
976.711	1119.74
979.997	1144.02
983.283	1161.27
986.568	1129.6
989.853	1122.8
993.138	1129.92
996.423	1181.83
999.708	1159.08
1002.992	1169.2
1006.275	1130.66
1009.559	1129.54
1012.842	1178.29
1016.125	1151.99
1019.408	1141.05
1022.69	1168.01
1025.972	1178.82
1029.254	1171.34
1032.536	1152.31
1035.817	1156.4
1039.098	1141.11
1042.379	1163.5
1045.659	1175.56
1048.939	1150.72
1052.219	1151.65
1055.498	1152.39
1058.778	1142.61
1062.057	1136.46
1065.335	1150.73
1068.614	1151.72
1071.892	1145.32
1075.17	1176.65
1078.447	1174.99
1081.724	1170.96
1085.001	1180.45
1088.278	1167.53
1091.554	1165.43
1094.83	1169.68
1098.106	1179.84
1101.382	1194.37
1104.657	1191.94
1107.932	1194.58
1111.206	1179.47
1114.481	1159.3
1117.755	1161.94
1121.029	1157.76
1124.302	1186.12
1127.575	1173.14
1130.848	1170.84
1134.121	1157.82
1137.393	1133.69
1140.665	1166.53
1143.937	1151.7
1147.208	1132.24
1150.48	1156.15
1153.75	1150.9
1157.021	1154.42
1160.291	1142.35
1163.561	1166.41
1166.831	1150.31
1170.101	1161.42
1173.37	1143.39
1176.639	1123.01
1179.907	1151.69
1183.176	1153.75
1186.444	1156.82
1189.711	1165.63
1192.979	1176.67
1196.246	1156.86
1199.513	1165.61
1202.78	1165.86
1206.046	1168.75
1209.312	1187.01
1212.578	1189.07
1215.843	1166.01
1219.108	1158.63
1222.373	1167.88
1225.638	1156.6
1228.902	1147.22
1232.166	1134.06
1235.43	1125.48
1238.693	1138.84
1241.956	1138.97
1245.219	1157.99
1248.482	1154.72
1251.744	1157.67
1255.006	1212.38
1258.268	1189.88
1261.529	1174.76
1264.79	1175.52
1268.051	1218.12
1271.312	1225.66
1274.572	1206.99
1277.832	1201.86
1281.092	1193.41
1284.351	1189.74
1287.61	1183.23
1290.869	1152.49
1294.128	1150.84
1297.386	1170.37
1300.644	1167.71
1303.902	1171.59
1307.159	1105.96
1310.416	1130.75
1313.673	1141.84
1316.93	1141.61
1320.186	1152.3
1323.442	1165.77
1326.697	1165.18
1329.953	1154.88
1333.208	1169.78
1336.463	1159.62
1339.717	1144.03
1342.972	1198.98
1346.226	1186.97
1349.479	1169.38
1352.733	1157.32
1355.986	1169.14
1359.238	1160.49
1362.491	1160.52
1365.743	1159.17
1368.995	1158.19
1372.247	1168.06
1375.498	1173.84
1378.749	1190.29
1382	1173.36
1385.251	1183.03
1388.501	1165.62
1391.751	1159.02
1395	1149.38
1398.25	1163.2
1401.499	1176.73
1404.748	1154.29
1407.996	1144.56
1411.244	1145.27
1414.492	1136.59
1417.74	1128.01
1420.987	1137.43
1424.234	1161.12
1427.481	1148.19
1430.728	1170.2
1433.974	1162.73
1437.22	1163.23
1440.465	1157.05
1443.711	1158.78
1446.956	1164.13
1450.201	1155.17
1453.445	1177.27
1456.689	1166.28
1459.933	1175.21
1463.177	1192.12
1466.42	1183.39
1469.663	1171.42
1472.906	1176.96
1476.148	1201.69
1479.391	1184.25
1482.633	1176.83
1485.874	1185.98
1489.115	1189.08
1492.356	1183.73
1495.597	1170.53
1498.838	1166.39
1502.078	1160.47
1505.318	1152.28
1508.557	1162.45
1511.797	1160.18
1515.036	1183.21
1518.274	1162.1
1521.513	1137.88
1524.751	1142
1527.989	1148.78
1531.227	1158.55
1534.464	1157.27
1537.701	1154.23
1540.938	1157.7
1544.174	1134.56
1547.41	1127.61
1550.646	1144.04
1553.882	1163.8
1557.117	1194.61
1560.352	1195.94
1563.587	1175.42
1566.821	1161.88
1570.055	1175.56
1573.289	1158.79
1576.523	1182.41
1579.756	1190.64
1582.989	1202.12
1586.222	1181.01
1589.454	1200.4
1592.686	1192.12
1595.918	1201.97
1599.15	1203.7
1602.381	1224.87
1605.612	1216.15
1608.843	1257.77
1612.073	1224.67
1615.303	1216.65
1618.533	1210.99
1621.762	1213.11
1624.992	1200.79
1628.221	1195.69
1631.449	1192.47
1634.678	1207.09
1637.906	1190.6
1641.134	1198.61
1644.361	1185.54
1647.588	1178.09
1650.815	1192.36
1654.042	1178.91
1657.269	1189.89
1660.495	1180.7
1663.72	1175.97
1666.946	1158.86
1670.171	1148.68
1673.396	1134.53
1676.621	1127.84
1679.845	1126.94
1683.069	1128.21
1686.293	1140
1689.517	1132.13
1692.74	1112.22
1695.963	1120.02
1699.185	1136.2
1702.408	1126.59
1705.63	1138.6
1708.852	1144.79
1712.073	1130.51
1715.294	1139.47
1718.515	1165.43
1721.736	1144.81
1724.956	1143.25
1728.176	1154.25
1731.396	1161.67
1734.616	1157.47
1737.835	1180.13
1741.054	1163.82
1744.272	1164.93
1747.491	1183.42
1750.709	1192.87
1753.927	1169.95
1757.144	1184.4
1760.361	1207.16
1763.578	1193.06
1766.795	1171.03
1770.011	1168.61
1773.227	1177.19
1776.443	1197.21
1779.658	1212.72
1782.874	1189.92
1786.089	1184.39
1789.303	1184.67
1792.518	1185.51
1795.732	1179.96
1798.945	1184.95
1802.159	1208.54
1805.372	1178.51
1808.585	1173.01
1811.797	1174.31
1815.01	1189.3
1818.222	1201.65
1821.434	1187.77
1824.645	1204.61
1827.856	1206.03
1831.067	1216.75
1834.278	1195.88
1837.488	1184.99
1840.698	1243.08
1843.908	1223.21
1847.117	1206.38
1850.326	1172.32
1853.535	1202.48
1856.744	1216.8
1859.952	1182.98
1863.16	1183.39
1866.368	1199.42
1869.575	1248.04
1872.782	1197.02
1875.989	1168.68
1879.196	1191.03
1882.402	1190.29
1885.608	1202.9
1888.814	1173.26
1892.019	1133.06
1895.224	1161.71
1898.429	1149.44
1901.634	1138.36
1904.838	1131.2
1908.042	1156.95
1911.246	1166
1914.449	1149.66
1917.652	1140.92
1920.855	1132.82
1924.058	1145.1
1927.26	1170.33
1930.462	1177.04
1933.664	1195.02
1936.865	1170.1
1940.066	1173.05
1943.267	1151.23
1946.467	1155.63
1949.668	1158.39
1952.868	1195.46
1956.067	1196.69
1959.267	1167.39
1962.466	1178.06
1965.665	1168.86
1968.863	1168.2
1972.061	1168.03
1975.259	1165.96
1978.457	1202.57
1981.654	1184.57
1984.852	1185.88
1988.048	1165.96
1991.245	1156.3
1994.441	1198.01
1997.637	1172.11
2000.833	1166.56
2004.028	1181.96
2007.223	1211.79
2010.418	1201.09
2013.613	1177.49
2016.807	1173.06
2020.001	1175.86
2023.194	1183.7
2026.388	1172.45
2029.581	1149.02
2032.774	1181.55
2035.966	1184.63
2039.158	1156.5
2042.35	1167.24
2045.542	1136.16
2048.733	1175.36
2051.924	1165.34
2055.115	1171.5
2058.306	1159.14
2061.496	1182.86
2064.686	1207.92
2067.875	1159.36
2071.065	1161.35
2074.254	1170.49
2077.442	1150.17
2080.631	1187.18
2083.819	1155.75
2087.007	1152.61
2090.195	1147.9
2093.382	1147.67
2096.569	1148.48
2099.756	1126.47
2102.942	1156.82
2106.128	1159.23
2109.314	1157.03
2112.5	1150.44
2115.685	1136.79
2118.87	1139.3
2122.055	1176.13
2125.239	1159.95
2128.424	1158.23
2131.608	1182.96
2134.791	1174.11
2137.974	1190.81
2141.157	1185.6
2144.34	1172.43
2147.523	1163.88
2150.705	1180.22
2153.887	1163.48
2157.068	1150.28
2160.25	1139.84
2163.431	1151.11
2166.611	1136.72
2169.792	1148.48
2172.972	1099.29
2176.152	1132.87
2179.331	1141.7
2182.511	1141.63
2185.69	1147.21
2188.868	1148.77
2192.047	1166.45
2195.225	1181.85
2198.403	1153.52
2201.58	1145.19
2204.758	1138.95
2207.935	1175.82
2211.111	1131.99
2214.288	1126.61
2217.464	1142.6
2220.64	1127.2
2223.815	1149.46
2226.991	1113.49
2230.166	1118.17
2233.34	1137.65
2236.515	1145.46
2239.689	1182.14
2242.863	1158.49
2246.036	1180.18
2249.209	1175.55
2252.382	1187.4
2255.555	1188.14
2258.727	1167.87
2261.9	1185.89
2265.071	1183.61
2268.243	1184.09
2271.414	1162.9
2274.585	1146.4
2277.756	1177.57
2280.926	1159.83
2284.096	1174.46
2287.266	1140.24
2290.436	1165.96
2293.605	1170.74
2296.774	1185.14
2299.942	1188.82
2303.111	1200.17
2306.279	1221.74
2309.447	1218.55
2312.614	1206.99
2315.781	1213.38
2318.948	1203.49
2322.115	1223.62
2325.281	1171.45
2328.447	1178.55
2331.613	1163.21
2334.779	1161.05
2337.944	1157.07
2341.109	1156.25
2344.274	1150.94
2347.438	1133.02
2350.602	1145.48
2353.766	1149.69
2356.929	1146.12
2360.092	1165.32
2363.255	1145.32
2366.418	1135.07
2369.58	1149.53
2372.742	1136.91
2375.904	1127.17
2379.066	1123.99
2382.227	1136.68
2385.388	1117.47
2388.548	1093.97
2391.709	1108.41
2394.869	1106.79
2398.029	1136.96
2401.188	1127.69
2404.347	1119.12
2407.506	1112.51
2410.665	1142.9
2413.823	1131.98
2416.981	1123.97
2420.139	1133.99
2423.296	1154
2426.453	1142
2429.61	1152.75
2432.767	1137.68
2435.923	1156.58
2439.079	1136.14
2442.235	1153.13
2445.391	1121.82
2448.546	1142.16
2451.701	1157.89
2454.855	1156.02
2458.009	1169.81
2461.163	1163.55
2464.317	1146.56
2467.471	1159.22
2470.624	1175.16
2473.777	1167.91
2476.929	1174.93
2480.082	1184.35
2483.234	1177.16
2486.385	1149.96
2489.537	1145.75
2492.688	1137.96
2495.839	1152.3
2498.989	1156.52
2502.14	1149.54
2505.29	1143.86
2508.439	1153.57
2511.589	1128.04
2514.738	1130.78
2517.887	1137.37
2521.035	1173.45
2524.183	1153.02
2527.331	1147.95
2530.479	1140.15
2533.627	1145.13
