Data from N_1_DEC_NC_4N_Splice17_11-36-05-132.txt Node
Date: Sat Mar 14 11:36:05 EDT 2020
User: sa697716
Spectrometer: FLMS03696
Trigger mode: 0
Integration Time (sec): 3.180400E-1
Scans to average: 20
Electric dark correction enabled: true
Nonlinearity correction enabled: true
Boxcar width: 5
XAxis mode: Wavelengths
Number of Pixels in Spectrum: 2048
>>>>>Begin Spectral Data<<<<<
187.83	-120160.85
188.298	933.09
188.766	543.14
189.233	504.65
189.701	706.49
190.169	951.26
190.636	317.15
191.104	269.09
191.571	35.88
192.039	-55.95
192.506	-81.17
192.974	235.98
193.441	-445.09
193.908	-12.02
194.375	26.12
194.842	50.95
195.31	87.25
195.777	114.55
196.244	206.55
196.711	131.34
197.177	110.09
197.644	62.05
198.111	78.29
198.578	101.14
199.045	64.11
199.511	86.95
199.978	42.15
200.445	63.27
200.911	17.73
201.378	-51.24
201.844	-24.76
202.31	-101.23
202.777	-64.35
203.243	-27.93
203.709	-46.83
204.176	-65.85
204.642	-65.41
205.108	-37.96
205.574	-27.83
206.04	-39.9
206.506	-24.13
206.972	-39.32
207.438	-39.4
207.903	-66.15
208.369	-31.95
208.835	-18.17
209.301	-11.23
209.766	-23.18
210.232	-39.26
210.697	-92.87
211.163	-90.71
211.628	-158.94
212.094	-104.81
212.559	-39.09
213.024	12.65
213.49	22.74
213.955	16.81
214.42	-26.32
214.885	-7.27
215.35	6.61
215.815	85.49
216.28	61.71
216.745	41.69
217.21	64.65
217.675	18.66
218.14	12.28
218.604	-13.05
219.069	-1.98
219.534	46.93
219.998	20.95
220.463	32.65
220.927	-51.07
221.392	-45.98
221.856	-29.43
222.32	-98.37
222.785	-99.99
223.249	-140.62
223.713	-129
224.177	-121.8
224.642	-227.54
225.106	-276.46
225.57	-319.33
226.034	-155.21
226.497	-192.9
226.961	-130.67
227.425	-89.84
227.889	-119.57
228.353	-121.73
228.816	-328.98
229.28	-304.33
229.744	-286.15
230.207	-76.95
230.671	-53.53
231.134	-220.41
231.597	-199.67
232.061	-245.99
232.524	-285.18
232.987	-155.93
233.45	-81.54
233.914	-76.11
234.377	-115.71
234.84	-95.41
235.303	-166.01
235.766	-179.93
236.229	-201.05
236.691	-145.75
237.154	-194.55
237.617	-113.5
238.08	-120.86
238.542	-154.76
239.005	-81.24
239.468	-67.62
239.93	-69.34
240.393	-43.25
240.855	-36.36
241.317	-35.93
241.78	-69.89
242.242	-50.2
242.704	-29.32
243.166	-25.99
243.629	2.24
244.091	-15.78
244.553	-20.11
245.015	15.79
245.477	-9.48
245.939	-42.8
246.4	-27.45
246.862	-2.65
247.324	0.39
247.786	-84.91
248.247	-166.16
248.709	-308.43
249.17	-215.26
249.632	-122.93
250.093	-112.24
250.555	-67.13
251.016	-10.26
251.477	-7.19
251.939	0.47
252.4	-24.04
252.861	-27.35
253.322	20.98
253.783	24.41
254.244	15.9
254.705	-64.81
255.166	-104.38
255.627	-110.72
256.088	-158.11
256.549	-143.96
257.009	-136.42
257.47	-168.29
257.931	-157.28
258.391	-118.84
258.852	-133.56
259.312	-140.49
259.773	-155.92
260.233	-85.08
260.694	-55.17
261.154	-88.45
261.614	-37.69
262.074	-30.27
262.534	-20.13
262.994	1.4
263.455	-35.16
263.915	2.92
264.374	6.75
264.834	10.69
265.294	-14.22
265.754	-8.12
266.214	-8.07
266.673	-25.23
267.133	-56.38
267.593	-59.14
268.052	-79.55
268.512	-62.78
268.971	-40.54
269.431	-12.23
269.89	-43.55
270.349	-43.39
270.809	-47.98
271.268	-23.21
271.727	-196.54
272.186	-121.69
272.645	-118.02
273.104	-94.36
273.563	-155.96
274.022	-183.27
274.481	-146.33
274.94	-75.78
275.399	-80.09
275.857	-121.97
276.316	-206.13
276.775	-164.56
277.233	-141.28
277.692	-89.26
278.15	-82.99
278.609	-39.14
279.067	-45.51
279.525	-30.33
279.984	-78.51
280.442	-64.94
280.9	14.47
281.358	50.09
281.816	59.08
282.274	51.5
282.732	8.74
283.19	-22.14
283.648	-26.02
284.106	-28.89
284.564	-60.12
285.021	-32.25
285.479	-22.93
285.937	-58.71
286.394	-45.58
286.852	-70.2
287.309	-73.2
287.767	-38.39
288.224	-11.87
288.682	-21.69
289.139	-9.55
289.596	15.76
290.053	6.06
290.511	-40.58
290.968	-26.87
291.425	-59.07
291.882	41.25
292.339	41.66
292.796	20.15
293.252	-3.82
293.709	35.25
294.166	25.52
294.623	3.25
295.079	-12.01
295.536	16.42
295.992	23.89
296.449	19.74
296.905	9.4
297.362	27.11
297.818	18.09
298.274	25.56
298.731	-10.17
299.187	-16.54
299.643	-31.83
300.099	-17.99
300.555	-22.61
301.011	7.32
301.467	69.13
301.923	26.58
302.379	32.37
302.835	28.28
303.291	25.93
303.746	41.69
304.202	47.9
304.658	71.96
305.113	70.38
305.569	69.75
306.024	23.8
306.479	-51.71
306.935	-8.37
307.39	-45.03
307.845	-29.98
308.301	2.21
308.756	-14.46
309.211	8.34
309.666	-3.37
310.121	3.17
310.576	-0.05
311.031	-20.15
311.486	-64.05
311.94	-116.45
312.395	-182.8
312.85	-459.71
313.305	-3445.76
313.759	-12581.35
314.214	-1100.91
314.668	-768.27
315.123	-666.77
315.577	-200.87
316.032	-155.03
316.486	-168.8
316.94	-73.28
317.394	-7.14
317.849	16.84
318.303	18.52
318.757	1.11
319.211	7.86
319.665	3.42
320.119	10.04
320.572	-21.23
321.026	-10.16
321.48	-6.47
321.934	-42.45
322.387	-55.41
322.841	-58.88
323.295	-5.09
323.748	-35.05
324.202	-28.11
324.655	-22.38
325.108	37.58
325.562	50.96
326.015	15.43
326.468	37.94
326.921	73.08
327.374	93.11
327.827	127.53
328.28	108.88
328.733	84.94
329.186	81.39
329.639	66.46
330.092	25.22
330.545	26.99
330.997	53.92
331.45	66.98
331.903	89.53
332.355	94.84
332.808	60.17
333.26	50.43
333.713	83.81
334.165	59.14
334.617	43.08
335.069	-17.88
335.522	-120.88
335.974	-186.5
336.426	-231.13
336.878	-262.02
337.33	-104.04
337.782	-106.95
338.234	-121
338.686	-204.11
339.137	-240.88
339.589	-225.03
340.041	-140.83
340.493	-113.7
340.944	-114.19
341.396	-105.95
341.847	-45.9
342.299	-48.37
342.75	-3.48
343.201	-18.31
343.653	-16.85
344.104	-59.51
344.555	-46.07
345.006	-155.7
345.457	-38.77
345.908	-51.64
346.359	-36.59
346.81	-36.5
347.261	-76.18
347.712	-118.8
348.163	-148.58
348.613	-74.62
349.064	-46.47
349.515	-23.57
349.965	0.05
350.416	-30.01
350.866	-14.63
351.317	-31.42
351.767	-23.87
352.217	2.85
352.668	39.39
353.118	102.49
353.568	-57.16
354.018	-9.14
354.468	6.65
354.918	12.08
355.368	25.8
355.818	15.93
356.268	-138.7
356.718	-421.18
357.168	32.61
357.617	5.34
358.067	-91.6
358.517	-55.68
358.966	-117.28
359.416	-109.16
359.865	-178.99
360.315	-355.32
360.764	-142.41
361.213	-51.2
361.663	-79.29
362.112	-148.19
362.561	-267.91
363.01	-194.81
363.459	-147.19
363.908	-151.22
364.357	-109.6
364.806	-197
365.255	-118.32
365.703	-63.7
366.152	-70.78
366.601	-40.25
367.05	2.7
367.498	29.77
367.947	13.44
368.395	-4.22
368.844	5.34
369.292	-42.52
369.74	-0.39
370.189	-28.33
370.637	-47.88
371.085	-40.82
371.533	-46.98
371.981	-106.2
372.429	-93.8
372.877	-85.98
373.325	-53.93
373.773	-82.11
374.221	-69.71
374.669	-110.1
375.116	-87.58
375.564	-117.37
376.012	-163.26
376.459	-134.11
376.907	-157.04
377.354	-236.09
377.801	-175.79
378.249	-175.12
378.696	-209.58
379.143	-230.26
379.591	-232.67
380.038	-389.47
380.485	-197.44
380.932	-84.1
381.379	1.47
381.826	113.7
382.273	81.79
382.72	53.53
383.166	57.31
383.613	41.61
384.06	45.53
384.506	43.2
384.953	35.86
385.4	35.58
385.846	17.55
386.292	-12.3
386.739	-29.15
387.185	-31.57
387.631	-29.48
388.078	-22.59
388.524	-23.77
388.97	-22.7
389.416	-17.15
389.862	-14.98
390.308	-24.26
390.754	-7.84
391.2	-8.07
391.645	-15.43
392.091	29.26
392.537	33.25
392.983	22.15
393.428	50.51
393.874	48.64
394.319	67.04
394.765	80
395.21	76.49
395.655	65.48
396.101	71.25
396.546	74.91
396.991	51.79
397.436	39.25
397.881	30.95
398.326	6.18
398.771	15.29
399.216	3.88
399.661	-7.69
400.106	-1.93
400.551	-0.01
400.995	-2.58
401.44	-7.21
401.885	-13.96
402.329	-10.12
402.774	-5.13
403.218	11.99
403.663	7.68
404.107	11.19
404.551	18.75
404.995	13.68
405.44	8.95
405.884	10.42
406.328	8.73
406.772	7.55
407.216	7.94
407.66	4.4
408.104	-8.49
408.547	-8.83
408.991	-10.59
409.435	-12.7
409.879	-6.71
410.322	-5.81
410.766	-5.94
411.209	-2.94
411.653	-0.72
412.096	3.17
412.54	3.07
412.983	4.47
413.426	7.9
413.869	6.51
414.312	9.93
414.756	5.61
415.199	5.92
415.642	7.7
416.085	7.89
416.527	8.52
416.97	4.74
417.413	7.15
417.856	4.72
418.298	3.79
418.741	2.06
419.184	-2.94
419.626	-5.75
420.069	-5.41
420.511	-8.23
420.953	-4.7
421.396	-3.74
421.838	-4.49
422.28	-7.54
422.722	-1.44
423.164	-3.76
423.606	-1.19
424.048	0.27
424.49	2.1
424.932	-0.7
425.374	-0.48
425.816	-6.21
426.258	-8.17
426.699	-9.68
427.141	-3.2
427.582	-7.55
428.024	-7.74
428.465	-11.15
428.907	-11.87
429.348	-12.04
429.789	-7.97
430.231	-2.82
430.672	-1.15
431.113	-1.52
431.554	0.87
431.995	-3.26
432.436	-1.4
432.877	0.29
433.318	4.45
433.759	3.94
434.2	4.46
434.64	1.39
435.081	0.6
435.522	0.99
435.962	1.14
436.403	2.45
436.843	-1.28
437.284	-3.85
437.724	-6.61
438.164	-9.48
438.604	-7.39
439.045	-4.44
439.485	-0.65
439.925	-1.98
440.365	-2.24
440.805	-3.71
441.245	-3.55
441.685	-0.99
442.125	-0.63
442.564	-0.66
443.004	0.15
443.444	-1.89
443.883	-3.1
444.323	-5.25
444.762	-9
445.202	-9.76
445.641	-6.96
446.081	-9.07
446.52	-7.17
446.959	-5.5
447.398	-2.95
447.837	-2.59
448.276	-1.59
448.716	-0.54
449.154	-2.84
449.593	0.77
450.032	2.25
450.471	-0.27
450.91	-1.14
451.349	0.03
451.787	-1.22
452.226	-2.71
452.664	-2.99
453.103	-3.14
453.541	-5.2
453.98	-1.34
454.418	-2.03
454.856	-1.35
455.295	-0.08
455.733	2.37
456.171	1.01
456.609	2.65
457.047	3.67
457.485	5.5
457.923	6.59
458.361	6.48
458.798	5.34
459.236	4.68
459.674	2.89
460.111	2.78
460.549	1.77
460.987	0.33
461.424	-0.89
461.862	-1.74
462.299	-2.13
462.736	-1.05
463.173	-1.2
463.611	1.32
464.048	3.17
464.485	4.16
464.922	4
465.359	3.27
465.796	10.69
466.233	11.77
466.67	14.58
467.106	16.07
467.543	13.92
467.98	13.08
468.416	10.81
468.853	8.92
469.29	8.79
469.726	8.14
470.162	7.6
470.599	1.91
471.035	0.08
471.471	-1.7
471.907	-4.28
472.344	-3.71
472.78	-2.17
473.216	-2.81
473.652	-1.84
474.088	-2.7
474.523	-1.92
474.959	-2.12
475.395	-2.17
475.831	-1.11
476.266	-1.05
476.702	-0.93
477.138	-0.94
477.573	-1.25
478.008	-0.94
478.444	-0.78
478.879	0.9
479.314	1.06
479.75	1.75
480.185	1.08
480.62	0.71
481.055	1.03
481.49	1.71
481.925	2.11
482.36	4.07
482.795	3.64
483.229	2.83
483.664	2.1
484.099	1.82
484.534	2.57
484.968	3.38
485.403	3.13
485.837	1.8
486.271	2.07
486.706	1.82
487.14	0.33
487.574	0.7
488.009	0.61
488.443	0.11
488.877	0.82
489.311	0.08
489.745	0.29
490.179	0.56
490.613	2.79
491.046	1.71
491.48	1.31
491.914	1.32
492.348	1.06
492.781	1.58
493.215	1.68
493.648	0.8
494.082	1.03
494.515	1.2
494.948	1.87
495.382	0.12
495.815	0.96
496.248	1.68
496.681	1.66
497.114	1.08
497.547	1.7
497.98	2.98
498.413	4.79
498.846	4.88
499.279	3.84
499.711	3
500.144	2.86
500.577	3.49
501.009	2.84
501.442	3.24
501.874	4.78
502.306	4.17
502.739	5.09
503.171	4.19
503.603	3.96
504.036	4.43
504.468	4.7
504.9	4.81
505.332	3.72
505.764	4.47
506.196	4.29
506.627	3.77
507.059	3.57
507.491	1.78
507.923	1.6
508.354	2.27
508.786	2.08
509.217	1.78
509.649	2.26
510.08	1.91
510.512	2.41
510.943	2.55
511.374	2.76
511.805	2.51
512.237	1.65
512.668	1.01
513.099	-0.13
513.53	0.44
513.961	1.25
514.391	0.8
514.822	3.24
515.253	3.17
515.684	3.31
516.114	2.91
516.545	3.61
516.975	4.19
517.406	4.6
517.836	4.17
518.267	4.07
518.697	4.61
519.127	4.79
519.558	2.74
519.988	1.6
520.418	0.84
520.848	0.73
521.278	-0.18
521.708	19.65
522.138	19.76
522.567	19.95
522.997	19.67
523.427	18.69
523.857	18.85
524.286	19.41
524.716	20.19
525.145	20.77
525.575	21.47
526.004	21.48
526.433	2.41
526.863	2.39
527.292	3.5
527.721	4.03
528.15	3.91
528.579	4.12
529.008	4.18
529.437	2.98
529.866	2.67
530.295	1.81
530.724	2.65
531.152	2.8
531.581	3.75
532.01	3.14
532.438	2.36
532.867	2.4
533.295	2.96
533.723	2.98
534.152	3.66
534.58	4.2
535.008	4.56
535.436	5.66
535.865	5.49
536.293	4.49
536.721	4.32
537.149	5.27
537.576	6.66
538.004	6.25
538.432	5.51
538.86	5.98
539.287	5.44
539.715	5.71
540.143	4.31
540.57	4.27
540.998	4.14
541.425	5.85
541.852	5.35
542.28	3.86
542.707	3.48
543.134	4.02
543.561	4.18
543.988	4.8
544.415	4.04
544.842	3.88
545.269	3.5
545.696	3.99
546.123	3.52
546.549	3.91
546.976	4.56
547.403	4.86
547.829	4.3
548.256	3.84
548.682	3.65
549.108	5.03
549.535	4.88
549.961	4.62
550.387	4.55
550.813	5.1
551.24	4.89
551.666	4.07
552.092	3.88
552.518	4.17
552.943	4.28
553.369	4.09
553.795	3.56
554.221	4.21
554.646	4.4
555.072	5.3
555.498	3.36
555.923	2.76
556.349	3.21
556.774	2.94
557.199	2.52
557.625	2.01
558.05	2.3
558.475	1.6
558.9	1.41
559.325	2.02
559.75	1.53
560.175	2.39
560.6	2.35
561.025	1.9
561.449	2.02
561.874	2.1
562.299	2.76
562.723	1.93
563.148	2.17
563.572	1.81
563.997	1.82
564.421	0.81
564.846	0.04
565.27	0.22
565.694	0.47
566.118	0.19
566.542	0.98
566.966	1.02
567.39	1.42
567.814	1.69
568.238	1.96
568.662	0.79
569.086	1.38
569.509	1.31
569.933	2.62
570.357	2.85
570.78	3.33
571.204	3.57
571.627	3.28
572.05	3.25
572.474	4.15
572.897	4.11
573.32	5.18
573.743	4.65
574.166	5.71
574.589	4.57
575.012	4.46
575.435	3.91
575.858	3.69
576.281	3.73
576.704	3.6
577.126	2.45
577.549	2.3
577.972	1.67
578.394	2.24
578.817	3.55
579.239	3.45
579.661	3.32
580.084	4.46
580.506	4.6
580.928	4.17
581.35	4.02
581.772	4.24
582.194	4.48
582.616	4.51
583.038	3.93
583.46	2.05
583.882	2.14
584.303	1.13
584.725	0.04
585.147	3.89
585.568	4.67
585.99	4.98
586.411	5.27
586.833	5.56
587.254	5.45
587.675	4.97
588.096	5.53
588.518	5.5
588.939	6.47
589.36	7.09
589.781	2.3
590.202	4.53
590.623	4.73
591.043	3.77
591.464	3.46
591.885	4.32
592.305	4.48
592.726	3.44
593.147	3.26
593.567	3.89
593.987	3.87
594.408	3.59
594.828	0.71
595.248	1.42
595.669	2.41
596.089	2.09
596.509	1.11
596.929	0.96
597.349	1.41
597.769	1.43
598.189	1.14
598.608	0.86
599.028	1.08
599.448	0.83
599.867	-0.19
600.287	-0.82
600.706	-0.42
601.126	0.27
601.545	1.15
601.965	0.99
602.384	1.26
602.803	1.01
603.222	1.09
603.641	0.6
604.061	1.12
604.48	1.72
604.898	1.66
605.317	1.51
605.736	1.29
606.155	1.59
606.574	1.7
606.992	1.19
607.411	1.13
607.829	0.45
608.248	0.32
608.666	-0.05
609.085	-0.52
609.503	-0.7
609.921	-0.1
610.339	-0.29
610.758	-1.3
611.176	-1.36
611.594	-0.37
612.012	0.22
612.43	1.27
612.847	1.63
613.265	2.5
613.683	2.72
614.101	3.08
614.518	2.05
614.936	1.88
615.353	2.4
615.771	2.66
616.188	2.81
616.606	2.32
617.023	2.56
617.44	2.37
617.857	1.41
618.274	1.2
618.691	1.5
619.108	1.38
619.525	1.71
619.942	2.17
620.359	1.98
620.776	1.39
621.192	2.13
621.609	2.73
622.026	3.42
622.442	4.11
622.859	3.2
623.275	3.08
623.691	3.54
624.108	3.62
624.524	2.95
624.94	3.42
625.356	2.88
625.772	1.9
626.188	0.51
626.604	0.39
627.02	-0.35
627.436	0.82
627.852	1.72
628.268	1.59
628.683	1.53
629.099	1.25
629.514	0.42
629.93	0.48
630.345	0.57
630.761	-0.06
631.176	-0.02
631.591	1.74
632.007	2.36
632.422	0.75
632.837	0.42
633.252	1.56
633.667	1.85
634.082	2.72
634.497	3.39
634.911	5.39
635.326	6.18
635.741	6.67
636.155	5.68
636.57	6.02
636.984	6.64
637.399	8.41
637.813	7.24
638.228	7.37
638.642	6.38
639.056	5.94
639.47	4.37
639.884	4.33
640.298	3.6
640.712	3.82
641.126	3.42
641.54	2.87
641.954	0.06
642.368	0.26
642.781	2.58
643.195	2.92
643.609	3.57
644.022	3.27
644.436	2.45
644.849	1.94
645.262	0.97
645.676	-0.79
646.089	-0.62
646.502	1.28
646.915	0.57
647.328	-0.23
647.741	0.48
648.154	0.46
648.567	3.02
648.98	3.85
649.393	4.66
649.805	5.36
650.218	6.09
650.631	6.65
651.043	6.63
651.456	7.77
651.868	7
652.28	5.74
652.693	4.62
653.105	2.65
653.517	1.94
653.929	1.85
654.341	2.59
654.753	4
655.165	3.41
655.577	3.67
655.989	3.1
656.401	1.95
656.813	3.72
657.224	4.22
657.636	3.4
658.047	4.57
658.459	4.41
658.87	2.98
659.282	2.11
659.693	3.31
660.104	3.69
660.515	3.92
660.926	3.43
661.338	2.59
661.749	1.74
662.159	2.73
662.57	2.46
662.981	2.45
663.392	2.43
663.803	2.19
664.213	1.03
664.624	0.18
665.035	-0.73
665.445	-0.8
665.855	-0.56
666.266	0.38
666.676	0.07
667.086	-1.23
667.497	-0.87
667.907	-0.94
668.317	-1.2
668.727	2.29
669.137	0.94
669.547	0.11
669.956	-0.62
670.366	-0.51
670.776	-0.35
671.186	-0.77
671.595	-0.74
672.005	-1.77
672.414	-1.15
672.824	-0.59
673.233	-4.18
673.642	-3.25
674.052	-1.53
674.461	0.01
674.87	-0.21
675.279	0.26
675.688	-0.91
676.097	0.6
676.506	1.06
676.915	0.66
677.323	0.86
677.732	0.46
678.141	-0.08
678.549	-0.43
678.958	-1.51
679.366	-2.48
679.775	-3.23
680.183	-0.9
680.592	-1.45
681	-1.72
681.408	-1.76
681.816	-2
682.224	-1.92
682.632	-0.1
683.04	0.11
683.448	0.43
683.856	1.49
684.264	2.66
684.671	1
685.079	0.51
685.487	0.58
685.894	0.41
686.302	-0.97
686.709	-0.18
687.116	-1.12
687.524	-0.59
687.931	0.7
688.338	0.54
688.745	-1.46
689.152	-1.33
689.559	-1.59
689.966	-0.38
690.373	-0.12
690.78	2
691.187	2.06
691.593	2.89
692	1.16
692.407	1.36
692.813	3.07
693.22	4.52
693.626	4.15
694.032	5.86
694.439	6.08
694.845	5.58
695.251	3.85
695.657	4.36
696.063	2.64
696.469	3.32
696.875	2.95
697.281	2.08
697.687	1.18
698.093	1.71
698.498	1.81
698.904	-0.25
699.31	-0.18
699.715	3.12
700.12	2.28
700.526	3.22
700.931	2.68
701.337	3.63
701.742	4.55
702.147	4.83
702.552	5.54
702.957	3.4
703.362	4.53
703.767	4.86
704.172	1.92
704.577	1.6
704.981	0.7
705.386	2.02
705.791	2.2
706.195	0.35
706.6	-0.27
707.004	-2.47
707.408	-2.3
707.813	-1.58
708.217	-0.52
708.621	-0.62
709.025	-1.13
709.43	0.43
709.834	-0.34
710.237	-1.75
710.641	-1.55
711.045	-0.16
711.449	2.95
711.853	6.47
712.256	5.38
712.66	4.14
713.064	5.28
713.467	6.89
713.87	7.11
714.274	8.11
714.677	9.3
715.08	10.03
715.484	10.11
715.887	10.93
716.29	7.43
716.693	9.06
717.096	10.83
717.499	9.57
717.901	8.4
718.304	7.04
718.707	6.45
719.109	6.03
719.512	4.71
719.915	6.04
720.317	4.67
720.719	3.93
721.122	2
721.524	1.2
721.926	6.34
722.328	6.71
722.731	6.48
723.133	6.07
723.535	5.31
723.937	6.67
724.338	7.12
724.74	7.7
725.142	55.54
725.544	60.7
725.945	71.31
726.347	67.36
726.748	67.22
727.15	67.54
727.551	71.18
727.952	70.25
728.354	68.06
728.755	66.65
729.156	65.77
729.557	20.52
729.958	16.33
730.359	7.02
730.76	5.91
731.161	6.31
731.562	5.7
731.962	1.87
732.363	2.33
732.763	3.69
733.164	1.92
733.564	2.41
733.965	3.39
734.365	4.21
734.766	3.51
735.166	3.68
735.566	4.43
735.966	5.27
736.366	6.27
736.766	7.19
737.166	6.9
737.566	7.7
737.966	7.92
738.365	7.88
738.765	8.78
739.165	9.25
739.564	9.61
739.964	8.49
740.363	7.77
740.763	6.76
741.162	7.57
741.561	6.7
741.96	7.03
742.36	4.68
742.759	3.87
743.158	2.03
743.557	1.88
743.955	1.88
744.354	1.48
744.753	0.28
745.152	1.12
745.55	-1.24
745.949	-0.61
746.348	-0.47
746.746	-0.94
747.144	1.46
747.543	0.88
747.941	-0.49
748.339	0.06
748.737	0.71
749.136	3.07
749.534	1.16
749.932	3.96
750.33	3.8
750.727	2.87
751.125	3.94
751.523	3.49
751.921	6.61
752.318	7.8
752.716	8.48
753.113	8.64
753.511	8.13
753.908	10.36
754.305	12.3
754.703	13.3
755.1	14.82
755.497	15.63
755.894	14.16
756.291	12.68
756.688	13.01
757.085	12.25
757.482	12.9
757.878	14.89
758.275	15.07
758.672	7.16
759.068	4.38
759.465	0.14
759.861	-3.4
760.258	-6.19
760.654	-8.08
761.05	-5.67
761.447	-5.78
761.843	-6.63
762.239	-6.55
762.635	-8.75
763.031	-6.34
763.427	-5.72
763.822	-4.09
764.218	-3.02
764.614	-2.1
765.01	-4.84
765.405	-7.24
765.801	-6.95
766.196	-6.34
766.592	-7.93
766.987	-5.98
767.382	-5.55
767.778	-3.44
768.173	-3.18
768.568	-3.56
768.963	-2.35
769.358	-0.69
769.753	2.85
770.148	3.26
770.542	3.87
770.937	3.75
771.332	4.24
771.726	3.94
772.121	6.81
772.515	6.86
772.91	8.2
773.304	7.31
773.699	7.82
774.093	4.03
774.487	5.19
774.881	4.29
775.275	3.91
775.669	2.73
776.063	2.81
776.457	1.22
776.851	2.73
777.245	2.42
777.638	3.05
778.032	2.02
778.425	5.3
778.819	7.18
779.212	9.61
779.606	12.45
779.999	12.37
780.392	13.91
780.786	10.42
781.179	10.11
781.572	9.92
781.965	11.58
782.358	12.41
782.751	10.68
783.143	7.61
783.536	6.65
783.929	4.74
784.322	4.17
784.714	1.95
785.107	2.57
785.499	1.82
785.891	5.08
786.284	4.22
786.676	3.97
787.068	6.83
787.46	8.12
787.852	7.61
788.245	7.15
788.636	6.45
789.028	7.58
789.42	10.81
789.812	12.84
790.204	9.83
790.595	10.42
790.987	11.93
791.378	11.29
791.77	10.04
792.161	9.43
792.553	10.58
792.944	12.14
793.335	11.53
793.726	8.63
794.117	8.94
794.508	7.11
794.899	4.87
795.29	2.39
795.681	1
796.072	-0.26
796.463	19.65
796.853	23.74
797.244	25.08
797.634	26.43
798.025	27.79
798.415	24.63
798.806	28.36
799.196	30.69
799.586	33.52
799.976	33.94
800.366	34.73
800.756	13.17
801.146	9.51
801.536	7.16
801.926	7.68
802.316	7.79
802.706	8.68
803.095	7.58
803.485	6.43
803.874	3.12
804.264	2.27
804.653	2.88
805.043	5.89
805.432	5.16
805.821	6.87
806.21	7.58
806.599	7.52
806.988	9.22
807.377	5.89
807.766	4.06
808.155	4.97
808.544	6.42
808.933	7.42
809.321	10.29
809.71	8.69
810.098	8.66
810.487	3.41
810.875	1.25
811.264	0.74
811.652	13.33
812.04	14.67
812.428	16.92
812.816	12.07
813.204	14.19
813.592	3.14
813.98	2.31
814.368	6.85
814.756	11.67
815.144	11.97
815.531	15.75
815.919	4.14
816.306	5.89
816.694	6.91
817.081	11.93
817.469	11.2
817.856	12.54
818.243	12.19
818.63	8.45
819.017	11.82
819.404	12.49
819.791	6.37
820.178	3.09
820.565	6.13
820.952	10.34
821.339	10.75
821.725	9.07
822.112	14.5
822.498	17.19
822.885	13.71
823.271	8.85
823.657	3.68
824.044	6.55
824.43	6.93
824.816	12.82
825.202	10.18
825.588	7.91
825.974	12.45
826.36	9.93
826.746	6.01
827.132	8.65
827.517	14.29
827.903	20.36
828.289	26.49
828.674	26.43
829.06	20.33
829.445	15.96
829.83	14.27
830.216	9.26
830.601	13.43
830.986	26.17
831.371	24.85
831.756	25.28
832.141	33.04
832.526	28.7
832.911	30.58
833.295	29.08
833.68	30.35
834.065	32.78
834.449	34.07
834.834	33.63
835.218	30.23
835.603	33.54
835.987	28.74
836.371	22.31
836.755	21.62
837.139	20.11
837.524	16.46
837.908	12.61
838.291	17.39
838.675	14.69
839.059	13.69
839.443	7.63
839.827	3.44
840.21	1.83
840.594	3.42
840.977	6.25
841.361	5.07
841.744	5.12
842.127	9.83
842.511	3.31
842.894	3.13
843.277	2.06
843.66	3.28
844.043	3.81
844.426	9.28
844.809	3.4
845.191	1.97
845.574	5.18
845.957	8.55
846.339	11.16
846.722	14.44
847.104	14.63
847.487	11.11
847.869	15.61
848.252	19.84
848.634	17.35
849.016	20.28
849.398	15.4
849.78	12.4
850.162	13.63
850.544	11.26
850.926	5.65
851.307	4.62
851.689	8.15
852.071	-2.34
852.452	-6.8
852.834	-7.53
853.215	-5.58
853.597	-2.41
853.978	7.05
854.359	7.63
854.741	7.99
855.122	10.72
855.503	11.2
855.884	9.87
856.265	16.03
856.646	11.38
857.026	13.22
857.407	14.46
857.788	14.42
858.169	1.97
858.549	10.55
858.93	10.59
859.31	10.89
859.69	16.37
860.071	18.48
860.451	18.36
860.831	22.15
861.211	17.83
861.591	11.53
861.971	9.99
862.351	14.44
862.731	3.12
863.111	4.81
863.491	9.22
863.87	5.51
864.25	3.78
864.629	13.61
865.009	11.95
865.388	18.43
865.768	19.79
866.147	24.59
866.526	27.9
866.905	31.32
867.284	25.54
867.663	15.7
868.042	13.08
868.421	13.07
868.8	1.65
869.179	4.88
869.558	1.96
869.936	4.98
870.315	-0.27
870.693	1.31
871.072	-7.56
871.45	-7.03
871.828	-1.66
872.207	-2.92
872.585	-2.12
872.963	-3.72
873.341	5.6
873.719	13.29
874.097	14.39
874.475	16.46
874.853	11.46
875.23	15.69
875.608	20.8
875.986	21.27
876.363	25.86
876.741	34.58
877.118	43.13
877.495	41.72
877.873	34.75
878.25	28.2
878.627	27.16
879.004	27.59
879.381	27.96
879.758	29.22
880.135	25.86
880.512	22.41
880.889	10.06
881.265	1.73
881.642	-10.01
882.019	-10.91
882.395	1.22
882.772	6.42
883.148	9.99
883.524	12.7
883.901	12.27
884.277	12.69
884.653	10.59
885.029	18.54
885.405	34.41
885.781	41.44
886.157	40.21
886.532	35.4
886.908	28.09
887.284	21.4
887.659	20.84
888.035	17.6
888.411	10.54
888.786	16.37
889.161	17.49
889.537	2.39
889.912	2.35
890.287	7.36
890.662	3.71
891.037	-3.7
891.412	1.18
891.787	-4.12
892.162	-1.02
892.536	4.78
892.911	7.69
893.286	-1.43
893.66	-2.28
894.035	-2.37
894.409	-10.06
894.784	-2.78
895.158	2.11
895.532	5.19
895.906	14.75
896.281	14.61
896.655	18.65
897.029	11.72
897.402	13.87
897.776	16.12
898.15	17.57
898.524	26.7
898.898	23.59
899.271	34.6
899.645	41.1
900.018	33.23
900.392	39.48
900.765	40.25
901.138	45.75
901.511	46.36
901.884	50.67
902.258	50.38
902.631	50.66
903.003	46.72
903.376	36.26
903.749	26.61
904.122	23.13
904.495	5.34
904.867	-7.73
905.24	-11.2
905.612	-14.91
905.985	-23
906.357	-26.99
906.729	-35.67
907.102	-26.79
907.474	-22.81
907.846	-11.9
908.218	-15.28
908.59	4.6
908.962	5.02
909.334	6.34
909.705	16.17
910.077	11.77
910.449	6.76
910.82	20.46
911.192	27.97
911.563	47.21
911.935	20.33
912.306	14.32
912.677	-4.38
913.048	4.03
913.419	6.04
913.79	-9.52
914.161	-5.14
914.532	7.05
914.903	-10.63
915.274	-13.25
915.645	-32.79
916.015	-22.18
916.386	-8.87
916.756	-5.98
917.127	-22.55
917.497	-18.76
917.868	-4.41
918.238	1.04
918.608	-2.88
918.978	3.95
919.348	-5.67
919.718	-6.75
920.088	-1.02
920.458	-1.27
920.828	-7.67
921.198	8.58
921.567	12.91
921.937	-0.28
922.306	-11.05
922.676	-16.72
923.045	7.18
923.415	12.15
923.784	16.21
924.153	23
924.522	26.23
924.891	30.72
925.26	28.26
925.629	16.99
925.998	16.15
926.367	24.37
926.736	46.25
927.104	27.56
927.473	27.86
927.842	17.35
928.21	5.42
928.578	-12.18
928.947	-7.5
929.315	7.18
929.683	30.61
930.051	53.38
930.42	51.69
930.788	26.57
931.156	33.78
931.523	78.16
931.891	88.11
932.259	103.83
932.627	138.18
932.994	177.74
933.362	172.43
933.729	143.66
934.097	131.19
934.464	120.92
934.831	107.67
935.199	99.56
935.566	64.52
935.933	118.97
936.3	134.19
936.667	100.87
937.034	158.97
937.401	129.68
937.767	125
938.134	102.76
938.501	127.02
938.867	164.21
939.234	274.42
939.6	227.71
939.967	141.24
940.333	121.63
940.699	87.14
941.065	10.79
941.431	28.54
941.798	72.96
942.163	127.01
942.529	92.65
942.895	77.71
943.261	55.09
943.627	77.14
943.992	80.35
944.358	74.55
944.723	123.19
945.089	105.89
945.454	108.15
945.82	73.26
946.185	62.04
946.55	61.19
946.915	69.34
947.28	72.29
947.645	71.96
948.01	76.48
948.375	89.22
948.74	54.85
949.104	72.75
949.469	20.67
949.834	59.31
950.198	163.49
950.562	130.83
950.927	103.92
951.291	129.12
951.655	83.95
952.02	25.61
952.384	6.71
952.748	39.56
953.112	58.15
953.476	63.81
953.839	50.21
954.203	53.45
954.567	53.4
954.931	17.8
955.294	38.01
955.658	48.76
956.021	83.36
956.385	23.9
956.748	-69.75
957.111	-356.13
957.474	-493.52
957.837	-520.64
958.2	-573.1
958.563	-199.6
958.926	-68.43
959.289	-127.7
959.652	-160.08
960.015	-113.79
960.377	-126.32
960.74	-111.93
961.102	-219.43
961.465	22.59
961.827	347.72
962.189	512.25
962.552	405.75
962.914	307.36
963.276	212.8
963.638	213.99
964	223.05
964.362	189.13
964.724	142.27
965.085	125.16
965.447	107.67
965.809	44.59
966.17	39.95
966.532	38.14
966.893	53.6
967.255	40.78
967.616	14.57
967.977	16
968.338	8.54
968.699	31.51
969.061	32.64
969.421	30.48
969.782	27.59
970.143	52.79
970.504	78.8
970.865	76.43
971.225	100.67
971.586	110.77
971.946	126.38
972.307	104.07
972.667	97.06
973.027	91.85
973.388	86.74
973.748	76.4
974.108	90.92
974.468	48.27
974.828	83.4
975.188	50.51
975.548	57.88
975.907	79.37
976.267	88.92
976.627	110.09
976.986	93.59
977.346	75.17
977.705	81.36
978.064	67.41
978.424	59.56
978.783	34.04
979.142	34.97
979.501	26.32
979.86	12.73
980.219	1.47
980.578	-43.55
980.937	-58.9
981.296	-36.59
981.654	-45.77
982.013	-126.34
982.371	-152.71
982.73	-121.7
983.088	-142.2
983.447	-130.3
983.805	-126.87
984.163	-188.99
984.521	-126.33
984.879	-176.19
985.237	614.03
985.595	-386.39
985.953	-44.72
986.311	-32.59
986.669	-20.05
987.026	-26.41
987.384	-81.28
987.741	-119.15
988.099	-16.29
988.456	-3.86
988.814	13.44
989.171	35.68
989.528	3.15
989.885	-4.98
990.242	20.37
990.599	6.56
990.956	6.03
991.313	18.88
991.67	22.69
992.027	56.8
992.383	54.53
992.74	59.86
993.096	67.17
993.453	72.56
993.809	60.16
994.165	59.83
994.522	107.69
994.878	112.48
995.234	125.93
995.59	121.68
995.946	36.79
996.302	43.59
996.658	15.85
997.013	-2.71
997.369	45.25
997.725	161.63
998.08	95.48
998.436	-58.04
998.791	-25.63
999.147	-5.87
999.502	-1.23
999.857	-17.21
1000.212	-80.54
1000.567	-53.49
1000.922	-12.76
1001.277	-32.29
1001.632	-30.43
1001.987	-45.77
1002.342	16.42
1002.696	20.98
1003.051	36.49
1003.406	49.38
1003.76	45.82
1004.114	68.4
1004.469	63.07
1004.823	53.41
1005.177	44.35
1005.531	44.03
1005.885	65.77
1006.239	81.86
1006.593	103.03
1006.947	141.01
1007.301	98.22
1007.655	107.68
1008.008	81.26
1008.362	74.23
1008.715	77.23
1009.069	82.18
1009.422	150.35
1009.776	171.61
1010.129	75.53
1010.482	13.92
1010.835	-71.73
1011.188	-175.38
1011.541	-180.16
1011.894	1443.46
1012.247	-3912.98
1012.6	-229.63
1012.952	-168.15
1013.305	-134.21
1013.657	-57.8
1014.01	-44.04
1014.362	-46.05
1014.715	27.17
1015.067	43.89
1015.419	44.52
1015.771	54.27
1016.123	74.36
1016.475	81.34
1016.827	94.55
1017.179	125.09
1017.531	91.74
1017.883	80.47
1018.234	142.34
1018.586	150.44
1018.938	189.07
1019.289	254.13
1019.64	243.07
1019.992	180.42
1020.343	135.42
1020.694	155.64
1021.045	113.61
1021.396	152.89
1021.747	191.13
1022.098	144.18
1022.449	111.09
1022.8	88.42
1023.151	100.68
1023.501	113.36
1023.852	121.59
1024.202	165.21
1024.553	125.39
1024.903	152.52
1025.253	163.87
1025.604	158.6
1025.954	181.91
1026.304	185.3
1026.654	194.72
1027.004	204.08
1027.354	194.73
1027.703	286.94
1028.053	90.43
1028.403	516.94
1028.753	348.68
1029.102	-171.16
1029.452	-3531.02
1029.801	-177.96
1030.15	-93.09
1030.499	-125.47
897.758	1680.42
901.051	1620.88
904.343	1652.53
907.636	1656.18
910.928	1704.85
914.22	1643.15
917.511	1645.58
920.803	1683.22
924.094	1674.46
927.384	1679.54
930.675	1652.21
933.965	1626.57
937.255	1655.34
940.544	1631.11
943.834	1623.82
947.123	1578.07
950.411	1647.26
953.7	1635.99
956.988	1625.04
960.276	1570.26
963.563	1601.44
966.851	1609.82
970.138	1638.46
973.424	1638.39
976.711	1599.68
979.997	1638.9
983.283	1669.89
986.568	1619.7
989.853	1604.83
993.138	1622.29
996.423	1696.06
999.708	1665.28
1002.992	1685.87
1006.275	1615.43
1009.559	1619.11
1012.842	1691.82
1016.125	1658.15
1019.408	1640.34
1022.69	1677.04
1025.972	1704.77
1029.254	1686.05
1032.536	1658.08
1035.817	1660.86
1039.098	1639.77
1042.379	1675.13
1045.659	1693.63
1048.939	1654.35
1052.219	1653.85
1055.498	1647.74
1058.778	1640.18
1062.057	1623.27
1065.335	1643.13
1068.614	1646.35
1071.892	1644.59
1075.17	1680.57
1078.447	1687.49
1081.724	1679.32
1085.001	1693.7
1088.278	1677.51
1091.554	1677.21
1094.83	1677.01
1098.106	1699.02
1101.382	1719.38
1104.657	1720.52
1107.932	1720.01
1111.206	1704.3
1114.481	1664.17
1117.755	1667.25
1121.029	1664.21
1124.302	1707.93
1127.575	1688.25
1130.848	1688.75
1134.121	1667.71
1137.393	1636.27
1140.665	1679.19
1143.937	1662.95
1147.208	1622.04
1150.48	1667.83
1153.75	1658.24
1157.021	1657.43
1160.291	1642.09
1163.561	1678.96
1166.831	1648.98
1170.101	1666.34
1173.37	1637.94
1176.639	1607.34
1179.907	1640.06
1183.176	1657.2
1186.444	1660.21
1189.711	1676.85
1192.979	1695.57
1196.246	1664.07
1199.513	1673.34
1202.78	1678.62
1206.046	1684.78
1209.312	1704.3
1212.578	1713.15
1215.843	1687.69
1219.108	1665.67
1222.373	1683.15
1225.638	1664.51
1228.902	1660.38
1232.166	1627.1
1235.43	1619.37
1238.693	1642.62
1241.956	1639.8
1245.219	1679.1
1248.482	1667.51
1251.744	1668.97
1255.006	1756.47
1258.268	1714.19
1261.529	1686.71
1264.79	1684.01
1268.051	1755.74
1271.312	1761.45
1274.572	1735.01
1277.832	1722.96
1281.092	1707.22
1284.351	1701.92
1287.61	1690.61
1290.869	1644.41
1294.128	1645.3
1297.386	1674.58
1300.644	1668.42
1303.902	1674.95
1307.159	1577.62
1310.416	1616.63
1313.673	1637.47
1316.93	1639.97
1320.186	1660.06
1323.442	1682.61
1326.697	1687.11
1329.953	1664.99
1333.208	1693.27
1336.463	1674.71
1339.717	1651.93
1342.972	1730.96
1346.226	1710.39
1349.479	1679.76
1352.733	1663.32
1355.986	1669.8
1359.238	1656.67
1362.491	1659.2
1365.743	1659.6
1368.995	1655.1
1372.247	1667.04
1375.498	1680.45
1378.749	1717.04
1382	1684.06
1385.251	1703.01
1388.501	1671.26
1391.751	1673.42
1395	1652.67
1398.25	1673.16
1401.499	1695.03
1404.748	1660.92
1407.996	1648.7
1411.244	1643.54
1414.492	1633.16
1417.74	1622.31
1420.987	1630.47
1424.234	1675.5
1427.481	1643.23
1430.728	1685.71
1433.974	1669.45
1437.22	1667.16
1440.465	1660.49
1443.711	1664.11
1446.956	1678.37
1450.201	1656.04
1453.445	1687.25
1456.689	1676.86
1459.933	1685.6
1463.177	1718.93
1466.42	1697.87
1469.663	1682.18
1472.906	1695.24
1476.148	1731.1
1479.391	1698.37
1482.633	1683.04
1485.874	1701.47
1489.115	1708.29
1492.356	1693.87
1495.597	1674.81
1498.838	1664.36
1502.078	1656.08
1505.318	1639.91
1508.557	1660.14
1511.797	1658.44
1515.036	1696.32
1518.274	1666.68
1521.513	1625.42
1524.751	1629.04
1527.989	1647.52
1531.227	1661.67
1534.464	1670.52
1537.701	1661.46
1540.938	1666.89
1544.174	1628.69
1547.41	1616.78
1550.646	1644.14
1553.882	1680.46
1557.117	1725.53
1560.352	1730.11
1563.587	1698.3
1566.821	1676.21
1570.055	1685.9
1573.289	1669.14
1576.523	1707.24
1579.756	1718.46
1582.989	1735.35
1586.222	1702.09
1589.454	1725.07
1592.686	1711.42
1595.918	1733.97
1599.15	1731.49
1602.381	1761.45
1605.612	1752.2
1608.843	1818.07
1612.073	1761.64
1615.303	1752.88
1618.533	1749.69
1621.762	1750.12
1624.992	1726.88
1628.221	1729.46
1631.449	1718.41
1634.678	1737.67
1637.906	1710.82
1641.134	1729.03
1644.361	1704.76
1647.588	1697.14
1650.815	1716.33
1654.042	1686.12
1657.269	1705.86
1660.495	1695.19
1663.72	1680.16
1666.946	1656.63
1670.171	1643.57
1673.396	1622.16
1676.621	1608.83
1679.845	1604.22
1683.069	1607.04
1686.293	1625.92
1689.517	1624.82
1692.74	1594.39
1695.963	1608.42
1699.185	1641.08
1702.408	1624.54
1705.63	1640.98
1708.852	1658.73
1712.073	1633.64
1715.294	1649.75
1718.515	1681.71
1721.736	1651.88
1724.956	1636.53
1728.176	1652.57
1731.396	1665.96
1734.616	1659.55
1737.835	1690.28
1741.054	1666.93
1744.272	1662.75
1747.491	1698.06
1750.709	1708.28
1753.927	1679.07
1757.144	1697.82
1760.361	1740.67
1763.578	1718.02
1766.795	1684.71
1770.011	1672.09
1773.227	1687.51
1776.443	1722.43
1779.658	1752.2
1782.874	1708.7
1786.089	1706.37
1789.303	1707.96
1792.518	1703.51
1795.732	1697.08
1798.945	1709.47
1802.159	1741.92
1805.372	1704.78
1808.585	1700.72
1811.797	1701.37
1815.01	1716.73
1818.222	1739.54
1821.434	1704.99
1824.645	1734.27
1827.856	1746.07
1831.067	1765.73
1834.278	1721.51
1837.488	1709.4
1840.698	1797.85
1843.908	1761.48
1847.117	1741.53
1850.326	1691.78
1853.535	1730.75
1856.744	1765.59
1859.952	1710
1863.16	1712.15
1866.368	1726.84
1869.575	1814.87
1872.782	1726.78
1875.989	1681.15
1879.196	1713.63
1882.402	1709.48
1885.608	1734.75
1888.814	1697.55
1892.019	1633.67
1895.224	1675.68
1898.429	1649.51
1901.634	1638.26
1904.838	1621.27
1908.042	1668.87
1911.246	1680.71
1914.449	1658.1
1917.652	1641.54
1920.855	1627.14
1924.058	1644.25
1927.26	1681.37
1930.462	1696
1933.664	1727.54
1936.865	1687.34
1940.066	1699.46
1943.267	1656.21
1946.467	1664.73
1949.668	1675.09
1952.868	1731.81
1956.067	1729.34
1959.267	1680.95
1962.466	1698.92
1965.665	1686.45
1968.863	1683.07
1972.061	1679.91
1975.259	1677.02
1978.457	1733.61
1981.654	1699.72
1984.852	1702.18
1988.048	1669.41
1991.245	1654.68
1994.441	1725.88
1997.637	1686.56
2000.833	1671.11
2004.028	1698.1
2007.223	1748.03
2010.418	1735.87
2013.613	1697.27
2016.807	1697.8
2020.001	1691.9
2023.194	1702.92
2026.388	1695.4
2029.581	1650.05
2032.774	1699.63
2035.966	1708.24
2039.158	1668.91
2042.35	1683.88
2045.542	1626.58
2048.733	1687.97
2051.924	1673.14
2055.115	1686.12
2058.306	1664.82
2061.496	1700.74
2064.686	1738.79
2067.875	1666.56
2071.065	1666.11
2074.254	1677.68
2077.442	1641.47
2080.631	1705.6
2083.819	1660.51
2087.007	1657.56
2090.195	1648.58
2093.382	1653.83
2096.569	1647.49
2099.756	1618.41
2102.942	1661.03
2106.128	1671.01
2109.314	1663.04
2112.5	1658.19
2115.685	1629.99
2118.87	1636.16
2122.055	1685.66
2125.239	1668.74
2128.424	1664.07
2131.608	1699.77
2134.791	1686.89
2137.974	1711.97
2141.157	1705.27
2144.34	1688
2147.523	1672.03
2150.705	1696.63
2153.887	1668.87
2157.068	1652.22
2160.25	1630.43
2163.431	1648.54
2166.611	1628.03
2169.792	1647.75
2172.972	1578.74
2176.152	1616.79
2179.331	1633.84
2182.511	1642.67
2185.69	1656.37
2188.868	1660.56
2192.047	1683.51
2195.225	1706.91
2198.403	1664.3
2201.58	1651.44
2204.758	1637.88
2207.935	1696.03
2211.111	1636.23
2214.288	1627.01
2217.464	1650.56
2220.64	1615.68
2223.815	1653.11
2226.991	1601.37
2230.166	1611.17
2233.34	1645.98
2236.515	1657.13
2239.689	1704.9
2242.863	1667.68
2246.036	1704.72
2249.209	1693.77
2252.382	1706.33
2255.555	1716.99
2258.727	1683.23
2261.9	1703.33
2265.071	1698.51
2268.243	1696.19
2271.414	1660.69
2274.585	1651.05
2277.756	1697.31
2280.926	1667.3
2284.096	1685.25
2287.266	1636.53
2290.436	1671.55
2293.605	1682.69
2296.774	1717.11
2299.942	1719.6
2303.111	1729.58
2306.279	1770.92
2309.447	1760.32
2312.614	1740.84
2315.781	1756.11
2318.948	1740.6
2322.115	1769.37
2325.281	1688.46
2328.447	1694.24
2331.613	1667.41
2334.779	1664.26
2337.944	1661.34
2341.109	1663.08
2344.274	1653.8
2347.438	1629.33
2350.602	1646.37
2353.766	1651.95
2356.929	1645.02
2360.092	1677.24
2363.255	1654.55
2366.418	1637.14
2369.58	1670.35
2372.742	1634.75
2375.904	1615.8
2379.066	1612.09
2382.227	1627.25
2385.388	1598.19
2388.548	1564.92
2391.709	1592.03
2394.869	1587.87
2398.029	1619.4
2401.188	1608.96
2404.347	1593.49
2407.506	1600.8
2410.665	1645.66
2413.823	1627.13
2416.981	1616.35
2420.139	1626.57
2423.296	1657.26
2426.453	1636.16
2429.61	1649.57
2432.767	1637.09
2435.923	1669.45
2439.079	1623.96
2442.235	1647.68
2445.391	1602.78
2448.546	1640.08
2451.701	1664.66
2454.855	1665.43
2458.009	1682.97
2461.163	1670.46
2464.317	1650.94
2467.471	1670.34
2470.624	1691.08
2473.777	1690.73
2476.929	1703.03
2480.082	1720.99
2483.234	1704.9
2486.385	1655.45
2489.537	1651.19
2492.688	1647.23
2495.839	1664.37
2498.989	1675.46
2502.14	1665.53
2505.29	1660.56
2508.439	1672.91
2511.589	1632.78
2514.738	1629.81
2517.887	1643.26
2521.035	1705.92
2524.183	1668.47
2527.331	1661.96
2530.479	1658.06
2533.627	1659.94
