Data from N_1_HIR_WI_4N_Splice17_11-39-12-121.txt Node
Date: Sat Mar 14 11:39:12 EDT 2020
User: sa697716
Spectrometer: FLMS03696
Trigger mode: 0
Integration Time (sec): 3.180400E-1
Scans to average: 20
Electric dark correction enabled: true
Nonlinearity correction enabled: true
Boxcar width: 5
XAxis mode: Wavelengths
Number of Pixels in Spectrum: 2048
>>>>>Begin Spectral Data<<<<<
187.83	-186813.89
188.298	1514.49
188.766	782.54
189.233	665.83
189.701	950.97
190.169	1216.8
190.636	427.3
191.104	323.44
191.571	13.35
192.039	-65.58
192.506	-102.01
192.974	333.95
193.441	-193.37
193.908	-75.07
194.375	-7.34
194.842	19.95
195.31	102.62
195.777	142.5
196.244	313.68
196.711	378.77
197.177	477.12
197.644	659.3
198.111	1136.97
198.578	1574.93
199.045	1243.7
199.511	1969.89
199.978	2238.31
200.445	1846.98
200.911	2031.29
201.378	2234.64
201.844	1993.11
202.31	3333.25
202.777	3446.05
203.243	1881.7
203.709	1740.44
204.176	2034.83
204.642	1671.56
205.108	1592.15
205.574	1294.74
206.04	1158.72
206.506	1067.91
206.972	988.91
207.438	935.16
207.903	1041.6
208.369	929.58
208.835	928.14
209.301	980.14
209.766	991.73
210.232	957.7
210.697	1156.48
211.163	1406.85
211.628	2112.17
212.094	1774.58
212.559	2179.53
213.024	1339.95
213.49	1606.93
213.955	1522.76
214.42	1444.98
214.885	1311.09
215.35	1233.93
215.815	1189.9
216.28	1219.13
216.745	959.93
217.21	1000.82
217.675	863.12
218.14	903.45
218.604	916.17
219.069	961.76
219.534	941.55
219.998	1003.76
220.463	1117.73
220.927	1202.34
221.392	1046.66
221.856	983.33
222.32	1109.67
222.785	1279.21
223.249	1492.02
223.713	1555.69
224.177	1506.5
224.642	1791.8
225.106	2093.86
225.57	2129.47
226.034	1576.11
226.497	2321.55
226.961	2038.99
227.425	2320.26
227.889	2454.62
228.353	2364.44
228.816	4690.63
229.28	4278.89
229.744	3494.1
230.207	2118.75
230.671	2085.98
231.134	3232.85
231.597	3659.23
232.061	3509.83
232.524	3301.86
232.987	2263.49
233.45	2021.69
233.914	1770.26
234.377	1747.45
234.84	1609.84
235.303	1814.42
235.766	1952.4
236.229	1977.18
236.691	1215.81
237.154	1345.52
237.617	1020.94
238.08	1007.34
238.542	1183.34
239.005	858.1
239.468	866.99
239.93	801.78
240.393	740.53
240.855	650.62
241.317	653.61
241.78	773.27
242.242	819.19
242.704	910.37
243.166	804.55
243.629	740.53
244.091	864.24
244.553	942.57
245.015	1024.94
245.477	1307.76
245.939	1878.98
246.4	2021.28
246.862	1948.31
247.324	1819.53
247.786	1967.33
248.247	2498.3
248.709	2437.06
249.17	1818.39
249.632	1760.6
250.093	2071.66
250.555	1772.06
251.016	1122.12
251.477	1074.16
251.939	1176.23
252.4	1203.04
252.861	1408.27
253.322	1351.42
253.783	1588.21
254.244	2018.05
254.705	1536.05
255.166	1324.26
255.627	1294
256.088	1844.34
256.549	1931.45
257.009	1635.92
257.47	1972.04
257.931	1576.94
258.391	1193.83
258.852	1245.65
259.312	1281.69
259.773	1553.3
260.233	1341.89
260.694	1148.11
261.154	1230.63
261.614	1036.6
262.074	919.88
262.534	975.99
262.994	933.28
263.455	1187.6
263.915	1010.41
264.374	958.25
264.834	1023.89
265.294	1086.33
265.754	1109.13
266.214	1056.65
266.673	955.99
267.133	1178.99
267.593	1143.79
268.052	1385.55
268.512	1170.12
268.971	1437.25
269.431	1567.24
269.89	1418.74
270.349	2123.75
270.809	2402.87
271.268	2176.36
271.727	4753.12
272.186	3081.21
272.645	2275.38
273.104	1597.27
273.563	2340.86
274.022	1758.67
274.481	1519.09
274.94	1200.83
275.399	898.32
275.857	1012.71
276.316	1331.72
276.775	1197.35
277.233	1200.64
277.692	1181.85
278.15	1376.37
278.609	1483.26
279.067	1391.67
279.525	1320.91
279.984	1686.76
280.442	2042.91
280.9	2123.25
281.358	1417.92
281.816	1340.83
282.274	1329.46
282.732	1337.53
283.19	1343.38
283.648	1156.27
284.106	1232.88
284.564	1231.37
285.021	1175.43
285.479	880.88
285.937	767.06
286.394	708.02
286.852	728.23
287.309	775.33
287.767	793.17
288.224	774.05
288.682	845.11
289.139	954.87
289.596	896.74
290.053	904.73
290.511	1127.99
290.968	1405.85
291.425	1857.8
291.882	1585.32
292.339	1384.46
292.796	1319.99
293.252	1219.13
293.709	1001.43
294.166	890.23
294.623	964.74
295.079	921.69
295.536	942.25
295.992	848.29
296.449	839.73
296.905	866.72
297.362	838.95
297.818	875.19
298.274	932.13
298.731	933.76
299.187	925.8
299.643	984.51
300.099	1207.36
300.555	1317.94
301.011	1108.73
301.467	1131.76
301.923	1283.07
302.379	1257.66
302.835	1245.17
303.291	1246.46
303.746	1409.6
304.202	1794.29
304.658	1800.06
305.113	1240.08
305.569	1227.25
306.024	1314.08
306.479	1202.35
306.935	1084.83
307.39	1153.86
307.845	1097.69
308.301	1113.49
308.756	1088.21
309.211	1050.16
309.666	1087.59
310.121	1392.84
310.576	1425.18
311.031	1401.92
311.486	1591.8
311.94	1530.52
312.395	2091.91
312.85	3849.92
313.305	18413.5
313.759	102238.78
314.214	7586.45
314.668	6210.95
315.123	5181.74
315.577	1911.48
316.032	1740.03
316.486	2189.45
316.94	1803.97
317.394	1289.01
317.849	1010.86
318.303	966.17
318.757	904.05
319.211	986.33
319.665	853.11
320.119	857.29
320.572	1186.34
321.026	1114.49
321.48	936.51
321.934	993.78
322.387	985.28
322.841	1091.8
323.295	1027.59
323.748	1137.79
324.202	1170.28
324.655	1416.94
325.108	2033.86
325.562	1474.23
326.015	1726.42
326.468	1311.47
326.921	1473.67
327.374	1410.14
327.827	1489.41
328.28	1660.67
328.733	1147.57
329.186	1008.59
329.639	968.99
330.092	819.31
330.545	785.75
330.997	817.27
331.45	924.33
331.903	1099.2
332.355	1840.75
332.808	1774.9
333.26	1464.02
333.713	1607.79
334.165	1619.41
334.617	2134.19
335.069	1665.6
335.522	2995.58
335.974	3278.84
336.426	2965.19
336.878	2006.24
337.33	1048.66
337.782	1017.91
338.234	1339.79
338.686	1575.88
339.137	1886.42
339.589	1823.24
340.041	1472.24
340.493	1262.59
340.944	1311.9
341.396	1413.19
341.847	1243.31
342.299	1490.14
342.75	1847.16
343.201	1560.77
343.653	1783.79
344.104	2163.69
344.555	1676.47
345.006	2479.75
345.457	1985.9
345.908	1549.17
346.359	1470.37
346.81	1165.35
347.261	1191.2
347.712	1148.84
348.163	1208.8
348.613	1287.98
349.064	1200.56
349.515	1058.71
349.965	1137.63
350.416	1324.95
350.866	1445.96
351.317	1602.41
351.767	2695.37
352.217	3407.05
352.668	2876.5
353.118	2688.32
353.568	2472.27
354.018	1997.5
354.468	2132.22
354.918	1538.41
355.368	1385.34
355.818	1974.09
356.268	5595.21
356.718	23622.58
357.168	6169.1
357.617	3089.2
358.067	3406.52
358.517	3244.72
358.966	3866.39
359.416	4397.86
359.865	4754.74
360.315	5545.37
360.764	2606.07
361.213	1484.84
361.663	1376.9
362.112	1640.33
362.561	2649.73
363.01	2013.78
363.459	1689.93
363.908	1788.36
364.357	1570.79
364.806	2616.4
365.255	1797.21
365.703	1694.17
366.152	1717.08
366.601	1426.34
367.05	1190.31
367.498	1089.9
367.947	1138.53
368.395	1162.23
368.844	1065.61
369.292	1210.02
369.74	862.73
370.189	1320.8
370.637	1533.44
371.085	1327.53
371.533	1599.26
371.981	1522.58
372.429	1476.88
372.877	1562.15
373.325	1326.43
373.773	1322.46
374.221	1204.84
374.669	1484.46
375.116	1274.15
375.564	1291.28
376.012	1431.86
376.459	1197.14
376.907	1429
377.354	1708.14
377.801	1627.49
378.249	1910.81
378.696	2472.82
379.143	3034.64
379.591	3315.98
380.038	5686.1
380.485	4219.29
380.932	4673.72
381.379	4488.34
381.826	3499.01
382.273	2573.69
382.72	2257.72
383.166	2295.24
383.613	1559.23
384.06	1467.56
384.506	1773.86
384.953	1379.92
385.4	1462.16
385.846	1364.72
386.292	1424.65
386.739	1489.07
387.185	1616.16
387.631	1816.51
388.078	1972.19
388.524	2327.12
388.97	2336.77
389.416	2088
389.862	2340.37
390.308	2326.41
390.754	2525.32
391.2	2951.51
391.645	3313.59
392.091	3486.96
392.537	3635.18
392.983	3866.36
393.428	4001.35
393.874	4530.76
394.319	4926.41
394.765	5188.24
395.21	5985.99
395.655	6274.99
396.101	6502.23
396.546	6451.5
396.991	7114.19
397.436	7232.59
397.881	7655.08
398.326	7986.41
398.771	8251.64
399.216	7843.81
399.661	7578.07
400.106	8007.36
400.551	8627.7
400.995	8113.48
401.44	8336.68
401.885	8112.16
402.329	8435.98
402.774	8296.36
403.218	8184.72
403.663	8093.43
404.107	8514.17
404.551	8815.65
404.995	8344.98
405.44	8328.9
405.884	8737.21
406.328	8729.3
406.772	8927.43
407.216	8357.88
407.66	8345.43
408.104	8261.45
408.547	8012.12
408.991	8004.83
409.435	7927.19
409.879	7984.64
410.322	8037.79
410.766	7916.8
411.209	7694.75
411.653	7596.93
412.096	7626.7
412.54	7820.83
412.983	7914.93
413.426	8056.9
413.869	8202.44
414.312	8164.26
414.756	8017.38
415.199	7782.68
415.642	7670.91
416.085	7790.7
416.527	7829.37
416.97	8056.82
417.413	7705.54
417.856	7703.29
418.298	7678.62
418.741	7659.02
419.184	7678.07
419.626	8031.76
420.069	8054.27
420.511	8126
420.953	7994.92
421.396	7985.08
421.838	7861.01
422.28	8103.57
422.722	8201.1
423.164	8439.41
423.606	8407.28
424.048	8528.74
424.49	8195.67
424.932	8267.05
425.374	8257.47
425.816	8457.19
426.258	8588.16
426.699	8562.17
427.141	8249.62
427.582	8229.97
428.024	8089.79
428.465	8064.44
428.907	7959.15
429.348	8020.31
429.789	8146.23
430.231	8072.26
430.672	8287.67
431.113	8257.83
431.554	8404.91
431.995	8584.87
432.436	8623.89
432.877	8753.59
433.318	8818.14
433.759	8963.7
434.2	9099.15
434.64	9130.52
435.081	9283.26
435.522	8945.18
435.962	8795.8
436.403	8747.43
436.843	9023.35
437.284	8980.41
437.724	8856.99
438.164	9016.99
438.604	8909.69
439.045	8648.19
439.485	8385.72
439.925	8362.51
440.365	8298.32
440.805	8305.58
441.245	8292.74
441.685	8047.69
442.125	8053.5
442.564	8148.24
443.004	7977.61
443.444	7992.34
443.883	8051.53
444.323	8090.52
444.762	8203.82
445.202	8379.22
445.641	8558.32
446.081	8595.29
446.52	8728.51
446.959	8705.73
447.398	8565.83
447.837	8570.96
448.276	8521.05
448.716	8666.86
449.154	8777.12
449.593	8531.48
450.032	8484.99
450.471	8348.91
450.91	8354.1
451.349	8298.37
451.787	8250.37
452.226	8344.62
452.664	8308.54
453.103	8287.6
453.541	8276.28
453.98	8215.72
454.418	8287.89
454.856	8133.93
455.295	8101.68
455.733	8123.69
456.171	8154.54
456.609	8121.15
457.047	8105.75
457.485	8177.56
457.923	8161.07
458.361	8045.69
458.798	8086.62
459.236	8078.46
459.674	8183.37
460.111	8257.28
460.549	8206.83
460.987	8230.25
461.424	8259.46
461.862	8253.98
462.299	8172.67
462.736	8192.71
463.173	8250.29
463.611	8143.1
464.048	8138.06
464.485	8233.72
464.922	8215.64
465.359	8256.68
465.796	8094.06
466.233	8096.55
466.67	8065.4
467.106	8102.86
467.543	8116.58
467.98	8106.7
468.416	8042.31
468.853	8111.66
469.29	7980.98
469.726	7983.21
470.162	7849.73
470.599	7943.83
471.035	7976.1
471.471	7888.64
471.907	7960.47
472.344	7986.51
472.78	8042.61
473.216	8188.93
473.652	8100.62
474.088	8111.26
474.523	8101.24
474.959	8208.54
475.395	8149.87
475.831	8094.57
476.266	8143.8
476.702	8124.31
477.138	8031.68
477.573	8011.17
478.008	7973.64
478.444	7995.62
478.879	8027.47
479.314	8034.05
479.75	7993.15
480.185	7999.52
480.62	8034.24
481.055	8024.51
481.49	8010.17
481.925	8039.45
482.36	8023.45
482.795	8093.69
483.229	8139.87
483.664	8144.52
484.099	8038.54
484.534	8036.25
484.968	8004.15
485.403	7942.73
485.837	7868.82
486.271	7796.57
486.706	7783.39
487.14	7729.8
487.574	7643.41
488.009	7620.89
488.443	7582.62
488.877	7637.57
489.311	7644.38
489.745	7703.94
490.179	7733.95
490.613	7812.24
491.046	7847.27
491.48	7863.84
491.914	7831.06
492.348	7847.41
492.781	7854.75
493.215	7852.62
493.648	7871.32
494.082	7917.21
494.515	7889.3
494.948	7927.49
495.382	7950.98
495.815	7940.76
496.248	7931.83
496.681	8005.5
497.114	8057.58
497.547	8076.58
497.98	8102.81
498.413	8043.99
498.846	8030.52
499.279	8032.4
499.711	8004.72
500.144	7953.19
500.577	7957.82
501.009	7975.24
501.442	7968.61
501.874	7898.46
502.306	7870.49
502.739	7870.9
503.171	7975.35
503.603	7955.4
504.036	7976.24
504.468	7944.35
504.9	7957.31
505.332	7943.22
505.764	7904.95
506.196	7895.32
506.627	7932.95
507.059	7941.96
507.491	7939.44
507.923	7811.05
508.354	7831.38
508.786	7818.95
509.217	7862.76
509.649	7877.9
510.08	7917.05
510.512	7912.42
510.943	7892.22
511.374	7845.22
511.805	7862.36
512.237	7873.92
512.668	7970.87
513.099	8002.19
513.53	7996.18
513.961	7926.65
514.391	7932.35
514.822	7936.38
515.253	7978.82
515.684	7966.28
516.114	7986.36
516.545	7968.35
516.975	7984.91
517.406	7966.24
517.836	7889.59
518.267	7865.6
518.697	7921.12
519.127	7904.69
519.558	7904.08
519.988	7875.35
520.418	7884.2
520.848	7929.64
521.278	7918.2
521.708	7753.62
522.138	7750.28
522.567	7834.22
522.997	7865.14
523.427	7830.28
523.857	7794.92
524.286	7739.75
524.716	7721.47
525.145	7726.27
525.575	7698.7
526.004	7698.67
526.433	7763.03
526.863	7700.94
527.292	7595.09
527.721	7588.91
528.15	7612.16
528.579	7613.56
529.008	7646.91
529.437	7717.23
529.866	7724.52
530.295	7739.19
530.724	7720.47
531.152	7774.5
531.581	7774.31
532.01	7804.04
532.438	7798.57
532.867	7814.78
533.295	7846.22
533.723	7829.63
534.152	7786.93
534.58	7766.43
535.008	7682.59
535.436	7666.92
535.865	7675.89
536.293	7707.77
536.721	7726.72
537.149	7766.8
537.576	7710.09
538.004	7713.97
538.432	7718.79
538.86	7688.81
539.287	7698.78
539.715	7730.59
540.143	7734.11
540.57	7711.85
540.998	7701.79
541.425	7620.22
541.852	7567.18
542.28	7601.9
542.707	7569.29
543.134	7537.78
543.561	7545.42
543.988	7532.24
544.415	7552.4
544.842	7543.62
545.269	7527.74
545.696	7547.36
546.123	7623.72
546.549	7598.73
546.976	7559.39
547.403	7572.23
547.829	7596.66
548.256	7625.66
548.682	7634.04
549.108	7619.21
549.535	7640.95
549.961	7670.4
550.387	7632.73
550.813	7618.09
551.24	7662.43
551.666	7689.82
552.092	7670
552.518	7662.56
552.943	7643.15
553.369	7681.84
553.795	7708.53
554.221	7714.04
554.646	7700.67
555.072	7736.08
555.498	7752
555.923	7769.08
556.349	7802.8
556.774	7815.36
557.199	7800.62
557.625	7820.91
558.05	7788.61
558.475	7835.05
558.9	7827.14
559.325	7792
559.75	7773.25
560.175	7757.68
560.6	7748.34
561.025	7758.96
561.449	7775.66
561.874	7806.35
562.299	7817.01
562.723	7838.23
563.148	7782.86
563.572	7798.77
563.997	7841.83
564.421	7869.78
564.846	7865.88
565.27	7868.71
565.694	7843.97
566.118	7883.9
566.542	7903.38
566.966	7870.78
567.39	7844.19
567.814	7789.73
568.238	7777.84
568.662	7798.46
569.086	7812.12
569.509	7863.37
569.933	7818.39
570.357	7823.47
570.78	7767.04
571.204	7741.63
571.627	7733.33
572.05	7767.5
572.474	7807.55
572.897	7797.19
573.32	7797.52
573.743	7790.67
574.166	7733.68
574.589	7767.75
575.012	7753.79
575.435	7769.51
575.858	7754.37
576.281	7736.34
576.704	7706
577.126	7702.06
577.549	7700.28
577.972	7708.38
578.394	7705.45
578.817	7713.85
579.239	7681.85
579.661	7679.25
580.084	7665.81
580.506	7669.58
580.928	7717.33
581.35	7721.4
581.772	7753.1
582.194	7732.05
582.616	7706.43
583.038	7674
583.46	7667.47
583.882	7681.69
584.303	7736.53
584.725	7741.86
585.147	7730.75
585.568	7759.81
585.99	7774.59
586.411	7750.23
586.833	7779.15
587.254	7761
587.675	7822.39
588.096	7877.87
588.518	7849.36
588.939	7762.4
589.36	7759.83
589.781	7769.67
590.202	7668.41
590.623	7703.42
591.043	7780.08
591.464	7788.09
591.885	7821.37
592.305	7837.32
592.726	7808.2
593.147	7857.54
593.567	7871.19
593.987	7867.57
594.408	7872.11
594.828	7908.43
595.248	7894.35
595.669	7816.33
596.089	7811
596.509	7815.18
596.929	7767.06
597.349	7789.72
597.769	7748.24
598.189	7721.4
598.608	7732.25
599.028	7743.83
599.448	7753.77
599.867	7704.35
600.287	7702.82
600.706	7692.52
601.126	7652.88
601.545	7664.12
601.965	7678.82
602.384	7671.22
602.803	7710.46
603.222	7706.09
603.641	7697.69
604.061	7692.48
604.48	7690.78
604.898	7751.02
605.317	7794.5
605.736	7814.67
606.155	7802.79
606.574	7756.92
606.992	7794.23
607.411	7773.66
607.829	7745.28
608.248	7739.8
608.666	7746.86
609.085	7755.62
609.503	7722.49
609.921	7698.99
610.339	7728.66
610.758	7746.95
611.176	7739.54
611.594	7705.62
612.012	7712.57
612.43	7744.24
612.847	7794.82
613.265	7799.93
613.683	7836.55
614.101	7856.71
614.518	7859.69
614.936	7828.56
615.353	7771.43
615.771	7783.95
616.188	7818.6
616.606	7829.16
617.023	7824.22
617.44	7781.63
617.857	7797.66
618.274	7792.01
618.691	7790.11
619.108	7763.44
619.525	7748.43
619.942	7801.73
620.359	7829.41
620.776	7805.25
621.192	7773.97
621.609	7753.57
622.026	7777.71
622.442	7790.07
622.859	7796.79
623.275	7746.4
623.691	7772.04
624.108	7831.81
624.524	7909.49
624.94	7889.59
625.356	7934.38
625.772	8007.21
626.188	8073.29
626.604	8072.52
627.02	8041.37
627.436	8016.41
627.852	8039.52
628.268	8096.69
628.683	8032.58
629.099	7975.89
629.514	7961.49
629.93	7996.9
630.345	8033.82
630.761	8025.17
631.176	8066.52
631.591	8045.23
632.007	8032.06
632.422	8056.15
632.837	8021.54
633.252	8030.25
633.667	8005
634.082	7981.7
634.497	7934.95
634.911	7845.55
635.326	7867.73
635.741	7805.33
636.155	7800.35
636.57	7848.52
636.984	7888.96
637.399	7934.72
637.813	7993.51
638.228	8036.03
638.642	8117.53
639.056	8106.07
639.47	8170.43
639.884	8171.81
640.298	8190.55
640.712	8241.24
641.126	8228.77
641.54	8244.71
641.954	8303.58
642.368	8282.92
642.781	8278.21
643.195	8217.63
643.609	8278.82
644.022	8291.33
644.436	8310.19
644.849	8271.24
645.262	8231.33
645.676	8292.09
646.089	8287.93
646.502	8187.76
646.915	8189.68
647.328	8118
647.741	8149.65
648.154	8099.12
648.567	8103.54
648.98	8044.45
649.393	8096.44
649.805	8116.01
650.218	8101.82
650.631	8022.75
651.043	8026.41
651.456	8012.1
651.868	8047.03
652.28	8193.61
652.693	8273.04
653.105	8279.66
653.517	8281.42
653.929	8219.11
654.341	8218.02
654.753	8095.94
655.165	8150.05
655.577	8147.89
655.989	8147.14
656.401	8139.41
656.813	7909.51
657.224	7864.41
657.636	7788.53
658.047	7795.29
658.459	7784.52
658.87	7856.73
659.282	7884.89
659.693	7790.9
660.104	7745.83
660.515	7706.24
660.926	7759.85
661.338	7816.84
661.749	7833.66
662.159	7803.35
662.57	7843
662.981	7857.37
663.392	7835.28
663.803	7921.72
664.213	7956.78
664.624	7969.59
665.035	8051.77
665.445	7971.3
665.855	7931.04
666.266	7876.43
666.676	7891.65
667.086	7827.63
667.497	7838.81
667.907	7792.04
668.317	7711.01
668.727	7646.61
669.137	7666.25
669.547	7638.57
669.956	7664.29
670.366	7681.94
670.776	7685.45
671.186	7714.9
671.595	7727.68
672.005	7756.02
672.414	7723.1
672.824	7681
673.233	7747.04
673.642	7745.72
674.052	7738.28
674.461	7716.95
674.87	7739.26
675.279	7678.91
675.688	7678.62
676.097	7648.87
676.506	7579.62
676.915	7698.17
677.323	7691.02
677.732	7638.23
678.141	7596.62
678.549	7468.77
678.958	7434.6
679.366	7389.87
679.775	7407.37
680.183	7420.08
680.592	7426.73
681	7417.05
681.408	7280.85
681.816	7279.19
682.224	7280.59
682.632	7260.08
683.04	7406.99
683.448	7454.76
683.856	7490.26
684.264	7510.77
684.671	7509.77
685.079	7538.97
685.487	7584.57
685.894	7736.47
686.302	7784.62
686.709	7737.58
687.116	7735.75
687.524	7666.22
687.931	7603.04
688.338	7562.54
688.745	7532.72
689.152	7513.95
689.559	7530.29
689.966	7512.54
690.373	7368.91
690.78	7308.4
691.187	7344.89
691.593	7290.53
692	7211.57
692.407	7209.28
692.813	7241.75
693.22	7224.39
693.626	7227.06
694.032	7185.6
694.439	7251.27
694.845	7254.96
695.251	7319.18
695.657	7353.59
696.063	7494.32
696.469	7540.34
696.875	7558.76
697.281	7486.4
697.687	7431.08
698.093	7341.94
698.498	7351.76
698.904	7309.63
699.31	7356.93
699.715	7336.54
700.12	7408.83
700.526	7309.94
700.931	7350.92
701.337	7358.55
701.742	7335.79
702.147	7440.9
702.552	7420.72
702.957	7478.77
703.362	7449.96
703.767	7446.96
704.172	7473.09
704.577	7300.97
704.981	7337.7
705.386	7302.15
705.791	7217.16
706.195	7307.31
706.6	7254.55
707.004	7360.28
707.408	7235.52
707.813	7230.06
708.217	7145.23
708.621	7091.18
709.025	7226.27
709.43	7165.08
709.834	7226.84
710.237	7307.69
710.641	7222.91
711.045	7210.83
711.449	7138.86
711.853	7122.57
712.256	7135.38
712.66	7136.64
713.064	7188.21
713.467	7155.93
713.87	7217.28
714.274	7126.3
714.677	7119.35
715.08	7166.96
715.484	7199.28
715.887	7258.08
716.29	7304.71
716.693	7338.79
717.096	7406.83
717.499	7351.64
717.901	7221.62
718.304	7181.02
718.707	7216.48
719.109	7135.86
719.512	7176.03
719.915	7075.07
720.317	7076.9
720.719	7189.79
721.122	7201.44
721.524	7173.14
721.926	7132.95
722.328	7255.32
722.731	7186.05
723.133	7139.21
723.535	7301.9
723.937	7229.84
724.338	7212.65
724.74	7195.48
725.142	7039.29
725.544	7011.69
725.945	7017.04
726.347	6999.07
726.748	6976.47
727.15	6991.26
727.551	6933.22
727.952	6884.86
728.354	6841.32
728.755	6852.46
729.156	6830.09
729.557	6896.01
729.958	6794.42
730.359	6798.57
730.76	6854.76
731.161	6864.76
731.562	6915.68
731.962	7002.3
732.363	6990.61
732.763	6972.03
733.164	7071.33
733.564	7017.67
733.965	6909.6
734.365	6881.04
734.766	6931.83
735.166	6877.66
735.566	6786.06
735.966	6730.3
736.366	6710.25
736.766	6617.89
737.166	6658.19
737.566	6608.01
737.966	6573.39
738.365	6625.65
738.765	6612.57
739.165	6504.68
739.564	6466.91
739.964	6537.93
740.363	6488.47
740.763	6499.04
741.162	6489.24
741.561	6451.83
741.96	6389.36
742.36	6422.53
742.759	6437.01
743.158	6500.52
743.557	6526.84
743.955	6584.88
744.354	6517.25
744.753	6589.93
745.152	6522.28
745.55	6591.19
745.949	6573.58
746.348	6564.63
746.746	6574.59
747.144	6500.48
747.543	6452.25
747.941	6499.46
748.339	6383.08
748.737	6354.77
749.136	6325.65
749.534	6395.84
749.932	6338.11
750.33	6355.57
750.727	6419.22
751.125	6376.76
751.523	6348.96
751.921	6393.16
752.318	6340.71
752.716	6409.18
753.113	6416.77
753.511	6438.91
753.908	6426.72
754.305	6390.32
754.703	6455.78
755.1	6517.64
755.497	6571.17
755.894	6763.9
756.291	6869.02
756.688	7049.7
757.085	7221.11
757.482	7446.02
757.878	7593.11
758.275	7603.4
758.672	7782.95
759.068	7766.38
759.465	7884.3
759.861	8069.28
760.258	8272.59
760.654	8118.1
761.05	7721.54
761.447	7367.65
761.843	7086.86
762.239	6872.35
762.635	6954.42
763.031	6997.22
763.427	6894.44
763.822	6781.8
764.218	6693.25
764.614	6450.52
765.01	6376.61
765.405	6420.52
765.801	6495.38
766.196	6455.27
766.592	6519.09
766.987	6405.59
767.382	6363.35
767.778	6420.87
768.173	6394.34
768.568	6403.54
768.963	6329.46
769.358	6401.37
769.753	6386.13
770.148	6317.25
770.542	6339.06
770.937	6318.32
771.332	6437.96
771.726	6460.42
772.121	6377.87
772.515	6443.17
772.91	6426.72
773.304	6508.06
773.699	6426.14
774.093	6482
774.487	6535.99
774.881	6572.02
775.275	6552.13
775.669	6488.08
776.063	6532.08
776.457	6565.16
776.851	6458.55
777.245	6425.2
777.638	6444.44
778.032	6557.12
778.425	6498.54
778.819	6531.35
779.212	6466.11
779.606	6399.03
779.999	6404.23
780.392	6362.09
780.786	6435.17
781.179	6438.94
781.572	6467.37
781.965	6462.12
782.358	6375.22
782.751	6411.34
783.143	6328.11
783.536	6384.74
783.929	6405.07
784.322	6498.81
784.714	6501.11
785.107	6460.3
785.499	6498.49
785.891	6430.31
786.284	6358.56
786.676	6458.27
787.068	6386.15
787.46	6389.35
787.852	6356.28
788.245	6393.62
788.636	6376.83
789.028	6396.07
789.42	6388.02
789.812	6351.24
790.204	6411.06
790.595	6473.89
790.987	6249.31
791.378	6241.9
791.77	6343.39
792.161	6449.38
792.553	6474.86
792.944	6332.18
793.335	6229.06
793.726	6262.41
794.117	6319.02
794.508	6415.4
794.899	6361.33
795.29	6465.06
795.681	6489.68
796.072	6323.26
796.463	6108.37
796.853	6079.97
797.244	6189.41
797.634	6187.63
798.025	6154.94
798.415	6124.67
798.806	6164.85
799.196	6191.6
799.586	6185.26
799.976	6095.6
800.366	6244.7
800.756	6409.28
801.146	6327.65
801.536	6304.19
801.926	6320.68
802.316	6307.43
802.706	6336.12
803.095	6198.56
803.485	6250.69
803.874	6255.79
804.264	6437.8
804.653	6381.66
805.043	6461.98
805.432	6509.34
805.821	6470.17
806.21	6436.53
806.599	6467.77
806.988	6432.84
807.377	6445.38
807.766	6464.13
808.155	6588.91
808.544	6309.27
808.933	6229.67
809.321	6115.99
809.71	6220.34
810.098	6214.78
810.487	6401.57
810.875	6576.05
811.264	6434.8
811.652	6451.61
812.04	6368.37
812.428	6285.65
812.816	6531.9
813.204	6558.53
813.592	6647.69
813.98	6626.08
814.368	6395.63
814.756	6470.77
815.144	6281.64
815.531	6382.45
815.919	6237.83
816.306	6291.04
816.694	6082.74
817.081	6074.55
817.469	6229.54
817.856	6257.88
818.243	6408.1
818.63	6608.73
819.017	6419.24
819.404	6416.2
819.791	6504.56
820.178	6676.09
820.565	6701.79
820.952	7037.14
821.339	6774.29
821.725	6798.86
822.112	6415.07
822.498	6325.88
822.885	6311.85
823.271	6230.36
823.657	6402.17
824.044	6446.05
824.43	6519.64
824.816	6520.72
825.202	6318.6
825.588	6679.56
825.974	6612.77
826.36	6738.66
826.746	6670.13
827.132	6732.05
827.517	6647.62
827.903	6264.5
828.289	6202.72
828.674	5847.8
829.06	5755.73
829.445	5856.47
829.83	5951.89
830.216	6079.57
830.601	6170.78
830.986	5990.84
831.371	5912.08
831.756	6084.09
832.141	5919.79
832.526	5901.06
832.911	5982.08
833.295	5923.65
833.68	6079.68
834.065	5852.29
834.449	5532.49
834.834	5505.07
835.218	5497.7
835.603	5609.02
835.987	5519.44
836.371	5783.18
836.755	5733.62
837.139	5853.74
837.524	5918.81
837.908	5837.05
838.291	5835.84
838.675	5831.81
839.059	5878.86
839.443	5852.14
839.827	5744.37
840.21	5874.97
840.594	5795.96
840.977	5832.4
841.361	5793.6
841.744	5885
842.127	5801.71
842.511	5846.49
842.894	6011.27
843.277	6098.01
843.66	6235.77
844.043	6239.17
844.426	5957.15
844.809	5829.51
845.191	5807.39
845.574	5642.19
845.957	5503.76
846.339	5428.89
846.722	5223.49
847.104	5188.84
847.487	5090.41
847.869	5047.46
848.252	5076.71
848.634	5124.85
849.016	5152.05
849.398	5143.81
849.78	5334.74
850.162	5284.78
850.544	5345.43
850.926	5457.31
851.307	5361.69
851.689	5362.19
852.071	5410.91
852.452	5439.66
852.834	5384.25
853.215	5447.31
853.597	5441.04
853.978	5481.86
854.359	5562.87
854.741	5303.98
855.122	5284.93
855.503	5238.14
855.884	5291.36
856.265	5292.34
856.646	5319.1
857.026	5220.41
857.407	5194.88
857.788	5218.09
858.169	5266.56
858.549	5039.19
858.93	5173.82
859.31	5160.81
859.69	5185.88
860.071	5060.67
860.451	4979.39
860.831	4778.08
861.211	5020.8
861.591	5111.9
861.971	5069.83
862.351	5074.49
862.731	5102.25
863.111	5100.82
863.491	5109.8
863.87	5232.84
864.25	5239.14
864.629	5093.76
865.009	5142.7
865.388	5270.15
865.768	5598.29
866.147	5531.05
866.526	5190.73
866.905	5237.38
867.284	5520.13
867.663	5241.31
868.042	5024.83
868.421	5010.83
868.8	5074.72
869.179	5122.53
869.558	4817.59
869.936	4431.11
870.315	4492.27
870.693	4586.4
871.072	4922.31
871.45	4666.5
871.828	4704.22
872.207	4927.18
872.585	4837.27
872.963	4952.55
873.341	4756.24
873.719	4687.04
874.097	4611
874.475	4682.72
874.853	4768.62
875.23	4556.54
875.608	4730.09
875.986	5100.08
876.363	4860.29
876.741	4984.82
877.118	4843.12
877.495	5057.44
877.873	5101.09
878.25	5333.52
878.627	5095.89
879.004	5139.83
879.381	5092.21
879.758	4939.94
880.135	4574.54
880.512	4815.97
880.889	4662.32
881.265	4597.46
881.642	4535.15
882.019	4601.24
882.395	4495.51
882.772	4655.86
883.148	4437.27
883.524	4396.98
883.901	4345.06
884.277	4381.35
884.653	4318.94
885.029	4421.5
885.405	4879.69
885.781	4820.87
886.157	4592.78
886.532	4619.57
886.908	4591.71
887.284	5078.43
887.659	5221.54
888.035	5361.5
888.411	5474.79
888.786	5534.86
889.161	5693.9
889.537	5535.89
889.912	5671.18
890.287	5620.53
890.662	5717.23
891.037	5550.57
891.412	5118.19
891.787	5000.87
892.162	4766.8
892.536	4805.84
892.911	4538.16
893.286	4354.86
893.66	4094.63
894.035	4110.76
894.409	4368.18
894.784	4096.24
895.158	4068.28
895.532	4201.78
895.906	4206.44
896.281	4187.03
896.655	4014.32
897.029	4476.74
897.402	4572.82
897.776	4994.98
898.15	4887.74
898.524	4757.37
898.898	4742.62
899.271	5247.58
899.645	4513.36
900.018	4308.61
900.392	4464.58
900.765	4514.43
901.138	4219.75
901.511	4188.75
901.884	3895.52
902.258	3650.87
902.631	3845.58
903.003	4490.64
903.376	4100.53
903.749	4644.85
904.122	5013.92
904.495	5539.11
904.867	5611.85
905.24	4833.27
905.612	4454.29
905.985	4489.14
906.357	4608.32
906.729	4305.85
907.102	3618.14
907.474	3416.56
907.846	3379.72
908.218	3281.07
908.59	2868.09
908.962	2744.04
909.334	2933.32
909.705	3063.75
910.077	2956.49
910.449	3057.42
910.82	3133.27
911.192	3423.11
911.563	3537.35
911.935	3758.36
912.306	3743.81
912.677	3837.02
913.048	3776.64
913.419	4069.56
913.79	4054.53
914.161	4328.57
914.532	4125.88
914.903	3762
915.274	3557.61
915.645	3505.36
916.015	3080.82
916.386	2947.1
916.756	3142.66
917.127	3252.56
917.497	2929.13
917.868	3226.23
918.238	3093.75
918.608	3206.57
918.978	3318.87
919.348	3554.74
919.718	3719.55
920.088	3625.23
920.458	3809.48
920.828	4039.36
921.198	3851.62
921.567	4111.72
921.937	3180.91
922.306	3194.37
922.676	3443.13
923.045	2880.44
923.415	2726.77
923.784	2471.58
924.153	2527.76
924.522	2500.21
924.891	2323.65
925.26	2463.51
925.629	2380.18
925.998	2690.24
926.367	2598.26
926.736	2446.75
927.104	2826.76
927.473	2955.18
927.842	3440.53
928.21	3279.25
928.578	3306.13
928.947	3021.53
929.315	2902.23
929.683	3254.52
930.051	3130.21
930.42	3414.74
930.788	2736.04
931.156	2565.84
931.523	2308.17
931.891	2012.53
932.259	1845.55
932.627	2031.46
932.994	2691.51
933.362	2163.39
933.729	1789.27
934.097	1651.79
934.464	1390.27
934.831	1555.62
935.199	1516.9
935.566	1452.44
935.933	1534.48
936.3	1854.05
936.667	1464.35
937.034	1427.32
937.401	1437.65
937.767	1285.03
938.134	1181.42
938.501	1706.76
938.867	1933.45
939.234	3413.32
939.6	2982.66
939.967	3327.28
940.333	2342.79
940.699	2067.14
941.065	1641.58
941.431	2195.19
941.798	2227.46
942.163	3018.05
942.529	1901.84
942.895	1733.39
943.261	1141.91
943.627	1501.23
943.992	1294.21
944.358	1280.55
944.723	1303.8
945.089	1272.74
945.454	1178.16
945.82	1211.74
946.185	1140.38
946.55	1326.29
946.915	1194.92
947.28	1371.12
947.645	1212.82
948.01	1152.15
948.375	1220.64
948.74	1433.72
949.104	1639.67
949.469	2300.98
949.834	4105.49
950.198	4032.81
950.562	2412.33
950.927	2000.9
951.291	2385.98
951.655	2019.15
952.02	1845.76
952.384	1389.67
952.748	1222.55
953.112	1220.48
953.476	1070.72
953.839	968.74
954.203	956.03
954.567	1193.04
954.931	1806.84
955.294	1566.81
955.658	1564.27
956.021	2664.22
956.385	4431.12
956.748	6524.88
957.111	9900.25
957.474	10912.66
957.837	12320.68
958.2	9071.88
958.563	3237.08
958.926	2266
959.289	3410.69
959.652	3850.18
960.015	2922.76
960.377	4188.48
960.74	4766.88
961.102	8235.99
961.465	9074.19
961.827	5289.53
962.189	10266.98
962.552	7281.56
962.914	5917.04
963.276	3881.7
963.638	3263.69
964	3239.55
964.362	2233.81
964.724	2158.94
965.085	1569.5
965.447	1306.75
965.809	1408.64
966.17	1404.98
966.532	1532.81
966.893	1426.29
967.255	1302.52
967.616	1536.97
967.977	1268.66
968.338	1410.86
968.699	1220.59
969.061	1243.51
969.421	1271.88
969.782	1458.29
970.143	1276.39
970.504	1368.01
970.865	1576.55
971.225	1662.37
971.586	1655.83
971.946	2343.81
972.307	2038.25
972.667	2607.58
973.027	2688.51
973.388	3221.54
973.748	2204.67
974.108	2398.11
974.468	3142.1
974.828	2462.38
975.188	1850.82
975.548	1682.21
975.907	1415.95
976.267	1560.15
976.627	1328.36
976.986	1365.62
977.346	1302.09
977.705	1249.86
978.064	1145.05
978.424	965.64
978.783	966.99
979.142	1123.38
979.501	1090.2
979.86	1159.19
980.219	1133.72
980.578	1442.5
980.937	1618.33
981.296	1484.05
981.654	1533.96
982.013	2381.6
982.371	3125.01
982.73	2947.73
983.088	3336.01
983.447	3597.91
983.805	5210.4
984.163	11087.24
984.521	12472.08
984.879	18298.61
985.237	-29889.44
985.595	29491.44
985.953	7360.6
986.311	4249.05
986.669	2525.29
987.026	2196.2
987.384	2927.13
987.741	3015.15
988.099	2205.97
988.456	1786.43
988.814	1710.98
989.171	1491.86
989.528	1434.17
989.885	1510.08
990.242	1228.77
990.599	1496.72
990.956	1241.23
991.313	890.37
991.67	742.31
992.027	812.63
992.383	727.55
992.74	644.01
993.096	692.15
993.453	738.48
993.809	766.68
994.165	1009.63
994.522	989.89
994.878	1091.12
995.234	1371.33
995.59	1373.65
995.946	1259.49
996.302	1444.87
996.658	1671.26
997.013	1815.96
997.369	2180.64
997.725	2851.68
998.08	1842.98
998.436	2684.71
998.791	3722.77
999.147	3721.4
999.502	4094.7
999.857	2963.9
1000.212	4807.8
1000.567	6965.01
1000.922	4000.18
1001.277	2563.46
1001.632	1886.31
1001.987	2490.6
1002.342	1800.29
1002.696	1488.8
1003.051	1214.31
1003.406	1483.89
1003.76	1474.32
1004.114	1486.5
1004.469	1271.3
1004.823	1074.46
1005.177	1142.51
1005.531	910.78
1005.885	813.99
1006.239	943.05
1006.593	1162.9
1006.947	1552.16
1007.301	1133.62
1007.655	1253.92
1008.008	924.49
1008.362	1003.26
1008.715	1443.98
1009.069	1323.63
1009.422	2091.01
1009.776	4144.28
1010.129	2703.69
1010.482	2243.72
1010.835	1891.34
1011.188	4014.52
1011.541	3818.59
1011.894	-23205.58
1012.247	70882.67
1012.6	4773.66
1012.952	3044.95
1013.305	1524.33
1013.657	1113.84
1014.01	1083.88
1014.362	913.27
1014.715	861.99
1015.067	761.08
1015.419	748.88
1015.771	679.4
1016.123	615.54
1016.475	651.14
1016.827	690.18
1017.179	772.61
1017.531	794.11
1017.883	804.46
1018.234	826.53
1018.586	1011.72
1018.938	1107.69
1019.289	1544.01
1019.64	1721.24
1019.992	1589.63
1020.343	1421.33
1020.694	1201.6
1021.045	1028.53
1021.396	1159.79
1021.747	1283.82
1022.098	1477.54
1022.449	1115.46
1022.8	1030.82
1023.151	736.09
1023.501	691
1023.852	759.72
1024.202	817.91
1024.553	872.8
1024.903	893.73
1025.253	794.83
1025.604	720.21
1025.954	884.37
1026.304	1046.58
1026.654	1244.17
1027.004	1795.43
1027.354	2830.76
1027.703	2794.96
1028.053	3706.98
1028.403	5700.54
1028.753	8143.37
1029.102	10619.66
1029.452	52824.39
1029.801	2253.08
1030.15	1477.11
1030.499	1206.33
897.758	1764.59
901.051	1701.95
904.343	1733.29
907.636	1738.31
910.928	1790.47
914.22	1725.62
917.511	1729.83
920.803	1764.97
924.094	1757.49
927.384	1765.73
930.675	1733.96
933.965	1707.46
937.255	1737.96
940.544	1714.4
943.834	1705.2
947.123	1656.19
950.411	1728.24
953.7	1714.43
956.988	1706.93
960.276	1647.66
963.563	1677.75
966.851	1687.72
970.138	1719.83
973.424	1719.98
976.711	1677.09
979.997	1719.63
983.283	1752.73
986.568	1700.12
989.853	1684.87
993.138	1702.94
996.423	1777.58
999.708	1747.83
1002.992	1770.81
1006.275	1694.66
1009.559	1697.35
1012.842	1773.91
1016.125	1737.8
1019.408	1720.41
1022.69	1759.05
1025.972	1788.42
1029.254	1768.75
1032.536	1742.5
1035.817	1745.53
1039.098	1720.78
1042.379	1758.5
1045.659	1777.67
1048.939	1736.85
1052.219	1735.38
1055.498	1726.97
1058.778	1722.28
1062.057	1701.07
1065.335	1721.29
1068.614	1725.33
1071.892	1723.09
1075.17	1763.92
1078.447	1767.06
1081.724	1762.59
1085.001	1779.21
1088.278	1763.48
1091.554	1763.06
1094.83	1761.5
1098.106	1787.68
1101.382	1808.12
1104.657	1807.63
1107.932	1808.63
1111.206	1787.96
1114.481	1747.77
1117.755	1750.01
1121.029	1746.93
1124.302	1794.93
1127.575	1771.56
1130.848	1769.3
1134.121	1748.02
1137.393	1718.03
1140.665	1764.17
1143.937	1745.59
1147.208	1704.19
1150.48	1753.87
1153.75	1741.75
1157.021	1738.57
1160.291	1720.31
1163.561	1762.07
1166.831	1731.27
1170.101	1749.71
1173.37	1714.27
1176.639	1683.64
1179.907	1717.08
1183.176	1735.56
1186.444	1739.01
1189.711	1757.31
1192.979	1777.63
1196.246	1744.35
1199.513	1754.95
1202.78	1761.54
1206.046	1767.91
1209.312	1794.95
1212.578	1802.83
1215.843	1778.92
1219.108	1756.07
1222.373	1773.53
1225.638	1755.16
1228.902	1751.3
1232.166	1714.5
1235.43	1707.34
1238.693	1729.66
1241.956	1724
1245.219	1764.15
1248.482	1750.96
1251.744	1750.61
1255.006	1841.15
1258.268	1797.39
1261.529	1766.38
1264.79	1762.89
1268.051	1838.81
1271.312	1844.4
1274.572	1819.94
1277.832	1809.65
1281.092	1790.76
1284.351	1786.81
1287.61	1775.11
1290.869	1727.94
1294.128	1728.29
1297.386	1755.01
1300.644	1750.7
1303.902	1759.91
1307.159	1656.33
1310.416	1695.09
1313.673	1717.31
1316.93	1721.33
1320.186	1742.66
1323.442	1766.95
1326.697	1769.98
1329.953	1747.22
1333.208	1781.01
1336.463	1762.19
1339.717	1736.91
1342.972	1819.13
1346.226	1797.52
1349.479	1764.19
1352.733	1747.63
1355.986	1752.9
1359.238	1738.82
1362.491	1744.33
1365.743	1747.05
1368.995	1741.64
1372.247	1752.62
1375.498	1768.25
1378.749	1809.96
1382	1772.77
1385.251	1796.05
1388.501	1760.94
1391.751	1765.09
1395	1743.18
1398.25	1762.99
1401.499	1787.73
1404.748	1752.65
1407.996	1735.56
1411.244	1728.34
1414.492	1718.18
1417.74	1708.88
1420.987	1714.75
1424.234	1763.05
1427.481	1726.88
1430.728	1771.48
1433.974	1754.07
1437.22	1748.77
1440.465	1742.36
1443.711	1749.91
1446.956	1765.26
1450.201	1738.82
1453.445	1772.19
1456.689	1762.07
1459.933	1769.33
1463.177	1803.73
1466.42	1782.99
1469.663	1767.09
1472.906	1781.11
1476.148	1818.83
1479.391	1782.89
1482.633	1765.99
1485.874	1785.77
1489.115	1792.46
1492.356	1777.49
1495.597	1759.45
1498.838	1749.33
1502.078	1738.45
1505.318	1720.99
1508.557	1743.05
1511.797	1741.49
1515.036	1783.2
1518.274	1751.16
1521.513	1706.83
1524.751	1713.19
1527.989	1731.62
1531.227	1745.56
1534.464	1758.78
1537.701	1746.98
1540.938	1752.12
1544.174	1709.35
1547.41	1695.73
1550.646	1725.63
1553.882	1764.61
1557.117	1809.81
1560.352	1814.6
1563.587	1783.4
1566.821	1759.33
1570.055	1766.78
1573.289	1752.73
1576.523	1793.96
1579.756	1806.77
1582.989	1823.58
1586.222	1786.64
1589.454	1811.74
1592.686	1799.97
1595.918	1818.85
1599.15	1815.59
1602.381	1847.21
1605.612	1838.33
1608.843	1906.41
1612.073	1846.23
1615.303	1839.01
1618.533	1836.2
1621.762	1838.88
1624.992	1813.5
1628.221	1816.96
1631.449	1807.63
1634.678	1824.2
1637.906	1799.07
1641.134	1814.99
1644.361	1789.17
1647.588	1783.61
1650.815	1802.07
1654.042	1770.58
1657.269	1790.04
1660.495	1779.56
1663.72	1762.75
1666.946	1738.13
1670.171	1725.97
1673.396	1703.26
1676.621	1689.68
1679.845	1683.36
1683.069	1685.24
1686.293	1704.94
1689.517	1702.96
1692.74	1670.1
1695.963	1684.68
1699.185	1719.87
1702.408	1702.86
1705.63	1721.95
1708.852	1737.63
1712.073	1713.93
1715.294	1731.08
1718.515	1764.51
1721.736	1734.19
1724.956	1716.44
1728.176	1734.23
1731.396	1750.66
1734.616	1742.37
1737.835	1774.03
1741.054	1748.15
1744.272	1744.11
1747.491	1780.01
1750.709	1792.52
1753.927	1761.32
1757.144	1781.61
1760.361	1830.57
1763.578	1804.17
1766.795	1766.55
1770.011	1755.1
1773.227	1770.66
1776.443	1807.28
1779.658	1840.04
1782.874	1792.59
1786.089	1790.35
1789.303	1791.84
1792.518	1785.66
1795.732	1778.11
1798.945	1794.49
1802.159	1828.24
1805.372	1789.46
1808.585	1787.28
1811.797	1787.95
1815.01	1804.03
1818.222	1829.44
1821.434	1792.24
1824.645	1821.43
1827.856	1835
1831.067	1855.96
1834.278	1805.83
1837.488	1793.9
1840.698	1887.55
1843.908	1848.11
1847.117	1825.45
1850.326	1772.78
1853.535	1813.85
1856.744	1848.44
1859.952	1791.99
1863.16	1793.75
1866.368	1811.06
1869.575	1905.06
1872.782	1810.08
1875.989	1762.31
1879.196	1796.56
1882.402	1793.56
1885.608	1821.64
1888.814	1783.7
1892.019	1716.32
1895.224	1761.16
1898.429	1733.55
1901.634	1719.66
1904.838	1702.91
1908.042	1755.55
1911.246	1766.52
1914.449	1743.7
1917.652	1724.71
1920.855	1708.72
1924.058	1725.66
1927.26	1765.72
1930.462	1781.02
1933.664	1815.79
1936.865	1772.69
1940.066	1784.24
1943.267	1738.61
1946.467	1745.9
1949.668	1757.84
1952.868	1817.86
1956.067	1813.27
1959.267	1764.27
1962.466	1782.62
1965.665	1767.24
1968.863	1763.96
1972.061	1762.01
1975.259	1755.48
1978.457	1817.88
1981.654	1781.88
1984.852	1785.54
1988.048	1750.42
1991.245	1738.31
1994.441	1815.73
1997.637	1769.55
2000.833	1755.3
2004.028	1781.91
2007.223	1835.51
2010.418	1828.39
2013.613	1783.66
2016.807	1787.59
2020.001	1777.4
2023.194	1791.27
2026.388	1780.73
2029.581	1730.07
2032.774	1788.95
2035.966	1798.72
2039.158	1758.21
2042.35	1771.45
2045.542	1712.25
2048.733	1777.89
2051.924	1761.84
2055.115	1775.16
2058.306	1751.48
2061.496	1792.12
2064.686	1832.49
2067.875	1752.58
2071.065	1750.16
2074.254	1761.68
2077.442	1725.89
2080.631	1790.93
2083.819	1742.69
2087.007	1739.37
2090.195	1729.49
2093.382	1736.96
2096.569	1728.25
2099.756	1697.28
2102.942	1743.61
2106.128	1756.66
2109.314	1747.85
2112.5	1740.78
2115.685	1713.5
2118.87	1718.82
2122.055	1769.83
2125.239	1753.31
2128.424	1747.64
2131.608	1784.51
2134.791	1770.7
2137.974	1796.03
2141.157	1789.71
2144.34	1771.56
2147.523	1754.43
2150.705	1778.88
2153.887	1749.93
2157.068	1732.28
2160.25	1711.15
2163.431	1728.34
2166.611	1708.27
2169.792	1728.53
2172.972	1658.82
2176.152	1696.29
2179.331	1713.99
2182.511	1723.62
2185.69	1739.06
2188.868	1743.76
2192.047	1769.64
2195.225	1793.54
2198.403	1746.62
2201.58	1737.35
2204.758	1718.92
2207.935	1780.1
2211.111	1716.23
2214.288	1708.48
2217.464	1734.16
2220.64	1695.38
2223.815	1735.84
2226.991	1679.47
2230.166	1689.83
2233.34	1731.4
2236.515	1737.09
2239.689	1794.17
2242.863	1752.05
2246.036	1794.66
2249.209	1781.79
2252.382	1794.48
2255.555	1806.44
2258.727	1769.75
2261.9	1793.69
2265.071	1788.92
2268.243	1786.22
2271.414	1748.92
2274.585	1739.1
2277.756	1790.25
2280.926	1755.8
2284.096	1773.17
2287.266	1720.94
2290.436	1760.17
2293.605	1772.55
2296.774	1806.26
2299.942	1806.78
2303.111	1816.44
2306.279	1861.35
2309.447	1849.37
2312.614	1828.4
2315.781	1845.36
2318.948	1827.57
2322.115	1858.9
2325.281	1772.11
2328.447	1778.28
2331.613	1750.42
2334.779	1748.54
2337.944	1743.92
2341.109	1745.82
2344.274	1738.64
2347.438	1709.22
2350.602	1729.7
2353.766	1737.06
2356.929	1729.6
2360.092	1759.58
2363.255	1738.21
2366.418	1720.11
2369.58	1754.68
2372.742	1705.5
2375.904	1686.15
2379.066	1678.03
2382.227	1695.93
2385.388	1662.23
2388.548	1627.07
2391.709	1656.85
2394.869	1654.81
2398.029	1688.09
2401.188	1675.73
2404.347	1661.62
2407.506	1680.48
2410.665	1729.15
2413.823	1708.09
2416.981	1697.07
2420.139	1708.77
2423.296	1741.56
2426.453	1718.35
2429.61	1736.2
2432.767	1722.44
2435.923	1758.98
2439.079	1706.66
2442.235	1732.26
2445.391	1683.31
2448.546	1724.4
2451.701	1750.75
2454.855	1750.59
2458.009	1769.84
2461.163	1757.44
2464.317	1732.98
2467.471	1753.07
2470.624	1775.82
2473.777	1774.92
2476.929	1790.41
2480.082	1806.97
2483.234	1789.79
2486.385	1738.86
2489.537	1734.37
2492.688	1730.37
2495.839	1746.77
2498.989	1759.95
2502.14	1748.47
2505.29	1742.45
2508.439	1760.82
2511.589	1715.82
2514.738	1713.44
2517.887	1729.02
2521.035	1791.99
2524.183	1753.51
2527.331	1747.43
2530.479	1745.39
2533.627	1745.76
