Data from N_1_DEC_ON_6N_Splice17_11-22-40-794.txt Node
Date: Sat Mar 14 11:22:40 EDT 2020
User: sa697716
Spectrometer: FLMS03696
Trigger mode: 0
Integration Time (sec): 3.180400E-1
Scans to average: 20
Electric dark correction enabled: true
Nonlinearity correction enabled: true
Boxcar width: 5
XAxis mode: Wavelengths
Number of Pixels in Spectrum: 2048
>>>>>Begin Spectral Data<<<<<
187.83	-61648.76
188.298	569.34
188.766	389.06
189.233	340.89
189.701	544.28
190.169	753.86
190.636	322.04
191.104	305.35
191.571	90.08
192.039	3.45
192.506	29.19
192.974	364.9
193.441	-516.91
193.908	-108.42
194.375	26.24
194.842	60.52
195.31	130.48
195.777	127.36
196.244	183.02
196.711	131.91
197.177	155.7
197.644	169.52
198.111	233.4
198.578	312.18
199.045	234.02
199.511	342.73
199.978	383.65
200.445	314.25
200.911	324.52
201.378	347.35
201.844	327.95
202.31	472.64
202.777	461.43
203.243	256.75
203.709	242.2
204.176	300.66
204.642	247.62
205.108	221.26
205.574	181
206.04	154.08
206.506	148.6
206.972	130.1
207.438	130.79
207.903	154.39
208.369	152.53
208.835	155.71
209.301	156
209.766	134.49
210.232	141.95
210.697	183.26
211.163	212.09
211.628	293.45
212.094	293.92
212.559	410.41
213.024	253.5
213.49	326.52
213.955	319.35
214.42	282.58
214.885	285.64
215.35	274.02
215.815	296.23
216.28	304.75
216.745	226.09
217.21	232.3
217.675	173.52
218.14	190.14
218.604	169.17
219.069	173.68
219.534	208.02
219.998	212.16
220.463	225.11
220.927	192.32
221.392	166.2
221.856	169.41
222.32	157.43
222.785	186.32
223.249	204.36
223.713	219.87
224.177	202.74
224.642	180.54
225.106	141.92
225.57	146.64
226.034	122.68
226.497	185.45
226.961	233.68
227.425	296.92
227.889	296.23
228.353	271.8
228.816	457.57
229.28	416.05
229.744	304.44
230.207	300.1
230.671	291.89
231.134	410.24
231.597	505.72
232.061	390.21
232.524	351.84
232.987	277.08
233.45	278.2
233.914	268.91
234.377	241.01
234.84	229.97
235.303	236.57
235.766	280.78
236.229	297.48
236.691	193.81
237.154	192.08
237.617	153.16
238.08	145.65
238.542	153.23
239.005	123.88
239.468	134.97
239.93	134.04
240.393	111.22
240.855	95.73
241.317	71.87
241.78	58.1
242.242	77.72
242.704	113.86
243.166	95.82
243.629	113.25
244.091	132.83
244.553	143.02
245.015	171.74
245.477	242.7
245.939	336.04
246.4	400.04
246.862	394.62
247.324	366.69
247.786	335.83
248.247	401.61
248.709	296.54
249.17	215.09
249.632	273.89
250.093	343.87
250.555	265.48
251.016	187.94
251.477	198.72
251.939	206.81
252.4	189.51
252.861	232.65
253.322	252.46
253.783	290.71
254.244	333.43
254.705	217.42
255.166	132.23
255.627	128.65
256.088	178.39
256.549	151.95
257.009	142.6
257.47	189.84
257.931	140.64
258.391	119.97
258.852	114.65
259.312	127.06
259.773	130.21
260.233	185.45
260.694	184.04
261.154	174.11
261.614	191.32
262.074	170.1
262.534	189.69
262.994	195.22
263.455	235.59
263.915	228.06
264.374	206.39
264.834	225.19
265.294	210.11
265.754	216.57
266.214	216.45
266.673	185.91
267.133	211.64
267.593	189.65
268.052	210.94
268.512	163.27
268.971	243.82
269.431	292.32
269.89	249.54
270.349	370.27
270.809	397.32
271.268	346.86
271.727	622.03
272.186	464.13
272.645	349.35
273.104	210.53
273.563	308.26
274.022	154.79
274.481	168.48
274.94	164
275.399	102.62
275.857	90.05
276.316	110.44
276.775	115.2
277.233	96.41
277.692	110.9
278.15	156.63
278.609	201.53
279.067	202.49
279.525	192.05
279.984	217.2
280.442	286.61
280.9	361.43
281.358	236.7
281.816	224.49
282.274	225.05
282.732	203.3
283.19	188.7
283.648	137.25
284.106	122.24
284.564	104.87
285.021	130.92
285.479	92.93
285.937	62.25
286.394	81.04
286.852	81.8
287.309	78.03
287.767	115.78
288.224	119.43
288.682	131.08
289.139	184.43
289.596	173.54
290.053	144.33
290.511	167.2
290.968	218.41
291.425	270.49
291.882	257.17
292.339	259.88
292.796	215.35
293.252	188.64
293.709	182.8
294.166	148.52
294.623	146.16
295.079	142.68
295.536	149.16
295.992	136.58
296.449	130.35
296.905	143.69
297.362	149.43
297.818	148.86
298.274	177.76
298.731	165.8
299.187	147.88
299.643	177.09
300.099	216.53
300.555	261.31
301.011	239.26
301.467	274.56
301.923	265.26
302.379	261.98
302.835	276.29
303.291	268.55
303.746	285.01
304.202	308.5
304.658	285.78
305.113	223.48
305.569	215.26
306.024	201.85
306.479	131.03
306.935	141.67
307.39	122.65
307.845	115.56
308.301	118.83
308.756	117.92
309.211	164.04
309.666	162.12
310.121	213.11
310.576	202.57
311.031	164.42
311.486	163.21
311.94	117.6
312.395	135.48
312.85	140.93
313.305	186.69
313.759	6515.86
314.214	329.83
314.668	263.77
315.123	191.27
315.577	131.25
316.032	133.97
316.486	167.57
316.94	172.37
317.394	160.9
317.849	130.87
318.303	126.85
318.757	103.02
319.211	113.82
319.665	119.76
320.119	125.84
320.572	134.96
321.026	156.11
321.48	142.93
321.934	138.3
322.387	120.19
322.841	165.1
323.295	186.61
323.748	186.65
324.202	208.49
324.655	257.5
325.108	394.67
325.562	309.54
326.015	326.41
326.468	253.05
326.921	318.84
327.374	341.41
327.827	348.29
328.28	368.21
328.733	253.89
329.186	216.59
329.639	195.77
330.092	150.74
330.545	150.53
330.997	173.84
331.45	209.18
331.903	245.8
332.355	322.69
332.808	285.21
333.26	238.49
333.713	282.99
334.165	299.01
334.617	370.04
335.069	248.75
335.522	395.59
335.974	339.96
336.426	222.13
336.878	73.06
337.33	74.55
337.782	67.47
338.234	92.92
338.686	82.83
339.137	51.49
339.589	4.52
340.041	40.8
340.493	12.58
340.944	30.92
341.396	54.56
341.847	85.48
342.299	125.69
342.75	207.23
343.201	148.15
343.653	142.79
344.104	185.98
344.555	170.39
345.006	214.56
345.457	260.16
345.908	180.33
346.359	178.72
346.81	136.84
347.261	116.85
347.712	82.91
348.163	76.67
348.613	123.01
349.064	107.46
349.515	101.07
349.965	116.39
350.416	93.27
350.866	112.69
351.317	91.93
351.767	134.99
352.217	169.03
352.668	154.36
353.118	179.43
353.568	74.78
354.018	125.55
354.468	155.6
354.918	127.95
355.368	126.36
355.818	172.66
356.268	447.87
356.718	2000.58
357.168	608.29
357.617	276.78
358.067	275.42
358.517	301.43
358.966	387.87
359.416	467.67
359.865	484.22
360.315	515.45
360.764	281.47
361.213	188.47
361.663	161.96
362.112	157.68
362.561	250.33
363.01	222
363.459	183.84
363.908	151.51
364.357	144.62
364.806	145.71
365.255	109.67
365.703	83.24
366.152	52.54
366.601	39.7
367.05	60.13
367.498	89.18
367.947	61.35
368.395	57.29
368.844	74.43
369.292	55.6
369.74	69.77
370.189	84.12
370.637	127.63
371.085	138.58
371.533	167.98
371.981	112.68
372.429	121.87
372.877	134.9
373.325	118.51
373.773	86.29
374.221	58.2
374.669	57.95
375.116	55.15
375.564	31.83
376.012	5
376.459	21.76
376.907	55.93
377.354	33.09
377.801	81.6
378.249	131.92
378.696	156.55
379.143	248.37
379.591	275.58
380.038	461.58
380.485	404.14
380.932	441.73
381.379	506.57
381.826	440.79
382.273	284.86
382.72	208.12
383.166	193.07
383.613	144.2
384.06	121.59
384.506	137.61
384.953	112.23
385.4	98.4
385.846	85.11
386.292	60.08
386.739	34.18
387.185	30.23
387.631	30.08
388.078	46.77
388.524	41.59
388.97	45.47
389.416	41.33
389.862	43.03
390.308	39.26
390.754	56.68
391.2	56.59
391.645	47.55
392.091	81.97
392.537	89.85
392.983	78.49
393.428	105.08
393.874	104
394.319	118.9
394.765	132.23
395.21	130.2
395.655	113
396.101	110.97
396.546	114.48
396.991	91.34
397.436	89.38
397.881	78.1
398.326	58.21
398.771	65.21
399.216	54.63
399.661	42.18
400.106	45.82
400.551	48.55
400.995	44.91
401.44	47.31
401.885	47
402.329	46.25
402.774	48.04
403.218	54.09
403.663	50.81
404.107	53.14
404.551	55.47
404.995	50.38
405.44	45.49
405.884	46.24
406.328	40.12
406.772	35.8
407.216	31.4
407.66	29.97
408.104	20.83
408.547	18.6
408.991	16.72
409.435	15.03
409.879	20.4
410.322	22.03
410.766	21.93
411.209	22.06
411.653	21.42
412.096	22.37
412.54	19.04
412.983	19.57
413.426	22.07
413.869	20.34
414.312	22.09
414.756	19.98
415.199	20.15
415.642	20.62
416.085	20.33
416.527	20.74
416.97	18.69
417.413	21.59
417.856	19.83
418.298	17.8
418.741	17
419.184	14.53
419.626	8.5
420.069	7.76
420.511	6.91
420.953	10.17
421.396	11.65
421.838	11.16
422.28	10.37
422.722	12.77
423.164	12.89
423.606	12.32
424.048	10.76
424.49	14.14
424.932	12.14
425.374	10.57
425.816	7.76
426.258	6.74
426.699	6.96
427.141	6.33
427.582	6.36
428.024	5.46
428.465	3.52
428.907	4.66
429.348	4.82
429.789	5.31
430.231	9.8
430.672	8.85
431.113	8.18
431.554	9.66
431.995	9.94
432.436	11.16
432.877	11.48
433.318	14.29
433.759	12.23
434.2	10.84
434.64	11.64
435.081	9.61
435.522	11.51
435.962	13.04
436.403	13.48
436.843	12.4
437.284	9.79
437.724	8.12
438.164	5.59
438.604	7.37
439.045	10.18
439.485	10.96
439.925	10.53
440.365	10.15
440.805	8.19
441.245	8.96
441.685	8.48
442.125	7.79
442.564	7.24
443.004	8.15
443.444	8.01
443.883	7.55
444.323	5.56
444.762	2.88
445.202	1.34
445.641	3.86
446.081	0.17
446.52	1.19
446.959	2.04
447.398	4.5
447.837	5.02
448.276	4.09
448.716	4.33
449.154	2.56
449.593	4.39
450.032	4.28
450.471	0.84
450.91	1.2
451.349	2.16
451.787	2.09
452.226	0.26
452.664	0.02
453.103	-0.5
453.541	-1.56
453.98	2
454.418	1.96
454.856	4.38
455.295	5.86
455.733	6.76
456.171	5.88
456.609	7.65
457.047	8.83
457.485	9.2
457.923	11.05
458.361	9.61
458.798	8.84
459.236	9.12
459.674	7.37
460.111	7.7
460.549	7.68
460.987	7.69
461.424	5.88
461.862	5.76
462.299	6.42
462.736	6.97
463.173	7.66
463.611	9.83
464.048	9.64
464.485	10.31
464.922	9.29
465.359	9.49
465.796	15.46
466.233	16.68
466.67	18.3
467.106	19.5
467.543	18.08
467.98	17.13
468.416	14.84
468.853	14.32
469.29	13.91
469.726	14.55
470.162	13.75
470.599	8.19
471.035	6.56
471.471	5.87
471.907	2.83
472.344	2.79
472.78	3.49
473.216	2.64
473.652	2.66
474.088	1.45
474.523	1.24
474.959	0.8
475.395	1.01
475.831	2.22
476.266	1.34
476.702	1.62
477.138	2.56
477.573	2.17
478.008	2.58
478.444	3.93
478.879	5.27
479.314	5.97
479.75	6.55
480.185	6.26
480.62	5.1
481.055	5.55
481.49	6.45
481.925	6.24
482.36	8.33
482.795	7.5
483.229	5.81
483.664	5.28
484.099	4.69
484.534	5.01
484.968	5.12
485.403	5.18
485.837	4.03
486.271	3.8
486.706	3.54
487.14	2.19
487.574	3.2
488.009	3.17
488.443	2.84
488.877	3.26
489.311	2.3
489.745	2.33
490.179	2.76
490.613	4.43
491.046	3.77
491.48	3.49
491.914	4.09
492.348	3.52
492.781	3.79
493.215	4.07
493.648	3.11
494.082	2.93
494.515	3.48
494.948	3.67
495.382	1.92
495.815	2.44
496.248	2.29
496.681	1.3
497.114	0.92
497.547	1.32
497.98	1.98
498.413	3.07
498.846	3.78
499.279	3.06
499.711	3
500.144	3.25
500.577	4.04
501.009	3.89
501.442	4.84
501.874	5.55
502.306	5.07
502.739	6.4
503.171	6.39
503.603	6.31
504.036	6.77
504.468	7
504.9	7.72
505.332	6.77
505.764	7.35
506.196	6.84
506.627	6.43
507.059	6.2
507.491	4.24
507.923	3.87
508.354	4.35
508.786	4.06
509.217	3.73
509.649	3.13
510.08	3.24
510.512	3.8
510.943	3.79
511.374	4.28
511.805	4.14
512.237	3.87
512.668	3.3
513.099	2.43
513.53	2.24
513.961	2.63
514.391	2.77
514.822	3.68
515.253	3.45
515.684	3.47
516.114	3.31
516.545	3.77
516.975	4.16
517.406	4.2
517.836	4.06
518.267	4.44
518.697	4.81
519.127	4.74
519.558	3.82
519.988	3.49
520.418	3.37
520.848	2.97
521.278	2.88
521.708	30.93
522.138	32.15
522.567	31.79
522.997	31.75
523.427	30.87
523.857	30.8
524.286	30.96
524.716	30.84
525.145	31.08
525.575	31.6
526.004	31.18
526.433	3.49
526.863	2.39
527.292	3.68
527.721	4.11
528.15	4.31
528.579	4.77
529.008	4.65
529.437	4.15
529.866	3.86
530.295	3.48
530.724	4.32
531.152	4.12
531.581	5
532.01	4.42
532.438	3.57
532.867	3
533.295	3.07
533.723	3.41
534.152	4
534.58	4.28
535.008	4.11
535.436	4.86
535.865	5.43
536.293	4.25
536.721	4.31
537.149	4.52
537.576	5.33
538.004	5.44
538.432	4.85
538.86	5.35
539.287	5.13
539.715	5.49
540.143	4.46
540.57	4.42
540.998	4.87
541.425	6.19
541.852	6.23
542.28	6.24
542.707	5.49
543.134	5.57
543.561	5.3
543.988	5.35
544.415	5.03
544.842	4.8
545.269	4.47
545.696	4.92
546.123	3.97
546.549	3.86
546.976	4
547.403	4.29
547.829	4.23
548.256	3.69
548.682	3.68
549.108	4.8
549.535	4.95
549.961	4.76
550.387	4.52
550.813	5.65
551.24	5.79
551.666	5.2
552.092	4.93
552.518	4.7
552.943	5.51
553.369	5.35
553.795	4.93
554.221	4.86
554.646	4.56
555.072	5.23
555.498	3.27
555.923	2.81
556.349	3.09
556.774	3.33
557.199	3.42
557.625	2.54
558.05	3.05
558.475	2.93
558.9	3.1
559.325	4.05
559.75	3.87
560.175	4.5
560.6	5.04
561.025	4.57
561.449	4.22
561.874	4.22
562.299	5.35
562.723	4.97
563.148	4.72
563.572	4.34
563.997	3.85
564.421	2.62
564.846	2.67
565.27	2.72
565.694	2.96
566.118	3.34
566.542	4.18
566.966	4.1
567.39	4.19
567.814	4.75
568.238	4.77
568.662	4.12
569.086	4.49
569.509	4.09
569.933	5.34
570.357	5.13
570.78	5.09
571.204	5.57
571.627	4.75
572.05	4.65
572.474	4.83
572.897	5.25
573.32	6.24
573.743	6.22
574.166	6.82
574.589	5.39
575.012	5.81
575.435	5.81
575.858	4.85
576.281	4.95
576.704	4.77
577.126	3.71
577.549	3.61
577.972	2.76
578.394	3.48
578.817	4.65
579.239	4.36
579.661	3.93
580.084	4.77
580.506	5.14
580.928	4.71
581.35	4.77
581.772	4.94
582.194	4.67
582.616	4.72
583.038	3.62
583.46	2.26
583.882	2.52
584.303	2.31
584.725	1.5
585.147	4.8
585.568	5.22
585.99	5.58
586.411	6.65
586.833	7.08
587.254	7.75
587.675	7.33
588.096	7.51
588.518	7.6
588.939	8.04
589.36	8.07
589.781	3.95
590.202	6.17
590.623	6.55
591.043	5.17
591.464	5
591.885	4.7
592.305	5.05
592.726	4.44
593.147	4.44
593.567	4.26
593.987	3.8
594.408	3.38
594.828	1.01
595.248	0.92
595.669	1.39
596.089	1.08
596.509	1.33
596.929	1.41
597.349	2.3
597.769	2.5
598.189	3
598.608	3.38
599.028	3.73
599.448	3.63
599.867	3.39
600.287	3.09
600.706	3.65
601.126	3.68
601.545	4.58
601.965	3.92
602.384	3.98
602.803	3.65
603.222	3.86
603.641	3.79
604.061	4.23
604.48	4.45
604.898	4.3
605.317	3.7
605.736	3.26
606.155	3.21
606.574	3.34
606.992	3.03
607.411	2.92
607.829	2.71
608.248	2.52
608.666	1.68
609.085	1.19
609.503	1.69
609.921	2
610.339	2.06
610.758	1.57
611.176	1.78
611.594	2.16
612.012	2.26
612.43	2.28
612.847	2.1
613.265	3.42
613.683	3.83
614.101	4.13
614.518	3.56
614.936	3.42
615.353	3.99
615.771	4.03
616.188	3.91
616.606	3.67
617.023	3.95
617.44	4.61
617.857	3.15
618.274	2.8
618.691	2.55
619.108	3.1
619.525	3
619.942	2.43
620.359	2.45
620.776	2.82
621.192	3.6
621.609	4.24
622.026	4.63
622.442	5.41
622.859	5.26
623.275	5.4
623.691	5.49
624.108	6.41
624.524	6.61
624.94	6.48
625.356	5.78
625.772	5.02
626.188	3.8
626.604	3.54
627.02	3.4
627.436	3.51
627.852	4.2
628.268	4.4
628.683	4.25
629.099	4.25
629.514	3.44
629.93	3.16
630.345	3.13
630.761	3.3
631.176	2.93
631.591	4.58
632.007	4.82
632.422	3.34
632.837	2.78
633.252	3.45
633.667	3.31
634.082	4.31
634.497	5.1
634.911	6.32
635.326	6.56
635.741	6.83
636.155	5.24
636.57	5.77
636.984	6.52
637.399	7.91
637.813	6.97
638.228	6.61
638.642	6.17
639.056	5.74
639.47	4.87
639.884	4.93
640.298	4.67
640.712	6.03
641.126	5.62
641.54	5.09
641.954	2.75
642.368	3.02
642.781	5.94
643.195	6.8
643.609	7.75
644.022	8.2
644.436	8.22
644.849	7.58
645.262	6.18
645.676	5.61
646.089	5.9
646.502	7.62
646.915	7.31
647.328	5.91
647.741	5.55
648.154	5.49
648.567	7.16
648.98	8.05
649.393	8.22
649.805	8.83
650.218	9.16
650.631	9.28
651.043	9.04
651.456	9.29
651.868	8.56
652.28	8.13
652.693	7.23
653.105	5.99
653.517	5.07
653.929	6.28
654.341	6.17
654.753	6.56
655.165	6.93
655.577	7.12
655.989	6.79
656.401	6.12
656.813	7.24
657.224	7.79
657.636	6.89
658.047	7.24
658.459	6.41
658.87	4.97
659.282	5.07
659.693	5.36
660.104	5.07
660.515	4.86
660.926	5.3
661.338	4.69
661.749	3.95
662.159	4.51
662.57	3.72
662.981	4.45
663.392	5.22
663.803	5.06
664.213	3.83
664.624	4.2
665.035	3.7
665.445	3.26
665.855	3.6
666.266	4.56
666.676	4.18
667.086	3.98
667.497	3.54
667.907	3.96
668.317	4.12
668.727	7.53
669.137	6.49
669.547	6.91
669.956	6.44
670.366	5.87
670.776	5.97
671.186	6.52
671.595	7.04
672.005	6.68
672.414	6.86
672.824	7.17
673.233	4.51
673.642	5.36
674.052	5.91
674.461	7.16
674.87	7.63
675.279	8.52
675.688	6.96
676.097	7.19
676.506	7.58
676.915	6.75
677.323	6.87
677.732	6.65
678.141	6.76
678.549	6.52
678.958	6.08
679.366	5.68
679.775	3.39
680.183	5.84
680.592	5.58
681	5.79
681.408	6.26
681.816	6.05
682.224	5.3
682.632	6.69
683.04	6.72
683.448	6.3
683.856	7.19
684.264	9.23
684.671	8.03
685.079	6.94
685.487	6.9
685.894	6.82
686.302	6.4
686.709	7.95
687.116	5.56
687.524	6.67
687.931	8.61
688.338	7.72
688.745	6.63
689.152	6
689.559	6.66
689.966	8.06
690.373	8.59
690.78	8.81
691.187	8.23
691.593	9.98
692	8.9
692.407	9.6
692.813	11.57
693.22	12.53
693.626	11.51
694.032	12.78
694.439	12.48
694.845	12.06
695.251	11.59
695.657	12.12
696.063	9.83
696.469	10.46
696.875	8.81
697.281	7.12
697.687	5.77
698.093	6.6
698.498	7.01
698.904	6.12
699.31	6.24
699.715	7.58
700.12	6.95
700.526	8.56
700.931	8.11
701.337	8.22
701.742	9
702.147	9.64
702.552	10.6
702.957	9.08
703.362	8.65
703.767	8.45
704.172	6.86
704.577	7.06
704.981	5
705.386	4.74
705.791	4.79
706.195	4.24
706.6	4.4
707.004	2.18
707.408	2.25
707.813	2.93
708.217	4.48
708.621	5.38
709.025	4.17
709.43	6.64
709.834	6.46
710.237	5.79
710.641	5.63
711.045	5.56
711.449	7.24
711.853	10.5
712.256	10.03
712.66	8.73
713.064	7.88
713.467	10.13
713.87	9.82
714.274	10.79
714.677	11.8
715.08	12.01
715.484	12.14
715.887	14.67
716.29	11.89
716.693	13.74
717.096	14.24
717.499	15.2
717.901	13.31
718.304	13.61
718.707	13.27
719.109	12.86
719.512	12.65
719.915	15.03
720.317	13.38
720.719	12.79
721.122	11.56
721.524	11.51
721.926	14.91
722.328	15.73
722.731	14.11
723.133	13.43
723.535	13.37
723.937	15.04
724.338	15.95
724.74	16.29
725.142	55.73
725.544	58.7
725.945	69.07
726.347	65.53
726.748	66.55
727.15	67.97
727.551	70.95
727.952	70.8
728.354	68.94
728.755	66.62
729.156	65.23
729.557	26.6
729.958	23.14
730.359	13.45
730.76	13.44
731.161	12.29
731.562	11.34
731.962	9.23
732.363	9.01
732.763	8.42
733.164	6.83
733.564	7.4
733.965	8.52
734.365	9.08
734.766	8.6
735.166	8.11
735.566	8.14
735.966	8.66
736.366	8.9
736.766	8.71
737.166	8.53
737.566	8.92
737.966	8.87
738.365	8.85
738.765	9.87
739.165	9.91
739.564	9.97
739.964	9.34
740.363	8.95
740.763	7.7
741.162	8.97
741.561	8.9
741.96	8.99
742.36	7.3
742.759	7.17
743.158	5.31
743.557	5.65
743.955	5.69
744.354	6.35
744.753	5.59
745.152	6.61
745.55	4.66
745.949	4.97
746.348	4.91
746.746	5.7
747.144	7.27
747.543	6.98
747.941	6.31
748.339	6.26
748.737	6.89
749.136	7.21
749.534	5.62
749.932	8.37
750.33	8.26
750.727	8.07
751.125	8.95
751.523	7.56
751.921	11.15
752.318	12.4
752.716	14.01
753.113	13.6
753.511	14.16
753.908	15.94
754.305	18.6
754.703	18.49
755.1	20.04
755.497	18.88
755.894	19.05
756.291	15.98
756.688	16.73
757.085	15.84
757.482	16.84
757.878	19.26
758.275	20.58
758.672	14.58
759.068	15.49
759.465	12.13
759.861	13.63
760.258	12.45
760.654	14.91
761.05	13.56
761.447	13.63
761.843	13.49
762.239	12.4
762.635	10.32
763.031	8.07
763.427	7.52
763.822	10.55
764.218	9.58
764.614	9.94
765.01	7.49
765.405	5.54
765.801	5.95
766.196	4.21
766.592	2.92
766.987	3.75
767.382	5.05
767.778	5.28
768.173	4.79
768.568	4.89
768.963	5.64
769.358	7.24
769.753	9.84
770.148	9.71
770.542	11.86
770.937	12.43
771.332	12.13
771.726	10.77
772.121	14.13
772.515	13.74
772.91	14.56
773.304	14.27
773.699	13.29
774.093	12.1
774.487	13.02
774.881	10.14
775.275	9.13
775.669	8.08
776.063	8.95
776.457	7.94
776.851	8.27
777.245	7.65
777.638	6.73
778.032	6.8
778.425	7.94
778.819	9.82
779.212	12.96
779.606	15.48
779.999	15.19
780.392	17.14
780.786	14.75
781.179	15.08
781.572	16.54
781.965	18.01
782.358	18.42
782.751	15.93
783.143	13.77
783.536	13.92
783.929	11.56
784.322	12.82
784.714	10.58
785.107	11.42
785.499	12.3
785.891	12.55
786.284	13.04
786.676	13.52
787.068	17.25
787.46	17.66
787.852	14.62
788.245	15.19
788.636	14.1
789.028	16.23
789.42	18.17
789.812	18.01
790.204	17.44
790.595	18.81
790.987	18.7
791.378	17.14
791.77	16.27
792.161	17.84
792.553	18.29
792.944	18.89
793.335	15.9
793.726	15.52
794.117	17.54
794.508	15.14
794.899	11.87
795.29	10.89
795.681	10.4
796.072	9.91
796.463	23.23
796.853	26.3
797.244	27.71
797.634	28.83
798.025	27.37
798.415	23.73
798.806	26.61
799.196	29.08
799.586	30.83
799.976	32.39
800.366	31.41
800.756	17.49
801.146	14.93
801.536	13.65
801.926	13.53
802.316	13.83
802.706	15.9
803.095	16.1
803.485	15.94
803.874	14.19
804.264	13.06
804.653	14.62
805.043	17.42
805.432	17.09
805.821	18.16
806.21	19.08
806.599	20.74
806.988	20.83
807.377	17.91
807.766	15.74
808.155	15.89
808.544	16.83
808.933	17.53
809.321	17.99
809.71	14.85
810.098	15.86
810.487	14.58
810.875	11.44
811.264	12.6
811.652	25.11
812.04	28.19
812.428	31.06
812.816	26.81
813.204	28.78
813.592	24.92
813.98	29.62
814.368	31.55
814.756	32.48
815.144	35.75
815.531	37.16
815.919	22.2
816.306	19.76
816.694	18.9
817.081	21.69
817.469	22.03
817.856	21.53
818.243	18.92
818.63	16.9
819.017	18.87
819.404	16.34
819.791	13.69
820.178	16.01
820.565	19.83
820.952	27.34
821.339	31.88
821.725	32.05
822.112	33.79
822.498	35.29
822.885	31.95
823.271	29.25
823.657	28.72
824.044	28.38
824.43	28.86
824.816	30.07
825.202	29.91
825.588	28.32
825.974	30.4
826.36	31.05
826.746	29.44
827.132	29.82
827.517	34.97
827.903	36.08
828.289	39.79
828.674	38.43
829.06	34.29
829.445	27.52
829.83	23.15
830.216	20.41
830.601	20.86
830.986	31.22
831.371	33.52
831.756	37.01
832.141	44.99
832.526	42.92
832.911	45.34
833.295	44.4
833.68	43.88
834.065	47.42
834.449	45.92
834.834	44.79
835.218	41.05
835.603	45.37
835.987	38.88
836.371	32.02
836.755	33.49
837.139	30.74
837.524	32.22
837.908	29.79
838.291	32.06
838.675	30.38
839.059	31.05
839.443	26.86
839.827	18.9
840.21	19.13
840.594	21.46
840.977	21.65
841.361	22.7
841.744	19.83
842.127	22.16
842.511	19.71
842.894	18.51
843.277	18.82
843.66	19.96
844.043	24.16
844.426	25.3
844.809	23.5
845.191	19.58
845.574	20.03
845.957	21.61
846.339	23.06
846.722	22.98
847.104	22.51
847.487	17.72
847.869	19.49
848.252	21.59
848.634	20.66
849.016	19.44
849.398	22.29
849.78	17.89
850.162	19.73
850.544	20.43
850.926	17.37
851.307	18.91
851.689	23.55
852.071	17.75
852.452	17.94
852.834	20.07
853.215	23.17
853.597	20.5
853.978	28.38
854.359	29.18
854.741	30.15
855.122	29.65
855.503	27.65
855.884	25.79
856.265	27.58
856.646	19.92
857.026	21.54
857.407	21.53
857.788	21.46
858.169	15.51
858.549	19.24
858.93	19.57
859.31	21.85
859.69	26.39
860.071	27.94
860.451	26.77
860.831	32.21
861.211	27.69
861.591	21.64
861.971	19.35
862.351	23.76
862.731	17.75
863.111	16.42
863.491	20.37
863.87	19.73
864.25	17.61
864.629	28.8
865.009	22.78
865.388	28.56
865.768	32.15
866.147	32.66
866.526	34.05
866.905	38.58
867.284	30.68
867.663	22.82
868.042	17.47
868.421	17.88
868.8	8.61
869.179	13.28
869.558	12.71
869.936	14.25
870.315	15.47
870.693	11.88
871.072	8.13
871.45	12.53
871.828	18.26
872.207	23.58
872.585	26.42
872.963	26.06
873.341	34.27
873.719	34.41
874.097	38.75
874.475	37.24
874.853	40.95
875.23	41.92
875.608	46.49
875.986	46.88
876.363	45.47
876.741	52.31
877.118	56.65
877.495	55.9
877.873	54.45
878.25	47.7
878.627	54.84
879.004	53.4
879.381	53.34
879.758	53.14
880.135	52.72
880.512	52.18
880.889	43.33
881.265	41.82
881.642	32.79
882.019	30.68
882.395	38.92
882.772	42.55
883.148	44.51
883.524	39.66
883.901	35.9
884.277	34.15
884.653	35.03
885.029	39.15
885.405	47.67
885.781	51.76
886.157	51.99
886.532	49.03
886.908	42
887.284	35.24
887.659	41.02
888.035	42.88
888.411	38.95
888.786	40.99
889.161	37.58
889.537	26.82
889.912	20.75
890.287	20.48
890.662	14.02
891.037	11.93
891.412	15.89
891.787	14.06
892.162	20.04
892.536	25.21
892.911	29.3
893.286	24.1
893.66	27.87
894.035	34.31
894.409	30.27
894.784	33.93
895.158	35.25
895.532	37.69
895.906	39.2
896.281	36.2
896.655	38.67
897.029	35.14
897.402	45.46
897.776	47.97
898.15	49.59
898.524	59.67
898.898	58.7
899.271	66.75
899.645	71.52
900.018	68.36
900.392	73.49
900.765	64.62
901.138	58.23
901.511	52.16
901.884	53.15
902.258	55.68
902.631	58.53
903.003	60.34
903.376	52.05
903.749	48.41
904.122	40.74
904.495	29
904.867	26.42
905.24	27.16
905.612	27.47
905.985	11.14
906.357	-5.73
906.729	0.29
907.102	16.11
907.474	19.39
907.846	23
908.218	33.07
908.59	46.41
908.962	50.12
909.334	52.83
909.705	66.91
910.077	66.48
910.449	73.84
910.82	82.13
911.192	87.03
911.563	90.94
911.935	82.61
912.306	75.27
912.677	63.8
913.048	68.52
913.419	74.51
913.79	54.28
914.161	60.71
914.532	71.79
914.903	49.42
915.274	35.05
915.645	43.49
916.015	39.06
916.386	42.16
916.756	44.47
917.127	34.96
917.497	37.59
917.868	47.66
918.238	61.18
918.608	53.49
918.978	57.42
919.348	62.04
919.718	53.12
920.088	57.41
920.458	72.2
920.828	70.4
921.198	67.61
921.567	51.78
921.937	40.84
922.306	23.78
922.676	17.8
923.045	27.23
923.415	29.91
923.784	38.84
924.153	51.14
924.522	49.88
924.891	46.4
925.26	52.63
925.629	55.71
925.998	60.96
926.367	71.31
926.736	86.46
927.104	87.87
927.473	87.17
927.842	67.55
928.21	29.27
928.578	5.3
928.947	20.72
929.315	32.57
929.683	58.33
930.051	58.36
930.42	47.7
930.788	28.6
931.156	16.01
931.523	57.64
931.891	86.32
932.259	127.44
932.627	164.83
932.994	198.04
933.362	174
933.729	158.9
934.097	154.02
934.464	153.41
934.831	166.82
935.199	167.55
935.566	135.68
935.933	101.23
936.3	95.02
936.667	85.94
937.034	149.56
937.401	130.57
937.767	119.5
938.134	112.33
938.501	112.62
938.867	152.28
939.234	258.98
939.6	214.08
939.967	280.46
940.333	198.6
940.699	145.7
941.065	66.09
941.431	104.63
941.798	118.57
942.163	168.78
942.529	139.24
942.895	91.22
943.261	83.32
943.627	115.05
943.992	108.1
944.358	96.95
944.723	126.43
945.089	117.95
945.454	131.33
945.82	116.54
946.185	94.71
946.55	93.3
946.915	93.79
947.28	97.91
947.645	85.99
948.01	110.85
948.375	135.51
948.74	130.64
949.104	148.56
949.469	101.74
949.834	211.28
950.198	321.68
950.562	227.45
950.927	180.7
951.291	221.3
951.655	175.85
952.02	92.83
952.384	86.83
952.748	94.96
953.112	114.66
953.476	122.26
953.839	96.35
954.203	100.26
954.567	108.23
954.931	134.78
955.294	112.36
955.658	106.34
956.021	204.42
956.385	194.49
956.748	278.81
957.111	220.49
957.474	130.01
957.837	299.22
958.2	62.27
958.563	49.06
958.926	97.3
959.289	131.28
959.652	207.37
960.015	183.39
960.377	274.88
960.74	288.27
961.102	355.34
961.465	498.27
961.827	511.74
962.189	906.63
962.552	634.15
962.914	503.47
963.276	304.2
963.638	209.46
964	177.9
964.362	168.98
964.724	148.58
965.085	139.01
965.447	130.72
965.809	83.29
966.17	78.4
966.532	89
966.893	84.74
967.255	78.34
967.616	91.38
967.977	90.01
968.338	85.67
968.699	99.35
969.061	85.41
969.421	78.29
969.782	85.32
970.143	92.18
970.504	113.79
970.865	119.34
971.225	149.89
971.586	144.37
971.946	161.35
972.307	132.32
972.667	129.9
973.027	128.6
973.388	92.69
973.748	74.48
974.108	63.7
974.468	30.23
974.828	87.05
975.188	29.27
975.548	21.85
975.907	38.07
976.267	38.15
976.627	54.03
976.986	60.2
977.346	56.91
977.705	59.87
978.064	63.81
978.424	50.7
978.783	13.33
979.142	16.42
979.501	20.91
979.86	19.44
980.219	3.98
980.578	-12.27
980.937	-38.67
981.296	-6.38
981.654	0.63
982.013	-53.51
982.371	-51.32
982.73	-1.64
983.088	9.72
983.447	37.13
983.805	101.09
984.163	267.15
984.521	92.33
984.879	66.57
985.237	-48.23
985.595	246.07
985.953	83.27
986.311	18.74
986.669	-0.15
987.026	-0.62
987.384	-30.91
987.741	-67.6
988.099	26.56
988.456	48.76
988.814	83
989.171	80.97
989.528	36.87
989.885	25.46
990.242	40.83
990.599	27.87
990.956	27.17
991.313	28.76
991.67	25.8
992.027	49.57
992.383	48.48
992.74	52.67
993.096	57.7
993.453	66.42
993.809	61.76
994.165	65
994.522	115.99
994.878	129.11
995.234	168.78
995.59	170.34
995.946	103.99
996.302	118.26
996.658	113.6
997.013	100.02
997.369	141.52
997.725	239.38
998.08	170.69
998.436	80.46
998.791	74.06
999.147	47.67
999.502	29.81
999.857	15.91
1000.212	-94.78
1000.567	-205.77
1000.922	-69.03
1001.277	-82
1001.632	-44.48
1001.987	-97.46
1002.342	-27.57
1002.696	-4.89
1003.051	9.98
1003.406	25.92
1003.76	7.92
1004.114	53.3
1004.469	74.98
1004.823	56.31
1005.177	61.2
1005.531	46.4
1005.885	67.58
1006.239	74.98
1006.593	102.4
1006.947	146.75
1007.301	107.74
1007.655	123.48
1008.008	88.29
1008.362	78.98
1008.715	132.6
1009.069	142.76
1009.422	266.94
1009.776	498.74
1010.129	317.02
1010.482	246.83
1010.835	128.51
1011.188	204.73
1011.541	177.08
1011.894	-421.56
1012.247	1021.55
1012.6	23.09
1012.952	37.49
1013.305	-27.92
1013.657	2.65
1014.01	7.79
1014.362	-15.22
1014.715	64.39
1015.067	82.07
1015.419	89.02
1015.771	98.18
1016.123	123.71
1016.475	127.14
1016.827	119.44
1017.179	137.45
1017.531	107.55
1017.883	110.11
1018.234	164.36
1018.586	164.34
1018.938	194.42
1019.289	274.04
1019.64	269.01
1019.992	204.35
1020.343	176.27
1020.694	186.34
1021.045	168.81
1021.396	218.68
1021.747	257.07
1022.098	233.33
1022.449	180.49
1022.8	168.66
1023.151	137.97
1023.501	157.24
1023.852	165.63
1024.202	195.67
1024.553	196.74
1024.903	209.9
1025.253	191.39
1025.604	182.35
1025.954	217.32
1026.304	227.22
1026.654	213.16
1027.004	267.91
1027.354	286.12
1027.703	303.7
1028.053	294.99
1028.403	625.73
1028.753	819.3
1029.102	726.6
1029.452	807.4
1029.801	11
1030.15	31.46
1030.499	31.42
897.758	1384.8
901.051	1340.92
904.343	1368.04
907.636	1368.96
910.928	1407.27
914.22	1359.14
917.511	1367.05
920.803	1391.32
924.094	1387.56
927.384	1394.33
930.675	1370.69
933.965	1352.25
937.255	1372.95
940.544	1353.18
943.834	1352.77
947.123	1317.73
950.411	1372.75
953.7	1363.89
956.988	1357.47
960.276	1310.82
963.563	1335.08
966.851	1342.52
970.138	1364.06
973.424	1365.09
976.711	1333.1
979.997	1361.67
983.283	1386.31
986.568	1346.23
989.853	1335.88
993.138	1347.48
996.423	1406.85
999.708	1383.02
1002.992	1398.21
1006.275	1343.71
1009.559	1347.96
1012.842	1405.72
1016.125	1378.46
1019.408	1363.23
1022.69	1394.89
1025.972	1412.63
1029.254	1401.1
1032.536	1377.98
1035.817	1381.99
1039.098	1364.27
1042.379	1394.57
1045.659	1406.71
1048.939	1375.91
1052.219	1377.74
1055.498	1372.64
1058.778	1364.97
1062.057	1351.78
1065.335	1369.46
1068.614	1370.67
1071.892	1364.68
1075.17	1398.18
1078.447	1399.13
1081.724	1394.95
1085.001	1408.51
1088.278	1392.52
1091.554	1394
1094.83	1394.98
1098.106	1413.44
1101.382	1428.34
1104.657	1428.16
1107.932	1428.24
1111.206	1413.92
1114.481	1384.64
1117.755	1386.45
1121.029	1379.5
1124.302	1417.46
1127.575	1398.54
1130.848	1397.25
1134.121	1379.27
1137.393	1353.91
1140.665	1390.92
1143.937	1376.01
1147.208	1345.44
1150.48	1379.41
1153.75	1372.18
1157.021	1376.95
1160.291	1358.95
1163.561	1391.28
1166.831	1370.01
1170.101	1385.27
1173.37	1362.27
1176.639	1337.32
1179.907	1369.38
1183.176	1380.11
1186.444	1382.41
1189.711	1395.64
1192.979	1409.8
1196.246	1385.77
1199.513	1393.94
1202.78	1396.57
1206.046	1402.21
1209.312	1421.37
1212.578	1425.35
1215.843	1401.39
1219.108	1387.33
1222.373	1400.14
1225.638	1383.4
1228.902	1374.52
1232.166	1355.93
1235.43	1346.17
1238.693	1364.23
1241.956	1359.21
1245.219	1387
1248.482	1380.74
1251.744	1381.56
1255.006	1448.76
1258.268	1418.06
1261.529	1398.26
1264.79	1398.53
1268.051	1452.57
1271.312	1459.62
1274.572	1437.97
1277.832	1431.7
1281.092	1417.12
1284.351	1413.4
1287.61	1405.92
1290.869	1370.05
1294.128	1369.95
1297.386	1391.47
1300.644	1388.83
1303.902	1392.59
1307.159	1316.23
1310.416	1344.39
1313.673	1358.86
1316.93	1362.89
1320.186	1377.13
1323.442	1393.6
1326.697	1392.08
1329.953	1380.12
1333.208	1401.64
1336.463	1386.86
1339.717	1368.11
1342.972	1434.12
1346.226	1419.33
1349.479	1397.72
1352.733	1382.01
1355.986	1393.57
1359.238	1382.58
1362.491	1384.51
1365.743	1382.31
1368.995	1379.97
1372.247	1392.46
1375.498	1400.77
1378.749	1423.15
1382	1399.89
1385.251	1414.13
1388.501	1391.59
1391.751	1386.05
1395	1372.21
1398.25	1389.99
1401.499	1407.18
1404.748	1380.82
1407.996	1368.09
1411.244	1366.24
1414.492	1356.59
1417.74	1346.66
1420.987	1355.43
1424.234	1388.37
1427.481	1367.42
1430.728	1398.76
1433.974	1386.83
1437.22	1386.46
1440.465	1381.1
1443.711	1383.25
1446.956	1393.03
1450.201	1377.71
1453.445	1404.48
1456.689	1392.97
1459.933	1402.03
1463.177	1426.41
1466.42	1411.2
1469.663	1398.37
1472.906	1404.77
1476.148	1433.24
1479.391	1410.72
1482.633	1399.49
1485.874	1413.37
1489.115	1417.51
1492.356	1408.1
1495.597	1391.05
1498.838	1383.56
1502.078	1378.24
1505.318	1366.62
1508.557	1380.8
1511.797	1380.6
1515.036	1408.69
1518.274	1384.96
1521.513	1354
1524.751	1357.45
1527.989	1369.49
1531.227	1381.18
1534.464	1386.03
1537.701	1379.15
1540.938	1383.59
1544.174	1355.7
1547.41	1343.92
1550.646	1367.12
1553.882	1392.26
1557.117	1427.18
1560.352	1433.43
1563.587	1408.69
1566.821	1390.74
1570.055	1404.13
1573.289	1388.11
1576.523	1418.21
1579.756	1425.5
1582.989	1438.98
1586.222	1410.04
1589.454	1435.16
1592.686	1425.41
1595.918	1437.91
1599.15	1437.34
1602.381	1464.47
1605.612	1453.08
1608.843	1504.29
1612.073	1460.08
1615.303	1456.58
1618.533	1454.19
1621.762	1455.34
1624.992	1435.38
1628.221	1435.1
1631.449	1430.15
1634.678	1444.95
1637.906	1423.01
1641.134	1432.84
1644.361	1415.98
1647.588	1408.13
1650.815	1420.89
1654.042	1400.77
1657.269	1416.62
1660.495	1406.11
1663.72	1398.71
1666.946	1376.6
1670.171	1366.25
1673.396	1348.74
1676.621	1344.83
1679.845	1341.85
1683.069	1345.84
1686.293	1359.68
1689.517	1355.61
1692.74	1331.24
1695.963	1341.84
1699.185	1363.41
1702.408	1351.66
1705.63	1364.94
1708.852	1377.47
1712.073	1356.21
1715.294	1367.11
1718.515	1396.85
1721.736	1372.14
1724.956	1363.29
1728.176	1375.7
1731.396	1385.66
1734.616	1382.65
1737.835	1408.98
1741.054	1389.22
1744.272	1387.19
1747.491	1411.54
1750.709	1421.37
1753.927	1393.42
1757.144	1411.34
1760.361	1441.92
1763.578	1426.54
1766.795	1398.51
1770.011	1388.94
1773.227	1401.03
1776.443	1428.2
1779.658	1448.77
1782.874	1418.07
1786.089	1414.65
1789.303	1415.13
1792.518	1414.58
1795.732	1407.74
1798.945	1416.75
1802.159	1444.66
1805.372	1412.01
1808.585	1406.13
1811.797	1404.87
1815.01	1424.77
1818.222	1441.12
1821.434	1419.3
1824.645	1440.89
1827.856	1444.89
1831.067	1462.19
1834.278	1429.28
1837.488	1416.74
1840.698	1487.25
1843.908	1461.11
1847.117	1444.06
1850.326	1398.99
1853.535	1434.06
1856.744	1455.74
1859.952	1413.87
1863.16	1415.33
1866.368	1430.76
1869.575	1494.42
1872.782	1430.82
1875.989	1393.12
1879.196	1423.62
1882.402	1421.98
1885.608	1439.34
1888.814	1405.78
1892.019	1354.67
1895.224	1388.92
1898.429	1371.35
1901.634	1357.9
1904.838	1347.63
1908.042	1381.48
1911.246	1394.79
1914.449	1371.51
1917.652	1361.78
1920.855	1352.64
1924.058	1365.02
1927.26	1396.39
1930.462	1406.17
1933.664	1429.71
1936.865	1400.07
1940.066	1406.9
1943.267	1374.29
1946.467	1380.2
1949.668	1385.87
1952.868	1428.29
1956.067	1427.27
1959.267	1393.98
1962.466	1407.35
1965.665	1394.82
1968.863	1394.82
1972.061	1391.11
1975.259	1389.22
1978.457	1433.35
1981.654	1409.89
1984.852	1413.16
1988.048	1388.55
1991.245	1378.52
1994.441	1430.93
1997.637	1399.18
2000.833	1389.69
2004.028	1406.22
2007.223	1450.85
2010.418	1438.11
2013.613	1410.7
2016.807	1406.92
2020.001	1405.42
2023.194	1414.16
2026.388	1403.82
2029.581	1371.7
2032.774	1410.36
2035.966	1419.87
2039.158	1388.84
2042.35	1398.3
2045.542	1354.34
2048.733	1404.3
2051.924	1394.44
2055.115	1402.86
2058.306	1387.57
2061.496	1416.23
2064.686	1447.54
2067.875	1389.08
2071.065	1388.34
2074.254	1398.37
2077.442	1370
2080.631	1420.78
2083.819	1382.3
2087.007	1376.94
2090.195	1369.38
2093.382	1370.05
2096.569	1366.89
2099.756	1341.34
2102.942	1376.7
2106.128	1382.61
2109.314	1377.14
2112.5	1370.7
2115.685	1353.94
2118.87	1357.81
2122.055	1399.53
2125.239	1383.78
2128.424	1381.96
2131.608	1410.4
2134.791	1400.28
2137.974	1423.05
2141.157	1414.83
2144.34	1400.52
2147.523	1390.74
2150.705	1408.48
2153.887	1384.96
2157.068	1370.5
2160.25	1357.06
2163.431	1371.81
2166.611	1356.18
2169.792	1368.55
2172.972	1310.99
2176.152	1347.14
2179.331	1360.5
2182.511	1360.86
2185.69	1369.49
2188.868	1374.2
2192.047	1395.67
2195.225	1413.13
2198.403	1378.48
2201.58	1367.77
2204.758	1360.39
2207.935	1405.66
2211.111	1355.8
2214.288	1347.53
2217.464	1367.66
2220.64	1345.91
2223.815	1373.2
2226.991	1330.35
2230.166	1336.62
2233.34	1363.82
2236.515	1373.29
2239.689	1416.22
2242.863	1384.54
2246.036	1412.31
2249.209	1406.05
2252.382	1420.12
2255.555	1421.77
2258.727	1396.94
2261.9	1413.07
2265.071	1410
2268.243	1409.93
2271.414	1381.59
2274.585	1366.6
2277.756	1404.74
2280.926	1383.04
2284.096	1399.39
2287.266	1356.99
2290.436	1388.08
2293.605	1394.96
2296.774	1420.67
2299.942	1424.44
2303.111	1435.26
2306.279	1465.51
2309.447	1458.88
2312.614	1443.88
2315.781	1451.55
2318.948	1440.78
2322.115	1465.72
2325.281	1397.08
2328.447	1405.02
2331.613	1382.94
2334.779	1379.03
2337.944	1375.59
2341.109	1376.52
2344.274	1371.91
2347.438	1350.53
2350.602	1366.58
2353.766	1369.46
2356.929	1364.56
2360.092	1393.51
2363.255	1369.94
2366.418	1357.6
2369.58	1381
2372.742	1360.38
2375.904	1347.29
2379.066	1341.54
2382.227	1357.97
2385.388	1333.48
2388.548	1305.32
2391.709	1324.22
2394.869	1320.51
2398.029	1353.47
2401.188	1343.5
2404.347	1333.99
2407.506	1329.94
2410.665	1365.82
2413.823	1351.79
2416.981	1341.45
2420.139	1353.22
2423.296	1377.7
2426.453	1361.94
2429.61	1372.86
2432.767	1359.16
2435.923	1382.11
2439.079	1348.25
2442.235	1369.85
2445.391	1331.03
2448.546	1357.81
2451.701	1378.68
2454.855	1376.45
2458.009	1392.35
2461.163	1384.19
2464.317	1367.77
2467.471	1381.78
2470.624	1402.46
2473.777	1396.7
2476.929	1406.84
2480.082	1420.9
2483.234	1409.94
2486.385	1373.34
2489.537	1368.76
2492.688	1361.43
2495.839	1378.68
2498.989	1384.79
2502.14	1376.24
2505.29	1370.74
2508.439	1384.24
2511.589	1349.98
2514.738	1351.76
2517.887	1361.4
2521.035	1407.4
2524.183	1381.03
2527.331	1376.04
2530.479	1367.56
2533.627	1372.4
