Data from N_1_HIR_IL_4N_Splice17_11-27-34-643.txt Node
Date: Sat Mar 14 11:27:34 EDT 2020
User: sa697716
Spectrometer: FLMS03696
Trigger mode: 0
Integration Time (sec): 3.180400E-1
Scans to average: 20
Electric dark correction enabled: true
Nonlinearity correction enabled: true
Boxcar width: 5
XAxis mode: Wavelengths
Number of Pixels in Spectrum: 2048
>>>>>Begin Spectral Data<<<<<
187.83	-143997.34
188.298	1143.59
188.766	662.89
189.233	644.56
189.701	880.29
190.169	1240.91
190.636	505.71
191.104	381.5
191.571	55.5
192.039	24.38
192.506	93.13
192.974	392.1
193.441	-442.98
193.908	-186.15
194.375	29.42
194.842	88.82
195.31	108.84
195.777	149.58
196.244	219.8
196.711	143.3
197.177	156.49
197.644	176.67
198.111	264.94
198.578	329.93
199.045	282.96
199.511	399.18
199.978	395.78
200.445	365.63
200.911	392.25
201.378	385.42
201.844	384.6
202.31	640.76
202.777	650.92
203.243	343.21
203.709	324.34
204.176	368.05
204.642	305.42
205.108	292.65
205.574	245.08
206.04	182.4
206.506	175
206.972	153.4
207.438	155.87
207.903	175.95
208.369	186.61
208.835	190.56
209.301	206.86
209.766	214.59
210.232	206.83
210.697	235.35
211.163	293.82
211.628	409.86
212.094	336.98
212.559	480.59
213.024	296.04
213.49	361.53
213.955	358.42
214.42	318.69
214.885	280.7
215.35	289.11
215.815	327.11
216.28	333.98
216.745	271.16
217.21	316.43
217.675	235.26
218.14	267.25
218.604	241.28
219.069	254.27
219.534	278.47
219.998	292.62
220.463	307.87
220.927	257.78
221.392	238.84
221.856	233.61
222.32	212.95
222.785	263.23
223.249	282.66
223.713	324.97
224.177	311.09
224.642	311.73
225.106	340.71
225.57	376.93
226.034	333.81
226.497	488.89
226.961	462.28
227.425	556.2
227.889	569.66
228.353	541.89
228.816	974.95
229.28	942.14
229.744	786.72
230.207	532.08
230.671	491.83
231.134	695.62
231.597	776.19
232.061	670.92
232.524	574.17
232.987	448.49
233.45	413.81
233.914	378.16
234.377	318.28
234.84	286.92
235.303	301.88
235.766	323.57
236.229	364.37
236.691	234.35
237.154	238.57
237.617	201.42
238.08	158.21
238.542	170.59
239.005	143.91
239.468	160.2
239.93	156.63
240.393	150.11
240.855	130.31
241.317	120.37
241.78	107.53
242.242	136.85
242.704	177.32
243.166	181.11
243.629	182.71
244.091	199.88
244.553	213.85
245.015	237.53
245.477	278.3
245.939	384.93
246.4	405.84
246.862	422.98
247.324	399.03
247.786	385.21
248.247	432.11
248.709	351.24
249.17	273.86
249.632	315.34
250.093	412.36
250.555	381.58
251.016	273.09
251.477	275.97
251.939	291.4
252.4	284.66
252.861	322.33
253.322	318.72
253.783	347.53
254.244	416.09
254.705	298.12
255.166	212.19
255.627	196.92
256.088	283.67
256.549	303.19
257.009	284.07
257.47	321.35
257.931	255.95
258.391	207.48
258.852	245.46
259.312	266.41
259.773	296.78
260.233	287.95
260.694	258.69
261.154	267.58
261.614	231
262.074	203.45
262.534	218.07
262.994	223.13
263.455	265.71
263.915	240.85
264.374	218.78
264.834	247.41
265.294	245
265.754	259.97
266.214	246.03
266.673	229.69
267.133	273.6
267.593	250.52
268.052	304.84
268.512	252.95
268.971	343.44
269.431	368.51
269.89	309.04
270.349	476.47
270.809	544.49
271.268	497.2
271.727	981.25
272.186	634.09
272.645	506.84
273.104	311.16
273.563	498.54
274.022	292.76
274.481	279.4
274.94	238.63
275.399	161.87
275.857	144.15
276.316	174.04
276.775	151.45
277.233	146.96
277.692	165.1
278.15	235.87
278.609	273.33
279.067	256.65
279.525	252.71
279.984	298.85
280.442	390.96
280.9	470.47
281.358	319.35
281.816	297.58
282.274	291.69
282.732	261.89
283.19	238.24
283.648	182.45
284.106	188.18
284.564	179.86
285.021	184.48
285.479	133.11
285.937	97.26
286.394	94.75
286.852	99.2
287.309	115.86
287.767	148.27
288.224	153.12
288.682	156.92
289.139	205.79
289.596	183.24
290.053	172.75
290.511	186.97
290.968	233.29
291.425	321.37
291.882	329.53
292.339	284.04
292.796	245.83
293.252	215.45
293.709	212.44
294.166	171.08
294.623	186.8
295.079	188.19
295.536	223.62
295.992	208.02
296.449	198.19
296.905	200.38
297.362	218.87
297.818	238.05
298.274	255.67
298.731	233.68
299.187	238.53
299.643	257.08
300.099	304.69
300.555	328.5
301.011	310.4
301.467	349.1
301.923	360.65
302.379	340.26
302.835	319.9
303.291	331.78
303.746	376.36
304.202	469.95
304.658	461.56
305.113	314.57
305.569	305.97
306.024	262.54
306.479	174.37
306.935	179.54
307.39	173.99
307.845	176.58
308.301	199.72
308.756	201.38
309.211	207.25
309.666	211.87
310.121	292.42
310.576	278.53
311.031	278.58
311.486	306.01
311.94	282.65
312.395	365.13
312.85	571.84
313.305	1493.04
313.759	11005.49
314.214	828.37
314.668	699.18
315.123	676.63
315.577	281.04
316.032	279.59
316.486	360.37
316.94	306.41
317.394	234.9
317.849	208.82
318.303	195.9
318.757	192.74
319.211	196.72
319.665	178.19
320.119	169.89
320.572	224.09
321.026	218.89
321.48	181.4
321.934	166.73
322.387	160.22
322.841	163.97
323.295	200.73
323.748	183.44
324.202	215.49
324.655	257.64
325.108	401.6
325.562	276.51
326.015	319.66
326.468	281.05
326.921	356.54
327.374	379.05
327.827	422.42
328.28	447.39
328.733	308.98
329.186	258.91
329.639	263.76
330.092	209.17
330.545	221.86
330.997	230.5
331.45	269.18
331.903	324.63
332.355	472.61
332.808	427.09
333.26	357.62
333.713	393.43
334.165	397.74
334.617	468.98
335.069	333.58
335.522	538.1
335.974	617.72
336.426	483.08
336.878	246.29
337.33	148.79
337.782	163.94
338.234	233.83
338.686	268.1
339.137	306.15
339.589	288.62
340.041	274.89
340.493	238.35
340.944	220.74
341.396	251.74
341.847	257.36
342.299	329.56
342.75	402.27
343.201	311.08
343.653	339.49
344.104	379.76
344.555	299.83
345.006	350.46
345.457	356.76
345.908	276.99
346.359	266.32
346.81	207.84
347.261	183.05
347.712	164.36
348.163	155.03
348.613	207.73
349.064	202.63
349.515	187.53
349.965	215.01
350.416	190.37
350.866	185.09
351.317	154.83
351.767	238.21
352.217	286.73
352.668	251.64
353.118	273.55
353.568	150.22
354.018	177.62
354.468	205.73
354.918	168.35
355.368	168.05
355.818	241.42
356.268	708.82
356.718	3561.24
357.168	1081.92
357.617	517.02
358.067	526.66
358.517	553.1
358.966	625.76
359.416	768.38
359.865	760.15
360.315	866.38
360.764	444.46
361.213	279.43
361.663	220.16
362.112	213.06
362.561	316.26
363.01	257.13
363.459	194.55
363.908	169.23
364.357	147.73
364.806	226.44
365.255	127.69
365.703	148.76
366.152	99.58
366.601	88.42
367.05	83.44
367.498	99.75
367.947	92.76
368.395	107.86
368.844	105.34
369.292	77.6
369.74	71.25
370.189	114.56
370.637	141.99
371.085	139.9
371.533	200
371.981	175.89
372.429	171.76
372.877	182.85
373.325	164.82
373.773	163.92
374.221	146.97
374.669	175.5
375.116	152.32
375.564	125.54
376.012	139.04
376.459	104.18
376.907	134.45
377.354	133.9
377.801	146.15
378.249	167.09
378.696	218
379.143	290.04
379.591	345.94
380.038	534.64
380.485	415.41
380.932	420.12
381.379	390.37
381.826	335.88
382.273	207.25
382.72	152.98
383.166	161
383.613	121.87
384.06	119.46
384.506	109.42
384.953	89.09
385.4	77.41
385.846	61.64
386.292	49.35
386.739	38.53
387.185	33.38
387.631	38.21
388.078	51.31
388.524	43.42
388.97	45.4
389.416	47.39
389.862	54.67
390.308	55.48
390.754	62.35
391.2	71.55
391.645	66.56
392.091	107.68
392.537	109.33
392.983	92.58
393.428	118.2
393.874	110.51
394.319	133.8
394.765	142.45
395.21	134.88
395.655	129.53
396.101	119.79
396.546	116.6
396.991	97.81
397.436	89.46
397.881	81.15
398.326	55.66
398.771	63.57
399.216	43.14
399.661	34.63
400.106	44.18
400.551	48.01
400.995	45.93
401.44	44.3
401.885	42.83
402.329	41.67
402.774	42.2
403.218	55.91
403.663	52.92
404.107	58.04
404.551	63.92
404.995	54.41
405.44	47.49
405.884	44.03
406.328	38.37
406.772	32.48
407.216	32.19
407.66	30.17
408.104	17.84
408.547	13.01
408.991	11.22
409.435	4.11
409.879	9.51
410.322	12.42
410.766	16.2
411.209	20.89
411.653	21.6
412.096	23.26
412.54	21.84
412.983	25.04
413.426	29.19
413.869	27.09
414.312	32.13
414.756	28.04
415.199	26.2
415.642	27.34
416.085	24.21
416.527	24.58
416.97	24.09
417.413	26.45
417.856	24.27
418.298	22.94
418.741	21.74
419.184	18.65
419.626	15.64
420.069	15.89
420.511	14.2
420.953	18.57
421.396	16.98
421.838	14.16
422.28	14.17
422.722	16.14
423.164	14.52
423.606	15.49
424.048	15.22
424.49	17.87
424.932	17.13
425.374	14.14
425.816	9.85
426.258	10.77
426.699	11.53
427.141	15.2
427.582	12.68
428.024	12.92
428.465	12.11
428.907	11.14
429.348	9.39
429.789	11.14
430.231	14.37
430.672	16.2
431.113	16.21
431.554	17.32
431.995	14.89
432.436	17.55
432.877	17.39
433.318	18.37
433.759	16.19
434.2	17.3
434.64	16.32
435.081	16.51
435.522	17.86
435.962	18.25
436.403	19.02
436.843	14.76
437.284	12.33
437.724	9.84
438.164	5.89
438.604	7.89
439.045	9.53
439.485	12.64
439.925	10.47
440.365	8.25
440.805	7.72
441.245	8.89
441.685	10.44
442.125	9.59
442.564	10.38
443.004	14.02
443.444	13.42
443.883	12.09
444.323	8.04
444.762	6.32
445.202	4.76
445.641	6.17
446.081	3.08
446.52	3.69
446.959	4.66
447.398	6.27
447.837	5.05
448.276	5.9
448.716	7.57
449.154	6.75
449.593	9.31
450.032	9.74
450.471	7.87
450.91	7.57
451.349	7.47
451.787	7.73
452.226	7.34
452.664	7.41
453.103	6.12
453.541	4.32
453.98	6.97
454.418	5.97
454.856	7.93
455.295	7.42
455.733	7.61
456.171	7.94
456.609	8.59
457.047	8.48
457.485	9.55
457.923	11.73
458.361	11.9
458.798	11.16
459.236	10.81
459.674	9.2
460.111	9.63
460.549	10.25
460.987	8.57
461.424	6.4
461.862	6.7
462.299	6
462.736	6.45
463.173	5.39
463.611	7.28
464.048	8.16
464.485	9.45
464.922	9.33
465.359	8.38
465.796	14.98
466.233	16.75
466.67	18.78
467.106	19.77
467.543	17.65
467.98	18.01
468.416	16.11
468.853	15.58
469.29	14.35
469.726	14.11
470.162	13.85
470.599	8.94
471.035	7.8
471.471	6.34
471.907	4.26
472.344	4.4
472.78	4.61
473.216	3.94
473.652	3.74
474.088	3.55
474.523	3.89
474.959	3.36
475.395	2.35
475.831	3.07
476.266	3.3
476.702	2.81
477.138	2.83
477.573	2.88
478.008	3
478.444	4.04
478.879	5.32
479.314	5.44
479.75	6.37
480.185	6.96
480.62	5.82
481.055	5.16
481.49	6.81
481.925	6.84
482.36	7.93
482.795	7.77
483.229	6.63
483.664	5.71
484.099	5.49
484.534	5.74
484.968	6.05
485.403	6.68
485.837	6.12
486.271	5.57
486.706	4.88
487.14	3.8
487.574	4.33
488.009	4.17
488.443	3.6
488.877	4.12
489.311	3.39
489.745	3.25
490.179	3.23
490.613	4.33
491.046	3.96
491.48	4.41
491.914	4.6
492.348	3.91
492.781	3.89
493.215	4.26
493.648	3.35
494.082	2.95
494.515	3.29
494.948	3.98
495.382	2.82
495.815	3.51
496.248	3.9
496.681	3.33
497.114	2.93
497.547	3.66
497.98	4.31
498.413	5.85
498.846	6.7
499.279	6.43
499.711	6.11
500.144	6.52
500.577	6.72
501.009	6.15
501.442	7.13
501.874	7.99
502.306	7.12
502.739	8.8
503.171	8.74
503.603	8.73
504.036	8.77
504.468	8.47
504.9	8.34
505.332	7.58
505.764	7.96
506.196	7.54
506.627	7.16
507.059	7.1
507.491	4.71
507.923	4.42
508.354	4.76
508.786	3.96
509.217	4.05
509.649	4.1
510.08	3.81
510.512	4.25
510.943	4.45
511.374	4.83
511.805	4.89
512.237	4.41
512.668	3.34
513.099	2.14
513.53	2.61
513.961	2.78
514.391	2.67
514.822	4.33
515.253	4.1
515.684	3.81
516.114	3.52
516.545	4.37
516.975	4.91
517.406	5.14
517.836	5.1
518.267	5.03
518.697	6.08
519.127	6.32
519.558	4.76
519.988	4.85
520.418	4.43
520.848	3.8
521.278	2.92
521.708	20.65
522.138	20.94
522.567	20.85
522.997	20.96
523.427	19.7
523.857	19.7
524.286	20.17
524.716	19.49
525.145	20.1
525.575	20.94
526.004	20.7
526.433	3.66
526.863	3.36
527.292	4.72
527.721	5.09
528.15	4.94
528.579	5.1
529.008	4.99
529.437	4.46
529.866	3.99
530.295	3.19
530.724	3.98
531.152	3.76
531.581	4.59
532.01	3.78
532.438	3.13
532.867	2.94
533.295	2.84
533.723	2.66
534.152	3.38
534.58	3.58
535.008	4.35
535.436	4.97
535.865	4.58
536.293	3.72
536.721	3.64
537.149	3.82
537.576	4.73
538.004	4.88
538.432	4.71
538.86	5.39
539.287	5.32
539.715	5.34
540.143	4.35
540.57	5.05
540.998	5.35
541.425	6.34
541.852	6.59
542.28	6.1
542.707	5.77
543.134	6.02
543.561	5.78
543.988	6.1
544.415	5.28
544.842	5.69
545.269	5.45
545.696	5.64
546.123	5.68
546.549	5.69
546.976	6.02
547.403	5.73
547.829	5.5
548.256	5.04
548.682	4.66
549.108	6.22
549.535	5.48
549.961	5.03
550.387	4.92
550.813	5.71
551.24	5.84
551.666	4.94
552.092	5.1
552.518	5.18
552.943	5.5
553.369	5.29
553.795	4.48
554.221	5.53
554.646	5.54
555.072	5.88
555.498	3.84
555.923	2.99
556.349	3.93
556.774	3.77
557.199	3.22
557.625	2.51
558.05	3.35
558.475	3.08
558.9	2.82
559.325	3.11
559.75	3.33
560.175	3.64
560.6	3.55
561.025	2.58
561.449	2.52
561.874	2.44
562.299	3.67
562.723	2.54
563.148	2.58
563.572	2.02
563.997	1.93
564.421	0.86
564.846	0.58
565.27	1.25
565.694	1.39
566.118	1.53
566.542	3.18
566.966	2.85
567.39	3.13
567.814	3.37
568.238	3.69
568.662	3.07
569.086	3.53
569.509	3.37
569.933	4.29
570.357	4.86
570.78	5.21
571.204	5.64
571.627	5.02
572.05	5.57
572.474	6.27
572.897	6.25
573.32	7.4
573.743	6.97
574.166	7.97
574.589	6.96
575.012	6.66
575.435	6.1
575.858	5.06
576.281	5.72
576.704	5.11
577.126	3.77
577.549	3.6
577.972	2.85
578.394	3.55
578.817	4.52
579.239	4.37
579.661	4.55
580.084	5.81
580.506	6.33
580.928	5.46
581.35	5.8
581.772	6.28
582.194	7.01
582.616	6.49
583.038	5.89
583.46	4.65
583.882	5.28
584.303	4.1
584.725	3.15
585.147	6.26
585.568	6.84
585.99	6.96
586.411	7.31
586.833	6.64
587.254	7.19
587.675	6.31
588.096	6.27
588.518	5.82
588.939	6.93
589.36	7.35
589.781	2.64
590.202	4.77
590.623	4.38
591.043	3.64
591.464	3.64
591.885	3.8
592.305	4.57
592.726	4.06
593.147	4.14
593.567	4.06
593.987	3.49
594.408	3.14
594.828	0.62
595.248	1.78
595.669	2.99
596.089	2.47
596.509	2.18
596.929	1.81
597.349	2.38
597.769	2.65
598.189	3.22
598.608	3.5
599.028	4.06
599.448	4.31
599.867	3.85
600.287	2.9
600.706	3.97
601.126	4.41
601.545	5.11
601.965	4.64
602.384	4.15
602.803	3.34
603.222	3.64
603.641	3.24
604.061	3.72
604.48	3.24
604.898	3.34
605.317	2.98
605.736	2.84
606.155	2.97
606.574	2.78
606.992	2.8
607.411	3.38
607.829	2.34
608.248	2.96
608.666	2.1
609.085	2.47
609.503	2.96
609.921	3.45
610.339	3.47
610.758	2.76
611.176	2.87
611.594	3.17
612.012	3.15
612.43	4.69
612.847	4.49
613.265	5.34
613.683	4.74
614.101	4.81
614.518	3.73
614.936	3.83
615.353	4.75
615.771	5.09
616.188	5.11
616.606	4.86
617.023	4.36
617.44	4.24
617.857	3.34
618.274	3.56
618.691	3.42
619.108	4.05
619.525	3.68
619.942	3.57
620.359	3.29
620.776	3.48
621.192	4.12
621.609	4.37
622.026	4.54
622.442	5.64
622.859	5.34
623.275	5.05
623.691	4.55
624.108	5.41
624.524	5.4
624.94	5.4
625.356	4.94
625.772	4.52
626.188	3.7
626.604	3.99
627.02	3.37
627.436	4.18
627.852	5.28
628.268	5.42
628.683	4.71
629.099	3.91
629.514	4.14
629.93	4.4
630.345	4.16
630.761	4
631.176	3.42
631.591	5.38
632.007	5.02
632.422	3.57
632.837	3.07
633.252	4.27
633.667	4.59
634.082	4.91
634.497	4.9
634.911	6.31
635.326	6.7
635.741	7.76
636.155	6.29
636.57	7.29
636.984	7.86
637.399	9.37
637.813	8.14
638.228	7.94
638.642	7.83
639.056	7.89
639.47	6.98
639.884	7.13
640.298	6.14
640.712	6.33
641.126	6.36
641.54	5.6
641.954	3.48
642.368	4.13
642.781	6.7
643.195	6.98
643.609	7.19
644.022	7.38
644.436	6.91
644.849	7.01
645.262	6.58
645.676	5.42
646.089	6.56
646.502	8.57
646.915	7.65
647.328	6.52
647.741	6.49
648.154	6.3
648.567	7.71
648.98	8.88
649.393	9.19
649.805	9.58
650.218	9.26
650.631	9.25
651.043	8.6
651.456	9.43
651.868	8.9
652.28	7.93
652.693	7.14
653.105	5.15
653.517	3.87
653.929	3.48
654.341	3.57
654.753	4.61
655.165	3.97
655.577	4.24
655.989	3.78
656.401	2.15
656.813	4.44
657.224	5.14
657.636	5.3
658.047	6.55
658.459	6.69
658.87	5.38
659.282	5.32
659.693	5.11
660.104	5.83
660.515	6.32
660.926	6.49
661.338	5.46
661.749	4.54
662.159	5.34
662.57	4.36
662.981	4.67
663.392	5.3
663.803	4.73
664.213	5.19
664.624	4.56
665.035	3.08
665.445	4.17
665.855	4.85
666.266	6.48
666.676	5.92
667.086	5.67
667.497	6.37
667.907	6.55
668.317	6.99
668.727	9.37
669.137	7.79
669.547	8.38
669.956	7.37
670.366	6.74
670.776	6.6
671.186	6.69
671.595	6.99
672.005	5.41
672.414	5.44
672.824	6.07
673.233	3.11
673.642	4.22
674.052	4.34
674.461	6.47
674.87	6.43
675.279	7.01
675.688	5.95
676.097	7.39
676.506	8.61
676.915	7.94
677.323	7.64
677.732	8.82
678.141	9.03
678.549	8.63
678.958	6.71
679.366	6.58
679.775	4.33
680.183	6.48
680.592	5.54
681	5.29
681.408	6.13
681.816	5.81
682.224	5.1
682.632	6.49
683.04	6.72
683.448	6.93
683.856	8.05
684.264	10.52
684.671	8.62
685.079	8.03
685.487	7.57
685.894	7.42
686.302	6.55
686.709	7.6
687.116	6.85
687.524	7.82
687.931	10.2
688.338	9.14
688.745	7.17
689.152	6.97
689.559	8.24
689.966	10.23
690.373	10.23
690.78	11.36
691.187	10.65
691.593	11.32
692	12.01
692.407	11.3
692.813	13.61
693.22	14.8
693.626	14.9
694.032	15.18
694.439	14.24
694.845	14.1
695.251	13.09
695.657	14.11
696.063	12.33
696.469	11.31
696.875	9.72
697.281	8.03
697.687	7.75
698.093	7.66
698.498	7.55
698.904	6.43
699.31	5.69
699.715	8.65
700.12	6.97
700.526	7.98
700.931	7.45
701.337	8.98
701.742	9.42
702.147	9.09
702.552	9.79
702.957	7.86
703.362	8.24
703.767	8.2
704.172	6.53
704.577	7.22
704.981	5.39
705.386	6.13
705.791	6.07
706.195	4.56
706.6	5.4
707.004	3.58
707.408	3.86
707.813	4.55
708.217	5.77
708.621	5.09
709.025	4.75
709.43	7.31
709.834	6.94
710.237	7.11
710.641	7.62
711.045	8.48
711.449	10.19
711.853	12.98
712.256	12.77
712.66	12.8
713.064	13.4
713.467	14.23
713.87	13.08
714.274	14.37
714.677	14.83
715.08	15.56
715.484	14.6
715.887	17.43
716.29	15.31
716.693	16.05
717.096	17.03
717.499	17.66
717.901	16.56
718.304	16.63
718.707	15.98
719.109	14.96
719.512	14.02
719.915	16.04
720.317	15.32
720.719	13.96
721.122	13.33
721.524	12.73
721.926	16.14
722.328	17.62
722.731	17.59
723.133	16.86
723.535	17.49
723.937	18.39
724.338	19.27
724.74	18.66
725.142	61.06
725.544	64.61
725.945	74.47
726.347	70.11
726.748	70.25
727.15	71.22
727.551	74.4
727.952	72.27
728.354	69.93
728.755	68.58
729.156	67.01
729.557	25.92
729.958	22.78
730.359	12.39
730.76	13.11
731.161	11.58
731.562	10.13
731.962	7.48
732.363	8.82
732.763	10.16
733.164	7.69
733.564	8.17
733.965	10.51
734.365	10.19
734.766	10.55
735.166	9.83
735.566	11.51
735.966	12.04
736.366	11.6
736.766	11.01
737.166	10.78
737.566	11.47
737.966	10.91
738.365	10.14
738.765	11.01
739.165	11.07
739.564	11.12
739.964	9.94
740.363	8.92
740.763	8.55
741.162	10.3
741.561	10.13
741.96	10.82
742.36	10.64
742.759	10.88
743.158	9.87
743.557	9.94
743.955	9.69
744.354	9.29
744.753	9.3
745.152	10.61
745.55	8.58
745.949	8.72
746.348	8.71
746.746	8.23
747.144	9.84
747.543	9.89
747.941	9.36
748.339	10.1
748.737	11.17
749.136	12.73
749.534	10.78
749.932	12.6
750.33	12.4
750.727	11.46
751.125	12.15
751.523	10.81
751.921	12.33
752.318	12.98
752.716	13.76
753.113	13.2
753.511	12.07
753.908	13.32
754.305	16.4
754.703	16.36
755.1	17.48
755.497	17.69
755.894	17.02
756.291	16.27
756.688	17.17
757.085	16.42
757.482	18.41
757.878	23.01
758.275	25.75
758.672	18.69
759.068	19.69
759.465	20.32
759.861	21.03
760.258	20.84
760.654	21.7
761.05	22.53
761.447	20.96
761.843	18.88
762.239	16.02
762.635	13.36
763.031	13.53
763.427	13.56
763.822	13.38
764.218	12.85
764.614	12.39
765.01	9.38
765.405	7.59
765.801	8.72
766.196	7.21
766.592	6.76
766.987	6.81
767.382	7.79
767.778	7.36
768.173	6.3
768.568	7.18
768.963	8.9
769.358	9.98
769.753	11.28
770.148	11.44
770.542	11.56
770.937	10.17
771.332	11.25
771.726	9.64
772.121	12.84
772.515	13.27
772.91	12.77
773.304	11.94
773.699	11.5
774.093	10.65
774.487	10.58
774.881	10.74
775.275	12.09
775.669	11.02
776.063	12.44
776.457	11.66
776.851	10.86
777.245	11.95
777.638	12.18
778.032	13.75
778.425	15.1
778.819	17.67
779.212	19.83
779.606	22.11
779.999	20.83
780.392	22.06
780.786	19.53
781.179	20.08
781.572	19.64
781.965	19.8
782.358	18.78
782.751	17.13
783.143	14.47
783.536	12.71
783.929	9.81
784.322	11.37
784.714	10.08
785.107	11.2
785.499	14.31
785.891	15.68
786.284	16.34
786.676	16.16
787.068	17.79
787.46	18.89
787.852	18.14
788.245	17.79
788.636	16.81
789.028	18.81
789.42	20.16
789.812	19.75
790.204	18.77
790.595	21.11
790.987	21.41
791.378	20.23
791.77	18.67
792.161	17.38
792.553	18.65
792.944	19.58
793.335	16.24
793.726	16.16
794.117	16.51
794.508	14.16
794.899	11.43
795.29	11.1
795.681	12.09
796.072	13.41
796.463	31.66
796.853	34.77
797.244	35.8
797.634	38.46
798.025	39.77
798.415	36.03
798.806	39.34
799.196	41.51
799.586	44.06
799.976	44.9
800.366	43.7
800.756	26.39
801.146	23
801.536	21.76
801.926	20.48
802.316	18.56
802.706	20.99
803.095	19.23
803.485	16.97
803.874	14.24
804.264	13.06
804.653	14.7
805.043	17.66
805.432	20.63
805.821	24.58
806.21	25.24
806.599	25.99
806.988	26.32
807.377	23.67
807.766	23.83
808.155	24.91
808.544	25.55
808.933	24.79
809.321	24.41
809.71	21.35
810.098	19.49
810.487	18.28
810.875	15.06
811.264	15.89
811.652	28.44
812.04	30.05
812.428	31.93
812.816	30.54
813.204	33.92
813.592	29.61
813.98	31.48
814.368	34.18
814.756	37.99
815.144	41.25
815.531	40.7
815.919	28.83
816.306	27.69
816.694	26.64
817.081	30.13
817.469	30.28
817.856	28.86
818.243	26.33
818.63	21.39
819.017	21.16
819.404	20.15
819.791	20.14
820.178	18.06
820.565	21.52
820.952	31.59
821.339	32.86
821.725	32.69
822.112	40.45
822.498	42.46
822.885	41.73
823.271	38.8
823.657	35.43
824.044	37.87
824.43	38.44
824.816	43.91
825.202	36.62
825.588	35.39
825.974	36.74
826.36	35.25
826.746	33.08
827.132	32.8
827.517	37.21
827.903	39.49
828.289	41.07
828.674	41.71
829.06	35.16
829.445	33.9
829.83	30.07
830.216	28.6
830.601	28.72
830.986	36.24
831.371	38.1
831.756	38.75
832.141	46.39
832.526	44.19
832.911	47.79
833.295	47.02
833.68	46.16
834.065	49.26
834.449	48.92
834.834	48.52
835.218	46.82
835.603	49.32
835.987	45.63
836.371	43.02
836.755	44.78
837.139	43.97
837.524	44.42
837.908	44.35
838.291	46.87
838.675	43.23
839.059	44.09
839.443	39.56
839.827	35.64
840.21	31.97
840.594	32.66
840.977	33.37
841.361	29.52
841.744	26.69
842.127	25.82
842.511	21.78
842.894	22.68
843.277	22.13
843.66	22.26
844.043	22.55
844.426	29.57
844.809	23.35
845.191	20.45
845.574	22.89
845.957	24.07
846.339	25.74
846.722	27.42
847.104	25.95
847.487	20.3
847.869	22.78
848.252	25.28
848.634	23.23
849.016	22.5
849.398	20.26
849.78	18.27
850.162	19.88
850.544	21.31
850.926	17.79
851.307	19.36
851.689	25.57
852.071	20.43
852.452	19.15
852.834	19.76
853.215	28.86
853.597	30.6
853.978	37.22
854.359	38.27
854.741	39.97
855.122	40.1
855.503	35.49
855.884	35.26
856.265	36.55
856.646	30.26
857.026	28.63
857.407	26.48
857.788	25.27
858.169	20.21
858.549	28.53
858.93	25.6
859.31	27.62
859.69	37.95
860.071	38.9
860.451	38.91
860.831	42.72
861.211	43.63
861.591	38.49
861.971	40.79
862.351	38.81
862.731	28.42
863.111	30.2
863.491	31.43
863.87	25.74
864.25	22.84
864.629	29.8
865.009	27.35
865.388	33.22
865.768	33.27
866.147	33.82
866.526	40.96
866.905	45.39
867.284	40.43
867.663	34.96
868.042	30.87
868.421	30.29
868.8	22.93
869.179	27.43
869.558	23.47
869.936	27.57
870.315	23.98
870.693	24.9
871.072	21.2
871.45	22.92
871.828	29.43
872.207	31.26
872.585	34.89
872.963	36.65
873.341	45.22
873.719	50.48
874.097	51.63
874.475	53.91
874.853	52.92
875.23	54.55
875.608	57.75
875.986	58
876.363	62.32
876.741	72.12
877.118	79.54
877.495	74.53
877.873	71.04
878.25	70.15
878.627	67.49
879.004	62.7
879.381	58.82
879.758	57.7
880.135	58.65
880.512	58.55
880.889	42.7
881.265	32.15
881.642	31.13
882.019	31.05
882.395	40.17
882.772	50.55
883.148	52.36
883.524	51.52
883.901	52.25
884.277	47.27
884.653	41.19
885.029	52.05
885.405	67.28
885.781	65.3
886.157	61
886.532	55.87
886.908	45.02
887.284	44.78
887.659	47.99
888.035	45.11
888.411	42.9
888.786	49.48
889.161	45.26
889.537	33.05
889.912	36.69
890.287	38.94
890.662	34.41
891.037	33.53
891.412	33.88
891.787	28.94
892.162	33.79
892.536	40.58
892.911	42.46
893.286	38.33
893.66	42.66
894.035	44.86
894.409	39.9
894.784	44.37
895.158	45.77
895.532	48.47
895.906	54.57
896.281	52.72
896.655	54.48
897.029	49.6
897.402	56.67
897.776	54.3
898.15	53.67
898.524	59.81
898.898	50.88
899.271	62.34
899.645	54.66
900.018	52.74
900.392	59.54
900.765	48.63
901.138	58.01
901.511	49.48
901.884	53.82
902.258	49.51
902.631	58.33
903.003	66.74
903.376	55.34
903.749	66.71
904.122	65.73
904.495	58.32
904.867	59.13
905.24	47.75
905.612	49.06
905.985	37.77
906.357	41.87
906.729	38.13
907.102	35.33
907.474	43.43
907.846	44
908.218	46.64
908.59	56.87
908.962	59.19
909.334	69.84
909.705	79.84
910.077	80.01
910.449	76.82
910.82	88.4
911.192	100.73
911.563	111.24
911.935	105.47
912.306	97.89
912.677	90.2
913.048	102.79
913.419	109.84
913.79	90.69
914.161	108.82
914.532	123.39
914.903	99.06
915.274	88.84
915.645	79.63
916.015	76.71
916.386	81.9
916.756	82.88
917.127	63.58
917.497	58.72
917.868	67.83
918.238	69.89
918.608	58.43
918.978	63.15
919.348	66.51
919.718	69.36
920.088	71.18
920.458	79.1
920.828	76.59
921.198	91.35
921.567	91.62
921.937	81.76
922.306	69.56
922.676	71.48
923.045	81.08
923.415	89.03
923.784	85.75
924.153	87.19
924.522	88.68
924.891	87.35
925.26	86
925.629	78.5
925.998	81.5
926.367	85.4
926.736	95.34
927.104	86.37
927.473	74.6
927.842	57.88
928.21	63.68
928.578	40.47
928.947	57.84
929.315	67.43
929.683	99.86
930.051	102.93
930.42	106.07
930.788	96.36
931.156	91.79
931.523	124.27
931.891	127.52
932.259	131.62
932.627	177.57
932.994	217.82
933.362	214.55
933.729	183.05
934.097	182.08
934.464	153.88
934.831	160.7
935.199	167.34
935.566	132.95
935.933	111.47
936.3	126.14
936.667	98.39
937.034	169.94
937.401	152.97
937.767	137.36
938.134	115.26
938.501	169.52
938.867	199.62
939.234	345.37
939.6	317.69
939.967	440.37
940.333	306.37
940.699	248.34
941.065	115.11
941.431	137.2
941.798	169.5
942.163	282.35
942.529	184.89
942.895	164.59
943.261	123
943.627	156.72
943.992	146.08
944.358	130.43
944.723	172.81
945.089	158.04
945.454	152.72
945.82	154.1
946.185	135.17
946.55	162.33
946.915	143.82
947.28	149.39
947.645	128.67
948.01	136.14
948.375	165.54
948.74	162.44
949.104	209.78
949.469	254.98
949.834	390.69
950.198	502.27
950.562	319.79
950.927	288.43
951.291	346.57
951.655	309.3
952.02	234.62
952.384	172.46
952.748	171.53
953.112	203.14
953.476	199.7
953.839	175.29
954.203	166.94
954.567	193.37
954.931	237.02
955.294	198.05
955.658	177.66
956.021	321.7
956.385	457.31
956.748	544.77
957.111	499.11
957.474	211.04
957.837	113.08
958.2	-81.72
958.563	-22.03
958.926	52.79
959.289	98.22
959.652	170.49
960.015	131.22
960.377	200.01
960.74	251.23
961.102	315.85
961.465	567.75
961.827	692.84
962.189	1280.7
962.552	942.98
962.914	685.76
963.276	376.29
963.638	279.35
964	264.08
964.362	207.55
964.724	173.52
965.085	150.43
965.447	111.09
965.809	55.38
966.17	52.22
966.532	39.64
966.893	63.1
967.255	80.73
967.616	82.34
967.977	74.34
968.338	61.17
968.699	74.18
969.061	73.48
969.421	87.57
969.782	87.52
970.143	81.6
970.504	102
970.865	98.52
971.225	126.25
971.586	139.29
971.946	162.97
972.307	153.53
972.667	196.92
973.027	195.85
973.388	213.23
973.748	161.09
974.108	203.91
974.468	218.35
974.828	231.7
975.188	141.11
975.548	108.96
975.907	103.06
976.267	110.59
976.627	105.71
976.986	108.61
977.346	101.76
977.705	116.56
978.064	105.37
978.424	97.72
978.783	65.22
979.142	74.83
979.501	89.79
979.86	112.55
980.219	100.72
980.578	112.31
980.937	99.37
981.296	93.86
981.654	82.27
982.013	75.32
982.371	122.17
982.73	117.16
983.088	144.32
983.447	177.17
983.805	248.32
984.163	555.42
984.521	499.88
984.879	794.18
985.237	-1555.63
985.595	2008.8
985.953	470.32
986.311	198.05
986.669	156.19
987.026	119.05
987.384	101.71
987.741	35.08
988.099	73.23
988.456	70.27
988.814	78.63
989.171	65.94
989.528	30.32
989.885	29.95
990.242	46.36
990.599	36.55
990.956	45.54
991.313	51.02
991.67	51.41
992.027	91.22
992.383	81.39
992.74	86.91
993.096	90.66
993.453	91.1
993.809	93.7
994.165	118.01
994.522	148.46
994.878	159.11
995.234	197.28
995.59	206.73
995.946	108.69
996.302	128.62
996.658	127.63
997.013	141.23
997.369	216.83
997.725	307.67
998.08	185.78
998.436	135.77
998.791	182.84
999.147	162.32
999.502	146.36
999.857	167.35
1000.212	316.42
1000.567	457.37
1000.922	306.12
1001.277	172.18
1001.632	139.73
1001.987	194.66
1002.342	166.13
1002.696	148.63
1003.051	136.12
1003.406	175.17
1003.76	165.01
1004.114	169.66
1004.469	129.47
1004.823	97.46
1005.177	86.99
1005.531	69.36
1005.885	81.34
1006.239	105.46
1006.593	118.96
1006.947	151.47
1007.301	109.9
1007.655	128.64
1008.008	89.97
1008.362	109.46
1008.715	168.16
1009.069	174.43
1009.422	338.18
1009.776	546.46
1010.129	341.49
1010.482	291.05
1010.835	229.9
1011.188	440.83
1011.541	431.64
1011.894	-2656.79
1012.247	8605.93
1012.6	590.4
1012.952	350.08
1013.305	123.07
1013.657	129.01
1014.01	102.05
1014.362	87.38
1014.715	111.98
1015.067	124.95
1015.419	104.71
1015.771	102.22
1016.123	106.31
1016.475	107.09
1016.827	111.43
1017.179	132.81
1017.531	103.5
1017.883	104.96
1018.234	145.87
1018.586	158.96
1018.938	192.54
1019.289	306.56
1019.64	317.91
1019.992	278.3
1020.343	250.52
1020.694	238.66
1021.045	201.97
1021.396	248.26
1021.747	294.25
1022.098	258.9
1022.449	196.69
1022.8	157.26
1023.151	122.01
1023.501	122.73
1023.852	129.53
1024.202	157.9
1024.553	161.99
1024.903	180.75
1025.253	184.76
1025.604	173.01
1025.954	206.08
1026.304	234.8
1026.654	269.59
1027.004	340.03
1027.354	476.42
1027.703	495.31
1028.053	488.96
1028.403	728.36
1028.753	631.35
1029.102	320.02
1029.452	-81.64
1029.801	5.05
1030.15	3.32
1030.499	-38.59
897.758	1497.91
901.051	1446.14
904.343	1472.26
907.636	1476.31
910.928	1517.78
914.22	1465.8
917.511	1470.37
920.803	1501.27
924.094	1495.53
927.384	1501.08
930.675	1473.12
933.965	1452.23
937.255	1477.44
940.544	1458.07
943.834	1452.76
947.123	1413.59
950.411	1473.63
953.7	1463.67
956.988	1455.22
960.276	1404.86
963.563	1433.71
966.851	1442.4
970.138	1465.92
973.424	1466.47
976.711	1430.55
979.997	1465.55
983.283	1492.27
986.568	1447.48
989.853	1437.79
993.138	1451.54
996.423	1514.31
999.708	1486.95
1002.992	1505.38
1006.275	1448.19
1009.559	1448.46
1012.842	1514.2
1016.125	1481.88
1019.408	1466.56
1022.69	1500.85
1025.972	1518.47
1029.254	1505.4
1032.536	1482.38
1035.817	1484.07
1039.098	1465.84
1042.379	1494.63
1045.659	1511.53
1048.939	1475.38
1052.219	1477.13
1055.498	1471.92
1058.778	1464.52
1062.057	1450.68
1065.335	1467.88
1068.614	1470.35
1071.892	1465.3
1075.17	1499.5
1078.447	1500.24
1081.724	1498.11
1085.001	1511.03
1088.278	1496.54
1091.554	1497.09
1094.83	1495.12
1098.106	1517.57
1101.382	1534.32
1104.657	1534.13
1107.932	1534.84
1111.206	1520.46
1114.481	1488.23
1117.755	1489.69
1121.029	1484.75
1124.302	1523.96
1127.575	1504.54
1130.848	1505.39
1134.121	1486.74
1137.393	1458.09
1140.665	1496.55
1143.937	1481.12
1147.208	1446.8
1150.48	1486.68
1153.75	1479.03
1157.021	1482.11
1160.291	1465.19
1163.561	1498.37
1166.831	1474.08
1170.101	1487.92
1173.37	1463.93
1176.639	1438.66
1179.907	1469.37
1183.176	1482.28
1186.444	1484
1189.711	1495.09
1192.979	1512.66
1196.246	1487.18
1199.513	1496.52
1202.78	1498.08
1206.046	1504.85
1209.312	1524.02
1212.578	1529.43
1215.843	1507.44
1219.108	1488.52
1222.373	1504.04
1225.638	1488.44
1228.902	1479.36
1232.166	1454.44
1235.43	1445.38
1238.693	1466.13
1241.956	1462.92
1245.219	1494.48
1248.482	1484.64
1251.744	1485.27
1255.006	1561.38
1258.268	1525.72
1261.529	1502.66
1264.79	1503.01
1268.051	1560.9
1271.312	1569.26
1274.572	1546.32
1277.832	1536.01
1281.092	1522.56
1284.351	1520.41
1287.61	1510.37
1290.869	1471.6
1294.128	1472.98
1297.386	1496.68
1300.644	1491.77
1303.902	1499.24
1307.159	1413.98
1310.416	1446.79
1313.673	1464.04
1316.93	1467.11
1320.186	1481.92
1323.442	1500.32
1326.697	1501.79
1329.953	1485.16
1333.208	1510.64
1336.463	1495.84
1339.717	1474.41
1342.972	1545.33
1346.226	1526.97
1349.479	1502.8
1352.733	1485.3
1355.986	1497.27
1359.238	1485.24
1362.491	1487.4
1365.743	1486.63
1368.995	1484.2
1372.247	1494.26
1375.498	1503.9
1378.749	1531.27
1382	1504.19
1385.251	1520.66
1388.501	1494.91
1391.751	1491.22
1395	1476.37
1398.25	1493.74
1401.499	1512.42
1404.748	1480.03
1407.996	1468.88
1411.244	1466.97
1414.492	1456.67
1417.74	1448
1420.987	1455.41
1424.234	1492.23
1427.481	1469.06
1430.728	1503.91
1433.974	1488.99
1437.22	1488.65
1440.465	1482.93
1443.711	1486.14
1446.956	1496.21
1450.201	1480.32
1453.445	1507.65
1456.689	1496.66
1459.933	1506.64
1463.177	1531.21
1466.42	1514.62
1469.663	1503.05
1472.906	1512.6
1476.148	1543.91
1479.391	1515.33
1482.633	1503.75
1485.874	1518.61
1489.115	1524.1
1492.356	1512.61
1495.597	1495.42
1498.838	1487.38
1502.078	1480.61
1505.318	1466.39
1508.557	1480.97
1511.797	1480.3
1515.036	1513.82
1518.274	1486.8
1521.513	1451.15
1524.751	1455.46
1527.989	1469.61
1531.227	1480.72
1534.464	1486.49
1537.701	1478.6
1540.938	1483.29
1544.174	1452.23
1547.41	1442.63
1550.646	1467.36
1553.882	1496.51
1557.117	1536.29
1560.352	1541.03
1563.587	1512.3
1566.821	1493.71
1570.055	1506.11
1573.289	1489.51
1576.523	1522.55
1579.756	1531.24
1582.989	1545.56
1586.222	1515.09
1589.454	1539.21
1592.686	1528.56
1595.918	1544.49
1599.15	1544.77
1602.381	1572
1605.612	1561.79
1608.843	1619.74
1612.073	1571.36
1615.303	1565.16
1618.533	1560.28
1621.762	1563.13
1624.992	1542.42
1628.221	1540.05
1631.449	1534.36
1634.678	1549.58
1637.906	1530.45
1641.134	1542.42
1644.361	1521.61
1647.588	1513.72
1650.815	1529.51
1654.042	1507.31
1657.269	1521.7
1660.495	1511.93
1663.72	1504.09
1666.946	1481.01
1670.171	1470.45
1673.396	1448.46
1676.621	1439.78
1679.845	1436.93
1683.069	1441.32
1686.293	1457
1689.517	1453.28
1692.74	1426.71
1695.963	1438.02
1699.185	1462.32
1702.408	1448.46
1705.63	1464.4
1708.852	1477.92
1712.073	1457.88
1715.294	1470.64
1718.515	1500.67
1721.736	1474.98
1724.956	1462.33
1728.176	1478
1731.396	1490.31
1734.616	1485.27
1737.835	1513.76
1741.054	1492.86
1744.272	1490.49
1747.491	1517.46
1750.709	1528.5
1753.927	1500.31
1757.144	1516.83
1760.361	1554.24
1763.578	1535.19
1766.795	1504.55
1770.011	1496.21
1773.227	1507.07
1776.443	1537.22
1779.658	1561.87
1782.874	1527.48
1786.089	1523.32
1789.303	1522.5
1792.518	1523.48
1795.732	1516.65
1798.945	1525.05
1802.159	1554.73
1805.372	1518.43
1808.585	1515.83
1811.797	1512.75
1815.01	1531.67
1818.222	1548.9
1821.434	1521.71
1824.645	1547.82
1827.856	1553.82
1831.067	1570.73
1834.278	1537.01
1837.488	1523.69
1840.698	1600.92
1843.908	1570.48
1847.117	1556.56
1850.326	1509.04
1853.535	1543.54
1856.744	1571.83
1859.952	1523.84
1863.16	1523.04
1866.368	1539.64
1869.575	1611.84
1872.782	1539.18
1875.989	1499.97
1879.196	1532.58
1882.402	1525.9
1885.608	1545.17
1888.814	1513.31
1892.019	1456.75
1895.224	1494.68
1898.429	1475.36
1901.634	1461.11
1904.838	1448.06
1908.042	1487.15
1911.246	1497.99
1914.449	1473.68
1917.652	1462.49
1920.855	1451.24
1924.058	1467.29
1927.26	1500.56
1930.462	1511.36
1933.664	1537.55
1936.865	1505.61
1940.066	1514.09
1943.267	1477.94
1946.467	1484.84
1949.668	1492.04
1952.868	1538.36
1956.067	1537.7
1959.267	1497.45
1962.466	1513.03
1965.665	1500.12
1968.863	1497.29
1972.061	1493.69
1975.259	1488.11
1978.457	1536.8
1981.654	1510.75
1984.852	1512.78
1988.048	1487.56
1991.245	1475.26
1994.441	1532.78
1997.637	1497.23
2000.833	1488.56
2004.028	1510.94
2007.223	1555.46
2010.418	1546.26
2013.613	1513.84
2016.807	1511.91
2020.001	1509.38
2023.194	1520.07
2026.388	1508.36
2029.581	1474.49
2032.774	1519.03
2035.966	1524.76
2039.158	1490.58
2042.35	1502.93
2045.542	1455.01
2048.733	1509.93
2051.924	1497.37
2055.115	1506.37
2058.306	1487.45
2061.496	1522.18
2064.686	1551.43
2067.875	1488.49
2071.065	1487.58
2074.254	1498.5
2077.442	1467.45
2080.631	1521.98
2083.819	1481.97
2087.007	1478.89
2090.195	1469.47
2093.382	1473.81
2096.569	1469.47
2099.756	1442.46
2102.942	1480.5
2106.128	1489.52
2109.314	1483.91
2112.5	1477.84
2115.685	1453.89
2118.87	1458.48
2122.055	1503.88
2125.239	1489.85
2128.424	1483.25
2131.608	1514.72
2134.791	1505.19
2137.974	1527.47
2141.157	1519.66
2144.34	1502.45
2147.523	1491.09
2150.705	1514.71
2153.887	1489.06
2157.068	1471.14
2160.25	1456.07
2163.431	1473.68
2166.611	1455.59
2169.792	1471.54
2172.972	1409.78
2176.152	1446.8
2179.331	1461.16
2182.511	1463.57
2185.69	1474.94
2188.868	1479.01
2192.047	1500.94
2195.225	1520.37
2198.403	1479.27
2201.58	1470.99
2204.758	1460.21
2207.935	1510.59
2211.111	1455.75
2214.288	1448.9
2217.464	1472.27
2220.64	1444.67
2223.815	1475.96
2226.991	1429.74
2230.166	1436.94
2233.34	1469.91
2236.515	1479.72
2239.689	1525.21
2242.863	1491.27
2246.036	1525.24
2249.209	1514.02
2252.382	1527.27
2255.555	1533.45
2258.727	1505
2261.9	1522.23
2265.071	1519.14
2268.243	1519.3
2271.414	1486.22
2274.585	1472.81
2277.756	1513.1
2280.926	1485.86
2284.096	1504.94
2287.266	1460.75
2290.436	1492.97
2293.605	1503.36
2296.774	1530.82
2299.942	1533.36
2303.111	1544.1
2306.279	1578.08
2309.447	1571
2312.614	1555.31
2315.781	1570.67
2318.948	1553.88
2322.115	1578.96
2325.281	1505.45
2328.447	1509.87
2331.613	1488.9
2334.779	1486
2337.944	1480.32
2341.109	1481.35
2344.274	1475.49
2347.438	1452.34
2350.602	1465.36
2353.766	1473.98
2356.929	1468.25
2360.092	1496.1
2363.255	1473.59
2366.418	1459.95
2369.58	1485.22
2372.742	1463.04
2375.904	1447.83
2379.066	1441.48
2382.227	1458.97
2385.388	1433.02
2388.548	1402.29
2391.709	1423.87
2394.869	1422.15
2398.029	1456.29
2401.188	1445.05
2404.347	1433.6
2407.506	1430.68
2410.665	1467.94
2413.823	1453.11
2416.981	1441.57
2420.139	1454.08
2423.296	1478.85
2426.453	1461.93
2429.61	1475.86
2432.767	1459.75
2435.923	1485.49
2439.079	1448.99
2442.235	1471.83
2445.391	1433.89
2448.546	1462.04
2451.701	1485.06
2454.855	1482.1
2458.009	1499.94
2461.163	1490.41
2464.317	1469.23
2467.471	1485.95
2470.624	1508.06
2473.777	1501.78
2476.929	1513.06
2480.082	1529.37
2483.234	1518.58
2486.385	1478.58
2489.537	1474.2
2492.688	1467.57
2495.839	1486.77
2498.989	1496.27
2502.14	1487.44
2505.29	1481.49
2508.439	1498.38
2511.589	1462.69
2514.738	1458.28
2517.887	1469.47
2521.035	1518.54
2524.183	1489.19
2527.331	1484.02
2530.479	1475.11
2533.627	1478.6
