Data from N_1_DIV_WI_4N_Splice17_11-32-13-619.txt Node
Date: Sat Mar 14 11:32:13 EDT 2020
User: sa697716
Spectrometer: FLMS03696
Trigger mode: 0
Integration Time (sec): 3.180400E-1
Scans to average: 20
Electric dark correction enabled: true
Nonlinearity correction enabled: true
Boxcar width: 5
XAxis mode: Wavelengths
Number of Pixels in Spectrum: 2048
>>>>>Begin Spectral Data<<<<<
187.83	-152167.92
188.298	1146.02
188.766	631.2
189.233	590.49
189.701	768.8
190.169	992.68
190.636	374.71
191.104	292.05
191.571	41.98
192.039	-30.88
192.506	-89.06
192.974	192.11
193.441	-387.55
193.908	-103.07
194.375	-36.64
194.842	-5.29
195.31	-37.52
195.777	64.1
196.244	126.08
196.711	67
197.177	47.57
197.644	0.26
198.111	-27.27
198.578	-23.75
199.045	-39.49
199.511	-94.25
199.978	-170.13
200.445	-105.34
200.911	-118.89
201.378	-163.92
201.844	-103.11
202.31	-191.36
202.777	-153.22
203.243	-57.59
203.709	-77.63
204.176	-56.12
204.642	-14.59
205.108	2.93
205.574	12.95
206.04	-13.24
206.506	-16.39
206.972	-43.84
207.438	-48.68
207.903	-52.33
208.369	-17.38
208.835	13.74
209.301	15.05
209.766	11.47
210.232	14.08
210.697	-10.19
211.163	-47.73
211.628	-111.46
212.094	-76.3
212.559	-39.43
213.024	-40.76
213.49	-56.38
213.955	-99.62
214.42	-138.27
214.885	-139.06
215.35	-125.51
215.815	-35.33
216.28	6.29
216.745	8.35
217.21	47.29
217.675	20.24
218.14	26.04
218.604	7.68
219.069	23.18
219.534	72.09
219.998	67.42
220.463	64.74
220.927	-23.26
221.392	-24.13
221.856	-2.78
222.32	-57.72
222.785	-46.68
223.249	-64.27
223.713	-82.78
224.177	-68.28
224.642	-191.25
225.106	-228.91
225.57	-244.55
226.034	-103.23
226.497	-169.71
226.961	-150.86
227.425	-141.97
227.889	-200.03
228.353	-196.06
228.816	-448.75
229.28	-421.78
229.744	-304.85
230.207	-102.66
230.671	-127.37
231.134	-354.49
231.597	-306.69
232.061	-281.24
232.524	-307.96
232.987	-190.11
233.45	-127.82
233.914	-87.29
234.377	-121.25
234.84	-112.51
235.303	-193.39
235.766	-194.78
236.229	-185.59
236.691	-142.68
237.154	-192.16
237.617	-133.13
238.08	-153.06
238.542	-201.12
239.005	-137.42
239.468	-111.24
239.93	-94.3
240.393	-79.5
240.855	-73.09
241.317	-80.82
241.78	-117.63
242.242	-103.38
242.704	-83.1
243.166	-60.38
243.629	-19.87
244.091	-17.8
244.553	-40.84
245.015	-31.65
245.477	-58.44
245.939	-84.7
246.4	-99.99
246.862	-112.83
247.324	-100.68
247.786	-155.02
248.247	-261.59
248.709	-380.63
249.17	-275.17
249.632	-147.29
250.093	-127.9
250.555	-100.01
251.016	-23.52
251.477	-5.07
251.939	-9.11
252.4	-23.91
252.861	-49.75
253.322	-8.02
253.783	-45.78
254.244	-98.21
254.705	-167.25
255.166	-203.59
255.627	-203
256.088	-293.63
256.549	-296.42
257.009	-240.06
257.47	-300.86
257.931	-276.5
258.391	-190.74
258.852	-197.05
259.312	-201.99
259.773	-253.02
260.233	-155.43
260.694	-83.5
261.154	-106.69
261.614	-44.6
262.074	-39.3
262.534	-38.75
262.994	-8.31
263.455	-42.83
263.915	-7.14
264.374	-17.29
264.834	-19.82
265.294	-47.06
265.754	-68.41
266.214	-69.04
266.673	-85.15
267.133	-120.68
267.593	-126.6
268.052	-139.99
268.512	-114.25
268.971	-99.72
269.431	-83.78
269.89	-51.68
270.349	-79.41
270.809	-54.78
271.268	-25.94
271.727	-152.14
272.186	-60.83
272.645	-10.25
273.104	-69.35
273.563	-147.22
274.022	-165.03
274.481	-105.75
274.94	-84.28
275.399	-61.23
275.857	-101.93
276.316	-199.56
276.775	-179.91
277.233	-176.87
277.692	-156.78
278.15	-141.14
278.609	-67.04
279.067	-84.35
279.525	-75.37
279.984	-127.7
280.442	-175.66
280.9	-101.92
281.358	-29.7
281.816	-19.61
282.274	-33.63
282.732	-58.92
283.19	-93.08
283.648	-127.2
284.106	-137.94
284.564	-154.05
285.021	-105.55
285.479	-77.23
285.937	-105.16
286.394	-86.57
286.852	-97.65
287.309	-85.59
287.767	-42.65
288.224	-14.06
288.682	-26.27
289.139	-20.01
289.596	-15.79
290.053	-43.85
290.511	-87.49
290.968	-81.76
291.425	-126.25
291.882	-60.91
292.339	-44.63
292.796	-87.14
293.252	-97.48
293.709	-29.92
294.166	-36.17
294.623	-41.69
295.079	-43.91
295.536	-0.55
295.992	5.04
296.449	12.78
296.905	25.7
297.362	32.16
297.818	27.17
298.274	36.29
298.731	9.14
299.187	15.16
299.643	1.49
300.099	15.17
300.555	-5.34
301.011	13.3
301.467	70.69
301.923	22.72
302.379	44.8
302.835	35.98
303.291	42.41
303.746	28.4
304.202	24.68
304.658	26.98
305.113	22.04
305.569	15.02
306.024	-44.42
306.479	-105.03
306.935	-48.71
307.39	-109.46
307.845	-100.49
308.301	-94.36
308.756	-91.68
309.211	-68.07
309.666	-66.75
310.121	-47.68
310.576	-53.87
311.031	-49.33
311.486	-97.91
311.94	-156.99
312.395	-222.42
312.85	-440.73
313.305	-3137.06
313.759	-11277.62
314.214	-897.62
314.668	-773.93
315.123	-631.41
315.577	-197.51
316.032	-171.71
316.486	-218.76
316.94	-143.31
317.394	-71.35
317.849	-47.33
318.303	-38.89
318.757	-35.01
319.211	-23.76
319.665	1.51
320.119	1.44
320.572	-36.35
321.026	-6.75
321.48	9.15
321.934	5.3
322.387	8.17
322.841	9.16
323.295	54.54
323.748	22.8
324.202	7.57
324.655	24.92
325.108	54.94
325.562	94.6
326.015	79.88
326.468	54.79
326.921	76.76
327.374	87.39
327.827	122.96
328.28	123.81
328.733	113.09
329.186	107.17
329.639	72.86
330.092	41.26
330.545	30.69
330.997	34.13
331.45	53.41
331.903	71.16
332.355	61.97
332.808	46.63
333.26	42.53
333.713	20.75
334.165	9.88
334.617	18.35
335.069	-37.98
335.522	-144.12
335.974	-163.19
336.426	-209.88
336.878	-254.41
337.33	-112.21
337.782	-137.89
338.234	-178.01
338.686	-223.33
339.137	-283.7
339.589	-298.98
340.041	-189.8
340.493	-142.03
340.944	-118.92
341.396	-135.07
341.847	-72.52
342.299	-61.6
342.75	-57.54
343.201	-81.77
343.653	-97.71
344.104	-145.72
344.555	-87.38
345.006	-210.26
345.457	-101.7
345.908	-128.81
346.359	-64.95
346.81	-54.06
347.261	-92.91
347.712	-96.93
348.163	-109.97
348.613	-45.11
349.064	-21.46
349.515	-14.03
349.965	10.08
350.416	-14.8
350.866	-7.39
351.317	-75.32
351.767	-101.84
352.217	-97.53
352.668	-32.16
353.118	-37.97
353.568	-173.01
354.018	-108.26
354.468	-93.12
354.918	-59.44
355.368	-73.77
355.818	-106.86
356.268	-386.29
356.718	-1264.16
357.168	-258.34
357.617	-173.08
358.067	-239.21
358.517	-199.22
358.966	-209.41
359.416	-180.21
359.865	-220.73
360.315	-257.43
360.764	-120.84
361.213	-43.84
361.663	-86.72
362.112	-128
362.561	-213.98
363.01	-140.5
363.459	-119.74
363.908	-157.69
364.357	-113.2
364.806	-265.95
365.255	-155.36
365.703	-80.01
366.152	-71.87
366.601	-32.79
367.05	18.5
367.498	43.05
367.947	35.07
368.395	32.93
368.844	36.15
369.292	-23.44
369.74	19.07
370.189	12.89
370.637	-46.34
371.085	-36.03
371.533	-51.15
371.981	-93.06
372.429	-59.87
372.877	-20.35
373.325	-1.82
373.773	-9.63
374.221	0.01
374.669	-37.85
375.116	-38.62
375.564	-46.03
376.012	-83.25
376.459	-60.57
376.907	-69.4
377.354	-142.98
377.801	-140.55
378.249	-162.02
378.696	-231.74
379.143	-295.38
379.591	-297.68
380.038	-466.24
380.485	-213.75
380.932	-178.04
381.379	-68.92
381.826	12.17
382.273	-11.02
382.72	-21.1
383.166	-18.91
383.613	5.69
384.06	28.62
384.506	36.02
384.953	12.09
385.4	2.86
385.846	9.92
386.292	-11.39
386.739	-35.36
387.185	-41.7
387.631	-45.08
388.078	-29.32
388.524	-39.79
388.97	-33.99
389.416	-19.61
389.862	-11.04
390.308	-2.19
390.754	-5.39
391.2	-18.65
391.645	-25.94
392.091	11.95
392.537	13.16
392.983	-4.73
393.428	27.17
393.874	21.01
394.319	30.13
394.765	50.42
395.21	42.35
395.655	46.44
396.101	50.38
396.546	52.52
396.991	34.24
397.436	37.76
397.881	37.38
398.326	15.52
398.771	19.84
399.216	13.55
399.661	0.97
400.106	4.06
400.551	3.89
400.995	3.64
401.44	5.7
401.885	7.26
402.329	1.9
402.774	4.92
403.218	15.95
403.663	12.31
404.107	10.55
404.551	16.15
404.995	14.21
405.44	10.09
405.884	7.54
406.328	1.21
406.772	-1.37
407.216	4.7
407.66	0.85
408.104	-5.94
408.547	-5.3
408.991	-3.53
409.435	-7.63
409.879	-5.27
410.322	-4.44
410.766	-0.84
411.209	4.11
411.653	2.79
412.096	2.29
412.54	3.02
412.983	2.47
413.426	7.15
413.869	5.73
414.312	9.99
414.756	7.28
415.199	6.23
415.642	8.33
416.085	7.41
416.527	4.98
416.97	3.31
417.413	3.5
417.856	1.82
418.298	-1.71
418.741	-4.06
419.184	-8.46
419.626	-14.2
420.069	-13.93
420.511	-15.11
420.953	-11.24
421.396	-7.46
421.838	-7.07
422.28	-6.45
422.722	-4.8
423.164	-6.54
423.606	-3.99
424.048	-5.29
424.49	-0.42
424.932	-0.33
425.374	-2.94
425.816	-8.24
426.258	-9.46
426.699	-11.76
427.141	-7.9
427.582	-6.94
428.024	-6.32
428.465	-8.92
428.907	-5.9
429.348	-6.79
429.789	-5.28
430.231	-1.85
430.672	-1.22
431.113	-1.36
431.554	-0.6
431.995	-3.92
432.436	-2.66
432.877	-2.78
433.318	1.27
433.759	-0.08
434.2	0.16
434.64	-1.25
435.081	-1.6
435.522	0.2
435.962	1.36
436.403	4.44
436.843	2.31
437.284	1.08
437.724	-0.03
438.164	-4.06
438.604	-3.65
439.045	-1.07
439.485	1.93
439.925	1.51
440.365	1.02
440.805	-0.52
441.245	-0.08
441.685	0.59
442.125	-2.52
442.564	-4.2
443.004	-2.29
443.444	-1.95
443.883	-2.38
444.323	-7.26
444.762	-11.12
445.202	-12.79
445.641	-9.72
446.081	-12.95
446.52	-11.79
446.959	-8.64
447.398	-4.69
447.837	-3.93
448.276	-5.47
448.716	-4.93
449.154	-4.61
449.593	-2.15
450.032	-1.78
450.471	-4.73
450.91	-3.97
451.349	-2.18
451.787	-3.45
452.226	-5.29
452.664	-5.76
453.103	-3.93
453.541	-6.69
453.98	-3.07
454.418	-2.85
454.856	0.34
455.295	1.18
455.733	1.59
456.171	-0.33
456.609	1.87
457.047	3.16
457.485	4.11
457.923	5.21
458.361	5.6
458.798	4.02
459.236	3.73
459.674	0.61
460.111	1.33
460.549	1.82
460.987	0.81
461.424	0.24
461.862	-0.11
462.299	0.25
462.736	0.35
463.173	0.86
463.611	3.99
464.048	5.15
464.485	7.1
464.922	6.09
465.359	5.78
465.796	13.41
466.233	13.81
466.67	15.94
467.106	16.26
467.543	14.7
467.98	14.34
468.416	12.31
468.853	11.26
469.29	9.81
469.726	9.36
470.162	8.53
470.599	2.8
471.035	2.14
471.471	0.55
471.907	-1.65
472.344	-1.65
472.78	-1.47
473.216	-2.71
473.652	-2.5
474.088	-2.97
474.523	-1.66
474.959	-2.63
475.395	-2.57
475.831	-3.07
476.266	-2.73
476.702	-3.57
477.138	-2.87
477.573	-3.15
478.008	-2.16
478.444	-0.97
478.879	0.67
479.314	-0.02
479.75	1.05
480.185	0.46
480.62	0.03
481.055	-0.18
481.49	1.08
481.925	0.88
482.36	2.85
482.795	1.71
483.229	0.27
483.664	-0.32
484.099	-0.22
484.534	0
484.968	0.8
485.403	0.98
485.837	0.58
486.271	0.36
486.706	-0.23
487.14	-1.6
487.574	-0.8
488.009	-0.63
488.443	-0.94
488.877	-0.32
489.311	-1.21
489.745	-0.91
490.179	-0.83
490.613	0.65
491.046	0.67
491.48	0.85
491.914	1.44
492.348	0.81
492.781	0.83
493.215	1
493.648	0.26
494.082	0.28
494.515	0.17
494.948	1.06
495.382	-0.55
495.815	-0.53
496.248	-0.11
496.681	-1.22
497.114	-1.48
497.547	-0.79
497.98	0.13
498.413	1.48
498.846	2.14
499.279	1.68
499.711	0.67
500.144	0.68
500.577	1.68
501.009	1.15
501.442	2.56
501.874	3.16
502.306	2.12
502.739	3.34
503.171	2.78
503.603	2.56
504.036	2.11
504.468	2.87
504.9	2.9
505.332	2.36
505.764	3.33
506.196	2.76
506.627	2.8
507.059	3.18
507.491	0.89
507.923	0.55
508.354	1.4
508.786	1.75
509.217	1.48
509.649	1.38
510.08	0.73
510.512	0.68
510.943	0.96
511.374	1.07
511.805	0.87
512.237	0.93
512.668	0.5
513.099	-0.46
513.53	-0.39
513.961	-0.06
514.391	0.08
514.822	1.75
515.253	1.96
515.684	1.55
516.114	1.48
516.545	1.88
516.975	1.5
517.406	1.21
517.836	0.99
518.267	1.18
518.697	1.84
519.127	2.04
519.558	1.12
519.988	0.44
520.418	-0.01
520.848	-0.62
521.278	-1.07
521.708	18.88
522.138	19.68
522.567	18.92
522.997	18.83
523.427	17.99
523.857	17.76
524.286	17.26
524.716	17.56
525.145	18.31
525.575	19.16
526.004	18.76
526.433	-0.74
526.863	-1.21
527.292	0.85
527.721	1.36
528.15	1.23
528.579	1.47
529.008	1.98
529.437	1.02
529.866	-0.16
530.295	-0.71
530.724	0.5
531.152	0.9
531.581	1.86
532.01	1.46
532.438	0.42
532.867	0.1
533.295	0.07
533.723	-0.38
534.152	0.12
534.58	1.28
535.008	1.78
535.436	2.1
535.865	1.5
536.293	0.22
536.721	-0.4
537.149	0.15
537.576	0.65
538.004	0.73
538.432	0.55
538.86	1.13
539.287	0.49
539.715	0.42
540.143	-0.67
540.57	0.32
540.998	0.66
541.425	2.26
541.852	1.79
542.28	1.46
542.707	1.16
543.134	1.63
543.561	1.4
543.988	1.6
544.415	1.06
544.842	0.34
545.269	-0.52
545.696	-0.25
546.123	-1.02
546.549	-0.23
546.976	-0.35
547.403	0.03
547.829	-1.01
548.256	-1.71
548.682	-1.9
549.108	-1.03
549.535	-0.48
549.961	-0.25
550.387	-0.38
550.813	-0.02
551.24	-0.31
551.666	-0.41
552.092	-0.38
552.518	0.15
552.943	1.02
553.369	0.88
553.795	0.91
554.221	1.57
554.646	1.72
555.072	2.48
555.498	1.49
555.923	0.71
556.349	0.8
556.774	0.54
557.199	0.39
557.625	-0.79
558.05	-0.24
558.475	-0.56
558.9	-0.89
559.325	-0.34
559.75	-0.04
560.175	0.4
560.6	0.73
561.025	0.6
561.449	0.61
561.874	0.33
562.299	1.14
562.723	0.64
563.148	0.38
563.572	0.45
563.997	0.12
564.421	-1.15
564.846	-1.51
565.27	-1.15
565.694	-1.14
566.118	-1.52
566.542	-0.18
566.966	0.31
567.39	0.56
567.814	0.63
568.238	0.68
568.662	0.14
569.086	0.4
569.509	-0.36
569.933	0.81
570.357	0.65
570.78	1.14
571.204	1.11
571.627	0.79
572.05	0.66
572.474	1.77
572.897	2.03
573.32	2.65
573.743	2.38
574.166	3.52
574.589	2.23
575.012	2.89
575.435	2.28
575.858	2.39
576.281	2.4
576.704	2.13
577.126	0.67
577.549	-0.51
577.972	-1.63
578.394	-1.14
578.817	0.17
579.239	0.3
579.661	0.53
580.084	1.99
580.506	1.67
580.928	1.36
581.35	2.03
581.772	2.41
582.194	2.87
582.616	3.35
583.038	2.56
583.46	1.04
583.882	0.93
584.303	-0.48
584.725	-1.52
585.147	2.29
585.568	2.77
585.99	3.14
586.411	3.78
586.833	4.23
587.254	4.78
587.675	4.68
588.096	4.43
588.518	4.39
588.939	4.87
589.36	5.48
589.781	0.21
590.202	2.26
590.623	2.02
591.043	1.12
591.464	1.41
591.885	1.46
592.305	1.3
592.726	1.19
593.147	1.94
593.567	2.07
593.987	1.5
594.408	1.64
594.828	-0.61
595.248	0.01
595.669	0.78
596.089	0.45
596.509	-0.17
596.929	-0.13
597.349	0.21
597.769	-0.13
598.189	0.34
598.608	0.55
599.028	1.05
599.448	0.63
599.867	-0.32
600.287	-1.07
600.706	-0.46
601.126	0.34
601.545	1.38
601.965	1.07
602.384	1.17
602.803	0.85
603.222	1.28
603.641	0.82
604.061	1.48
604.48	1.81
604.898	1.59
605.317	0.91
605.736	0.47
606.155	1.03
606.574	0.86
606.992	0.35
607.411	0.61
607.829	-0.2
608.248	-0.35
608.666	-0.9
609.085	-1.22
609.503	-0.8
609.921	-0.18
610.339	-0
610.758	-1.43
611.176	-0.89
611.594	-0.15
612.012	-0.22
612.43	0.61
612.847	0.9
613.265	1.8
613.683	1.95
614.101	1.93
614.518	1.23
614.936	1.07
615.353	2
615.771	2.42
616.188	2.23
616.606	2.19
617.023	2.22
617.44	2.46
617.857	1.45
618.274	1.66
618.691	2.12
619.108	2.38
619.525	1.92
619.942	1.86
620.359	1.21
620.776	1.25
621.192	1.95
621.609	2.22
622.026	2.06
622.442	2.48
622.859	1.22
623.275	0.44
623.691	0.24
624.108	1.05
624.524	0.32
624.94	0.34
625.356	-0.13
625.772	-1
626.188	-1.88
626.604	-1.96
627.02	-1.9
627.436	-0.78
627.852	0.88
628.268	1.33
628.683	0.76
629.099	0.48
629.514	0.37
629.93	0.24
630.345	0.18
630.761	-0.49
631.176	-0.23
631.591	1.42
632.007	2.44
632.422	0.45
632.837	-0.33
633.252	0.76
633.667	1.45
634.082	1.38
634.497	2.22
634.911	4.04
635.326	4.82
635.741	5.45
636.155	3.84
636.57	3.9
636.984	4.59
637.399	5.78
637.813	4.54
638.228	4.59
638.642	4.47
639.056	3.97
639.47	2.37
639.884	2.34
640.298	1.92
640.712	2.74
641.126	1.57
641.54	1.09
641.954	-0.88
642.368	-0.46
642.781	0.84
643.195	1.34
643.609	1.81
644.022	1.86
644.436	1.13
644.849	0.74
645.262	-0.31
645.676	-1.11
646.089	-0.8
646.502	1.66
646.915	1.37
647.328	0.84
647.741	0.7
648.154	0.93
648.567	3.04
648.98	4.26
649.393	4.01
649.805	3.51
650.218	3.96
650.631	4.63
651.043	3.43
651.456	3.55
651.868	2.7
652.28	2.44
652.693	0.54
653.105	-1
653.517	-1.38
653.929	-1.14
654.341	0.13
654.753	0.87
655.165	0.25
655.577	0.62
655.989	0.88
656.401	0.54
656.813	1.3
657.224	1.95
657.636	0.67
658.047	1.03
658.459	0.56
658.87	-0.67
659.282	-0.89
659.693	-0.28
660.104	-0.84
660.515	-1.71
660.926	-2.66
661.338	-2.7
661.749	-3.08
662.159	-1.35
662.57	-3.28
662.981	-2.56
663.392	-2.91
663.803	-3.4
664.213	-4.16
664.624	-3.85
665.035	-3.91
665.445	-3.29
665.855	-2.49
666.266	-1.2
666.676	-2.22
667.086	-1.13
667.497	-1.09
667.907	-0.47
668.317	-0.34
668.727	2.98
669.137	2.19
669.547	2.34
669.956	1.99
670.366	0.82
670.776	-0.11
671.186	-0.36
671.595	1.03
672.005	0.04
672.414	0.66
672.824	0.97
673.233	-2.25
673.642	-2.36
674.052	-2
674.461	-0.79
674.87	-0.86
675.279	0.32
675.688	-0.02
676.097	-0.07
676.506	0.31
676.915	-0.89
677.323	-0.62
677.732	-0.34
678.141	0.16
678.549	0.71
678.958	-1.04
679.366	-2.04
679.775	-3.51
680.183	-1.56
680.592	-2.53
681	-2.14
681.408	-1.07
681.816	-2.37
682.224	-3.62
682.632	-2.16
683.04	-3.16
683.448	-2.04
683.856	-0.77
684.264	-0.15
684.671	-1.96
685.079	-1.52
685.487	-2.23
685.894	-3.24
686.302	-2.17
686.709	-0.32
687.116	-1.67
687.524	0.06
687.931	0.57
688.338	0.27
688.745	0.37
689.152	0.47
689.559	-0.22
689.966	2.1
690.373	2.97
690.78	3.4
691.187	3.14
691.593	5.1
692	4.12
692.407	4.31
692.813	6.36
693.22	7.07
693.626	6.18
694.032	6.42
694.439	6.01
694.845	5.42
695.251	3.72
695.657	3.59
696.063	0.56
696.469	0.13
696.875	-0.46
697.281	-2.21
697.687	-3.36
698.093	-3.16
698.498	-2.4
698.904	-3.72
699.31	-3.45
699.715	-1.15
700.12	-1.35
700.526	0.66
700.931	0.83
701.337	1.94
701.742	3.48
702.147	4.12
702.552	4.85
702.957	3.42
703.362	3.15
703.767	2.16
704.172	0.15
704.577	-0.33
704.981	-1.84
705.386	-1.18
705.791	-1.47
706.195	-4.26
706.6	-4.45
707.004	-6.2
707.408	-6.28
707.813	-4.46
708.217	-3.14
708.621	-3.02
709.025	-3.14
709.43	-1.1
709.834	-1.54
710.237	-2.12
710.641	-0.86
711.045	-0.17
711.449	1.52
711.853	4.67
712.256	3.4
712.66	2.81
713.064	2.77
713.467	4.12
713.87	3.45
714.274	4.55
714.677	5.58
715.08	5.41
715.484	5.28
715.887	8.48
716.29	5.32
716.693	6.02
717.096	6.76
717.499	8
717.901	6.47
718.304	5.65
718.707	4.21
719.109	3.85
719.512	3.13
719.915	5.85
720.317	3.14
720.719	2.09
721.122	1.18
721.524	0.76
721.926	5.54
722.328	6.6
722.731	5.78
723.133	5.78
723.535	3.91
723.937	4.52
724.338	4.1
724.74	4.98
725.142	49.49
725.544	53.67
725.945	64.58
726.347	59.73
726.748	59.92
727.15	61.7
727.551	64.47
727.952	64.03
728.354	63.01
728.755	60.48
729.156	58.86
729.557	15.96
729.958	11.54
730.359	1.11
730.76	1.35
731.161	0.52
731.562	-1.32
731.962	-4.06
732.363	-3.24
732.763	-1.88
733.164	-3.54
733.564	-2.92
733.965	-1.39
734.365	-1.08
734.766	-0.95
735.166	-0.94
735.566	0.21
735.966	1.42
736.366	1.97
736.766	1.88
737.166	0.67
737.566	2.01
737.966	1.68
738.365	2.17
738.765	4.2
739.165	4.39
739.564	3.66
739.964	1.75
740.363	0.71
740.763	-0.63
741.162	0.38
741.561	0.25
741.96	0.72
742.36	-0.21
742.759	-1.22
743.158	-3.81
743.557	-4.24
743.955	-3.99
744.354	-3.73
744.753	-4.11
745.152	-1.86
745.55	-2.57
745.949	-1.87
746.348	-2.81
746.746	-3.45
747.144	-0.75
747.543	-0.03
747.941	-0.74
748.339	-0.79
748.737	0.77
749.136	1.66
749.534	-1.47
749.932	0.41
750.33	-0.01
750.727	-0.14
751.125	1.12
751.523	-0.03
751.921	2.68
752.318	3.07
752.716	4.65
753.113	3.85
753.511	2.99
753.908	5.37
754.305	8.27
754.703	8.28
755.1	9.16
755.497	9.27
755.894	6.91
756.291	4.66
756.688	5.63
757.085	3.85
757.482	4.17
757.878	7.14
758.275	6.94
758.672	-0.45
759.068	-1.13
759.465	-3.36
759.861	-5.02
760.258	-6.52
760.654	-6.43
761.05	-4.16
761.447	-4.48
761.843	-3.11
762.239	-4.74
762.635	-5.41
763.031	-8.07
763.427	-8.12
763.822	-4.57
764.218	-5.28
764.614	-3.53
765.01	-6.19
765.405	-6.99
765.801	-4.96
766.196	-6.2
766.592	-6.57
766.987	-5.11
767.382	-3.03
767.778	-2.44
768.173	-3.98
768.568	-3.51
768.963	-2.59
769.358	-1.95
769.753	-0.62
770.148	-0.92
770.542	0.19
770.937	-0.12
771.332	-0.85
771.726	-2.17
772.121	1.32
772.515	1.49
772.91	1.76
773.304	1.79
773.699	2.03
774.093	-0.2
774.487	-0.11
774.881	-1.81
775.275	-1.03
775.669	-1.94
776.063	-0.7
776.457	-2.98
776.851	-2.56
777.245	-2.21
777.638	-2.51
778.032	-2.69
778.425	-0.9
778.819	0.6
779.212	3.49
779.606	5.5
779.999	4.96
780.392	6.13
780.786	4
781.179	4.52
781.572	5.4
781.965	6.21
782.358	7.3
782.751	5.49
783.143	4.03
783.536	3.63
783.929	1.8
784.322	2.22
784.714	0.42
785.107	1.7
785.499	3.17
785.891	3.44
786.284	4.01
786.676	2.64
787.068	5.08
787.46	6.02
787.852	4.75
788.245	4.27
788.636	2.47
789.028	3.72
789.42	4.65
789.812	3.35
790.204	1.71
790.595	2.63
790.987	4.37
791.378	2.92
791.77	0.82
792.161	0.12
792.553	0.16
792.944	2.92
793.335	0.22
793.726	1.45
794.117	2.25
794.508	1.95
794.899	-0.73
795.29	-3.64
795.681	-2.3
796.072	-1.5
796.463	14.66
796.853	17.61
797.244	17.3
797.634	20.23
798.025	19.01
798.415	16.81
798.806	18.1
799.196	19.34
799.586	25.44
799.976	28.18
800.366	26.94
800.756	9.51
801.146	7.08
801.536	7.04
801.926	6.59
802.316	8.88
802.706	10.93
803.095	11.31
803.485	10.95
803.874	7.29
804.264	5.11
804.653	7.11
805.043	10.68
805.432	13.81
805.821	16.14
806.21	15.81
806.599	11.29
806.988	11.49
807.377	7.2
807.766	6.16
808.155	5.3
808.544	3.23
808.933	3.2
809.321	3.07
809.71	-3.82
810.098	-4.97
810.487	-7.25
810.875	-6.66
811.264	-7.33
811.652	5.4
812.04	7.93
812.428	10.25
812.816	9.03
813.204	10.73
813.592	7.51
813.98	11.28
814.368	13.08
814.756	13.46
815.144	13.5
815.531	16.52
815.919	5.24
816.306	0.63
816.694	-0.58
817.081	2.26
817.469	0.61
817.856	-3.16
818.243	-6.48
818.63	-9.21
819.017	-3.48
819.404	-0.96
819.791	-4.67
820.178	-8.3
820.565	-4.35
820.952	1.96
821.339	5.42
821.725	5.23
822.112	9.15
822.498	13.11
822.885	13.18
823.271	8.42
823.657	1.55
824.044	1.49
824.43	3.23
824.816	12.38
825.202	9.74
825.588	7
825.974	11
826.36	13.46
826.746	12.05
827.132	12.32
827.517	16.21
827.903	23.97
828.289	27.78
828.674	28.23
829.06	22.72
829.445	18.33
829.83	15.69
830.216	14.46
830.601	17.77
830.986	24.49
831.371	26.38
831.756	27.47
832.141	30.13
832.526	31.27
832.911	33.99
833.295	31.64
833.68	31.37
834.065	34.04
834.449	32.87
834.834	31.74
835.218	30.63
835.603	28.56
835.987	25.23
836.371	19.92
836.755	19.8
837.139	12.29
837.524	6.47
837.908	5.24
838.291	6.1
838.675	2.4
839.059	-0.36
839.443	-4.88
839.827	-6.23
840.21	-9.67
840.594	-6.33
840.977	-7.34
841.361	-1.82
841.744	0.46
842.127	2.16
842.511	-2.23
842.894	-5.47
843.277	-4.35
843.66	-5.69
844.043	-3.86
844.426	4.05
844.809	-0.36
845.191	-1.38
845.574	-0.85
845.957	-0.49
846.339	3.79
846.722	5.86
847.104	8.75
847.487	5.58
847.869	9.3
848.252	9.73
848.634	7.21
849.016	9.52
849.398	5.81
849.78	4.85
850.162	6.89
850.544	2.72
850.926	0.21
851.307	1.27
851.689	1.13
852.071	-7.25
852.452	-7.62
852.834	-10.75
853.215	-7.82
853.597	-8.83
853.978	-5.43
854.359	-6.24
854.741	2.49
855.122	3.82
855.503	-0.97
855.884	-1.06
856.265	5.44
856.646	1.3
857.026	7.18
857.407	7.29
857.788	12.41
858.169	6.17
858.549	14.56
858.93	11.93
859.31	13.97
859.69	23.11
860.071	24.4
860.451	23.26
860.831	24.61
861.211	19.49
861.591	14.34
861.971	10.17
862.351	9.65
862.731	3.02
863.111	1.65
863.491	4.09
863.87	-0.28
864.25	0.68
864.629	8.35
865.009	9.49
865.388	12.29
865.768	11.37
866.147	15.11
866.526	20.91
866.905	19.42
867.284	8.3
867.663	2.74
868.042	-0.62
868.421	-2.02
868.8	-10.3
869.179	-9.05
869.558	-8.76
869.936	-3.97
870.315	-5.9
870.693	-4.75
871.072	-11.8
871.45	-6.17
871.828	-2.74
872.207	0.13
872.585	5.9
872.963	4.94
873.341	8.72
873.719	14.98
874.097	15.44
874.475	10.19
874.853	6.32
875.23	14.73
875.608	19.15
875.986	17.03
876.363	17.5
876.741	20.21
877.118	26.76
877.495	27.06
877.873	24.97
878.25	22.14
878.627	27.81
879.004	30.35
879.381	19.28
879.758	22.97
880.135	21.12
880.512	17.64
880.889	7.25
881.265	0.87
881.642	-7.81
882.019	-9.28
882.395	-1.72
882.772	3.57
883.148	4.33
883.524	11.54
883.901	5.8
884.277	1.81
884.653	1.03
885.029	8.02
885.405	18.77
885.781	22.98
886.157	22.09
886.532	19.38
886.908	13.31
887.284	10.74
887.659	10.44
888.035	11.54
888.411	12.9
888.786	12.3
889.161	14.43
889.537	0.63
889.912	7.16
890.287	8.57
890.662	1.09
891.037	-2.78
891.412	-6.23
891.787	-8.94
892.162	-3.26
892.536	2.27
892.911	4.58
893.286	-4.79
893.66	2.08
894.035	-2.7
894.409	-10.71
894.784	-5.08
895.158	-1.54
895.532	1.48
895.906	6.7
896.281	5.9
896.655	7.2
897.029	10.92
897.402	15.16
897.776	9.5
898.15	15.94
898.524	17.68
898.898	11.72
899.271	20.03
899.645	27.57
900.018	28.72
900.392	29.04
900.765	24.74
901.138	20.49
901.511	19.03
901.884	26.67
902.258	27.6
902.631	38.71
903.003	42.13
903.376	28.12
903.749	21.01
904.122	9.92
904.495	0.13
904.867	1.59
905.24	9.82
905.612	9.34
905.985	-2.11
906.357	-14.79
906.729	-13.62
907.102	-1.81
907.474	5.1
907.846	16.52
908.218	24.97
908.59	32.21
908.962	26.78
909.334	27.63
909.705	35.19
910.077	32.87
910.449	34.4
910.82	34.82
911.192	38.16
911.563	50.04
911.935	23.63
912.306	10.26
912.677	1.32
913.048	13.88
913.419	7.75
913.79	-9.91
914.161	-5.71
914.532	7.86
914.903	-4.48
915.274	-6.74
915.645	-14.29
916.015	-5.3
916.386	6.22
916.756	5.41
917.127	-6.78
917.497	5.89
917.868	18.15
918.238	19.19
918.608	11.9
918.978	16.31
919.348	3.1
919.718	-3.39
920.088	6.23
920.458	13.21
920.828	9.57
921.198	20.26
921.567	5.86
921.937	3.11
922.306	-6.17
922.676	-16.52
923.045	3.96
923.415	22.42
923.784	19.41
924.153	32.31
924.522	27.76
924.891	30.32
925.26	26.08
925.629	25.98
925.998	22.57
926.367	30.63
926.736	50.29
927.104	38.18
927.473	17.47
927.842	14.65
928.21	-11.77
928.578	-25.32
928.947	-14.41
929.315	-5.78
929.683	-0.4
930.051	15.23
930.42	0.72
930.788	5.71
931.156	5.51
931.523	61.34
931.891	80.08
932.259	87.14
932.627	122.46
932.994	135.84
933.362	122.13
933.729	96.15
934.097	90.64
934.464	92.21
934.831	76.61
935.199	74.44
935.566	28.5
935.933	-15.79
936.3	-14.82
936.667	-16.84
937.034	68.98
937.401	50.8
937.767	68.48
938.134	52.71
938.501	59.13
938.867	88.89
939.234	125.58
939.6	101.74
939.967	157.28
940.333	111.4
940.699	70.08
941.065	-27.79
941.431	-11.84
941.798	24.38
942.163	79.02
942.529	30.64
942.895	14.31
943.261	37.75
943.627	64.05
943.992	64.72
944.358	72.8
944.723	109.93
945.089	111.8
945.454	105.59
945.82	66.18
946.185	45.81
946.55	76.04
946.915	59.8
947.28	44.97
947.645	23.94
948.01	38.8
948.375	45.85
948.74	19.75
949.104	3.09
949.469	-75.29
949.834	-63.66
950.198	90.74
950.562	90.93
950.927	115.4
951.291	148.12
951.655	159.9
952.02	115.79
952.384	92.36
952.748	111.94
953.112	137.96
953.476	149.48
953.839	135.35
954.203	121.93
954.567	132.4
954.931	132.39
955.294	123.52
955.658	107.7
956.021	183.94
956.385	185.76
956.748	185.42
957.111	66.57
957.474	-196.02
957.837	-413.77
958.2	-379.55
958.563	-112.95
958.926	5.33
959.289	-15.19
959.652	-7.32
960.015	47.4
960.377	71.47
960.74	57.58
961.102	-20.37
961.465	194.57
961.827	492.33
962.189	873.84
962.552	535.05
962.914	392.51
963.276	249.43
963.638	236.03
964	188.21
964.362	162.8
964.724	146.7
965.085	142.71
965.447	123.66
965.809	51.47
966.17	32.19
966.532	41.44
966.893	47.12
967.255	48.97
967.616	24.95
967.977	37.73
968.338	25
968.699	44.28
969.061	37.52
969.421	48.01
969.782	50.94
970.143	60.39
970.504	93.84
970.865	103.06
971.225	116.98
971.586	128.95
971.946	153.99
972.307	131.35
972.667	114.77
973.027	121.84
973.388	90.29
973.748	107.6
974.108	130.08
974.468	54.3
974.828	107.71
975.188	58.93
975.548	47.4
975.907	57.13
976.267	61.73
976.627	84.77
976.986	73.04
977.346	63.47
977.705	38.28
978.064	24.06
978.424	38.18
978.783	-6.96
979.142	-8.92
979.501	-6.24
979.86	-16.44
980.219	-8.04
980.578	-37.51
980.937	-46.47
981.296	-40.61
981.654	-35.75
982.013	-94.67
982.371	-107.53
982.73	-72.26
983.088	-91.47
983.447	-69.04
983.805	-61.59
984.163	-225.23
984.521	-302.54
984.879	-422.09
985.237	169.06
985.595	57
985.953	26.42
986.311	-48.31
986.669	4.15
987.026	5.76
987.384	-61.04
987.741	-98.91
988.099	-42.42
988.456	-16.47
988.814	-4.62
989.171	-18.98
989.528	-52.89
989.885	-39.77
990.242	-14.67
990.599	-47.43
990.956	-39.81
991.313	-1.12
991.67	4.45
992.027	47.02
992.383	34.62
992.74	38.67
993.096	45.27
993.453	60.48
993.809	54.52
994.165	66.47
994.522	105.8
994.878	114.1
995.234	127.47
995.59	115.71
995.946	36.15
996.302	62.25
996.658	42.02
997.013	37.93
997.369	60.98
997.725	112.5
998.08	76.97
998.436	-59.15
998.791	-40.94
999.147	-47.47
999.502	12.78
999.857	5.55
1000.212	-31.95
1000.567	52.11
1000.922	34.69
1001.277	0.05
1001.632	18.52
1001.987	21.96
1002.342	32.85
1002.696	13.15
1003.051	13.02
1003.406	-2.1
1003.76	-1.26
1004.114	1.87
1004.469	6.3
1004.823	13.7
1005.177	-0.09
1005.531	-18.39
1005.885	-1.52
1006.239	27.02
1006.593	27.45
1006.947	61.26
1007.301	41.41
1007.655	49.16
1008.008	39.47
1008.362	35.84
1008.715	53.01
1009.069	71.95
1009.422	199.63
1009.776	414.99
1010.129	249.68
1010.482	223.01
1010.835	119.1
1011.188	225.58
1011.541	210.69
1011.894	-1209.9
1012.247	3028.56
1012.6	112.4
1012.952	107.52
1013.305	-20.91
1013.657	-2.31
1014.01	-25.81
1014.362	-16.31
1014.715	33.57
1015.067	50.5
1015.419	39.98
1015.771	42.82
1016.123	49.32
1016.475	63.38
1016.827	51.35
1017.179	86.2
1017.531	56.91
1017.883	47.33
1018.234	96.28
1018.586	104.1
1018.938	133.44
1019.289	216.09
1019.64	190.78
1019.992	158.32
1020.343	117.72
1020.694	146.63
1021.045	120.54
1021.396	129.37
1021.747	183.25
1022.098	136.22
1022.449	88.71
1022.8	90.43
1023.151	76.6
1023.501	93.91
1023.852	96.49
1024.202	120.46
1024.553	90.18
1024.903	113.92
1025.253	134.79
1025.604	133.77
1025.954	154.82
1026.304	158.39
1026.654	149.32
1027.004	164.45
1027.354	221.74
1027.703	332.04
1028.053	361.13
1028.403	599.23
1028.753	522.55
1029.102	21.25
1029.452	-3233.84
1029.801	-186.32
1030.15	-76.76
1030.499	-101.58
897.758	1600.78
901.051	1545.81
904.343	1572.8
907.636	1577.45
910.928	1620.92
914.22	1565.22
917.511	1570.31
920.803	1604.01
924.094	1596.51
927.384	1602.83
930.675	1574.59
933.965	1551.35
937.255	1575.51
940.544	1555.37
943.834	1548.89
947.123	1508.21
950.411	1571.61
953.7	1559.86
956.988	1551.47
960.276	1498.05
963.563	1528.19
966.851	1537.61
970.138	1564.36
973.424	1566.54
976.711	1528.06
979.997	1564.77
983.283	1593.53
986.568	1546.2
989.853	1534.44
993.138	1548.72
996.423	1615.92
999.708	1588.08
1002.992	1607.83
1006.275	1542.87
1009.559	1544.29
1012.842	1615.08
1016.125	1582.46
1019.408	1566.79
1022.69	1602.35
1025.972	1626.7
1029.254	1612.36
1032.536	1588.02
1035.817	1590.25
1039.098	1566.77
1042.379	1600.19
1045.659	1618.13
1048.939	1579.2
1052.219	1580.83
1055.498	1572.68
1058.778	1565.78
1062.057	1549.19
1065.335	1566.92
1068.614	1572.55
1071.892	1565.98
1075.17	1604.99
1078.447	1608.74
1081.724	1603.61
1085.001	1619.65
1088.278	1602.54
1091.554	1605.49
1094.83	1604.14
1098.106	1624.24
1101.382	1645.88
1104.657	1642.98
1107.932	1644.71
1111.206	1626.96
1114.481	1589.84
1117.755	1594.89
1121.029	1588.75
1124.302	1631.52
1127.575	1609.13
1130.848	1607.83
1134.121	1589.87
1137.393	1557.56
1140.665	1599.39
1143.937	1584.21
1147.208	1549.77
1150.48	1592.86
1153.75	1580.46
1157.021	1583.2
1160.291	1567.85
1163.561	1605.14
1166.831	1579.75
1170.101	1594.94
1173.37	1565.9
1176.639	1537.89
1179.907	1569.74
1183.176	1583.25
1186.444	1586.81
1189.711	1602.01
1192.979	1620.39
1196.246	1588.82
1199.513	1598.48
1202.78	1601.85
1206.046	1608.89
1209.312	1630.57
1212.578	1637.75
1215.843	1610.98
1219.108	1592.13
1222.373	1608.2
1225.638	1591.33
1228.902	1583.45
1232.166	1555.67
1235.43	1548.94
1238.693	1570.41
1241.956	1565.11
1245.219	1601.08
1248.482	1589.58
1251.744	1592.36
1255.006	1672.86
1258.268	1633.26
1261.529	1608.27
1264.79	1607.31
1268.051	1671.81
1271.312	1675.96
1274.572	1651.24
1277.832	1641.57
1281.092	1625.76
1284.351	1623.08
1287.61	1613.32
1290.869	1571.01
1294.128	1571.75
1297.386	1597.39
1300.644	1592.52
1303.902	1600.23
1307.159	1509.24
1310.416	1545.49
1313.673	1566.11
1316.93	1568.22
1320.186	1585.23
1323.442	1606.3
1326.697	1609.34
1329.953	1588.85
1333.208	1616.14
1336.463	1597.96
1339.717	1575.93
1342.972	1651
1346.226	1632.63
1349.479	1604.17
1352.733	1588.92
1355.986	1597.57
1359.238	1583.51
1362.491	1585.57
1365.743	1587.43
1368.995	1584.55
1372.247	1596.15
1375.498	1606.31
1378.749	1639.53
1382	1608.04
1385.251	1626.98
1388.501	1597.14
1391.751	1596.36
1395	1579.46
1398.25	1599.42
1401.499	1619.79
1404.748	1586.54
1407.996	1573.8
1411.244	1571.81
1414.492	1560.52
1417.74	1549.68
1420.987	1555.26
1424.234	1598.86
1427.481	1570.08
1430.728	1608.62
1433.974	1594.02
1437.22	1590.92
1440.465	1587.19
1443.711	1591.48
1446.956	1602.11
1450.201	1582.77
1453.445	1612.48
1456.689	1603.4
1459.933	1611.08
1463.177	1639.14
1466.42	1621.63
1469.663	1605
1472.906	1617.74
1476.148	1650.87
1479.391	1618.38
1482.633	1605.43
1485.874	1623.43
1489.115	1629.55
1492.356	1616.14
1495.597	1598.6
1498.838	1592.51
1502.078	1582.82
1505.318	1568.71
1508.557	1586.91
1511.797	1584.68
1515.036	1625.4
1518.274	1595.07
1521.513	1554.59
1524.751	1561.26
1527.989	1577.68
1531.227	1589.54
1534.464	1597.12
1537.701	1587.38
1540.938	1592.98
1544.174	1555.41
1547.41	1545.55
1550.646	1570.13
1553.882	1604.28
1557.117	1647.79
1560.352	1650.27
1563.587	1619.61
1566.821	1598.89
1570.055	1610.42
1573.289	1593.61
1576.523	1630.62
1579.756	1640.55
1582.989	1653.77
1586.222	1621.56
1589.454	1644.96
1592.686	1635.86
1595.918	1653.8
1599.15	1654.26
1602.381	1682.51
1605.612	1671.09
1608.843	1735.44
1612.073	1681.46
1615.303	1675.77
1618.533	1673.88
1621.762	1673.39
1624.992	1651.12
1628.221	1648.26
1631.449	1641.36
1634.678	1658.15
1637.906	1634.68
1641.134	1648.76
1644.361	1626.3
1647.588	1618.43
1650.815	1636.37
1654.042	1607.73
1657.269	1627
1660.495	1616.75
1663.72	1603.94
1666.946	1581.54
1670.171	1569.01
1673.396	1549.61
1676.621	1539.91
1679.845	1534.38
1683.069	1537.06
1686.293	1554.96
1689.517	1553.19
1692.74	1524.23
1695.963	1537.62
1699.185	1567.22
1702.408	1548.36
1705.63	1567.14
1708.852	1580.8
1712.073	1557.42
1715.294	1572.2
1718.515	1607.57
1721.736	1577.92
1724.956	1564.37
1728.176	1579.63
1731.396	1594.32
1734.616	1588.33
1737.835	1620.57
1741.054	1595.65
1744.272	1591.38
1747.491	1624.87
1750.709	1635.84
1753.927	1603.98
1757.144	1621.25
1760.361	1661.27
1763.578	1642.74
1766.795	1607.26
1770.011	1597.65
1773.227	1612
1776.443	1644.48
1779.658	1673.8
1782.874	1631.97
1786.089	1628.62
1789.303	1628.31
1792.518	1629.96
1795.732	1621.9
1798.945	1631.82
1802.159	1664.51
1805.372	1626.66
1808.585	1622.58
1811.797	1623.64
1815.01	1639.84
1818.222	1660.48
1821.434	1631.49
1824.645	1658.99
1827.856	1665.9
1831.067	1685.15
1834.278	1643.15
1837.488	1631.12
1840.698	1714.8
1843.908	1681.63
1847.117	1662.12
1850.326	1613.54
1853.535	1652.97
1856.744	1681.76
1859.952	1629.26
1863.16	1631.71
1866.368	1647.93
1869.575	1730.7
1872.782	1648.85
1875.989	1605.6
1879.196	1638.44
1882.402	1633.67
1885.608	1658.07
1888.814	1621.39
1892.019	1561.79
1895.224	1603.88
1898.429	1578.87
1901.634	1567.95
1904.838	1551.94
1908.042	1595.7
1911.246	1609.16
1914.449	1585.06
1917.652	1571.01
1920.855	1557.39
1924.058	1572.66
1927.26	1608.24
1930.462	1621.1
1933.664	1650.16
1936.865	1611.35
1940.066	1623.41
1943.267	1583.25
1946.467	1588.78
1949.668	1597.79
1952.868	1649.45
1956.067	1647.03
1959.267	1602.03
1962.466	1619.13
1965.665	1605.48
1968.863	1603.77
1972.061	1601.73
1975.259	1594.13
1978.457	1647.9
1981.654	1618.61
1984.852	1620.99
1988.048	1591.83
1991.245	1577.32
1994.441	1642.85
1997.637	1605.71
2000.833	1593.56
2004.028	1616.76
2007.223	1664.11
2010.418	1656.04
2013.613	1617.92
2016.807	1617.16
2020.001	1612.77
2023.194	1626.13
2026.388	1615.2
2029.581	1574.28
2032.774	1623.09
2035.966	1629.99
2039.158	1593.27
2042.35	1607.34
2045.542	1554.55
2048.733	1613.18
2051.924	1600.84
2055.115	1611.1
2058.306	1588.06
2061.496	1627.16
2064.686	1662.98
2067.875	1590.3
2071.065	1590.99
2074.254	1602.76
2077.442	1569.98
2080.631	1629.55
2083.819	1587.56
2087.007	1583.32
2090.195	1573.49
2093.382	1579.92
2096.569	1573.22
2099.756	1545.15
2102.942	1588.21
2106.128	1597.27
2109.314	1589.97
2112.5	1581.63
2115.685	1556.1
2118.87	1561.68
2122.055	1607.07
2125.239	1595.03
2128.424	1586.66
2131.608	1621.58
2134.791	1611.08
2137.974	1634.02
2141.157	1626.54
2144.34	1608.7
2147.523	1597.7
2150.705	1621.49
2153.887	1593.24
2157.068	1577.18
2160.25	1558
2163.431	1577.29
2166.611	1558.12
2169.792	1574.58
2172.972	1509.98
2176.152	1548.8
2179.331	1566.55
2182.511	1569.12
2185.69	1581.44
2188.868	1587.84
2192.047	1610.19
2195.225	1630.86
2198.403	1586.62
2201.58	1575.13
2204.758	1564.39
2207.935	1618.03
2211.111	1559.96
2214.288	1549.69
2217.464	1574.5
2220.64	1544.24
2223.815	1577.93
2226.991	1528.97
2230.166	1536.88
2233.34	1572.41
2236.515	1582.76
2239.689	1629.53
2242.863	1593.94
2246.036	1629.94
2249.209	1617.41
2252.382	1631.57
2255.555	1637.07
2258.727	1606.45
2261.9	1627.22
2265.071	1622.9
2268.243	1622.83
2271.414	1587.2
2274.585	1576.66
2277.756	1619.62
2280.926	1588.91
2284.096	1609.24
2287.266	1560.06
2290.436	1596.86
2293.605	1607.54
2296.774	1634.76
2299.942	1639.3
2303.111	1649.14
2306.279	1687.33
2309.447	1676.23
2312.614	1659.31
2315.781	1674.94
2318.948	1658.61
2322.115	1686.49
2325.281	1607.16
2328.447	1612.14
2331.613	1591.05
2334.779	1586.58
2337.944	1583.49
2341.109	1585.75
2344.274	1579.98
2347.438	1554.73
2350.602	1571.28
2353.766	1575.99
2356.929	1570.43
2360.092	1600.85
2363.255	1578.68
2366.418	1560.9
2369.58	1592.16
2372.742	1562.83
2375.904	1545.96
2379.066	1540.31
2382.227	1556.53
2385.388	1529.11
2388.548	1501.11
2391.709	1524.13
2394.869	1520.73
2398.029	1553.04
2401.188	1543.1
2404.347	1529.92
2407.506	1530.78
2410.665	1574.15
2413.823	1555.74
2416.981	1545.74
2420.139	1556.9
2423.296	1584.41
2426.453	1565.51
2429.61	1583.06
2432.767	1569
2435.923	1599.14
2439.079	1556.27
2442.235	1579.88
2445.391	1535.85
2448.546	1570.05
2451.701	1594.14
2454.855	1592.29
2458.009	1607.21
2461.163	1599.04
2464.317	1575.85
2467.471	1594.37
2470.624	1615.08
2473.777	1609.43
2476.929	1622.32
2480.082	1638.12
2483.234	1625.36
2486.385	1578.63
2489.537	1574.17
2492.688	1573.38
2495.839	1588.31
2498.989	1598.79
2502.14	1588.51
2505.29	1583.87
2508.439	1600.26
2511.589	1560.49
2514.738	1560.17
2517.887	1570.86
2521.035	1629.07
2524.183	1595.72
2527.331	1587.31
2530.479	1582.29
2533.627	1584.02
