Data from N_1_DEC_VA_2N_Splice17_11-18-58-189.txt Node
Date: Sat Mar 14 11:18:58 EDT 2020
User: sa697716
Spectrometer: FLMS03696
Trigger mode: 0
Integration Time (sec): 3.180400E-1
Scans to average: 20
Electric dark correction enabled: true
Nonlinearity correction enabled: true
Boxcar width: 5
XAxis mode: Wavelengths
Number of Pixels in Spectrum: 2048
>>>>>Begin Spectral Data<<<<<
187.83	-92521.72
188.298	835.78
188.766	405.59
189.233	351.66
189.701	503.39
190.169	569.48
190.636	207.31
191.104	168.74
191.571	32.08
192.039	8.09
192.506	-26.31
192.974	145.58
193.441	-147.21
193.908	-38.89
194.375	1.65
194.842	14.34
195.31	-14.76
195.777	72.31
196.244	159.15
196.711	126.48
197.177	134.82
197.644	148.17
198.111	208.73
198.578	309.09
199.045	227.29
199.511	335.7
199.978	393.98
200.445	344.85
200.911	374.31
201.378	403.46
201.844	401.77
202.31	678.93
202.777	702.23
203.243	426.14
203.709	406.64
204.176	491.71
204.642	419.4
205.108	384.32
205.574	309.03
206.04	256.73
206.506	220.34
206.972	184.36
207.438	165.52
207.903	167.13
208.369	153.24
208.835	153.86
209.301	151.83
209.766	158.31
210.232	142.68
210.697	161.82
211.163	189.39
211.628	286.81
212.094	291.88
212.559	429.2
213.024	285.44
213.49	339.36
213.955	324.31
214.42	308.28
214.885	275.01
215.35	284.12
215.815	322.71
216.28	351.32
216.745	280.92
217.21	304.42
217.675	243.95
218.14	246.1
218.604	240.42
219.069	250.23
219.534	273.75
219.998	286.5
220.463	312.66
220.927	284.3
221.392	236.58
221.856	213.99
222.32	191.95
222.785	229.86
223.249	270.03
223.713	287.75
224.177	264.07
224.642	241.6
225.106	237.69
225.57	228.87
226.034	203.29
226.497	294.04
226.961	305.25
227.425	369.76
227.889	407.68
228.353	406.26
228.816	722.11
229.28	748.7
229.744	636.14
230.207	425.51
230.671	410.57
231.134	573.51
231.597	716.45
232.061	631.32
232.524	600.32
232.987	394.52
233.45	368.7
233.914	334.07
234.377	322.73
234.84	310.12
235.303	320.59
235.766	342.93
236.229	375.08
236.691	200.9
237.154	220.36
237.617	186
238.08	164.86
238.542	195.7
239.005	166.21
239.468	163.18
239.93	153.96
240.393	155.83
240.855	137.94
241.317	129.61
241.78	137.84
242.242	149.89
242.704	175.75
243.166	169.64
243.629	168.88
244.091	178.42
244.553	178.84
245.015	194.44
245.477	229.19
245.939	315.96
246.4	354.21
246.862	376.19
247.324	338.58
247.786	341.64
248.247	364.92
248.709	313.47
249.17	222.59
249.632	268.76
250.093	353
250.555	325.45
251.016	228.66
251.477	209.44
251.939	219.52
252.4	213.69
252.861	215.74
253.322	245.62
253.783	239.51
254.244	300.47
254.705	217.55
255.166	150.64
255.627	147.56
256.088	207.83
256.549	221.27
257.009	193.45
257.47	266.25
257.931	223
258.391	171.09
258.852	183.5
259.312	193.87
259.773	220.31
260.233	234.52
260.694	204.7
261.154	216.33
261.614	221.22
262.074	178.34
262.534	183.87
262.994	196.99
263.455	230.79
263.915	221.85
264.374	203.2
264.834	225.56
265.294	225.39
265.754	249.23
266.214	225.34
266.673	183.03
267.133	228.55
267.593	224.2
268.052	245.35
268.512	212.08
268.971	287.59
269.431	330.88
269.89	277.5
270.349	406.35
270.809	423.9
271.268	409.93
271.727	828.5
272.186	594.84
272.645	426.81
273.104	284.68
273.563	432.39
274.022	260.73
274.481	235.98
274.94	190.22
275.399	120.04
275.857	134.03
276.316	130.59
276.775	120.16
277.233	125.46
277.692	140.91
278.15	185.16
278.609	218.58
279.067	226.52
279.525	226.64
279.984	281.3
280.442	369.41
280.9	378.14
281.358	284.73
281.816	266.5
282.274	249.89
282.732	228.14
283.19	214.2
283.648	166.23
284.106	167.87
284.564	169.08
285.021	178.37
285.479	127.93
285.937	101.26
286.394	98.15
286.852	101.72
287.309	100.99
287.767	134.15
288.224	137.1
288.682	136.88
289.139	142.91
289.596	135.44
290.053	118.38
290.511	127.36
290.968	167.23
291.425	188.64
291.882	209.44
292.339	204.58
292.796	170.28
293.252	167.2
293.709	184.9
294.166	171.24
294.623	169.1
295.079	155.16
295.536	185.02
295.992	176.35
296.449	171.17
296.905	174.4
297.362	185.34
297.818	189.71
298.274	200.55
298.731	167.47
299.187	175.94
299.643	197.77
300.099	253.24
300.555	255.86
301.011	221.05
301.467	270.77
301.923	269.75
302.379	255.9
302.835	241.42
303.291	242.77
303.746	277.74
304.202	307.1
304.658	294.27
305.113	221.2
305.569	210.62
306.024	185.28
306.479	129.4
306.935	132.02
307.39	133.33
307.845	116.53
308.301	137.33
308.756	130.78
309.211	152.53
309.666	167.87
310.121	220.33
310.576	232.89
311.031	237.08
311.486	231.3
311.94	200.08
312.395	214.34
312.85	368.08
313.305	883.11
313.759	7769.07
314.214	457.59
314.668	382.61
315.123	246.73
315.577	141.65
316.032	117.02
316.486	194.2
316.94	197.8
317.394	159.14
317.849	155.03
318.303	149.05
318.757	148.93
319.211	167.86
319.665	147.76
320.119	155.18
320.572	200.35
321.026	212.03
321.48	173.93
321.934	165.92
322.387	156.03
322.841	169.71
323.295	204.46
323.748	174.68
324.202	194.3
324.655	243.48
325.108	395.37
325.562	290.93
326.015	325.49
326.468	271.15
326.921	327.55
327.374	368.2
327.827	404.71
328.28	421.54
328.733	330.64
329.186	296.02
329.639	276.52
330.092	222.2
330.545	216.97
330.997	222.48
331.45	256.67
331.903	305.15
332.355	441.77
332.808	395.02
333.26	309.02
333.713	327.99
334.165	298.51
334.617	367.85
335.069	237.43
335.522	344.06
335.974	429.84
336.426	328.9
336.878	182.76
337.33	119.37
337.782	107.79
338.234	166.63
338.686	189.83
339.137	206.1
339.589	202.92
340.041	232.39
340.493	214.22
340.944	199.91
341.396	217.63
341.847	217.77
342.299	270.18
342.75	352.8
343.201	265.66
343.653	272.67
344.104	355.29
344.555	290.43
345.006	324.19
345.457	332.61
345.908	265.52
346.359	274.1
346.81	201.16
347.261	191.11
347.712	161.44
348.163	154.74
348.613	211.25
349.064	190.5
349.515	169.73
349.965	193.15
350.416	183.23
350.866	174.01
351.317	168.05
351.767	293.55
352.217	386.35
352.668	368.15
353.118	396.86
353.568	273.19
354.018	268.29
354.468	267.56
354.918	201.78
355.368	182.18
355.818	252.58
356.268	517.93
356.718	2448.1
357.168	659.79
357.617	360.22
358.067	382.25
358.517	381.25
358.966	449
359.416	649.45
359.865	688.67
360.315	712.05
360.764	392.09
361.213	249.25
361.663	210.34
362.112	227.55
362.561	287.35
363.01	182.15
363.459	150.96
363.908	117.84
364.357	79
364.806	98.14
365.255	90.82
365.703	107.17
366.152	110.94
366.601	79.91
367.05	94.65
367.498	108.16
367.947	107.99
368.395	102.79
368.844	107.29
369.292	103.55
369.74	89.28
370.189	98.82
370.637	94.44
371.085	94.77
371.533	126.31
371.981	91.46
372.429	126.55
372.877	152.72
373.325	155.1
373.773	143.35
374.221	120.45
374.669	115.04
375.116	112.86
375.564	104.78
376.012	90.67
376.459	94.36
376.907	115.88
377.354	122.61
377.801	133.75
378.249	149.47
378.696	174.97
379.143	203.96
379.591	237.28
380.038	489.15
380.485	435.71
380.932	490.19
381.379	484.8
381.826	432.06
382.273	273.46
382.72	228.26
383.166	238.75
383.613	178.63
384.06	168.57
384.506	219.66
384.953	163.66
385.4	151.18
385.846	132.99
386.292	115.29
386.739	87.29
387.185	83.52
387.631	85.28
388.078	88.61
388.524	89.16
388.97	73.56
389.416	54.92
389.862	60.66
390.308	62.15
390.754	63.77
391.2	68.96
391.645	75.31
392.091	93.63
392.537	91.25
392.983	78.32
393.428	90.57
393.874	99.18
394.319	112.28
394.765	106.74
395.21	99.85
395.655	96.88
396.101	91.83
396.546	83.99
396.991	70.29
397.436	70.6
397.881	63.59
398.326	48.12
398.771	52.77
399.216	46.17
399.661	45.21
400.106	47.89
400.551	53.28
400.995	52.57
401.44	55.27
401.885	55.07
402.329	54.18
402.774	58.99
403.218	67.57
403.663	62.79
404.107	62.1
404.551	64.11
404.995	58.69
405.44	51.93
405.884	50
406.328	42.52
406.772	36.94
407.216	32.16
407.66	27.01
408.104	17.67
408.547	17.69
408.991	15.77
409.435	12.47
409.879	16.21
410.322	19.27
410.766	19.28
411.209	22.66
411.653	23.32
412.096	27.42
412.54	27.09
412.983	27.3
413.426	27.81
413.869	28.81
414.312	29.62
414.756	25.72
415.199	22.4
415.642	23.67
416.085	22.39
416.527	20.9
416.97	16.77
417.413	16.98
417.856	17.51
418.298	17.48
418.741	15.46
419.184	14.32
419.626	11.09
420.069	12.79
420.511	12.16
420.953	16.28
421.396	18.36
421.838	17.68
422.28	18.06
422.722	19.52
423.164	17.78
423.606	17.31
424.048	15.92
424.49	17.74
424.932	15.54
425.374	14.04
425.816	9.63
426.258	9
426.699	10.71
427.141	12.79
427.582	9.16
428.024	9.01
428.465	5.67
428.907	5.89
429.348	5.86
429.789	7.41
430.231	9.81
430.672	9.76
431.113	9.85
431.554	9.95
431.995	8.39
432.436	13.15
432.877	13.53
433.318	18.42
433.759	16.69
434.2	18.26
434.64	17.43
435.081	16.66
435.522	17.68
435.962	17.71
436.403	18.43
436.843	14.33
437.284	10.81
437.724	10.06
438.164	6.5
438.604	8.13
439.045	8.22
439.485	11.07
439.925	10.5
440.365	9.12
440.805	9.58
441.245	9.63
441.685	11.08
442.125	10.7
442.564	11.33
443.004	12.71
443.444	12.65
443.883	13.7
444.323	9.95
444.762	6.68
445.202	6.3
445.641	6.75
446.081	3.82
446.52	5.02
446.959	7.23
447.398	8.48
447.837	8.15
448.276	7.87
448.716	8.75
449.154	7.33
449.593	10.19
450.032	10.74
450.471	8.77
450.91	9.09
451.349	10.13
451.787	7.97
452.226	5.61
452.664	5.7
453.103	4.62
453.541	3.09
453.98	6.02
454.418	5.37
454.856	6.01
455.295	6.45
455.733	7.63
456.171	6.55
456.609	8.26
457.047	8.88
457.485	10.2
457.923	11.51
458.361	9.74
458.798	8.79
459.236	8.43
459.674	6.95
460.111	7.17
460.549	6.7
460.987	6.72
461.424	6.65
461.862	7.12
462.299	7.27
462.736	8.32
463.173	8.01
463.611	10.32
464.048	10.39
464.485	11.27
464.922	10.78
465.359	10.02
465.796	15.76
466.233	16.44
466.67	18.16
467.106	18.95
467.543	17.07
467.98	17.39
468.416	15.38
468.853	15.2
469.29	14.11
469.726	13.86
470.162	13.23
470.599	8.26
471.035	5.73
471.471	4.04
471.907	1.57
472.344	1.77
472.78	1.51
473.216	0.49
473.652	0.01
474.088	-0.16
474.523	-0.02
474.959	1.04
475.395	1.26
475.831	2.38
476.266	2.29
476.702	2.51
477.138	2.49
477.573	3.04
478.008	3.77
478.444	5.26
478.879	6.45
479.314	6.23
479.75	5.71
480.185	4.62
480.62	3.5
481.055	3.2
481.49	3.71
481.925	4.68
482.36	5.9
482.795	4.94
483.229	3.54
483.664	3.45
484.099	4.26
484.534	4.95
484.968	6.06
485.403	6.5
485.837	6.3
486.271	5.62
486.706	4.4
487.14	3.1
487.574	4.31
488.009	4.21
488.443	3.53
488.877	3.81
489.311	3.01
489.745	3.09
490.179	3.24
490.613	4.9
491.046	4.89
491.48	4.67
491.914	4.95
492.348	4.2
492.781	4.65
493.215	5.13
493.648	3.6
494.082	3.39
494.515	3.52
494.948	4.15
495.382	2.79
495.815	3.65
496.248	4.25
496.681	4.11
497.114	3.58
497.547	4.43
497.98	4.9
498.413	6.31
498.846	6.75
499.279	6.5
499.711	5.9
500.144	5.95
500.577	5.97
501.009	6.14
501.442	6.98
501.874	8.03
502.306	7.1
502.739	8
503.171	7.58
503.603	7.78
504.036	7.36
504.468	7.67
504.9	7.42
505.332	6.95
505.764	7.33
506.196	6.46
506.627	6.07
507.059	6.26
507.491	4.65
507.923	5.23
508.354	5.62
508.786	5.4
509.217	5.15
509.649	4.95
510.08	4.48
510.512	4.37
510.943	4.94
511.374	5.34
511.805	4.69
512.237	4.5
512.668	3.45
513.099	2.46
513.53	2.72
513.961	3.06
514.391	2.78
514.822	4.24
515.253	4.46
515.684	4.15
516.114	3.95
516.545	4.3
516.975	4.54
517.406	4.59
517.836	4.33
518.267	4.92
518.697	5.45
519.127	5.58
519.558	4.03
519.988	3.45
520.418	2.84
520.848	1.96
521.278	1.66
521.708	17.7
522.138	18.03
522.567	17.65
522.997	17.37
523.427	16.77
523.857	17.34
524.286	17.85
524.716	18.27
525.145	18.72
525.575	19.67
526.004	19.48
526.433	3.67
526.863	3.1
527.292	4.37
527.721	4.18
528.15	3.78
528.579	3.72
529.008	3.44
529.437	2.36
529.866	2.45
530.295	1.74
530.724	2.59
531.152	2.55
531.581	3.53
532.01	3.49
532.438	3.18
532.867	2.64
533.295	2.74
533.723	3.22
534.152	3.92
534.58	3.96
535.008	4.25
535.436	5.26
535.865	4.89
536.293	3.99
536.721	3.56
537.149	3.72
537.576	4.93
538.004	5.08
538.432	4.27
538.86	4.36
539.287	3.84
539.715	4.23
540.143	3.01
540.57	3.55
540.998	3.66
541.425	4.69
541.852	4.52
542.28	3.9
542.707	3.52
543.134	4.19
543.561	4.68
543.988	4.91
544.415	4.18
544.842	3.8
545.269	3.86
545.696	4.66
546.123	4.09
546.549	4.31
546.976	4.63
547.403	4.83
547.829	4.47
548.256	3.59
548.682	3.57
549.108	4.72
549.535	5.24
549.961	4.98
550.387	4.7
550.813	5.57
551.24	5.78
551.666	5.11
552.092	5.16
552.518	5.09
552.943	5.75
553.369	5.47
553.795	4.92
554.221	4.76
554.646	4.84
555.072	5.5
555.498	4.05
555.923	3.57
556.349	4.09
556.774	3.97
557.199	3.76
557.625	3.17
558.05	4.07
558.475	4.03
558.9	3.52
559.325	3.97
559.75	3.71
560.175	4.3
560.6	4.29
561.025	3.87
561.449	4.01
561.874	3.83
562.299	4.36
562.723	3.64
563.148	3.76
563.572	3.84
563.997	3.14
564.421	2.1
564.846	1.44
565.27	1.81
565.694	2
566.118	1.29
566.542	2.55
566.966	2.47
567.39	2.56
567.814	2.54
568.238	2.84
568.662	2.53
569.086	2.36
569.509	2.31
569.933	2.87
570.357	2.79
570.78	3.56
571.204	3.52
571.627	3.3
572.05	3.43
572.474	3.68
572.897	4.08
573.32	4.7
573.743	4.63
574.166	5.24
574.589	4.93
575.012	5.03
575.435	4.72
575.858	4.91
576.281	4.68
576.704	4.32
577.126	3.67
577.549	3.5
577.972	3.35
578.394	3.99
578.817	5.67
579.239	5.58
579.661	5.52
580.084	6.27
580.506	5.03
580.928	4.81
581.35	5.23
581.772	5.66
582.194	5.96
582.616	5.52
583.038	4.85
583.46	2.95
583.882	3.16
584.303	2.57
584.725	2.25
585.147	6.43
585.568	7.14
585.99	7.3
586.411	7.73
586.833	7.29
587.254	7.99
587.675	8.07
588.096	8.35
588.518	7.96
588.939	8.33
589.36	7.92
589.781	4.29
590.202	5.84
590.623	6.46
591.043	5.92
591.464	5.56
591.885	5.66
592.305	5.8
592.726	5.44
593.147	5.65
593.567	6.46
593.987	6.87
594.408	6.23
594.828	4.08
595.248	3.48
595.669	4.5
596.089	5.1
596.509	4.31
596.929	4.06
597.349	4.17
597.769	3.94
598.189	3.65
598.608	2.79
599.028	3.19
599.448	3.08
599.867	2.9
600.287	1.72
600.706	2.06
601.126	2.79
601.545	3.55
601.965	3.69
602.384	3.77
602.803	3.37
603.222	4.01
603.641	3.79
604.061	4.39
604.48	4.62
604.898	4.77
605.317	3.88
605.736	3.59
606.155	3.68
606.574	3.57
606.992	3.83
607.411	4.16
607.829	3.14
608.248	2.91
608.666	2.44
609.085	2.66
609.503	2.55
609.921	3.58
610.339	4.03
610.758	3.46
611.176	3.5
611.594	3.27
612.012	3.35
612.43	4.22
612.847	4.72
613.265	5.67
613.683	5.3
614.101	5.84
614.518	4.97
614.936	4.52
615.353	5.46
615.771	5.99
616.188	6.26
616.606	5.9
617.023	6.08
617.44	5.66
617.857	4.89
618.274	5
618.691	4.59
619.108	4.75
619.525	4.08
619.942	3.49
620.359	3.11
620.776	2.81
621.192	3.76
621.609	4.46
622.026	5.2
622.442	5.54
622.859	5.28
623.275	5.55
623.691	5.58
624.108	6.49
624.524	6.35
624.94	6.34
625.356	6.37
625.772	5.61
626.188	4.27
626.604	4.02
627.02	3.57
627.436	3.6
627.852	4.09
628.268	4.55
628.683	4.42
629.099	4.48
629.514	3.96
629.93	3.53
630.345	3.15
630.761	3.61
631.176	3.14
631.591	5.09
632.007	5.54
632.422	4.65
632.837	3.55
633.252	4.15
633.667	4.46
634.082	4.69
634.497	5.34
634.911	6.97
635.326	6.94
635.741	7.39
636.155	6
636.57	6.07
636.984	6.01
637.399	7.33
637.813	6.61
638.228	6.34
638.642	6.56
639.056	6.47
639.47	5.75
639.884	6.05
640.298	6.06
640.712	6.45
641.126	5.9
641.54	5.8
641.954	3.34
642.368	3.46
642.781	5.49
643.195	5.55
643.609	5.92
644.022	5.8
644.436	5.3
644.849	4.81
645.262	4.55
645.676	4.39
646.089	4.67
646.502	7.1
646.915	6.69
647.328	5.5
647.741	5.73
648.154	5.99
648.567	7.82
648.98	8.71
649.393	9.22
649.805	8.77
650.218	8.61
650.631	9.22
651.043	8.96
651.456	9.32
651.868	8.84
652.28	8.21
652.693	7.32
653.105	6.24
653.517	5.96
653.929	5.95
654.341	6.59
654.753	8.06
655.165	7.91
655.577	8.44
655.989	8.4
656.401	8.18
656.813	9.09
657.224	8.97
657.636	8.04
658.047	8.77
658.459	8.2
658.87	6.76
659.282	5.74
659.693	6.05
660.104	5.58
660.515	5.64
660.926	4.74
661.338	4.34
661.749	3.99
662.159	4.61
662.57	3.02
662.981	3.25
663.392	3.91
663.803	3.81
664.213	2.7
664.624	2.67
665.035	2.3
665.445	2.89
665.855	3.27
666.266	4.34
666.676	4.2
667.086	4.1
667.497	4.87
667.907	5.48
668.317	5.66
668.727	8.94
669.137	7.89
669.547	7.91
669.956	8.12
670.366	7.67
670.776	8.11
671.186	7.86
671.595	7.87
672.005	6.52
672.414	7.16
672.824	6.98
673.233	4.9
673.642	5.42
674.052	6.1
674.461	6.86
674.87	7.25
675.279	6.57
675.688	5.2
676.097	6.74
676.506	6.76
676.915	6.01
677.323	6.49
677.732	5.73
678.141	5.44
678.549	5.26
678.958	3.94
679.366	3.36
679.775	3.39
680.183	5.46
680.592	5.27
681	6.11
681.408	6.12
681.816	5.97
682.224	6.28
682.632	7.86
683.04	8.1
683.448	7.84
683.856	8.97
684.264	9.78
684.671	8.76
685.079	8.48
685.487	8.47
685.894	7.21
686.302	6.46
686.709	7.25
687.116	5.97
687.524	6.34
687.931	8.39
688.338	8.15
688.745	6.84
689.152	6.47
689.559	6.76
689.966	8
690.373	10.11
690.78	11.49
691.187	10.65
691.593	12.33
692	12.55
692.407	12.49
692.813	14.42
693.22	16.13
693.626	15.76
694.032	15.4
694.439	14.9
694.845	13.86
695.251	12.5
695.657	13.42
696.063	10.37
696.469	9.99
696.875	9.87
697.281	8.79
697.687	7.99
698.093	8.5
698.498	8.86
698.904	7.72
699.31	8.24
699.715	10.23
700.12	9.01
700.526	11.17
700.931	10.14
701.337	10.61
701.742	10.63
702.147	10.2
702.552	11.15
702.957	9.95
703.362	9.87
703.767	9.25
704.172	8.4
704.577	8.51
704.981	7.17
705.386	7.8
705.791	6.95
706.195	5.46
706.6	5.33
707.004	2.94
707.408	2.68
707.813	3.8
708.217	4.52
708.621	4.15
709.025	3.88
709.43	5.35
709.834	5.33
710.237	5.07
710.641	5.76
711.045	6.19
711.449	8.42
711.853	11.42
712.256	10.88
712.66	10.97
713.064	11.7
713.467	13.5
713.87	13.6
714.274	14.93
714.677	16
715.08	16.75
715.484	16.63
715.887	18.01
716.29	15.55
716.693	16.73
717.096	18
717.499	19.15
717.901	17.01
718.304	16.83
718.707	15.5
719.109	15.13
719.512	14.24
719.915	16.01
720.317	14.2
720.719	14.42
721.122	14.1
721.524	12.69
721.926	14.64
722.328	15.89
722.731	14.82
723.133	14.76
723.535	14.74
723.937	15.24
724.338	16.04
724.74	17.41
725.142	54.89
725.544	56.91
725.945	65.79
726.347	62.21
726.748	62.01
727.15	63.32
727.551	65.69
727.952	64.32
728.354	62.89
728.755	61.38
729.156	60.67
729.557	24.36
729.958	21.18
730.359	13.55
730.76	13.71
731.161	13.51
731.562	12.32
731.962	9.28
732.363	10.33
732.763	10.42
733.164	9.42
733.564	10.01
733.965	11.46
734.365	12.04
734.766	11.11
735.166	11.19
735.566	12.66
735.966	13.78
736.366	14.76
736.766	14.04
737.166	14.2
737.566	14.17
737.966	13.62
738.365	13.53
738.765	14.85
739.165	15.31
739.564	15.38
739.964	12.95
740.363	11.76
740.763	11.21
741.162	12.16
741.561	11.49
741.96	12.07
742.36	11.21
742.759	10.1
743.158	9.29
743.557	8.09
743.955	7.63
744.354	7.57
744.753	7.14
745.152	6.72
745.55	5.54
745.949	5.74
746.348	5.15
746.746	3.88
747.144	5.54
747.543	4.68
747.941	5.43
748.339	4.96
748.737	6.37
749.136	7.32
749.534	7.08
749.932	8.54
750.33	8.29
750.727	8.28
751.125	9.87
751.523	9.35
751.921	11.19
752.318	11.48
752.716	13.15
753.113	12.52
753.511	13.12
753.908	14.47
754.305	16.68
754.703	16.57
755.1	17.35
755.497	17.23
755.894	15.98
756.291	14.71
756.688	15.55
757.085	14.95
757.482	16.42
757.878	17.37
758.275	18.92
758.672	14.82
759.068	16.74
759.465	16.96
759.861	18.42
760.258	21.11
760.654	21.67
761.05	22.47
761.447	21.12
761.843	19.56
762.239	17.13
762.635	14.47
763.031	13.11
763.427	12.59
763.822	12.42
764.218	11.66
764.614	10.67
765.01	10.25
765.405	8.62
765.801	8.34
766.196	7.66
766.592	7.72
766.987	8.62
767.382	8.82
767.778	8.57
768.173	7.94
768.568	7.72
768.963	8.16
769.358	8.12
769.753	9.78
770.148	10.17
770.542	10.39
770.937	10.38
771.332	9.08
771.726	9.16
772.121	12.17
772.515	12.2
772.91	11.77
773.304	11.42
773.699	11.97
774.093	9.75
774.487	10.83
774.881	10.82
775.275	12.04
775.669	11.86
776.063	11.55
776.457	11.09
776.851	11.24
777.245	12.67
777.638	12.7
778.032	12.27
778.425	14.22
778.819	15.93
779.212	18.58
779.606	20.41
779.999	20.63
780.392	22.13
780.786	19.68
781.179	19.68
781.572	19.1
781.965	20.44
782.358	21.04
782.751	20.43
783.143	18.4
783.536	17.09
783.929	13.68
784.322	14.98
784.714	13.92
785.107	14.59
785.499	16.83
785.891	18.38
786.284	18.52
786.676	16.83
787.068	17.71
787.46	18.85
787.852	18.28
788.245	18.73
788.636	17.05
789.028	18.47
789.42	20.53
789.812	19.3
790.204	18.46
790.595	20.07
790.987	22.47
791.378	22.59
791.77	21.35
792.161	20.71
792.553	20.73
792.944	22.29
793.335	21.71
793.726	21
794.117	21.81
794.508	21.12
794.899	18.12
795.29	18.32
795.681	17.43
796.072	17.76
796.463	33.52
796.853	37.09
797.244	37.26
797.634	38.03
798.025	38.51
798.415	36.21
798.806	36.68
799.196	38.47
799.586	38.26
799.976	40.13
800.366	39.06
800.756	21.3
801.146	18.47
801.536	18.49
801.926	16.99
802.316	16.12
802.706	18.67
803.095	20.15
803.485	18.31
803.874	17.6
804.264	17.13
804.653	19.62
805.043	22.12
805.432	22.55
805.821	23.54
806.21	23.96
806.599	24.43
806.988	24.99
807.377	22.21
807.766	21.74
808.155	22.13
808.544	23.07
808.933	22.27
809.321	24.02
809.71	21.16
810.098	19.77
810.487	17.17
810.875	16.19
811.264	16.39
811.652	25.72
812.04	27.12
812.428	28.06
812.816	22.5
813.204	24.9
813.592	18.63
813.98	20.26
814.368	25.41
814.756	27.57
815.144	28.24
815.531	32.28
815.919	23.02
816.306	26.07
816.694	25.16
817.081	33.04
817.469	33.3
817.856	34.96
818.243	34.77
818.63	29.19
819.017	31.11
819.404	34.15
819.791	26.87
820.178	24.61
820.565	27.53
820.952	35.91
821.339	31.26
821.725	30.83
822.112	35.16
822.498	35.39
822.885	35.48
823.271	35.67
823.657	28.64
824.044	33.25
824.43	38.18
824.816	42.63
825.202	38.58
825.588	42
825.974	43.87
826.36	43.35
826.746	44.32
827.132	45.01
827.517	46.59
827.903	50.52
828.289	50.68
828.674	46.45
829.06	39.66
829.445	36.39
829.83	29.91
830.216	27.04
830.601	30.28
830.986	39.13
831.371	41.28
831.756	42.4
832.141	45.21
832.526	46.15
832.911	47.38
833.295	44.8
833.68	45.88
834.065	48.65
834.449	47.5
834.834	46.87
835.218	42.23
835.603	40.3
835.987	37.86
836.371	32.93
836.755	32.25
837.139	31.5
837.524	30.92
837.908	29.88
838.291	33.81
838.675	35.53
839.059	31.77
839.443	26.35
839.827	23.95
840.21	21.99
840.594	27.36
840.977	27.14
841.361	27.29
841.744	24.53
842.127	25.43
842.511	23.99
842.894	19.92
843.277	20.55
843.66	21.28
844.043	22.83
844.426	27.72
844.809	23.07
845.191	22.4
845.574	23.24
845.957	28
846.339	30.77
846.722	31.29
847.104	31.99
847.487	30.08
847.869	31.75
848.252	33.14
848.634	30.41
849.016	31.09
849.398	29.32
849.78	28.26
850.162	28.8
850.544	27.18
850.926	22.1
851.307	20.64
851.689	24.04
852.071	23.78
852.452	23.62
852.834	24.32
853.215	25.99
853.597	26.73
853.978	35.77
854.359	33.87
854.741	35.01
855.122	34.39
855.503	33.27
855.884	29.54
856.265	28.78
856.646	27.81
857.026	29.13
857.407	28.32
857.788	28.52
858.169	21.06
858.549	28.12
858.93	24.2
859.31	29.35
859.69	36.44
860.071	39.07
860.451	41.86
860.831	41.81
861.211	37.93
861.591	35.47
861.971	34.41
862.351	32.75
862.731	29.53
863.111	30.56
863.491	28.76
863.87	24.54
864.25	21.34
864.629	22.57
865.009	22.44
865.388	26.42
865.768	28.36
866.147	32.88
866.526	37.2
866.905	34.93
867.284	33.67
867.663	31.03
868.042	28.87
868.421	27.39
868.8	23.74
869.179	28.25
869.558	26.89
869.936	28.76
870.315	23.82
870.693	25.65
871.072	28.06
871.45	27.02
871.828	31.35
872.207	33.79
872.585	40.88
872.963	39.56
873.341	45.01
873.719	52.01
874.097	52.96
874.475	53.21
874.853	53.15
875.23	49.85
875.608	50.19
875.986	53.81
876.363	52.25
876.741	60.43
877.118	67.94
877.495	65.25
877.873	62.69
878.25	61.03
878.627	67
879.004	62.44
879.381	65.44
879.758	73.06
880.135	66.72
880.512	71.43
880.889	57.97
881.265	53.3
881.642	49.84
882.019	50.15
882.395	55.84
882.772	56.65
883.148	55.79
883.524	54.06
883.901	50.4
884.277	48.93
884.653	45.96
885.029	50.73
885.405	59.07
885.781	59.76
886.157	54.28
886.532	50.7
886.908	46.25
887.284	46
887.659	44.06
888.035	39.96
888.411	36.98
888.786	40.4
889.161	42.22
889.537	32.45
889.912	32.26
890.287	33.58
890.662	28.76
891.037	26.11
891.412	26.95
891.787	25.93
892.162	35.32
892.536	38.84
892.911	37.42
893.286	33.06
893.66	36.53
894.035	41.11
894.409	39.78
894.784	44.53
895.158	48.69
895.532	55.58
895.906	62.38
896.281	58.67
896.655	64.2
897.029	71.17
897.402	78.49
897.776	76.61
898.15	72.88
898.524	77.25
898.898	75.94
899.271	79.71
899.645	71.15
900.018	65.43
900.392	71.94
900.765	63.04
901.138	58.68
901.511	52.02
901.884	66.83
902.258	64.35
902.631	72.18
903.003	82.6
903.376	74.08
903.749	76.53
904.122	70.41
904.495	62.94
904.867	63.86
905.24	66.13
905.612	68.82
905.985	52.34
906.357	49.16
906.729	48.85
907.102	48.3
907.474	53.9
907.846	65.31
908.218	77.67
908.59	84.37
908.962	88.29
909.334	88.37
909.705	92.23
910.077	93.09
910.449	95.31
910.82	98.42
911.192	95.82
911.563	100.31
911.935	89.99
912.306	81.44
912.677	76.59
913.048	76.97
913.419	77.9
913.79	67.08
914.161	69.91
914.532	90.91
914.903	75.05
915.274	72.64
915.645	74.44
916.015	63.82
916.386	60.4
916.756	55.94
917.127	47.58
917.497	50.45
917.868	58.26
918.238	60.78
918.608	48.72
918.978	60.43
919.348	53.91
919.718	61.29
920.088	63.55
920.458	72.98
920.828	72.56
921.198	74.84
921.567	72.34
921.937	63.96
922.306	61.65
922.676	58.79
923.045	62.3
923.415	73.68
923.784	59.84
924.153	69.14
924.522	72.46
924.891	65.75
925.26	67.39
925.629	63.3
925.998	62.78
926.367	61.45
926.736	78.1
927.104	67.41
927.473	70.15
927.842	81.63
928.21	70.36
928.578	48.09
928.947	72.14
929.315	86.69
929.683	121.34
930.051	134.77
930.42	167.72
930.788	135.43
931.156	141.83
931.523	161.76
931.891	170.5
932.259	181.3
932.627	227.39
932.994	285.17
933.362	263.46
933.729	239.51
934.097	228.34
934.464	181.93
934.831	192.51
935.199	199.62
935.566	165.13
935.933	110.55
936.3	111.7
936.667	83.99
937.034	158.1
937.401	129.13
937.767	109.93
938.134	94.25
938.501	123.93
938.867	150.82
939.234	204.3
939.6	173.84
939.967	295.91
940.333	240.09
940.699	234.3
941.065	115.72
941.431	148.87
941.798	183.49
942.163	278.77
942.529	187.55
942.895	155.54
943.261	118.19
943.627	164.01
943.992	142.56
944.358	133.54
944.723	136.74
945.089	133.64
945.454	144.45
945.82	128.36
946.185	112.75
946.55	148.19
946.915	135.77
947.28	161.05
947.645	137.85
948.01	158.57
948.375	177
948.74	200.45
949.104	225.81
949.469	257.75
949.834	424.57
950.198	499.57
950.562	309.48
950.927	262.26
951.291	306.3
951.655	255.21
952.02	170.14
952.384	127.38
952.748	128.23
953.112	154.64
953.476	143.81
953.839	129.75
954.203	128.65
954.567	140.49
954.931	182.2
955.294	152.81
955.658	154.9
956.021	286.37
956.385	378.1
956.748	458.94
957.111	445.59
957.474	250.42
957.837	211.15
958.2	-41.17
958.563	-2.69
958.926	28.69
959.289	39.22
959.652	101.79
960.015	106.14
960.377	165.76
960.74	230.64
961.102	441.69
961.465	832.13
961.827	761.37
962.189	1519.36
962.552	1167.22
962.914	988.3
963.276	631.8
963.638	484.9
964	449.93
964.362	338.48
964.724	301.93
965.085	218.45
965.447	171.4
965.809	139
966.17	127.95
966.532	121.28
966.893	105.08
967.255	82
967.616	81.9
967.977	64.01
968.338	55.88
968.699	71.07
969.061	58.17
969.421	59.49
969.782	57.89
970.143	63.72
970.504	91.12
970.865	108.76
971.225	135.46
971.586	142.69
971.946	202.65
972.307	163.98
972.667	182.59
973.027	217.96
973.388	240.05
973.748	172.92
974.108	212.78
974.468	180.39
974.828	183.38
975.188	142.66
975.548	126.1
975.907	106.06
976.267	141.69
976.627	146.75
976.986	142.22
977.346	120.23
977.705	120.15
978.064	91.79
978.424	102.2
978.783	78.58
979.142	70.07
979.501	75.3
979.86	83.78
980.219	71.55
980.578	45.29
980.937	52.74
981.296	68.84
981.654	65.11
982.013	61.89
982.371	83.55
982.73	100.37
983.088	144.03
983.447	199.69
983.805	314.57
984.163	586.68
984.521	736.39
984.879	788.35
985.237	-1137.74
985.595	1521.8
985.953	465.86
986.311	236.99
986.669	153.92
987.026	144.93
987.384	118.77
987.741	72.67
988.099	122.58
988.456	123.21
988.814	145.92
989.171	131.14
989.528	86.59
989.885	73.95
990.242	60.15
990.599	60.19
990.956	30.28
991.313	39.52
991.67	40.04
992.027	69.15
992.383	56.62
992.74	64.47
993.096	78.82
993.453	95.11
993.809	98.79
994.165	132.48
994.522	164.06
994.878	202.54
995.234	248.52
995.59	261.92
995.946	192.78
996.302	218.75
996.658	217.81
997.013	210.89
997.369	273.37
997.725	376.1
998.08	247.41
998.436	212.21
998.791	290.23
999.147	303.7
999.502	244.11
999.857	171.72
1000.212	266.55
1000.567	430.28
1000.922	315.68
1001.277	197.95
1001.632	152.38
1001.987	152.74
1002.342	153.75
1002.696	124.64
1003.051	124.13
1003.406	183.47
1003.76	163.13
1004.114	182.82
1004.469	172.08
1004.823	145.97
1005.177	146.98
1005.531	122.83
1005.885	131.41
1006.239	146.32
1006.593	177.52
1006.947	220.39
1007.301	148.17
1007.655	174.73
1008.008	124.2
1008.362	122.95
1008.715	166.19
1009.069	150.03
1009.422	265.33
1009.776	450.02
1010.129	286.63
1010.482	209.66
1010.835	142.55
1011.188	292.32
1011.541	247.87
1011.894	-1003.5
1012.247	2793.97
1012.6	215.07
1012.952	204.39
1013.305	80.6
1013.657	91.32
1014.01	97.74
1014.362	92.44
1014.715	116.28
1015.067	111.32
1015.419	101.48
1015.771	116.09
1016.123	125.6
1016.475	128.96
1016.827	117.11
1017.179	143.19
1017.531	124.78
1017.883	108.91
1018.234	154.02
1018.586	168.54
1018.938	218.5
1019.289	325.77
1019.64	338.34
1019.992	291.52
1020.343	247.23
1020.694	250.31
1021.045	191.46
1021.396	209.18
1021.747	280.25
1022.098	238.33
1022.449	200.07
1022.8	179.36
1023.151	135.57
1023.501	146.6
1023.852	139.89
1024.202	186.29
1024.553	191.37
1024.903	240.71
1025.253	249.16
1025.604	233.95
1025.954	289.16
1026.304	330.12
1026.654	363.55
1027.004	522.32
1027.354	743.91
1027.703	827.96
1028.053	1006.99
1028.403	1648.73
1028.753	1984.85
1029.102	2012.8
1029.452	6931.51
1029.801	272.21
1030.15	186.77
1030.499	140.2
897.758	1317.13
901.051	1277.43
904.343	1300.65
907.636	1300.41
910.928	1336.05
914.22	1291.09
917.511	1297.9
920.803	1323.2
924.094	1316.1
927.384	1320.53
930.675	1298.56
933.965	1282.48
937.255	1300.46
940.544	1282.42
943.834	1284.55
947.123	1250.85
950.411	1302.39
953.7	1292.85
956.988	1283.19
960.276	1241.81
963.563	1267.81
966.851	1273.88
970.138	1293.97
973.424	1295.37
976.711	1265.63
979.997	1291.67
983.283	1314.19
986.568	1275.28
989.853	1267.9
993.138	1280.65
996.423	1337.71
999.708	1311.57
1002.992	1325.68
1006.275	1279.33
1009.559	1281.57
1012.842	1336.88
1016.125	1309.14
1019.408	1296.56
1022.69	1327.13
1025.972	1341.8
1029.254	1330.1
1032.536	1307.03
1035.817	1311.22
1039.098	1296.6
1042.379	1319.8
1045.659	1332.27
1048.939	1302.98
1052.219	1304.32
1055.498	1301.07
1058.778	1293.63
1062.057	1282.09
1065.335	1298.51
1068.614	1298.38
1071.892	1291.82
1075.17	1323.98
1078.447	1323.95
1081.724	1320.23
1085.001	1331.69
1088.278	1318.48
1091.554	1318.85
1094.83	1320.24
1098.106	1336.91
1101.382	1352.14
1104.657	1352.66
1107.932	1353.62
1111.206	1339.2
1114.481	1313.28
1117.755	1314.76
1121.029	1309.66
1124.302	1342.91
1127.575	1325.1
1130.848	1324.04
1134.121	1308.62
1137.393	1281.33
1140.665	1318.44
1143.937	1303.27
1147.208	1277.11
1150.48	1308.65
1153.75	1300.85
1157.021	1303.91
1160.291	1289.71
1163.561	1318.64
1166.831	1297.83
1170.101	1310.01
1173.37	1292.08
1176.639	1268.7
1179.907	1297.41
1183.176	1305.6
1186.444	1310.17
1189.711	1323.09
1192.979	1336.26
1196.246	1313.12
1199.513	1322.03
1202.78	1323.9
1206.046	1329.6
1209.312	1345.67
1212.578	1347.47
1215.843	1324.23
1219.108	1313.63
1222.373	1322.48
1225.638	1307.36
1228.902	1300.47
1232.166	1283.41
1235.43	1273.78
1238.693	1290.61
1241.956	1287.23
1245.219	1313.33
1248.482	1307.85
1251.744	1311.18
1255.006	1371.81
1258.268	1344.28
1261.529	1325.89
1264.79	1324.81
1268.051	1376.36
1271.312	1384.83
1274.572	1365.05
1277.832	1357.05
1281.092	1347.44
1284.351	1344.99
1287.61	1337.11
1290.869	1302.88
1294.128	1301.93
1297.386	1323.1
1300.644	1320.5
1303.902	1323.21
1307.159	1251.74
1310.416	1279.16
1313.673	1291.78
1316.93	1292.33
1320.186	1305.44
1323.442	1322.65
1326.697	1320.45
1329.953	1307.15
1333.208	1327.58
1336.463	1315.31
1339.717	1296.62
1342.972	1356.33
1346.226	1344.22
1349.479	1326.47
1352.733	1310.55
1355.986	1320.32
1359.238	1310.05
1362.491	1312.09
1365.743	1312.08
1368.995	1310.68
1372.247	1318.43
1375.498	1325.78
1378.749	1345.45
1382	1323.03
1385.251	1336.07
1388.501	1315.86
1391.751	1312.24
1395	1298.91
1398.25	1315.86
1401.499	1330.79
1404.748	1303.02
1407.996	1296.93
1411.244	1296.59
1414.492	1287.98
1417.74	1277.78
1420.987	1286.71
1424.234	1316.45
1427.481	1297.65
1430.728	1326.64
1433.974	1315.54
1437.22	1317.32
1440.465	1311.33
1443.711	1311.7
1446.956	1321.08
1450.201	1306.65
1453.445	1331.7
1456.689	1321
1459.933	1328.95
1463.177	1351.78
1466.42	1337.62
1469.663	1325.97
1472.906	1330.76
1476.148	1358.97
1479.391	1337.16
1482.633	1326.89
1485.874	1340.37
1489.115	1343.59
1492.356	1333.78
1495.597	1320.73
1498.838	1313.86
1502.078	1309.04
1505.318	1298.03
1508.557	1310.97
1511.797	1307.69
1515.036	1336.36
1518.274	1313.8
1521.513	1285.6
1524.751	1289.35
1527.989	1302.24
1531.227	1311.93
1534.464	1313.7
1537.701	1307.78
1540.938	1310.57
1544.174	1287
1547.41	1280.42
1550.646	1297.27
1553.882	1321.9
1557.117	1353.24
1560.352	1358.68
1563.587	1333.9
1566.821	1318.94
1570.055	1332.62
1573.289	1315.46
1576.523	1343.43
1579.756	1350.55
1582.989	1361.18
1586.222	1338.82
1589.454	1358.35
1592.686	1351.26
1595.918	1362.32
1599.15	1361.73
1602.381	1386.65
1605.612	1375.84
1608.843	1424.84
1612.073	1385.02
1615.303	1377.32
1618.533	1374.2
1621.762	1374.37
1624.992	1359.49
1628.221	1356.44
1631.449	1349.44
1634.678	1364.77
1637.906	1345.96
1641.134	1356.68
1644.361	1340.07
1647.588	1332.77
1650.815	1347.97
1654.042	1329.53
1657.269	1344.86
1660.495	1333.78
1663.72	1329.2
1666.946	1311.87
1670.171	1301.3
1673.396	1283.37
1676.621	1277.02
1679.845	1274.56
1683.069	1278.2
1686.293	1291.17
1689.517	1287
1692.74	1263.25
1695.963	1272.69
1699.185	1290.76
1702.408	1278.24
1705.63	1293.35
1708.852	1302.98
1712.073	1284.48
1715.294	1296.46
1718.515	1323.02
1721.736	1300.1
1724.956	1292.69
1728.176	1305.39
1731.396	1315.18
1734.616	1311.79
1737.835	1337.07
1741.054	1319.24
1744.272	1319.27
1747.491	1340.51
1750.709	1351.07
1753.927	1326.02
1757.144	1339.93
1760.361	1369.6
1763.578	1353.45
1766.795	1326.87
1770.011	1319.15
1773.227	1331.51
1776.443	1355.23
1779.658	1371.9
1782.874	1344.76
1786.089	1339.88
1789.303	1339.07
1792.518	1340.76
1795.732	1334.41
1798.945	1340.11
1802.159	1367.85
1805.372	1335.43
1808.585	1329.05
1811.797	1327.17
1815.01	1347.02
1818.222	1362.08
1821.434	1342.92
1824.645	1364.49
1827.856	1369.05
1831.067	1381.49
1834.278	1356.51
1837.488	1343.5
1840.698	1411.28
1843.908	1387.01
1847.117	1370.97
1850.326	1329.68
1853.535	1362.35
1856.744	1380.14
1859.952	1340.72
1863.16	1340.12
1866.368	1356.54
1869.575	1414.86
1872.782	1354.89
1875.989	1321.54
1879.196	1350.57
1882.402	1347.76
1885.608	1364.62
1888.814	1332.92
1892.019	1285.51
1895.224	1317.76
1898.429	1302.1
1901.634	1290.26
1904.838	1278.63
1908.042	1310.09
1911.246	1321.77
1914.449	1299.38
1917.652	1288.71
1920.855	1279.46
1924.058	1294.96
1927.26	1324.49
1930.462	1333.83
1933.664	1355.87
1936.865	1328.08
1940.066	1335.93
1943.267	1308.41
1946.467	1310.99
1949.668	1316.8
1952.868	1359.42
1956.067	1358.95
1959.267	1323.06
1962.466	1335.44
1965.665	1324.46
1968.863	1323.01
1972.061	1321.86
1975.259	1317.87
1978.457	1358.47
1981.654	1338
1984.852	1339.23
1988.048	1316.22
1991.245	1305.71
1994.441	1354.04
1997.637	1327.3
2000.833	1318.17
2004.028	1335.13
2007.223	1369.93
2010.418	1359.55
2013.613	1335.57
2016.807	1332.56
2020.001	1331.23
2023.194	1340.76
2026.388	1329.76
2029.581	1301.41
2032.774	1336.17
2035.966	1343.39
2039.158	1312.6
2042.35	1325.12
2045.542	1286.06
2048.733	1328.58
2051.924	1318.58
2055.115	1328.15
2058.306	1312.04
2061.496	1339.2
2064.686	1367.69
2067.875	1311.12
2071.065	1311.47
2074.254	1321.02
2077.442	1295.84
2080.631	1342.1
2083.819	1307.36
2087.007	1305.33
2090.195	1295.75
2093.382	1299
2096.569	1297.68
2099.756	1273.26
2102.942	1308.65
2106.128	1312.65
2109.314	1308.96
2112.5	1301.64
2115.685	1284.04
2118.87	1287.45
2122.055	1325.1
2125.239	1311.14
2128.424	1305.37
2131.608	1335.3
2134.791	1325.19
2137.974	1344.85
2141.157	1340
2144.34	1324.84
2147.523	1315.71
2150.705	1332.4
2153.887	1311.76
2157.068	1296.84
2160.25	1285.28
2163.431	1301.03
2166.611	1282.63
2169.792	1296.16
2172.972	1240.82
2176.152	1274.76
2179.331	1287.85
2182.511	1287.91
2185.69	1296.53
2188.868	1300.72
2192.047	1320.47
2195.225	1336.37
2198.403	1305.82
2201.58	1296.65
2204.758	1289.21
2207.935	1332.82
2211.111	1284.52
2214.288	1275.76
2217.464	1294.29
2220.64	1275.56
2223.815	1300.17
2226.991	1260.46
2230.166	1265.91
2233.34	1287.63
2236.515	1298.27
2239.689	1339.18
2242.863	1310.35
2246.036	1337.05
2249.209	1329.99
2252.382	1344.5
2255.555	1345.67
2258.727	1322.1
2261.9	1341.03
2265.071	1337.71
2268.243	1339.15
2271.414	1310.42
2274.585	1295.18
2277.756	1330.83
2280.926	1310.28
2284.096	1329.14
2287.266	1289.04
2290.436	1318.57
2293.605	1324.92
2296.774	1345.96
2299.942	1351.29
2303.111	1359.91
2306.279	1390.06
2309.447	1382.08
2312.614	1370.63
2315.781	1379.93
2318.948	1366.07
2322.115	1388.12
2325.281	1326.33
2328.447	1334.96
2331.613	1315.28
2334.779	1311.68
2337.944	1308.66
2341.109	1308.15
2344.274	1303.64
2347.438	1281.4
2350.602	1293.73
2353.766	1301.44
2356.929	1298.71
2360.092	1318.64
2363.255	1295.7
2366.418	1282.69
2369.58	1304.46
2372.742	1288.17
2375.904	1275.78
2379.066	1271.61
2382.227	1285.19
2385.388	1262.17
2388.548	1235.15
2391.709	1252.2
2394.869	1252.79
2398.029	1283.65
2401.188	1275.4
2404.347	1265.09
2407.506	1259.21
2410.665	1292.28
2413.823	1282.63
2416.981	1274.43
2420.139	1286.29
2423.296	1305.56
2426.453	1293.64
2429.61	1306.47
2432.767	1292.23
2435.923	1312.37
2439.079	1283.43
2442.235	1302.27
2445.391	1269.31
2448.546	1289.47
2451.701	1308.65
2454.855	1305.95
2458.009	1323.09
2461.163	1313.66
2464.317	1295.14
2467.471	1309.01
2470.624	1331.03
2473.777	1321.22
2476.929	1331.4
2480.082	1342.27
2483.234	1334.21
2486.385	1302.08
2489.537	1297.87
2492.688	1291.24
2495.839	1305.15
2498.989	1311.61
2502.14	1303.79
2505.29	1295.17
2508.439	1311.45
2511.589	1280.05
2514.738	1280
2517.887	1289.27
2521.035	1332.07
2524.183	1306.93
2527.331	1301.11
2530.479	1294.29
2533.627	1297.49
