Data from N_2_HIR_IL_4N_Splice17_12-11-00-619.txt Node
Date: Sat Mar 14 12:11:00 EDT 2020
User: sa697716
Spectrometer: FLMS03696
Trigger mode: 0
Integration Time (sec): 3.180400E-1
Scans to average: 20
Electric dark correction enabled: true
Nonlinearity correction enabled: true
Boxcar width: 5
XAxis mode: Wavelengths
Number of Pixels in Spectrum: 2048
>>>>>Begin Spectral Data<<<<<
187.83	-264602.83
188.298	1886.08
188.766	1000.07
189.233	938.32
189.701	1346.8
190.169	1915.49
190.636	726.17
191.104	606.13
191.571	122.81
192.039	-44.2
192.506	-47.28
192.974	528.31
193.441	-1006.22
193.908	-398.23
194.375	-68.43
194.842	-12.09
195.31	78.34
195.777	101.18
196.244	335.39
196.711	442.85
197.177	562.49
197.644	828.07
198.111	1414.96
198.578	1999.36
199.045	1609.97
199.511	2612.92
199.978	3052.02
200.445	2580.21
200.911	2897.3
201.378	3236.19
201.844	2953.85
202.31	5060.71
202.777	5225.99
203.243	2925.28
203.709	2794.86
204.176	3341.88
204.642	2787.31
205.108	2617.15
205.574	2148.91
206.04	1963.87
206.506	1825.52
206.972	1725.01
207.438	1658.45
207.903	1898.72
208.369	1648.94
208.835	1637.96
209.301	1711.46
209.766	1736.27
210.232	1718.82
210.697	2127.49
211.163	2647.44
211.628	3989.12
212.094	3316.43
212.559	4083.67
213.024	2514.28
213.49	3072.33
213.955	2985.27
214.42	2887.53
214.885	2700.21
215.35	2582.37
215.815	2483.52
216.28	2615.93
216.745	2126.89
217.21	2286.56
217.675	2068.94
218.14	2316.75
218.604	2561.93
219.069	2893.63
219.534	3012.93
219.998	3442.95
220.463	4133.07
220.927	5013.62
221.392	4670.91
221.856	4699.43
222.32	5883.24
222.785	7241.93
223.249	9088.42
223.713	10097.56
224.177	10063.52
224.642	12857.01
225.106	15808.39
225.57	17227.03
226.034	12838.46
226.497	19517.67
226.961	17623.57
227.425	20477.55
227.889	22697.07
228.353	22654.17
228.816	46697.33
229.28	44672.32
229.744	37681.43
230.207	22918.13
230.671	22524.22
231.134	37143.66
231.597	42860.28
232.061	42728.84
232.524	41693.12
232.987	28670.26
233.45	25768.32
233.914	23126.9
234.377	23685.91
234.84	21644.71
235.303	25485.42
235.766	28434.52
236.229	29373.58
236.691	18484.78
237.154	20771.33
237.617	15623.2
238.08	16016.46
238.542	18748.19
239.005	13397.29
239.468	13298.21
239.93	12527.74
240.393	11378.22
240.855	9979.22
241.317	10226.75
241.78	12406.48
242.242	12829.39
242.704	13839.2
243.166	12043.6
243.629	10933.87
244.091	12575.72
244.553	13756.47
245.015	14786.63
245.477	19103.57
245.939	27975.52
246.4	29607.17
246.862	28826.48
247.324	27185.78
247.786	30395.35
248.247	39813.12
248.709	41035.4
249.17	30714.18
249.632	28973.37
250.093	33626.49
250.555	29051.01
251.016	17749.9
251.477	16841.61
251.939	18159
252.4	19023.81
252.861	22633.15
253.322	21049.82
253.783	25070.56
254.244	32484.93
254.705	25603.81
255.166	22747.07
255.627	22409.7
256.088	31579.65
256.549	33594.5
257.009	28922.41
257.47	35097.36
257.931	28585.45
258.391	21392.36
258.852	22074.92
259.312	23150.16
259.773	28578.99
260.233	24159.63
260.694	20355.56
261.154	23081.32
261.614	18528.73
262.074	16559.3
262.534	17207.44
262.994	16210.53
263.455	21608.21
263.915	18179.03
264.374	17113.6
264.834	18681.17
265.294	20697.88
265.754	21473.79
266.214	20313.78
266.673	19022.8
267.133	24044.29
267.593	23856.84
268.052	29203.83
268.512	25390.52
268.971	30665.17
269.431	33649.78
269.89	30130.74
270.349	45133.81
270.809	50351.3
271.268	45306.97
271.727	101668.54
272.186	65783.2
272.645	49346.74
273.104	35567.32
273.563	51553.64
274.022	40533.56
274.481	34502.05
274.94	26617.25
275.399	19822.75
275.857	23067.41
276.316	31223.76
276.775	27791.67
277.233	27396.52
277.692	25669
278.15	29048.86
278.609	29894.89
279.067	27667.34
279.525	25722.51
279.984	33185.12
280.442	39861.18
280.9	39321.64
281.358	25867.68
281.816	24123.48
282.274	23641.05
282.732	24449.54
283.19	24591.11
283.648	21247.42
284.106	22652.32
284.564	23053.67
285.021	21417.03
285.479	15965.55
285.937	14534.21
286.394	12774.25
286.852	13136.01
287.309	13805.82
287.767	13334.71
288.224	12691.98
288.682	13911.44
289.139	15257.98
289.596	13965.98
290.053	14506.46
290.511	18283.65
290.968	22126.24
291.425	29987.7
291.882	24981.01
292.339	21751.5
292.796	21579.8
293.252	20322.73
293.709	16154.65
294.166	14497.03
294.623	16005.37
295.079	15353.09
295.536	15448.42
295.992	14044.14
296.449	13884.55
296.905	14417.47
297.362	13802.72
297.818	14511.29
298.274	15052.7
298.731	15335.33
299.187	15173.8
299.643	16298.97
300.099	19739.06
300.555	21615.08
301.011	18044.02
301.467	17394.44
301.923	20381.6
302.379	19926.46
302.835	19579.97
303.291	19623.77
303.746	22332.06
304.202	28216.85
304.658	28310.95
305.113	19018.45
305.569	18649.18
306.024	19897.96
306.479	18958.91
306.935	15993.85
307.39	17467.65
307.845	16129.74
308.301	16260.9
308.756	15837.53
309.211	15253.96
309.666	15646.8
310.121	19456.15
310.576	19747.71
311.031	19623.87
311.486	22455.79
311.94	22425.91
312.395	30035.61
312.85	56559.83
313.305	277296.94
313.759	1439053.52
314.214	104389.78
314.668	82799.07
315.123	69640.9
315.577	25000.41
316.032	22220.77
316.486	27837.05
316.94	21959.58
317.394	15283.64
317.849	11864.71
318.303	11242.23
318.757	10608.87
319.211	11716.73
319.665	10259.99
320.119	10381.77
320.572	14875.69
321.026	13890.89
321.48	11574.98
321.934	12653.04
322.387	12677.12
322.841	13687.97
323.295	12290.92
323.748	14116.23
324.202	14312.57
324.655	17169.71
325.108	23973.43
325.562	16944.79
326.015	20144.93
326.468	15232.49
326.921	17022.92
327.374	15882.42
327.827	16550.01
328.28	18756.11
328.733	12606.36
329.186	11091.78
329.639	10576.37
330.092	8929.28
330.545	8524.54
330.997	8605.48
331.45	9410.15
331.903	11024.77
332.355	18964.89
332.808	18411.15
333.26	15225.3
333.713	16558.31
334.165	16721.12
334.617	22312.23
335.069	17992.61
335.522	32495.96
335.974	35971.12
336.426	32822.34
336.878	22723.46
337.33	11519.37
337.782	11257.07
338.234	14095.91
338.686	16795.17
339.137	19871.56
339.589	18723.68
340.041	14637.89
340.493	12570.62
340.944	12854.5
341.396	13842.37
341.847	11627.92
342.299	13725.95
342.75	16781.27
343.201	14628.72
343.653	16818.36
344.104	20629.16
344.555	16202.58
345.006	25257.5
345.457	19323.13
345.908	15354.07
346.359	14464.13
346.81	11773.76
347.261	12377.73
347.712	12158.47
348.163	13040.31
348.613	13218.47
349.064	12341.56
349.515	10816.66
349.965	11113.95
350.416	13389.8
350.866	14682.04
351.317	16589.02
351.767	27531.89
352.217	34858.9
352.668	28991.39
353.118	26522.24
353.568	25575.44
354.018	20249.47
354.468	21376.7
354.918	15333.1
355.368	13426.02
355.818	18998.68
356.268	54700.47
356.718	228681.3
357.168	56854.47
357.617	28486.15
358.067	31689.2
358.517	29710.03
358.966	34883.42
359.416	39161.1
359.865	42332.51
360.315	50367.05
360.764	23505.68
361.213	13129.72
361.663	12431.07
362.112	15350.44
362.561	24795.96
363.01	18735.79
363.459	15745.29
363.908	16997.29
364.357	14433.14
364.806	24387.72
365.255	16765.33
365.703	15373.31
366.152	15448.4
366.601	12545.32
367.05	10188.43
367.498	9254.04
367.947	9666.71
368.395	10053.44
368.844	8920.57
369.292	10746.46
369.74	7422.41
370.189	11369.48
370.637	13334.23
371.085	11501.98
371.533	13972.22
371.981	13451.78
372.429	12829.13
372.877	13357
373.325	11206.18
373.773	11397.98
374.221	10148.48
374.669	12593.52
375.116	10908
375.564	10993.75
376.012	12280.3
376.459	10144.8
376.907	12139.56
377.354	14677.69
377.801	13703.66
378.249	15732.39
378.696	20122.52
379.143	24386.39
379.591	26003.63
380.038	44073.37
380.485	31930.18
380.932	34608.33
381.379	31786.39
381.826	23459.5
382.273	16726.72
382.72	14668.36
383.166	14359.61
383.613	9352.72
384.06	8454.98
384.506	9828.28
384.953	7222.78
385.4	7293.43
385.846	6409.01
386.292	6267.12
386.739	6157.08
387.185	6106.14
387.631	6143.66
388.078	6000.87
388.524	6454.71
388.97	6002.71
389.416	5039.64
389.862	5384.59
390.308	5125.46
390.754	5222.84
391.2	5689.33
391.645	5848.47
392.091	5640.89
392.537	5472.28
392.983	5484.42
393.428	5415.83
393.874	5828.65
394.319	5870.27
394.765	5607.9
395.21	5793.15
395.655	5464.22
396.101	5146.52
396.546	4668.78
396.991	4726.09
397.436	4409.81
397.881	4295.01
398.326	4094.89
398.771	3892.77
399.216	3425.46
399.661	3099.81
400.106	3108.3
400.551	3199.53
400.995	2881.77
401.44	2866.2
401.885	2705.98
402.329	2747.51
402.774	2640.04
403.218	2564.51
403.663	2481.28
404.107	2558.24
404.551	2590.84
404.995	2385.01
405.44	2309.21
405.884	2356.41
406.328	2289.18
406.772	2289.27
407.216	2092.81
407.66	2033.58
408.104	1938.3
408.547	1822.88
408.991	1768.8
409.435	1706.57
409.879	1687.3
410.322	1671.44
410.766	1615.89
411.209	1542.94
411.653	1483.67
412.096	1458.01
412.54	1461.58
412.983	1458.09
413.426	1463.82
413.869	1465.04
414.312	1442.06
414.756	1391.36
415.199	1329.15
415.642	1295.11
416.085	1297.16
416.527	1294.27
416.97	1315.8
417.413	1249.99
417.856	1237.3
418.298	1226.27
418.741	1220.04
419.184	1217.2
419.626	1269.53
420.069	1270.5
420.511	1278.44
420.953	1252.32
421.396	1242.2
421.838	1211.78
422.28	1241.01
422.722	1249.46
423.164	1266.7
423.606	1245.16
424.048	1244.46
424.49	1182.95
424.932	1175.2
425.374	1159.73
425.816	1180.28
426.258	1203.79
426.699	1218.84
427.141	1203.43
427.582	1221.83
428.024	1219.43
428.465	1215.24
428.907	1183.27
429.348	1168.16
429.789	1168.16
430.231	1143.24
430.672	1159.81
431.113	1132.48
431.554	1116.68
431.995	1088.64
432.436	1050.76
432.877	1025.42
433.318	1007.52
433.759	1004.15
434.2	1006.38
434.64	1000.51
435.081	1003.25
435.522	949.17
435.962	913.08
436.403	892.09
436.843	904.88
437.284	883.48
437.724	859.02
438.164	861.65
438.604	844.22
439.045	813.58
439.485	778.05
439.925	761.23
440.365	743.05
440.805	733.9
441.245	725.19
441.685	697.61
442.125	691.84
442.564	697.08
443.004	680.74
443.444	678.47
443.883	677.38
444.323	671.73
444.762	672.39
445.202	681.05
445.641	692.88
446.081	687.09
446.52	691.29
446.959	683.73
447.398	666.56
447.837	657.71
448.276	645.15
448.716	652.51
449.154	657.09
449.593	643.46
450.032	640.09
450.471	625.74
450.91	626.22
451.349	625.24
451.787	621.89
452.226	630.61
452.664	630.91
453.103	631.1
453.541	628.1
453.98	626.93
454.418	629.87
454.856	620.46
455.295	620.18
455.733	624.12
456.171	627.36
456.609	629.47
457.047	629.46
457.485	637.28
457.923	639.59
458.361	630.1
458.798	631.92
459.236	630.2
459.674	634.43
460.111	637.38
460.549	631.37
460.987	627.69
461.424	624.62
461.862	620.69
462.299	612.4
462.736	610.22
463.173	613.38
463.611	606.95
464.048	606.32
464.485	611.31
464.922	606.13
465.359	603.76
465.796	597.37
466.233	593.85
466.67	588.91
467.106	586.94
467.543	581.38
467.98	573.33
468.416	558.3
468.853	552.03
469.29	535.31
469.726	529.08
470.162	515.16
470.599	507.84
471.035	502.58
471.471	490.02
471.907	486.35
472.344	483.13
472.78	484.34
473.216	489.96
473.652	483.07
474.088	481.51
474.523	479.39
474.959	482.52
475.395	476.02
475.831	472.19
476.266	474.33
476.702	471.67
477.138	465.53
477.573	463.29
478.008	460.96
478.444	462.91
478.879	466.42
479.314	468.31
479.75	466.99
480.185	469.43
480.62	472.92
481.055	474.11
481.49	477.69
481.925	484.59
482.36	492.58
482.795	506
483.229	519.58
483.664	530.29
484.099	531.1
484.534	538.85
484.968	543.71
485.403	544.96
485.837	544.02
486.271	542.51
486.706	541.74
487.14	534.7
487.574	525.38
488.009	519.54
488.443	514.68
488.877	520.16
489.311	521.48
489.745	527.46
490.179	531.63
490.613	541.13
491.046	544.59
491.48	548.26
491.914	548.75
492.348	551.97
492.781	555.36
493.215	555.26
493.648	554.26
494.082	557.91
494.515	557.43
494.948	562.65
495.382	565.58
495.815	569.72
496.248	573.09
496.681	582.54
497.114	590.45
497.547	597.52
497.98	607.4
498.413	612.34
498.846	619.08
499.279	624.46
499.711	627.28
500.144	628.56
500.577	635.69
501.009	644.2
501.442	651.76
501.874	652.95
502.306	654.42
502.739	660.44
503.171	671.65
503.603	674.24
504.036	681.45
504.468	685.96
504.9	694.8
505.332	699.76
505.764	703.05
506.196	708.72
506.627	719.46
507.059	729.99
507.491	736.45
507.923	735.3
508.354	747.2
508.786	756.28
509.217	771.01
509.649	783.24
510.08	799.01
510.512	813.67
510.943	826.16
511.374	836.89
511.805	853.63
512.237	870.87
512.668	898.41
513.099	922.04
513.53	945.81
513.961	963.74
514.391	991.43
514.822	1020.68
515.253	1051.31
515.684	1073.96
516.114	1100.43
516.545	1120.09
516.975	1144
517.406	1161.68
517.836	1167.17
518.267	1175.85
518.697	1193.56
519.127	1200.48
519.558	1208.82
519.988	1215.14
520.418	1227.03
520.848	1244.82
521.278	1255.82
521.708	1278.46
522.138	1291.53
522.567	1321.15
522.997	1345.24
523.427	1361.76
523.857	1378.99
524.286	1391.41
524.716	1406.99
525.145	1424.92
525.575	1437.04
526.004	1452.35
526.433	1444.01
526.863	1446.28
527.292	1438.19
527.721	1444.91
528.15	1451.45
528.579	1453.28
529.008	1464.14
529.437	1485.34
529.866	1499.7
530.295	1516.55
530.724	1528.74
531.152	1554.49
531.581	1568.98
532.01	1586.36
532.438	1594.85
532.867	1609.41
533.295	1627.91
533.723	1634.63
534.152	1634.55
534.58	1635.55
535.008	1622.87
535.436	1625.33
535.865	1633.8
536.293	1647.38
536.721	1662.78
537.149	1687.51
537.576	1691.38
538.004	1703.08
538.432	1711.11
538.86	1710.45
539.287	1717.58
539.715	1731.07
540.143	1734.2
540.57	1731.69
540.998	1729.75
541.425	1710.95
541.852	1691.65
542.28	1690.01
542.707	1676.92
543.134	1664.13
543.561	1660.35
543.988	1653.53
544.415	1652.94
544.842	1648.66
545.269	1642.42
545.696	1643.8
546.123	1654.29
546.549	1645.85
546.976	1634.44
547.403	1634.08
547.829	1636.94
548.256	1639.39
548.682	1636.51
549.108	1628.8
549.535	1628.85
549.961	1629.88
550.387	1617.7
550.813	1612.72
551.24	1617.87
551.666	1618.42
552.092	1608.36
552.518	1601.12
552.943	1594.55
553.369	1601.61
553.795	1605.91
554.221	1605.96
554.646	1602.71
555.072	1611.48
555.498	1614.91
555.923	1623.03
556.349	1636.52
556.774	1643.53
557.199	1644.82
557.625	1650.28
558.05	1642.89
558.475	1652.99
558.9	1650.79
559.325	1642.9
559.75	1637.02
560.175	1630.15
560.6	1621.83
561.025	1617.37
561.449	1616.62
561.874	1619.48
562.299	1620.76
562.723	1625.64
563.148	1613.59
563.572	1614.3
563.997	1620.82
564.421	1622.03
564.846	1621.02
565.27	1622.57
565.694	1618.42
566.118	1626.81
566.542	1630.91
566.966	1622.55
567.39	1616.25
567.814	1603.73
568.238	1601.47
568.662	1602.77
569.086	1603.32
569.509	1605.72
569.933	1589.99
570.357	1582.14
570.78	1561.62
571.204	1547.44
571.627	1536.44
572.05	1532.13
572.474	1530.78
572.897	1518.52
573.32	1511.05
573.743	1500.18
574.166	1483.54
574.589	1482.18
575.012	1473.83
575.435	1470.18
575.858	1461.67
576.281	1450.46
576.704	1435.61
577.126	1423.03
577.549	1412.03
577.972	1400.76
578.394	1391.28
578.817	1383.44
579.239	1365.05
579.661	1351.05
580.084	1337.12
580.506	1323.82
580.928	1319.57
581.35	1309.31
581.772	1304.01
582.194	1291.38
582.616	1280.2
583.038	1266.3
583.46	1255.94
583.882	1251.78
584.303	1253.54
584.725	1247.93
585.147	1249.2
585.568	1256.63
585.99	1265.87
586.411	1270.1
586.833	1280.02
587.254	1280.67
587.675	1291.35
588.096	1301.57
588.518	1296.82
588.939	1283.66
589.36	1281.14
589.781	1271.24
590.202	1246.49
590.623	1238.55
591.043	1235.47
591.464	1224.29
591.885	1220.06
592.305	1214.06
592.726	1201.55
593.147	1202.39
593.567	1195.92
593.987	1189.43
594.408	1183.92
594.828	1181.82
595.248	1175.77
595.669	1160.59
596.089	1154.8
596.509	1148.45
596.929	1137.6
597.349	1137.44
597.769	1127.16
598.189	1121.43
598.608	1121
599.028	1121.21
599.448	1119.3
599.867	1108.19
600.287	1104.01
600.706	1100.37
601.126	1092.18
601.545	1090.86
601.965	1088.15
602.384	1083.82
602.803	1086.67
603.222	1082.48
603.641	1077.47
604.061	1074.61
604.48	1070.9
604.898	1076.68
605.317	1078.93
605.736	1079.58
606.155	1076.5
606.574	1069.51
606.992	1073.07
607.411	1068.21
607.829	1061.61
608.248	1058.07
608.666	1055.46
609.085	1054.48
609.503	1046.76
609.921	1041.91
610.339	1043.23
610.758	1041.53
611.176	1037.57
611.594	1029.92
612.012	1026.75
612.43	1028.69
612.847	1031.68
613.265	1032.38
613.683	1035.35
614.101	1036.45
614.518	1032.75
614.936	1023.69
615.353	1012.84
615.771	1009.93
616.188	1009.77
616.606	1006
617.023	999.54
617.44	989.57
617.857	983.4
618.274	975.88
618.691	970.84
619.108	963.45
619.525	958.35
619.942	961.94
620.359	963.29
620.776	958.86
621.192	956.38
621.609	954.34
622.026	959.28
622.442	964.09
622.859	966.47
623.275	960.25
623.691	963.93
624.108	972.75
624.524	983.55
624.94	982.88
625.356	991.3
625.772	1000.58
626.188	1009.32
626.604	1010.14
627.02	1007.02
627.436	1006.19
627.852	1012.96
628.268	1022.48
628.683	1016.34
629.099	1009.99
629.514	1007.44
629.93	1009.93
630.345	1013.14
630.761	1010.14
631.176	1012.87
631.591	1008.01
632.007	1002.87
632.422	999.9
632.837	990.22
633.252	987.42
633.667	979.12
634.082	970.28
634.497	959.26
634.911	943.76
635.326	939.64
635.741	925.33
636.155	915.9
636.57	915.28
636.984	913.55
637.399	912.77
637.813	909.44
638.228	906.47
638.642	906.75
639.056	896.51
639.47	894.33
639.884	887.23
640.298	880.26
640.712	876.64
641.126	865.06
641.54	855.91
641.954	849.74
642.368	839.55
642.781	831.95
643.195	818.03
643.609	817.84
644.022	811.44
644.436	806.12
644.849	796.69
645.262	786.99
645.676	786.28
646.089	782.13
646.502	771.28
646.915	766.62
647.328	753.55
647.741	752.06
648.154	741.45
648.567	739.92
648.98	731.39
649.393	731.58
649.805	729.94
650.218	724.66
650.631	713.42
651.043	708.89
651.456	705.38
651.868	706.52
652.28	718.11
652.693	727.9
653.105	733.27
653.517	740.51
653.929	740.52
654.341	744.65
654.753	737.35
655.165	743
655.577	742.24
655.989	740.43
656.401	734.54
656.813	711.3
657.224	697.6
657.636	677.41
658.047	665.42
658.459	652.32
658.87	646.06
659.282	638.39
659.693	625.07
660.104	616.58
660.515	606.99
660.926	607.87
661.338	607.22
661.749	604.54
662.159	599.6
662.57	598.27
662.981	597.5
663.392	594.76
663.803	599.28
664.213	599.25
664.624	598.01
665.035	603.05
665.445	593.96
665.855	590.33
666.266	587.08
666.676	588.14
667.086	582.49
667.497	583.08
667.907	580.86
668.317	576
668.727	576.47
669.137	578.27
669.547	578.54
669.956	582.86
670.366	586.41
670.776	589.46
671.186	593.76
671.595	598.79
672.005	603.08
672.414	603.73
672.824	604.32
673.233	608.07
673.642	611.88
674.052	614.92
674.461	618.34
674.87	622.65
675.279	622.39
675.688	624.72
676.097	625.96
676.506	624.14
676.915	636.24
677.323	638.99
677.732	637.53
678.141	637.64
678.549	629.96
678.958	629.76
679.366	629.84
679.775	633.88
680.183	643.05
680.592	648.98
681	654.2
681.408	648.69
681.816	654.82
682.224	662.68
682.632	670.19
683.04	693.12
683.448	710.44
683.856	732.85
684.264	758.83
684.671	780.34
685.079	807.29
685.487	838.86
685.894	885.38
686.302	920.82
686.709	948.56
687.116	982.46
687.524	1008.82
687.931	1032.48
688.338	1053.62
688.745	1069.02
689.152	1089.12
689.559	1119.88
689.966	1149.78
690.373	1164.39
690.78	1195.24
691.187	1244.31
691.593	1282.9
692	1316.33
692.407	1368.22
692.813	1430.69
693.22	1483.26
693.626	1538.24
694.032	1584.94
694.439	1654.56
694.845	1709.28
695.251	1778.41
695.657	1841.72
696.063	1932.5
696.469	2005.75
696.875	2073.37
697.281	2118.78
697.687	2172.29
698.093	2220.23
698.498	2298.75
698.904	2361.37
699.31	2451.69
699.715	2522.6
700.12	2618.08
700.526	2649.13
700.931	2726.51
701.337	2788.28
701.742	2831.85
702.147	2921.79
702.552	2964.66
702.957	3034.42
703.362	3068.08
703.767	3110
704.172	3159.05
704.577	3128.7
704.981	3186.12
705.386	3215.76
705.791	3221.69
706.195	3305.62
706.6	3327.9
707.004	3417.18
707.408	3400.21
707.813	3437.12
708.217	3435.9
708.621	3451.49
709.025	3558.09
709.43	3572.16
709.834	3642.84
710.237	3725.43
710.641	3724.04
711.045	3761.48
711.449	3767.75
711.853	3807.94
712.256	3864.59
712.66	3915.7
713.064	4003.91
713.467	4057.8
713.87	4182.16
714.274	4240.4
714.677	4363.59
715.08	4540.58
715.484	4722.68
715.887	4942.57
716.29	5160.49
716.693	5384.7
717.096	5646.7
717.499	5794.55
717.901	5832.61
718.304	5874.37
718.707	5914.2
719.109	5817.49
719.512	5796.71
719.915	5660.02
720.317	5612.76
720.719	5668.86
721.122	5651.19
721.524	5605.77
721.926	5572.33
722.328	5690.35
722.731	5690.45
723.133	5729.17
723.535	5945.13
723.937	5975.39
724.338	6042.36
724.74	6091.63
725.142	6016.38
725.544	6018.2
725.945	6052.69
726.347	6057.49
726.748	6056.45
727.15	6076.52
727.551	6040.38
727.952	6017.81
728.354	5990.07
728.755	5997.44
729.156	5960.46
729.557	5966.84
729.958	5842.45
730.359	5788.78
730.76	5771.85
731.161	5711.35
731.562	5691.37
731.962	5698.08
732.363	5629.14
732.763	5563.93
733.164	5607.46
733.564	5536.04
733.965	5434.23
734.365	5398.71
734.766	5434.89
735.166	5394.62
735.566	5338.23
735.966	5312.09
736.366	5309.3
736.766	5244.69
737.166	5283.2
737.566	5240.31
737.966	5215.11
738.365	5261.73
738.765	5259.07
739.165	5177.43
739.564	5151.69
739.964	5202.72
740.363	5150.59
740.763	5149.6
741.162	5137.11
741.561	5105.83
741.96	5056.88
742.36	5077.75
742.759	5085.65
743.158	5127.8
743.557	5147.26
743.955	5189.93
744.354	5139.57
744.753	5204.76
745.152	5159.94
745.55	5223.21
745.949	5212.92
746.348	5213.66
746.746	5235.5
747.144	5189.01
747.543	5165.55
747.941	5218.15
748.339	5142.29
748.737	5135.3
749.136	5126.88
749.534	5202.09
749.932	5171.86
750.33	5199.64
750.727	5265.33
751.125	5239.93
751.523	5226.81
751.921	5274.93
752.318	5238.63
752.716	5303.72
753.113	5319.15
753.511	5348.09
753.908	5346.36
754.305	5325.92
754.703	5394.98
755.1	5458.6
755.497	5525.14
755.894	5737.32
756.291	5936.77
756.688	6304.51
757.085	6791.66
757.482	7475.07
757.878	8218.12
758.275	8891.93
758.672	9823.67
759.068	10573.92
759.465	11652.17
759.861	13043.34
760.258	14652.33
760.654	15483.73
761.05	15348.07
761.447	14641.27
761.843	13628.37
762.239	12583.27
762.635	12114.2
763.031	11662.11
763.427	11014.22
763.822	10328.72
764.218	9650.96
764.614	8769.7
765.01	8181
765.405	7802.14
765.801	7512.68
766.196	7146.15
766.592	6941.06
766.987	6592.95
767.382	6357.54
767.778	6256.88
768.173	6114.08
768.568	6031.24
768.963	5892.04
769.358	5911.81
769.753	5859.83
770.148	5770.39
770.542	5767.51
770.937	5734.35
771.332	5833.42
771.726	5855.28
772.121	5785.04
772.515	5844.34
772.91	5827.78
773.304	5907.39
773.699	5836.65
774.093	5895.21
774.487	5957.43
774.881	6006.18
775.275	6003.44
775.669	5958.02
776.063	6006.21
776.457	6050.56
776.851	5968.68
777.245	5961.25
777.638	5999.68
778.032	6127.79
778.425	6087.28
778.819	6131.41
779.212	6085.63
779.606	6037.81
779.999	6062.1
780.392	6042.63
780.786	6135.09
781.179	6158.53
781.572	6209.76
781.965	6221.55
782.358	6153.76
782.751	6217.98
783.143	6164.41
783.536	6246.66
783.929	6296.43
784.322	6421.07
784.714	6460.8
785.107	6453.81
785.499	6534.42
785.891	6507.2
786.284	6485.71
786.676	6640.71
787.068	6619.1
787.46	6678.84
787.852	6698.7
788.245	6791.87
788.636	6826.33
789.028	6895.94
789.42	6938
789.812	6945.75
790.204	7052.73
790.595	7160.72
790.987	6945.79
791.378	6973.25
791.77	7113.74
792.161	7259.86
792.553	7321.4
792.944	7192.69
793.335	7120.34
793.726	7197.41
794.117	7295.03
794.508	7442.21
794.899	7408.22
795.29	7565.34
795.681	7626.81
796.072	7472.06
796.463	7267.4
796.853	7278.96
797.244	7456.3
797.634	7495.03
798.025	7498.09
798.415	7511.57
798.806	7610.39
799.196	7702.46
799.586	7755.21
799.976	7711.91
800.366	7963.55
800.756	8227.83
801.146	8181.82
801.536	8212.64
801.926	8288.81
802.316	8311.22
802.706	8386.68
803.095	8253.12
803.485	8367.23
803.874	8410.56
804.264	8693.08
804.653	8665.38
805.043	8825.3
805.432	8945.68
805.821	8945.86
806.21	8967.58
806.599	9098.85
806.988	9155.49
807.377	9270
807.766	9412.63
808.155	9725.16
808.544	9438.12
808.933	9457.14
809.321	9435.82
809.71	9756.01
810.098	9929.12
810.487	10436.23
810.875	10967.17
811.264	10983.63
811.652	11294.2
812.04	11452.06
812.428	11630.64
812.816	12467.26
813.204	12916.07
813.592	13522.58
813.98	13895.78
814.368	13795
814.756	14323.59
815.144	14236.3
815.531	14755.51
815.919	14678.71
816.306	15019.64
816.694	14683.1
817.081	14744.06
817.469	15121.75
817.856	15119.98
818.243	15418.34
818.63	15850.52
819.017	15390.64
819.404	15452.07
819.791	15862.51
820.178	16544.11
820.565	16813.78
820.952	17831.55
821.339	17284.14
821.725	17481.93
822.112	16661.85
822.498	16611.44
822.885	16752.96
823.271	16642.58
823.657	17111.03
824.044	17122.6
824.43	17202.4
824.816	17160.81
825.202	16689.66
825.588	17811.19
825.974	17835.52
826.36	18406.45
826.746	18452.08
827.132	18845.54
827.517	18819.58
827.903	17956.38
828.289	17994.38
828.674	17139.38
829.06	17039.74
829.445	17477.85
829.83	17862.48
830.216	18392.53
830.601	18787.18
830.986	18333.98
831.371	18181.62
831.756	18788.86
832.141	18310.2
832.526	18308.89
832.911	18619.53
833.295	18487.57
833.68	18998.09
834.065	18322.58
834.449	17321.99
834.834	17245.33
835.218	17246.02
835.603	17615.53
835.987	17392.75
836.371	18309.2
836.755	18196.89
837.139	18640.75
837.524	18904.08
837.908	18700.44
838.291	18756.09
838.675	18828.65
839.059	19051.49
839.443	19034.98
839.827	18787.69
840.21	19305.44
840.594	19138.06
840.977	19357.77
841.361	19331.51
841.744	19742.7
842.127	19571.98
842.511	19850.54
842.894	20508.71
843.277	20935.08
843.66	21533.34
844.043	21618.3
844.426	20743.61
844.809	20411.83
845.191	20452.08
845.574	19942.12
845.957	19546.15
846.339	19442.03
846.722	18869.36
847.104	18943.93
847.487	18754.49
847.869	18761.4
848.252	19073.27
848.634	19437.5
849.016	19730.34
849.398	19871.41
849.78	20814.78
850.162	20820.82
850.544	21269.34
850.926	21960.77
851.307	21858.54
851.689	22162.36
852.071	22666.44
852.452	23029.18
852.834	23006.94
853.215	23437.06
853.597	23610.85
853.978	23929.12
854.359	24424.86
854.741	23334.53
855.122	23223.34
855.503	22916.21
855.884	23062.45
856.265	22997.51
856.646	23118.81
857.026	22685.1
857.407	22619.98
857.788	22790.63
858.169	23106.96
858.549	22180.64
858.93	22867.27
859.31	22928.37
859.69	23162.78
860.071	22711.35
860.451	22477.8
860.831	21674.17
861.211	22945.84
861.591	23544.35
861.971	23513.85
862.351	23729.94
862.731	24151.94
863.111	24441.18
863.491	24796.23
863.87	25740.18
864.25	26132.62
864.629	25682.16
865.009	26235.9
865.388	27171.11
865.768	29115.34
866.147	28991.69
866.526	27373.52
866.905	27704.01
867.284	29263.06
867.663	27794.25
868.042	26635.35
868.421	26553.36
868.8	27001.72
869.179	27255.87
869.558	25657.05
869.936	23651.01
870.315	24074.69
870.693	24666.84
871.072	26587.97
871.45	25322.52
871.828	25641.74
872.207	26966.17
872.585	26551.53
872.963	27273.43
873.341	26341.55
873.719	26029.79
874.097	25722.33
874.475	26203.73
874.853	26797.26
875.23	25684.15
875.608	26755.25
875.986	28929.5
876.363	27650.55
876.741	28493.93
877.118	27768.26
877.495	29127.5
877.873	29618.24
878.25	31159.86
878.627	29891.88
879.004	30309.99
879.381	30165.11
879.758	29356.24
880.135	27332.18
880.512	28913.5
880.889	28145.56
881.265	27847.03
881.642	27621.38
882.019	28089.59
882.395	27508.26
882.772	28598.2
883.148	27352.41
883.524	27253.4
883.901	27107.84
884.277	27514.19
884.653	27342.78
885.029	28122.71
885.405	31149.12
885.781	30912.47
886.157	29647.15
886.532	30027.29
886.908	30018.64
887.284	33392.68
887.659	34475.32
888.035	35553.29
888.411	36478.63
888.786	36956.04
889.161	38253.42
889.537	37555.74
889.912	38765.64
890.287	38721.9
890.662	39723.2
891.037	39002.19
891.412	36372.53
891.787	36008.77
892.162	34761.95
892.536	35575.79
892.911	34244.12
893.286	33514.99
893.66	32166.16
894.035	32985.56
894.409	35930.33
894.784	34469.96
895.158	35049.51
895.532	37131.95
895.906	38152.35
896.281	39034.98
896.655	38408.81
897.029	43902.17
897.402	45748.67
897.776	50939.79
898.15	50749.72
898.524	50204.56
898.898	50894.91
899.271	56972.95
899.645	49334.55
900.018	47383.53
900.392	49145.5
900.765	49538.12
901.138	45842.29
901.511	45131.41
901.884	41419.08
902.258	38220.37
902.631	39497.29
903.003	45437.47
903.376	41003.51
903.749	45985.46
904.122	49218.92
904.495	54211.71
904.867	54899.99
905.24	47652.55
905.612	44361.1
905.985	45381.27
906.357	47416.79
906.729	45246.49
907.102	38668.44
907.474	37169.06
907.846	37408
908.218	36916.6
908.59	32592.48
908.962	31535.87
909.334	33964.37
909.705	35674.44
910.077	34625.1
910.449	36045.26
910.82	37025.41
911.192	40714.77
911.563	42316.88
911.935	45269.66
912.306	45316.21
912.677	46808.84
913.048	46308.31
913.419	50197.35
913.79	50473.41
914.161	54103.57
914.532	51697.69
914.903	47497.69
915.274	45104.71
915.645	44419.74
916.015	39089.46
916.386	37276.69
916.756	39665.45
917.127	40930.1
917.497	36569.5
917.868	39794.05
918.238	37812.61
918.608	38897.65
918.978	39718.23
919.348	42047.72
919.718	43460.34
920.088	41851.86
920.458	43461.2
920.828	45729.19
921.198	43309
921.567	46295.88
921.937	35846.39
922.306	36188.66
922.676	39027.29
923.045	32549.31
923.415	30925.53
923.784	28165.94
924.153	28958.82
924.522	28936.75
924.891	27218.18
925.26	29167.99
925.629	28470.19
925.998	32726.45
926.367	31949.88
926.736	30424.04
927.104	36254.99
927.473	38964.55
927.842	47065.41
928.21	46624.22
928.578	49011.18
928.947	46356.69
929.315	46607.61
929.683	54644.66
930.051	55124.76
930.42	64046.41
930.788	54784.23
931.156	54342.37
931.523	50950.79
931.891	47078.19
932.259	45209.42
932.627	52360.74
932.994	74023.22
933.362	61222.16
933.729	53162.18
934.097	50869.67
934.464	43025.84
934.831	49623.3
935.199	48958.21
935.566	47538.68
935.933	48129.42
936.3	58300.19
936.667	45435.72
937.034	40985.61
937.401	40545.96
937.767	35016.86
938.134	31172.82
938.501	43978.39
938.867	46868.63
939.234	79286.33
939.6	67612.72
939.967	74627.55
940.333	49949.27
940.699	42557.84
941.065	34192.24
941.431	44837.06
941.798	43206.38
942.163	56726.47
942.529	35434
942.895	32629.74
943.261	21075.1
943.627	27635.62
943.992	24185.83
944.358	24252.39
944.723	24309.49
945.089	23677.89
945.454	21873.51
945.82	23374.76
946.185	22465.92
946.55	26031.36
946.915	23340.31
947.28	27416.51
947.645	24130.18
948.01	22294.74
948.375	23247.36
948.74	27882.57
949.104	32535.58
949.469	47063.69
949.834	83192.58
950.198	78858.4
950.562	47273.17
950.927	39353.6
951.291	47323.77
951.655	40355.49
952.02	37868.71
952.384	28644.29
952.748	24903.66
953.112	24266.82
953.476	21106.34
953.839	19510.62
954.203	19297.19
954.567	24144.2
954.931	38056.64
955.294	32539.68
955.658	32726.69
956.021	55656.32
956.385	94420.99
956.748	139618.31
957.111	216813.56
957.474	243058.22
957.837	273914.26
958.2	207484.56
958.563	74614.27
958.926	50440.39
959.289	76561.24
959.652	85475.79
960.015	64071.3
960.377	91877.91
960.74	104803.45
961.102	180823.94
961.465	194149.74
961.827	103755.69
962.189	198946.8
962.552	137973.02
962.914	110597.32
963.276	71810.25
963.638	59384.87
964	58850.53
964.362	39756.55
964.724	38376.03
965.085	27364.01
965.447	22439.86
965.809	25623.42
966.17	25672.68
966.532	27787.05
966.893	25495.1
967.255	23190.89
967.616	27353.51
967.977	21893.87
968.338	23929.24
968.699	19680.13
969.061	19679.06
969.421	19809.46
969.782	22221.83
970.143	18775.94
970.504	19420.62
970.865	22079.54
971.225	22551.05
971.586	22056.08
971.946	31444.02
972.307	27274.22
972.667	35648.94
973.027	36725.55
973.388	44516.04
973.748	30240.93
974.108	32923.5
974.468	44537.47
974.828	34313.09
975.188	26423.93
975.548	24271.79
975.907	20376.82
976.267	22858.71
976.627	19212.25
976.986	19905.55
977.346	18999.03
977.705	18293.81
978.064	16662.72
978.424	13859.95
978.783	14353.54
979.142	16401.52
979.501	15700.49
979.86	16612.23
980.219	15997.41
980.578	20630.53
980.937	23138.76
981.296	20605.1
981.654	21191.51
982.013	32969.94
982.371	42805.19
982.73	39954.87
983.088	45191.03
983.447	48310.04
983.805	68973.72
984.163	144441.97
984.521	160312.9
984.879	234695.4
985.237	-381610.46
985.595	368541.64
985.953	91668.66
986.311	53038.03
986.669	30780.7
987.026	26556.57
987.384	35657.32
987.741	36905.86
988.099	26343.5
988.456	21007.85
988.814	19684.65
989.171	17116.03
989.528	16870.7
989.885	17791.45
990.242	14065.38
990.599	17541.84
990.956	14365.49
991.313	10059.74
991.67	8258.02
992.027	8741.44
992.383	7777.5
992.74	6823.12
993.096	7150.54
993.453	7409.09
993.809	7685.69
994.165	10234.63
994.522	9353.52
994.878	10314.01
995.234	12944.43
995.59	12763.41
995.946	12112.81
996.302	13807.1
996.658	15960.25
997.013	17593.81
997.369	20849.36
997.725	26670.38
998.08	17294.88
998.436	26752.8
998.791	36827.3
999.147	36788.66
999.502	40201.78
999.857	29222.63
1000.212	47506.64
1000.567	67588.33
1000.922	39048.8
1001.277	24824.19
1001.632	18423.46
1001.987	23735.7
1002.342	17035.25
1002.696	13664.31
1003.051	10884.98
1003.406	13147.12
1003.76	13064.6
1004.114	12894.46
1004.469	10863.97
1004.823	8983.13
1005.177	9710.34
1005.531	7699.08
1005.885	6816.19
1006.239	7673.26
1006.593	9608.7
1006.947	12859.08
1007.301	9677.04
1007.655	10573.42
1008.008	7766.77
1008.362	8710.34
1008.715	12432.01
1009.069	11273.65
1009.422	16939.19
1009.776	34092.97
1010.129	22689.65
1010.482	18926.56
1010.835	16003.19
1011.188	33255.54
1011.541	31205.44
1011.894	-190811.98
1012.247	560994.93
1012.6	38165.59
1012.952	24064.33
1013.305	12423.73
1013.657	8928.53
1014.01	8448
1014.362	6972.03
1014.715	6174.35
1015.067	5363.35
1015.419	5250.21
1015.771	4653.62
1016.123	4147.47
1016.475	4271.21
1016.827	4554.06
1017.179	4881.04
1017.531	4929
1017.883	5025.14
1018.234	4849.49
1018.586	6124.05
1018.938	6513.57
1019.289	8982.38
1019.64	10272.01
1019.992	9539.92
1020.343	8723.54
1020.694	6893.34
1021.045	6106.34
1021.396	6973.57
1021.747	7488.8
1022.098	8991.05
1022.449	6570.79
1022.8	6095.26
1023.151	4246.62
1023.501	3774.52
1023.852	4115.14
1024.202	4265.77
1024.553	4683.43
1024.903	4576.01
1025.253	3908.04
1025.604	3505.95
1025.954	4357.49
1026.304	5296.89
1026.654	6145.34
1027.004	8997.51
1027.354	14497.73
1027.703	13597.71
1028.053	17887.2
1028.403	26098.56
1028.753	37732.71
1029.102	51530.53
1029.452	266795.39
1029.801	11549.93
1030.15	7454.2
1030.499	6341.29
897.758	2323.38
901.051	2262.77
904.343	2298.59
907.636	2305.7
910.928	2366.46
914.22	2281.85
917.511	2286.82
920.803	2340.68
924.094	2343.34
927.384	2338.9
930.675	2302.85
933.965	2264.85
937.255	2289.54
940.544	2252.35
943.834	2241.22
947.123	2177.8
950.411	2270.23
953.7	2247.81
956.988	2229.21
960.276	2167.78
963.563	2225.77
966.851	2232.74
970.138	2279.82
973.424	2278.48
976.711	2234.83
979.997	2300.41
983.283	2347.84
986.568	2271.39
989.853	2270.6
993.138	2297.98
996.423	2382.02
999.708	2334.49
1002.992	2368.15
1006.275	2263
1009.559	2277.19
1012.842	2378.07
1016.125	2325.74
1019.408	2305.13
1022.69	2369.46
1025.972	2397.07
1029.254	2370.86
1032.536	2326.67
1035.817	2341.14
1039.098	2307.54
1042.379	2383.81
1045.659	2405.73
1048.939	2351.6
1052.219	2362.21
1055.498	2362.69
1058.778	2356.43
1062.057	2335.37
1065.335	2359.09
1068.614	2372.51
1071.892	2365.16
1075.17	2427.69
1078.447	2423.57
1081.724	2418.21
1085.001	2447.21
1088.278	2424.06
1091.554	2434.22
1094.83	2427.61
1098.106	2465.82
1101.382	2497.6
1104.657	2497.8
1107.932	2496.15
1111.206	2470.96
1114.481	2428.08
1117.755	2429.13
1121.029	2418.98
1124.302	2477.15
1127.575	2437.84
1130.848	2434.91
1134.121	2396.38
1137.393	2358.59
1140.665	2418.74
1143.937	2397.82
1147.208	2346.78
1150.48	2399.78
1153.75	2386.89
1157.021	2398.8
1160.291	2374.2
1163.561	2424.5
1166.831	2398.28
1170.101	2426.04
1173.37	2392.15
1176.639	2345.4
1179.907	2393.11
1183.176	2413.9
1186.444	2414.6
1189.711	2443.98
1192.979	2462.51
1196.246	2415.59
1199.513	2429.15
1202.78	2433.84
1206.046	2445.65
1209.312	2469.98
1212.578	2490.74
1215.843	2451.33
1219.108	2420.77
1222.373	2445.78
1225.638	2412.93
1228.902	2403.1
1232.166	2364.46
1235.43	2352.28
1238.693	2372.38
1241.956	2367.76
1245.219	2410.69
1248.482	2397.57
1251.744	2396
1255.006	2524.52
1258.268	2475.71
1261.529	2427.8
1264.79	2428.42
1268.051	2530.81
1271.312	2540.39
1274.572	2511.88
1277.832	2496.1
1281.092	2485.29
1284.351	2468.56
1287.61	2453.2
1290.869	2382.36
1294.128	2371.52
1297.386	2433.07
1300.644	2424.77
1303.902	2432.57
1307.159	2301.18
1310.416	2353.25
1313.673	2382.25
1316.93	2374.93
1320.186	2410.34
1323.442	2446.45
1326.697	2442.43
1329.953	2420.66
1333.208	2451.36
1336.463	2429.93
1339.717	2384.57
1342.972	2492.48
1346.226	2469.58
1349.479	2412.7
1352.733	2388.58
1355.986	2399.76
1359.238	2378.62
1362.491	2384.11
1365.743	2385.11
1368.995	2376.35
1372.247	2390.49
1375.498	2411.67
1378.749	2447.97
1382	2398.87
1385.251	2440.31
1388.501	2394.26
1391.751	2388.3
1395	2355.74
1398.25	2384.68
1401.499	2401.57
1404.748	2345.59
1407.996	2323.1
1411.244	2311.37
1414.492	2295.08
1417.74	2273.81
1420.987	2280.57
1424.234	2338.38
1427.481	2307.72
1430.728	2364.73
1433.974	2338.2
1437.22	2341.54
1440.465	2340.66
1443.711	2328.38
1446.956	2355.28
1450.201	2332.64
1453.445	2375.69
1456.689	2360.66
1459.933	2374.73
1463.177	2411.97
1466.42	2383.53
1469.663	2365.38
1472.906	2375.54
1476.148	2426.47
1479.391	2413.45
1482.633	2384.83
1485.874	2404.35
1489.115	2406.72
1492.356	2398.04
1495.597	2374.99
1498.838	2371.16
1502.078	2352.45
1505.318	2319.13
1508.557	2354.72
1511.797	2349.42
1515.036	2383.07
1518.274	2367.05
1521.513	2327.28
1524.751	2339.94
1527.989	2361.25
1531.227	2377.1
1534.464	2385.64
1537.701	2386.31
1540.938	2400.52
1544.174	2350.46
1547.41	2344.6
1550.646	2384.31
1553.882	2426.95
1557.117	2485.43
1560.352	2495.48
1563.587	2455.82
1566.821	2421.72
1570.055	2441.5
1573.289	2421.02
1576.523	2484.65
1579.756	2497.66
1582.989	2517.28
1586.222	2478.02
1589.454	2510.86
1592.686	2490.23
1595.918	2518.66
1599.15	2513.22
1602.381	2566.63
1605.612	2540.96
1608.843	2637.16
1612.073	2558.97
1615.303	2543.96
1618.533	2540.88
1621.762	2540.67
1624.992	2518.38
1628.221	2516.41
1631.449	2503.82
1634.678	2538.96
1637.906	2505.45
1641.134	2537.27
1644.361	2499.42
1647.588	2486.45
1650.815	2508.78
1654.042	2476.71
1657.269	2505.13
1660.495	2475.9
1663.72	2472.36
1666.946	2439.3
1670.171	2404.73
1673.396	2378.71
1676.621	2360.74
1679.845	2364.48
1683.069	2376.06
1686.293	2407.59
1689.517	2394.7
1692.74	2339.54
1695.963	2363.66
1699.185	2397.55
1702.408	2370.9
1705.63	2403.83
1708.852	2416.58
1712.073	2390.9
1715.294	2393.73
1718.515	2441.72
1721.736	2399.61
1724.956	2380.19
1728.176	2403.73
1731.396	2423.94
1734.616	2410.02
1737.835	2445.45
1741.054	2419.49
1744.272	2410.45
1747.491	2444.8
1750.709	2477.24
1753.927	2413.43
1757.144	2443.88
1760.361	2497.01
1763.578	2477.07
1766.795	2426.48
1770.011	2419.09
1773.227	2447
1776.443	2485.53
1779.658	2533.22
1782.874	2473.52
1786.089	2462.57
1789.303	2463.57
1792.518	2461.55
1795.732	2447.53
1798.945	2462.75
1802.159	2505.6
1805.372	2436.43
1808.585	2428.9
1811.797	2429.03
1815.01	2457.32
1818.222	2474.59
1821.434	2438.98
1824.645	2484.97
1827.856	2489.56
1831.067	2524.83
1834.278	2465.01
1837.488	2450.28
1840.698	2578.84
1843.908	2516.31
1847.117	2483.23
1850.326	2395.87
1853.535	2467.79
1856.744	2499.56
1859.952	2418.94
1863.16	2420.05
1866.368	2431.31
1869.575	2541.5
1872.782	2426.59
1875.989	2361.2
1879.196	2419.04
1882.402	2408.17
1885.608	2444.6
1888.814	2374.07
1892.019	2276.08
1895.224	2327.46
1898.429	2298.52
1901.634	2281.14
1904.838	2256.25
1908.042	2306.53
1911.246	2317.88
1914.449	2271.44
1917.652	2258.07
1920.855	2238.23
1924.058	2271.07
1927.26	2313.27
1930.462	2337.52
1933.664	2370.27
1936.865	2314.08
1940.066	2327.2
1943.267	2273.25
1946.467	2284.24
1949.668	2305.54
1952.868	2376.77
1956.067	2363.26
1959.267	2302.08
1962.466	2326.59
1965.665	2310.16
1968.863	2304.04
1972.061	2309.54
1975.259	2305.4
1978.457	2381.87
1981.654	2341.98
1984.852	2344.48
1988.048	2290.04
1991.245	2281.66
1994.441	2367.71
1997.637	2337.21
2000.833	2318.13
2004.028	2355.18
2007.223	2415.32
2010.418	2399.31
2013.613	2355.13
2016.807	2342.45
2020.001	2341.23
2023.194	2370.69
2026.388	2354.15
2029.581	2298.66
2032.774	2351.82
2035.966	2362.7
2039.158	2304.51
2042.35	2327.6
2045.542	2253.39
2048.733	2341.27
2051.924	2342.8
2055.115	2361.13
2058.306	2318.85
2061.496	2375.31
2064.686	2427.32
2067.875	2342.03
2071.065	2346.66
2074.254	2366.76
2077.442	2319.43
2080.631	2405.61
2083.819	2322.97
2087.007	2314.91
2090.195	2295.12
2093.382	2317.53
2096.569	2299.87
2099.756	2260.48
2102.942	2298.78
2106.128	2312
2109.314	2303.41
2112.5	2281.61
2115.685	2252.58
2118.87	2261.15
2122.055	2320.97
2125.239	2297.39
2128.424	2280.96
2131.608	2352.34
2134.791	2337.06
2137.974	2380.65
2141.157	2368.71
2144.34	2333.46
2147.523	2333.27
2150.705	2354.96
2153.887	2326.5
2157.068	2292.51
2160.25	2282.88
2163.431	2307.91
2166.611	2270.19
2169.792	2289.12
2172.972	2196.07
2176.152	2253.64
2179.331	2283.71
2182.511	2279.23
2185.69	2303.63
2188.868	2305.96
2192.047	2346.68
2195.225	2352.78
2198.403	2304.66
2201.58	2294.21
2204.758	2284.25
2207.935	2361.18
2211.111	2269.51
2214.288	2257.11
2217.464	2291.09
2220.64	2251.77
2223.815	2302.5
2226.991	2232.61
2230.166	2248.3
2233.34	2284.5
2236.515	2300.2
2239.689	2366
2242.863	2314.14
2246.036	2367.6
2249.209	2354.73
2252.382	2381.26
2255.555	2384.49
2258.727	2330.13
2261.9	2360.85
2265.071	2354.53
2268.243	2353.55
2271.414	2298.49
2274.585	2275.06
2277.756	2335.7
2280.926	2294.08
2284.096	2325.05
2287.266	2247.86
2290.436	2295.11
2293.605	2319.68
2296.774	2354.13
2299.942	2362.39
2303.111	2380.56
2306.279	2429.98
2309.447	2414.19
2312.614	2388.05
2315.781	2410.59
2318.948	2386.8
2322.115	2423.05
2325.281	2322.12
2328.447	2332.41
2331.613	2305.54
2334.779	2292.08
2337.944	2288.59
2341.109	2289.52
2344.274	2279.08
2347.438	2245.41
2350.602	2267.09
2353.766	2280.38
2356.929	2268.08
2360.092	2308.72
2363.255	2272.82
2366.418	2230.54
2369.58	2309.59
2372.742	2160.71
2375.904	2161.62
2379.066	2143.72
2382.227	2173.44
2385.388	2132.97
2388.548	2075.08
2391.709	2119.87
2394.869	2105.22
2398.029	2173.77
2401.188	2174.48
2404.347	2129.17
2407.506	2224.24
2410.665	2260.29
2413.823	2251.36
2416.981	2223.56
2420.139	2247.76
2423.296	2292.21
2426.453	2266.58
2429.61	2285.45
2432.767	2245.83
2435.923	2284.56
2439.079	2239.13
2442.235	2277.98
2445.391	2215.58
2448.546	2254.36
2451.701	2292.31
2454.855	2280.61
2458.009	2312.77
2461.163	2307.16
2464.317	2280.07
2467.471	2307.68
2470.624	2339.5
2473.777	2321.44
2476.929	2336.56
2480.082	2361.1
2483.234	2330.4
2486.385	2276.27
2489.537	2270.22
2492.688	2253.85
2495.839	2268.61
2498.989	2281.9
2502.14	2266.4
2505.29	2254.83
2508.439	2279.44
2511.589	2215.45
2514.738	2218.96
2517.887	2245.22
2521.035	2316.55
2524.183	2284.23
2527.331	2270.71
2530.479	2259.03
2533.627	2263.49
