Data from N_2_DEC_OH_4N_Splice17_12-03-53-232.txt Node
Date: Sat Mar 14 12:03:53 EDT 2020
User: sa697716
Spectrometer: FLMS03696
Trigger mode: 0
Integration Time (sec): 3.180400E-1
Scans to average: 20
Electric dark correction enabled: true
Nonlinearity correction enabled: true
Boxcar width: 5
XAxis mode: Wavelengths
Number of Pixels in Spectrum: 2048
>>>>>Begin Spectral Data<<<<<
187.83	-284094.1
188.298	2039.13
188.766	1115.9
189.233	986.12
189.701	1411.49
190.169	2018.51
190.636	804.99
191.104	595.58
191.571	72.73
192.039	-89.91
192.506	-116.13
192.974	334.36
193.441	-772.19
193.908	-247.98
194.375	-63.49
194.842	34.01
195.31	157.68
195.777	192.38
196.244	368.43
196.711	396.13
197.177	494.7
197.644	682.42
198.111	1169.97
198.578	1722.92
199.045	1364.55
199.511	2187.84
199.978	2531.01
200.445	2157.54
200.911	2401.53
201.378	2662.4
201.844	2449.83
202.31	4163.31
202.777	4366.15
203.243	2466.61
203.709	2325.66
204.176	2775.39
204.642	2302.38
205.108	2149.38
205.574	1752.06
206.04	1576.36
206.506	1477.67
206.972	1382.28
207.438	1352
207.903	1528.84
208.369	1349.77
208.835	1346.55
209.301	1420.26
209.766	1446.2
210.232	1435.87
210.697	1771.92
211.163	2188.62
211.628	3274.76
212.094	2739.07
212.559	3308.99
213.024	2064.15
213.49	2472.53
213.955	2368.15
214.42	2289.14
214.885	2132.58
215.35	2034.63
215.815	1950.91
216.28	2060.41
216.745	1678.79
217.21	1790.42
217.675	1609.92
218.14	1763.43
218.604	1912.18
219.069	2141.86
219.534	2196.47
219.998	2478.64
220.463	2927.54
220.927	3470.94
221.392	3200.21
221.856	3182.42
222.32	3912.75
222.785	4787.14
223.249	5944.9
223.713	6594.83
224.177	6529.82
224.642	8302
225.106	10156.26
225.57	11053.77
226.034	8263.42
226.497	12532.75
226.961	11279.03
227.425	13107.42
227.889	14406.78
228.353	14309.94
228.816	29279.16
229.28	27928.24
229.744	23427.15
230.207	14200.15
230.671	13896.78
231.134	22746.61
231.597	26115.71
232.061	25948.43
232.524	25218.76
232.987	17332.08
233.45	15600.34
233.914	14015.86
234.377	14303.42
234.84	13068.21
235.303	15349.85
235.766	17095.37
236.229	17686.1
236.691	11123.36
237.154	12487.25
237.617	9380.32
238.08	9598.29
238.542	11211.56
239.005	8003.52
239.468	7953.02
239.93	7490.99
240.393	6818.22
240.855	5977.91
241.317	6095.75
241.78	7381.97
242.242	7623.54
242.704	8266.66
243.166	7187.84
243.629	6545.77
244.091	7544.18
244.553	8245.32
245.015	8859.51
245.477	11423.45
245.939	16702.94
246.4	17726.96
246.862	17238.56
247.324	16214.4
247.786	18076.67
248.247	23729.39
248.709	24345.71
249.17	18168.11
249.632	17173.67
250.093	19935.55
250.555	17248.13
251.016	10538.49
251.477	9993.83
251.939	10785.77
252.4	11315.21
252.861	13424.92
253.322	12483.23
253.783	14867.35
254.244	19283.23
254.705	15125.81
255.166	13427.47
255.627	13182.14
256.088	18625.32
256.549	19771.28
257.009	17022.04
257.47	20629.28
257.931	16780.36
258.391	12552.92
258.852	12918.1
259.312	13511.94
259.773	16702.11
260.233	14130.3
260.694	11931.6
261.154	13466.03
261.614	10822.06
262.074	9645.43
262.534	10031.3
262.994	9470.21
263.455	12571.09
263.915	10586.9
264.374	9946.56
264.834	10835.93
265.294	11972.23
265.754	12372.42
266.214	11720.28
266.673	10959.5
267.133	13841.12
267.593	13702.43
268.052	16737.36
268.512	14549.74
268.971	17568.95
269.431	19278.22
269.89	17247.57
270.349	25836.06
270.809	28826.12
271.268	25860.08
271.727	57865.16
272.186	37434.44
272.645	28078.71
273.104	20171.5
273.563	29200.95
274.022	22881.74
274.481	19444.81
274.94	15000.1
275.399	11130.5
275.857	12928.15
276.316	17497.14
276.775	15582.54
277.233	15379.66
277.692	14405.94
278.15	16340.55
278.609	16860.19
279.067	15621.45
279.525	14581.33
279.984	18807.6
280.442	22575.25
280.9	22325.04
281.358	14695.06
281.816	13720.73
282.274	13422.76
282.732	13855.53
283.19	13926.2
283.648	12020.04
284.106	12809.56
284.564	12982.47
285.021	12083.2
285.479	9024.15
285.937	8200.25
286.394	7211.62
286.852	7421.3
287.309	7802.07
287.767	7572.38
288.224	7216.43
288.682	7911.47
289.139	8701.81
289.596	7971.97
290.053	8283.26
290.511	10455.75
290.968	12701.71
291.425	17189.59
291.882	14333.4
292.339	12484.46
292.796	12367.23
293.252	11633
293.709	9250.79
294.166	8282.06
294.623	9143.57
295.079	8737.55
295.536	8796.1
295.992	7961.22
296.449	7874.36
296.905	8201.2
297.362	7868.83
297.818	8272.86
298.274	8609.39
298.731	8769.47
299.187	8680.84
299.643	9326.22
300.099	11283.39
300.555	12342.8
301.011	10329.73
301.467	10004.19
301.923	11639.98
302.379	11356.34
302.835	11147.06
303.291	11150.82
303.746	12661.58
304.202	15986.24
304.658	16034.08
305.113	10805.43
305.569	10613.81
306.024	11291.72
306.479	10698.62
306.935	9052.24
307.39	9865.46
307.845	9111.28
308.301	9181.2
308.756	8958.71
309.211	8641.58
309.666	8845.79
310.121	11004.15
310.576	11146.95
311.031	11086.97
311.486	12678.57
311.94	12646.88
312.395	16978.69
312.85	31876.78
313.305	156552.82
313.759	813340.74
314.214	58904.33
314.668	46821.41
315.123	39494.13
315.577	14202.65
316.032	12645.79
316.486	15852.71
316.94	12521.06
317.394	8720.12
317.849	6781.95
318.303	6391.81
318.757	6033.21
319.211	6653.81
319.665	5824.03
320.119	5881.55
320.572	8398.37
321.026	7849.68
321.48	6545.51
321.934	7120.02
322.387	7122.91
322.841	7701.65
323.295	6969.64
323.748	8019.94
324.202	8163.06
324.655	9802.73
325.108	13725.52
325.562	9722.43
326.015	11547.68
326.468	8732.25
326.921	9805.74
327.374	9187.81
327.827	9593.94
328.28	10832.11
328.733	7259.87
329.186	6400.4
329.639	6097.9
330.092	5127.44
330.545	4901.7
330.997	4957.18
331.45	5428.78
331.903	6369.74
332.355	10888.99
332.808	10545.9
333.26	8704.81
333.713	9463.07
334.165	9522.49
334.617	12735.54
335.069	10260.51
335.522	18513.97
335.974	20470.32
336.426	18722.01
336.878	12934.46
337.33	6589.2
337.782	6463.48
338.234	8140.93
338.686	9722.12
339.137	11524.52
339.589	10876.3
340.041	8548.56
340.493	7349.7
340.944	7534.07
341.396	8114.14
341.847	6842.19
342.299	8094.94
342.75	9836.72
343.201	8550.98
343.653	9832.7
344.104	12027.01
344.555	9430.68
345.006	14673.39
345.457	11298.67
345.908	8975.49
346.359	8470.74
346.81	6907.67
347.261	7262.07
347.712	7152.08
348.163	7652.9
348.613	7792.57
349.064	7292.26
349.515	6383.98
349.965	6546.22
350.416	7860.66
350.866	8616.2
351.317	9683.83
351.767	15996.87
352.217	20200.41
352.668	16800.38
353.118	15410.98
353.568	14767.24
354.018	11737.37
354.468	12421.03
354.918	8932.86
355.368	7806.11
355.818	11011.82
356.268	31695.45
356.718	133093.99
357.168	33108.7
357.617	16595.19
358.067	18485.65
358.517	17372.83
358.966	20384.39
359.416	22919.24
359.865	24710.73
360.315	29384.39
360.764	13770.12
361.213	7772.23
361.663	7341.58
362.112	9062.47
362.561	14637.54
363.01	11056.11
363.459	9258.65
363.908	9947.12
364.357	8479.82
364.806	14326.51
365.255	9847.73
365.703	9030.58
366.152	8994.05
366.601	7275.79
367.05	5915.43
367.498	5405.27
367.947	5632.58
368.395	5879.18
368.844	5255.25
369.292	6270.71
369.74	4337.89
370.189	6651.2
370.637	7799.68
371.085	6727.81
371.533	8207.84
371.981	7927.31
372.429	7591.2
372.877	7930.09
373.325	6650.41
373.773	6740.19
374.221	6009.63
374.669	7467.51
375.116	6445.57
375.564	6516.07
376.012	7283.44
376.459	6011.17
376.907	7168.79
377.354	8610.82
377.801	8062.48
378.249	9320.67
378.696	11943.61
379.143	14570.58
379.591	15543.07
380.038	26515.38
380.485	19192.93
380.932	20802.69
381.379	19202.74
381.826	14216.43
382.273	10146.05
382.72	8861.06
383.166	8626.13
383.613	5606.22
384.06	5053.45
384.506	5855.44
384.953	4291.69
385.4	4318.69
385.846	3789.84
386.292	3689.42
386.739	3616.89
387.185	3582.37
387.631	3594.13
388.078	3514.35
388.524	3765.84
388.97	3488.78
389.416	2927.13
389.862	3125.76
390.308	2971.81
390.754	3030.2
391.2	3283.81
391.645	3367.37
392.091	3250.96
392.537	3159.41
392.983	3168.86
393.428	3152.01
393.874	3383.94
394.319	3413.11
394.765	3254.93
395.21	3345.7
395.655	3134.4
396.101	2948.33
396.546	2661.73
396.991	2673.24
397.436	2479.49
397.881	2390.41
398.326	2247.98
398.771	2133.96
399.216	1860.62
399.661	1670.81
400.106	1673.1
400.551	1725.57
400.995	1548.2
401.44	1536.51
401.885	1448.93
402.329	1464.8
402.774	1405.7
403.218	1371.27
403.663	1320.33
404.107	1362.68
404.551	1377.23
404.995	1261.65
405.44	1212.81
405.884	1228.34
406.328	1186.86
406.772	1177.92
407.216	1075.7
407.66	1039.08
408.104	979.52
408.547	915.89
408.991	884.31
409.435	848.66
409.879	840.34
410.322	830.84
410.766	806.46
411.209	768.07
411.653	739.95
412.096	726.63
412.54	728.56
412.983	726.92
413.426	731.35
413.869	730.11
414.312	717.42
414.756	690.86
415.199	658
415.642	640.73
416.085	642.49
416.527	636.01
416.97	643.01
417.413	609.07
417.856	600.18
418.298	592.83
418.741	585.31
419.184	582.64
419.626	601.49
420.069	602.14
420.511	604.04
420.953	589.49
421.396	586.25
421.838	569.13
422.28	583.72
422.722	589.49
423.164	598.79
423.606	594.39
424.048	592.26
424.49	565.35
424.932	560.97
425.374	551.74
425.816	563.1
426.258	572.73
426.699	582.86
427.141	573.6
427.582	581.93
428.024	577.24
428.465	570.23
428.907	557.65
429.348	551.74
429.789	553.9
430.231	545.29
430.672	552.85
431.113	539.48
431.554	531.84
431.995	518.82
432.436	501.19
432.877	492.33
433.318	487.7
433.759	486.31
434.2	487.02
434.64	482.62
435.081	484.22
435.522	459.04
435.962	444.74
436.403	437.48
436.843	443.79
437.284	434.77
437.724	420.82
438.164	418.6
438.604	410.32
439.045	398.22
439.485	383.8
439.925	375.95
440.365	366.76
440.805	362.18
441.245	355.53
441.685	342.18
442.125	337.72
442.564	341.9
443.004	335.87
443.444	334.67
443.883	332.33
444.323	325.86
444.762	323.14
445.202	325.92
445.641	329.88
446.081	326.88
446.52	328.41
446.959	327.11
447.398	317.42
447.837	311.42
448.276	305.37
448.716	308.28
449.154	310.94
449.593	306.22
450.032	305.4
450.471	299.1
450.91	298.49
451.349	299.43
451.787	295.63
452.226	299.5
452.664	300.05
453.103	299.72
453.541	297.25
453.98	298.45
454.418	297.31
454.856	293.48
455.295	291.61
455.733	293.07
456.171	292.2
456.609	294.17
457.047	292.67
457.485	297.47
457.923	298.3
458.361	293.79
458.798	292.21
459.236	292.31
459.674	293.98
460.111	296
460.549	293.45
460.987	291.53
461.424	289.11
461.862	289.47
462.299	283.96
462.736	284.27
463.173	286.09
463.611	287.24
464.048	287.71
464.485	289.12
464.922	286.49
465.359	285.49
465.796	288.11
466.233	286.24
466.67	284.99
467.106	286.12
467.543	282.61
467.98	277.54
468.416	268.3
468.853	264.74
469.29	256.31
469.726	253.02
470.162	246.46
470.599	238.32
471.035	235.27
471.471	228.08
471.907	224.4
472.344	222.48
472.78	224.19
473.216	225.73
473.652	222.87
474.088	221.45
474.523	221.42
474.959	222.29
475.395	220.27
475.831	219.53
476.266	219.43
476.702	219.15
477.138	216.14
477.573	213.96
478.008	212.11
478.444	213.46
478.879	216.09
479.314	216.66
479.75	215.98
480.185	216.37
480.62	217.04
481.055	218.33
481.49	219.52
481.925	222.13
482.36	227.23
482.795	232.93
483.229	238.06
483.664	242.1
484.099	242.04
484.534	246.26
484.968	248.87
485.403	248.38
485.837	247.27
486.271	246.34
486.706	246.08
487.14	241.21
487.574	237.1
488.009	234.46
488.443	232.49
488.877	235.46
489.311	234.91
489.745	236.48
490.179	238.54
490.613	243.79
491.046	244.89
491.48	247.02
491.914	248.03
492.348	249.68
492.781	250.98
493.215	251.19
493.648	250.34
494.082	252.09
494.515	252.75
494.948	256.24
495.382	256.96
495.815	259.03
496.248	261.09
496.681	265.34
497.114	269.19
497.547	273.19
497.98	278.58
498.413	282.03
498.846	286.59
499.279	289.85
499.711	291.87
500.144	293.4
500.577	298.48
501.009	302.53
501.442	307.7
501.874	309.98
502.306	310.78
502.739	316.37
503.171	323.1
503.603	325.22
504.036	329.9
504.468	333.87
504.9	338.94
505.332	342.14
505.764	346.59
506.196	351.11
506.627	358.67
507.059	366.74
507.491	369.98
507.923	371.61
508.354	380.28
508.786	387.26
509.217	396.79
509.649	405.94
510.08	416.99
510.512	426.83
510.943	436.01
511.374	444.3
511.805	456.78
512.237	468.92
512.668	485.44
513.099	501.03
513.53	517.55
513.961	531.58
514.391	550.82
514.822	571.98
515.253	593.26
515.684	610.12
516.114	629.21
516.545	644.48
516.975	662.92
517.406	677.68
517.836	684.65
518.267	693.84
518.697	708.89
519.127	717.02
519.558	725.75
519.988	732.72
520.418	743.75
520.848	757.92
521.278	767.69
521.708	801
522.138	813.44
522.567	835.01
522.997	853.89
523.427	867.28
523.857	881.82
524.286	892.65
524.716	906.41
525.145	921.99
525.575	933.51
526.004	947.13
526.433	931.15
526.863	935.08
527.292	934.58
527.721	941.91
528.15	948.86
528.579	952.64
529.008	961.97
529.437	978.35
529.866	989.09
530.295	1001.9
530.724	1011.94
531.152	1030.33
531.581	1042.35
532.01	1055.73
532.438	1063.25
532.867	1073.97
533.295	1087.59
533.723	1094.32
534.152	1095.6
534.58	1097.89
535.008	1090.58
535.436	1094
535.865	1099.68
536.293	1109.62
536.721	1119.33
537.149	1136.58
537.576	1140.73
538.004	1149.22
538.432	1154.41
538.86	1153.55
539.287	1158.53
539.715	1167.6
540.143	1169.53
540.57	1169.49
540.998	1168.55
541.425	1156.65
541.852	1143.02
542.28	1140.9
542.707	1131.97
543.134	1124.24
543.561	1122.03
543.988	1119.02
544.415	1119.15
544.842	1115.19
545.269	1110.11
545.696	1111.38
546.123	1119.36
546.549	1113.13
546.976	1106.46
547.403	1106.24
547.829	1106.88
548.256	1108.97
548.682	1106.11
549.108	1101.69
549.535	1102.49
549.961	1103.99
550.387	1095.59
550.813	1091.74
551.24	1096.62
551.666	1096.34
552.092	1090.39
552.518	1086.48
552.943	1082.45
553.369	1086.03
553.795	1088.89
554.221	1088.09
554.646	1085.11
555.072	1090.79
555.498	1092.51
555.923	1095.99
556.349	1103.31
556.774	1106.53
557.199	1104.34
557.625	1104.8
558.05	1098.78
558.475	1102.31
558.9	1099.64
559.325	1092.4
559.75	1085.27
560.175	1078.3
560.6	1071.54
561.025	1067.67
561.449	1065.1
561.874	1066.24
562.299	1067.32
562.723	1068.84
563.148	1059.14
563.572	1057.73
563.997	1059.51
564.421	1058.23
564.846	1054.42
565.27	1052.34
565.694	1047.39
566.118	1049.3
566.542	1050.13
566.966	1041.33
567.39	1034.07
567.814	1023.63
568.238	1019.17
568.662	1017.88
569.086	1014.78
569.509	1013.85
569.933	1001.96
570.357	992.22
570.78	976.79
571.204	965.54
571.627	955.7
572.05	950.28
572.474	947.54
572.897	937.22
573.32	929.84
573.743	921.62
574.166	909.35
574.589	904.87
575.012	898.1
575.435	893.71
575.858	884.86
576.281	876.23
576.704	864.89
577.126	854.35
577.549	845.83
577.972	837.27
578.394	828.19
578.817	823.11
579.239	811.14
579.661	802.96
580.084	793.29
580.506	784.46
580.928	779.29
581.35	772.3
581.772	768.21
582.194	759.22
582.616	750.46
583.038	741.94
583.46	732.95
583.882	729.8
584.303	729.1
584.725	725.2
585.147	727.19
585.568	730.9
585.99	734.9
586.411	736.04
586.833	741.11
587.254	739.98
587.675	744.89
588.096	748.4
588.518	744.02
588.939	733.57
589.36	731.56
589.781	721
590.202	707.62
590.623	701.62
591.043	698.21
591.464	690.68
591.885	687.78
592.305	683.78
592.726	677.17
593.147	676.64
593.567	674.02
593.987	668.52
594.408	665.11
594.828	662.05
595.248	659.22
595.669	651.24
596.089	647.4
596.509	643.52
596.929	636.7
597.349	636.07
597.769	630.68
598.189	626.87
598.608	627.35
599.028	626.92
599.448	625.35
599.867	617.95
600.287	614.74
600.706	612.34
601.126	607.34
601.545	606.21
601.965	604.76
602.384	600.89
602.803	600.77
603.222	597.24
603.641	593.51
604.061	591.97
604.48	589.47
604.898	591.63
605.317	592.13
605.736	591.61
606.155	589.61
606.574	584.38
606.992	586.05
607.411	583.76
607.829	578.14
608.248	575.72
608.666	572.1
609.085	570.3
609.503	565.27
609.921	561.36
610.339	561.56
610.758	559.34
611.176	556.36
611.594	551.89
612.012	548.43
612.43	549.37
612.847	550.45
613.265	550.18
613.683	550.71
614.101	549.61
614.518	546.09
614.936	540.14
615.353	533.04
615.771	530.18
616.188	528.69
616.606	525.77
617.023	521.43
617.44	514.25
617.857	509.44
618.274	504.25
618.691	501.47
619.108	496.65
619.525	492.84
619.942	495.28
620.359	495.83
620.776	491.76
621.192	489.95
621.609	489.45
622.026	491.97
622.442	493.77
622.859	494.07
623.275	489.76
623.691	492.12
624.108	496.41
624.524	500.8
624.94	500.16
625.356	504.59
625.772	508.54
626.188	511.87
626.604	512.24
627.02	509.81
627.436	509.31
627.852	513.28
628.268	517.47
628.683	513.28
629.099	509.76
629.514	508.01
629.93	508.4
630.345	509.9
630.761	507.61
631.176	508.4
631.591	508.39
632.007	505.72
632.422	502.14
632.837	496.04
633.252	495.28
633.667	489.78
634.082	484.17
634.497	478.6
634.911	470.97
635.326	468.07
635.741	460.86
636.155	453.52
636.57	452.41
636.984	451.85
637.399	452.82
637.813	449.8
638.228	447.76
638.642	447.73
639.056	441.6
639.47	439.07
639.884	433.9
640.298	428.09
640.712	426.76
641.126	420.63
641.54	414.48
641.954	407.73
642.368	402.08
642.781	399.59
643.195	391.08
643.609	390.1
644.022	386.17
644.436	382.62
644.849	377.74
645.262	371.78
645.676	370.06
646.089	367.86
646.502	363.68
646.915	360.67
647.328	352.33
647.741	351.14
648.154	346.46
648.567	347.03
648.98	343.02
649.393	342.4
649.805	341.74
650.218	339.15
650.631	333.51
651.043	330.68
651.456	328.57
651.868	328.88
652.28	334.61
652.693	338.59
653.105	339.49
653.517	342.92
653.929	344.21
654.341	345.67
654.753	342.98
655.165	345.31
655.577	344.71
655.989	343.76
656.401	340.14
656.813	329.69
657.224	323.08
657.636	312.86
658.047	307.5
658.459	300.32
658.87	297.01
659.282	292.69
659.693	287.5
660.104	283.54
660.515	279.39
660.926	279.32
661.338	278.13
661.749	276.14
662.159	274.54
662.57	273.55
662.981	274.32
663.392	272.98
663.803	275.64
664.213	275.07
664.624	274.43
665.035	276.75
665.445	273.26
665.855	273.3
666.266	273.06
666.676	274.1
667.086	271.66
667.497	272.02
667.907	271.64
668.317	269.85
668.727	273.07
669.137	274.41
669.547	275.13
669.956	277.5
670.366	278.91
670.776	280.89
671.186	283.33
671.595	287.01
672.005	289.56
672.414	292.12
672.824	293.4
673.233	294
673.642	297.09
674.052	300.38
674.461	304.45
674.87	308.58
675.279	310.8
675.688	313.54
676.097	317.16
676.506	318.38
676.915	325.72
677.323	329.74
677.732	331.32
678.141	332.92
678.549	329.92
678.958	330.48
679.366	331.48
679.775	334.03
680.183	340.6
680.592	343.34
681	347.42
681.408	345.55
681.816	349
682.224	352.85
682.632	359.44
683.04	373.27
683.448	383.69
683.856	396.02
684.264	410.97
684.671	422.72
685.079	439.35
685.487	456
685.894	480.41
686.302	498.69
686.709	514.42
687.116	531.16
687.524	546.33
687.931	559.01
688.338	570.15
688.745	577.19
689.152	588.96
689.559	604.61
689.966	623.12
690.373	633.24
690.78	653.18
691.187	683.04
691.593	707.42
692	730.01
692.407	764.59
692.813	807.49
693.22	845.16
693.626	882.39
694.032	916.97
694.439	963.8
694.845	1003.53
695.251	1053.71
695.657	1101.75
696.063	1166.37
696.469	1219.98
696.875	1272.01
697.281	1310.19
697.687	1354.21
698.093	1396.57
698.498	1457.59
698.904	1510.24
699.31	1581.79
699.715	1639.83
700.12	1715.41
700.526	1750.05
700.931	1815.46
701.337	1871.15
701.742	1914.1
702.147	1988.8
702.552	2030.63
702.957	2091.33
703.362	2128.05
703.767	2169.53
704.172	2217.58
704.577	2206.46
704.981	2257.39
705.386	2288.17
705.791	2303.25
706.195	2375.92
706.6	2402.88
707.004	2477.85
707.408	2478
707.813	2517.53
708.217	2528.55
708.621	2549.32
709.025	2641.06
709.43	2663.12
709.834	2727.36
710.237	2797.68
710.641	2803.69
711.045	2840.89
711.449	2856.43
711.853	2897.97
712.256	2948.83
712.66	2997.61
713.064	3075.13
713.467	3123.71
713.87	3232.35
714.274	3287.86
714.677	3394.41
715.08	3544.32
715.484	3696.48
715.887	3880.97
716.29	4061.17
716.693	4251.07
717.096	4466.06
717.499	4595.42
717.901	4636.97
718.304	4676.2
718.707	4713.62
719.109	4647.16
719.512	4638.67
719.915	4542.24
720.317	4510.58
720.719	4560.18
721.122	4551.94
721.524	4524.69
721.926	4504.02
722.328	4607.85
722.731	4613.26
723.133	4652.42
723.535	4835.91
723.937	4865.93
724.338	4928.13
724.74	4975.03
725.142	4934.08
725.544	4943.5
725.945	4980.9
726.347	4987.72
726.748	4992.29
727.15	5016.92
727.551	4995.54
727.952	4977.92
728.354	4963.89
728.755	4971.37
729.156	4946.23
729.557	4948.66
729.958	4847.08
730.359	4803.94
730.76	4797.29
731.161	4750.12
731.562	4735
731.962	4744.41
732.363	4693.2
732.763	4639.43
733.164	4678.25
733.564	4623.07
733.965	4541.18
734.365	4515.62
734.766	4547.96
735.166	4516.76
735.566	4472.04
735.966	4452.04
736.366	4452.72
736.766	4401.19
737.166	4437.11
737.566	4404.46
737.966	4382.7
738.365	4423.92
738.765	4424.97
739.165	4358.55
739.564	4337.35
739.964	4380.65
740.363	4342.28
740.763	4341.3
741.162	4332.47
741.561	4303.99
741.96	4262.43
742.36	4283.8
742.759	4288.42
743.158	4323.57
743.557	4339.98
743.955	4380.92
744.354	4342.55
744.753	4397.27
745.152	4363.47
745.55	4418.45
745.949	4413.83
746.348	4417.54
746.746	4434.64
747.144	4399.1
747.543	4381.71
747.941	4426.77
748.339	4363.01
748.737	4357.09
749.136	4351.95
749.534	4413.13
749.932	4387.01
750.33	4412.21
750.727	4465.9
751.125	4443.7
751.523	4428.68
751.921	4467.36
752.318	4437.2
752.716	4491.69
753.113	4504.77
753.511	4526.4
753.908	4524.23
754.305	4508.86
754.703	4564.9
755.1	4618.96
755.497	4678.3
755.894	4857.57
756.291	5025.36
756.688	5331.29
757.085	5741.17
757.482	6320.6
757.878	6950.8
758.275	7526.96
758.672	8312.03
759.068	8953.41
759.465	9875.87
759.861	11047.47
760.258	12418.64
760.654	13124.29
761.05	13031.79
761.447	12437.12
761.843	11577.03
762.239	10692
762.635	10284.8
763.031	9901.18
763.427	9349.28
763.822	8764.14
764.218	8189.93
764.614	7441.76
765.01	6941.9
765.405	6617.83
765.801	6369.96
766.196	6056.5
766.592	5879.79
766.987	5585.89
767.382	5383.28
767.778	5296.29
768.173	5173.94
768.568	5101.84
768.963	4983.36
769.358	5000.11
769.753	4955.08
770.148	4878.26
770.542	4877.05
770.937	4850.17
771.332	4936.26
771.726	4956.88
772.121	4899.26
772.515	4952.22
772.91	4943.42
773.304	5011.81
773.699	4950.24
774.093	4999.82
774.487	5053.01
774.881	5095.63
775.275	5090.12
775.669	5050.54
776.063	5093.18
776.457	5127.86
776.851	5055.93
777.245	5047.55
777.638	5076.24
778.032	5183.17
778.425	5150.76
778.819	5188.79
779.212	5146.34
779.606	5110.84
779.999	5129.03
780.392	5114.06
780.786	5191.95
781.179	5211.02
781.572	5250.43
781.965	5264.55
782.358	5210.74
782.751	5260.39
783.143	5215.04
783.536	5283.61
783.929	5323.32
784.322	5429.09
784.714	5457.9
785.107	5454.67
785.499	5522.56
785.891	5504.33
786.284	5484.77
786.676	5617.59
787.068	5600.83
787.46	5649.48
787.852	5670.05
788.245	5749.33
788.636	5777.55
789.028	5841.36
789.42	5874.35
789.812	5880.05
790.204	5967.42
790.595	6059.64
790.987	5878.59
791.378	5900.98
791.77	6019.37
792.161	6141.9
792.553	6192.91
792.944	6088.26
793.335	6019.38
793.726	6086.05
794.117	6172.18
794.508	6301.66
794.899	6274.41
795.29	6405.3
795.681	6456.61
796.072	6325.71
796.463	6155.42
796.853	6165.2
797.244	6311.46
797.634	6344.95
798.025	6343.88
798.415	6352.88
798.806	6433.26
799.196	6513.12
799.586	6560.15
799.976	6522.65
800.366	6735.95
800.756	6960.01
801.146	6923.28
801.536	6951.65
801.926	7016.35
802.316	7042.09
802.706	7108.18
803.095	6995.46
803.485	7087.96
803.874	7121.62
804.264	7366.41
804.653	7340.92
805.043	7472.72
805.432	7572.11
805.821	7572.87
806.21	7594.13
806.599	7703.61
806.988	7746
807.377	7848.11
807.766	7968.78
808.155	8233
808.544	7987.5
808.933	8003.05
809.321	7982.6
809.71	8256.05
810.098	8401.2
810.487	8828.82
810.875	9278.8
811.264	9298.63
811.652	9560.14
812.04	9694.21
812.428	9847.86
812.816	10558.58
813.204	10938.77
813.592	11451.95
813.98	11759.35
814.368	11671.57
814.756	12115.2
815.144	12039.69
815.531	12471.4
815.919	12402.91
816.306	12683.17
816.694	12394.22
817.081	12441.07
817.469	12769.09
817.856	12765.78
818.243	13018.25
818.63	13382.01
819.017	12995.66
819.404	13047.44
819.791	13400.26
820.178	13968.52
820.565	14204.28
820.952	15073.26
821.339	14612.56
821.725	14783.16
822.112	14097.08
822.498	14065.36
822.885	14186.89
823.271	14097.2
823.657	14496.61
824.044	14505.71
824.43	14575.86
824.816	14542.25
825.202	14141.63
825.588	15087.7
825.974	15103.89
826.36	15576.75
826.746	15595.57
827.132	15932.32
827.517	15909.56
827.903	15169.83
828.289	15204.51
828.674	14485.4
829.06	14389.83
829.445	14746.6
829.83	15074.46
830.216	15514.02
830.601	15861.75
830.986	15491.39
831.371	15364.88
831.756	15877.89
832.141	15482.5
832.526	15472
832.911	15739.38
833.295	15639.29
833.68	16080.15
834.065	15508.62
834.449	14667
834.834	14593.92
835.218	14591.21
835.603	14905.94
835.987	14722.81
836.371	15496.4
836.755	15406.76
837.139	15775.09
837.524	15995.31
837.908	15836.59
838.291	15892.04
838.675	15956.18
839.059	16153.47
839.443	16146.75
839.827	15933.49
840.21	16376.16
840.594	16243.5
840.977	16441.63
841.361	16427.04
841.744	16783.45
842.127	16636.82
842.511	16874.56
842.894	17431.57
843.277	17787.75
843.66	18299.03
844.043	18373.43
844.426	17626.01
844.809	17342.92
845.191	17367.66
845.574	16944.28
845.957	16600.04
846.339	16494.42
846.722	16004.37
847.104	16074.05
847.487	15919.07
847.869	15926.14
848.252	16192.3
848.634	16491.56
849.016	16732.39
849.398	16847.82
849.78	17635.3
850.162	17645.24
850.544	18031.32
850.926	18620.41
851.307	18528.16
851.689	18785.18
852.071	19208.41
852.452	19511.34
852.834	19498.38
853.215	19862.85
853.597	20017.33
853.978	20289.18
854.359	20711.63
854.741	19793.29
855.122	19691.61
855.503	19420.23
855.884	19540.17
856.265	19482.16
856.646	19581.81
857.026	19216.85
857.407	19157.53
857.788	19297.4
858.169	19561.6
858.549	18770.28
858.93	19355.06
859.31	19407.89
859.69	19606.84
860.071	19229.54
860.451	19023.99
860.831	18345.41
861.211	19429.63
861.591	19937.63
861.971	19912.64
862.351	20092.11
862.731	20457.82
863.111	20695.79
863.491	20998.99
863.87	21811.79
864.25	22139.23
864.629	21764.52
865.009	22226.49
865.388	23000.74
865.768	24657.61
866.147	24556.72
866.526	23202.83
866.905	23476.03
867.284	24790.94
867.663	23527.82
868.042	22545.38
868.421	22467.21
868.8	22848.76
869.179	23068.37
869.558	21725.87
869.936	20019.74
870.315	20375.75
870.693	20865.16
871.072	22500.16
871.45	21428.04
871.828	21704.3
872.207	22810.1
872.585	22462.82
872.963	23074.82
873.341	22296.21
873.719	22033.28
874.097	21776.39
874.475	22196.56
874.853	22701.47
875.23	21754.38
875.608	22661.94
875.986	24518.12
876.363	23462.97
876.741	24169.92
877.118	23551.32
877.495	24707.26
877.873	25126.72
878.25	26431.84
878.627	25351.64
879.004	25723.07
879.381	25601.06
879.758	24935.39
880.135	23211.76
880.512	24540.34
880.889	23897.37
881.265	23665.86
881.642	23465.21
882.019	23861.61
882.395	23380.99
882.772	24308.3
883.148	23244.99
883.524	23158.03
883.901	23027.44
884.277	23372.98
884.653	23217.94
885.029	23890.57
885.405	26455.62
885.781	26247.24
886.157	25171.56
886.532	25475.71
886.908	25460.72
887.284	28317.75
887.659	29230.09
888.035	30139.34
888.411	30914.37
888.786	31315.97
889.161	32422.43
889.537	31827.48
889.912	32848.39
890.287	32813.34
890.662	33659.98
891.037	33044.86
891.412	30814.56
891.787	30509.52
892.162	29452.64
892.536	30146.05
892.911	29034.65
893.286	28409.23
893.66	27260.74
894.035	27959.16
894.409	30448.27
894.784	29211.46
895.158	29707.35
895.532	31472.59
895.906	32327.43
896.281	33094.99
896.655	32565.42
897.029	37203.89
897.402	38743.96
897.776	43124.13
898.15	42973.64
898.524	42506.17
898.898	43098.15
899.271	48246.77
899.645	41773.58
900.018	40128.47
900.392	41592.58
900.765	41933.67
901.138	38810.88
901.511	38228.82
901.884	35104.28
902.258	32387.61
902.631	33462.37
903.003	38507.61
903.376	34735.26
903.749	38957.9
904.122	41709.95
904.495	45909.37
904.867	46486.41
905.24	40349.05
905.612	37541.36
905.985	38382.7
906.357	40117.14
906.729	38275.58
907.102	32681.29
907.474	31433.37
907.846	31615.58
908.218	31194.73
908.59	27575.62
908.962	26673.61
909.334	28719.72
909.705	30174.22
910.077	29296.22
910.449	30494.13
910.82	31367.05
911.192	34510.75
911.563	35846.24
911.935	38361.71
912.306	38400.56
912.677	39634.17
913.048	39207.79
913.419	42529.47
913.79	42751.79
914.161	45827.82
914.532	43798.58
914.903	40237.61
915.274	38233.8
915.645	37677.69
916.015	33165.55
916.386	31630.97
916.756	33678.42
917.127	34754.66
917.497	31045.56
917.868	33813.95
918.238	32137.44
918.608	33073.86
918.978	33743.91
919.348	35709.23
919.718	36892.79
920.088	35527.84
920.458	36908
920.828	38836.15
921.198	36818.13
921.567	39341.51
921.937	30458.33
922.306	30735.48
922.676	33122.34
923.045	27628.6
923.415	26252.21
923.784	23922.85
924.153	24588.55
924.522	24553.98
924.891	23066.82
925.26	24709.08
925.629	24132.9
925.998	27729.07
926.367	27088.68
926.736	25805.09
927.104	30744.75
927.473	33063.77
927.842	39883.49
928.21	39508.24
928.578	41537.18
928.947	39319.86
929.315	39549.68
929.683	46362.85
930.051	46748.88
930.42	54265.63
930.788	46372.96
931.156	46005.59
931.523	43080.47
931.891	39844.17
932.259	38278.29
932.627	44358.29
932.994	62725.3
933.362	51859.11
933.729	45043.24
934.097	43114.22
934.464	36473.88
934.831	42079.78
935.199	41504.55
935.566	40285.54
935.933	40866.1
936.3	49499.25
936.667	38566.67
937.034	34793.09
937.401	34381.42
937.767	29671.24
938.134	26424.7
938.501	37277.38
938.867	39740.15
939.234	67148.99
939.6	57274.92
939.967	62985.03
940.333	42151.77
940.699	35875.94
941.065	28797.32
941.431	37791.71
941.798	36444.72
942.163	47849.72
942.529	29910.44
942.895	27535.79
943.261	17820.69
943.627	23394.82
943.992	20516.95
944.358	20553.63
944.723	20614.69
945.089	20087.61
945.454	18566.53
945.82	19814.51
946.185	19028.02
946.55	22029.34
946.915	19758.39
947.28	23184.32
947.645	20404.46
948.01	18815.66
948.375	19623.36
948.74	23509.73
949.104	27426.15
949.469	39596.27
949.834	70046.22
950.198	66454.74
950.562	39842.74
950.927	33216.32
951.291	39929.28
951.655	34013.02
952.02	31917.22
952.384	24129.56
952.748	21027.69
953.112	20504.01
953.476	17823.51
953.839	16461.2
954.203	16287.48
954.567	20368.71
954.931	32046.43
955.294	27443.32
955.658	27606.81
956.021	46957.4
956.385	79546.67
956.748	117266.9
957.111	181827.06
957.474	204155.53
957.837	230009.8
958.2	173986.06
958.563	62562.96
958.926	42306.57
959.289	64148.72
959.652	71606.68
960.015	53734.68
960.377	77209.79
960.74	88162.79
961.102	152199.37
961.465	163425.84
961.827	87539.19
962.189	168201.29
962.552	116567.08
962.914	93504.42
963.276	60682.66
963.638	50195.98
964	49737.13
964.362	33582.16
964.724	32483.21
965.085	23164.09
965.447	18996.92
965.809	21657.35
966.17	21668.89
966.532	23502.6
966.893	21576.2
967.255	19649.53
967.616	23156.09
967.977	18525.24
968.338	20235.74
968.699	16614.8
969.061	16607.76
969.421	16699.2
969.782	18736.45
970.143	15810.91
970.504	16326.86
970.865	18528.13
971.225	18931.17
971.586	18550.32
971.946	26436.51
972.307	22950.89
972.667	30026.67
973.027	30925.9
973.388	37535.39
973.748	25547.01
974.108	27846.45
974.468	37725.02
974.828	29121.83
975.188	22413.32
975.548	20590.88
975.907	17291.29
976.267	19419.16
976.627	16306.35
976.986	16917.03
977.346	16124.9
977.705	15490.29
978.064	14113.51
978.424	11729.41
978.783	12123.67
979.142	13841.87
979.501	13239.71
979.86	13985.84
980.219	13465.91
980.578	17362.85
980.937	19441.91
981.296	17354.62
981.654	17848.95
982.013	27760.46
982.371	36035.45
982.73	33682.36
983.088	38155.53
983.447	40743.5
983.805	58329.88
984.163	121951.9
984.521	135356.76
984.879	198312.3
985.237	-322403.22
985.595	310936.07
985.953	77218.49
986.311	44605.78
986.669	25912.68
987.026	22322.51
987.384	30054.76
987.741	31017.91
988.099	22149.57
988.456	17646.35
988.814	16510.08
989.171	14335.55
989.528	14152.93
989.885	14954.11
990.242	11849.55
990.599	14742.06
990.956	12075.97
991.313	8446.24
991.67	6936.89
992.027	7353.78
992.383	6545.72
992.74	5752.52
993.096	6043.31
993.453	6259.38
993.809	6479.77
994.165	8624.11
994.522	7894.7
994.878	8707.03
995.234	10925.71
995.59	10783.79
995.946	10204.84
996.302	11643.5
996.658	13453.2
997.013	14795.08
997.369	17563.52
997.725	22506.52
998.08	14601.32
998.436	22559.89
998.791	31075.01
999.147	30954.91
999.502	33837.61
999.857	24578.87
1000.212	39970.15
1000.567	56927.19
1000.922	32909.3
1001.277	20920.33
1001.632	15519.68
1001.987	19996.59
1002.342	14342.52
1002.696	11485.34
1003.051	9160.46
1003.406	11069.04
1003.76	11027.28
1004.114	10880.42
1004.469	9126.6
1004.823	7520.27
1005.177	8122.53
1005.531	6436.95
1005.885	5695.55
1006.239	6419.42
1006.593	8039.32
1006.947	10784.67
1007.301	8107.52
1007.655	8832.91
1008.008	6476.19
1008.362	7287.21
1008.715	10431.63
1009.069	9474.26
1009.422	14249.17
1009.776	28669.73
1010.129	18979
1010.482	15879.87
1010.835	13385.59
1011.188	27775.14
1011.541	26171.42
1011.894	-159780.5
1012.247	469486.36
1012.6	31797.16
1012.952	20024.95
1013.305	10316.23
1013.657	7431.04
1014.01	7049.12
1014.362	5815.73
1014.715	5177.62
1015.067	4507.29
1015.419	4413.43
1015.771	3929.65
1016.123	3490.6
1016.475	3612.51
1016.827	3846.76
1017.179	4137.54
1017.531	4169.29
1017.883	4255.25
1018.234	4097.08
1018.586	5149.97
1018.938	5456.94
1019.289	7534.64
1019.64	8600.38
1019.992	8051.33
1020.343	7351.13
1020.694	5800.21
1021.045	5142.87
1021.396	5861.72
1021.747	6283.38
1022.098	7539.95
1022.449	5494.08
1022.8	5109.68
1023.151	3549.57
1023.501	3144.27
1023.852	3398.86
1024.202	3537.47
1024.553	3898.59
1024.903	3816.54
1025.253	3267.46
1025.604	2953.24
1025.954	3675.02
1026.304	4482.97
1026.654	5212.95
1027.004	7687.38
1027.354	12488.98
1027.703	11823.31
1028.053	15525.92
1028.403	22540.81
1028.753	32452.67
1029.102	44239.16
1029.452	227099.91
1029.801	9800.45
1030.15	6337.32
1030.499	5390.47
897.758	2224.99
901.051	2156.78
904.343	2191.63
907.636	2199.49
910.928	2262.72
914.22	2178.5
917.511	2183.94
920.803	2234.59
924.094	2230.92
927.384	2235.27
930.675	2197.25
933.965	2158.98
937.255	2190.66
940.544	2158.21
943.834	2156.97
947.123	2097.15
950.411	2187.01
953.7	2167.02
956.988	2149.49
960.276	2089
963.563	2136.3
966.851	2148.04
970.138	2191.76
973.424	2192.1
976.711	2144.76
979.997	2194.11
983.283	2237.93
986.568	2169.81
989.853	2162.09
993.138	2189.48
996.423	2273.62
999.708	2235.43
1002.992	2266.15
1006.275	2177.27
1009.559	2183.76
1012.842	2283.53
1016.125	2236.61
1019.408	2215.2
1022.69	2273.54
1025.972	2310.57
1029.254	2283.1
1032.536	2243.31
1035.817	2253.64
1039.098	2222.95
1042.379	2277.27
1045.659	2305.36
1048.939	2252.68
1052.219	2259.74
1055.498	2253.68
1058.778	2251.48
1062.057	2223.61
1065.335	2249.48
1068.614	2263.18
1071.892	2258.02
1075.17	2310.81
1078.447	2313.15
1081.724	2305.53
1085.001	2333.85
1088.278	2313.68
1091.554	2319.1
1094.83	2312.58
1098.106	2348.62
1101.382	2379.18
1104.657	2379.79
1107.932	2379.05
1111.206	2358.17
1114.481	2309.94
1117.755	2311.73
1121.029	2303.91
1124.302	2363.71
1127.575	2330.58
1130.848	2327.23
1134.121	2296.03
1137.393	2259.55
1140.665	2315.37
1143.937	2294.03
1147.208	2242.83
1150.48	2303.24
1153.75	2289.86
1157.021	2292.52
1160.291	2268.1
1163.561	2323.44
1166.831	2290.17
1170.101	2319.09
1173.37	2277.93
1176.639	2235.31
1179.907	2280.56
1183.176	2303.88
1186.444	2303.72
1189.711	2331.23
1192.979	2356.35
1196.246	2310.54
1199.513	2321.94
1202.78	2329.49
1206.046	2338.41
1209.312	2366.95
1212.578	2385.07
1215.843	2351.38
1219.108	2317.23
1222.373	2342.92
1225.638	2313.54
1228.902	2305.15
1232.166	2261.61
1235.43	2248.63
1238.693	2273.39
1241.956	2264.09
1245.219	2314.13
1248.482	2295.76
1251.744	2294.22
1255.006	2420.44
1258.268	2366.67
1261.529	2322.81
1264.79	2322.23
1268.051	2424.08
1271.312	2430.95
1274.572	2402.78
1277.832	2392.94
1281.092	2369.64
1284.351	2362.11
1287.61	2345.71
1290.869	2279.98
1294.128	2275.94
1297.386	2325.18
1300.644	2317.59
1303.902	2326.96
1307.159	2196.04
1310.416	2245.52
1313.673	2273.58
1316.93	2273.02
1320.186	2304.04
1323.442	2338.69
1326.697	2337.87
1329.953	2310.77
1333.208	2347.99
1336.463	2320.56
1339.717	2279.3
1342.972	2384.2
1346.226	2358.2
1349.479	2304.71
1352.733	2283.56
1355.986	2287.69
1359.238	2269.15
1362.491	2274.37
1365.743	2275.85
1368.995	2267.01
1372.247	2277.14
1375.498	2297.46
1378.749	2342.49
1382	2290.37
1385.251	2329.24
1388.501	2281.25
1391.751	2283.59
1395	2246.08
1398.25	2271.86
1401.499	2295.09
1404.748	2243.06
1407.996	2221.37
1411.244	2209.55
1414.492	2193.4
1417.74	2179.71
1420.987	2181.85
1424.234	2243.85
1427.481	2204.76
1430.728	2263.5
1433.974	2238.38
1437.22	2234.46
1440.465	2232.21
1443.711	2232.6
1446.956	2257.11
1450.201	2229.08
1453.445	2269.76
1456.689	2260.34
1459.933	2269.32
1463.177	2309.01
1466.42	2282.6
1469.663	2265.87
1472.906	2280.38
1476.148	2330.21
1479.391	2304.21
1482.633	2278.38
1485.874	2304.29
1489.115	2309.56
1492.356	2293.81
1495.597	2274.16
1498.838	2269.33
1502.078	2252.4
1505.318	2222.65
1508.557	2260.72
1511.797	2256.3
1515.036	2299.54
1518.274	2271
1521.513	2225.78
1524.751	2238.21
1527.989	2263.12
1531.227	2281.26
1534.464	2293.97
1537.701	2289.36
1540.938	2302.73
1544.174	2247.56
1547.41	2239.24
1550.646	2277.92
1553.882	2328.89
1557.117	2386.34
1560.352	2393.93
1563.587	2354.49
1566.821	2321.64
1570.055	2338.76
1573.289	2319.98
1576.523	2380.27
1579.756	2393.54
1582.989	2414.76
1586.222	2375.38
1589.454	2406.22
1592.686	2386.62
1595.918	2417
1599.15	2415.65
1602.381	2459.2
1605.612	2439.54
1608.843	2533.8
1612.073	2456.79
1615.303	2446.84
1618.533	2445.26
1621.762	2443.1
1624.992	2417.78
1628.221	2422.8
1631.449	2410.14
1634.678	2436.35
1637.906	2408.09
1641.134	2434.05
1644.361	2398.81
1647.588	2388.43
1650.815	2411.23
1654.042	2371.94
1657.269	2401.83
1660.495	2381.16
1663.72	2365.63
1666.946	2333.59
1670.171	2307.23
1673.396	2277.67
1676.621	2261.59
1679.845	2258.57
1683.069	2265.55
1686.293	2295.58
1689.517	2288.29
1692.74	2237.83
1695.963	2258.6
1699.185	2301.24
1702.408	2271.64
1705.63	2300.95
1708.852	2320.77
1712.073	2289.85
1715.294	2301.8
1718.515	2343.24
1721.736	2301.59
1724.956	2280.06
1728.176	2301.71
1731.396	2325.08
1734.616	2310.71
1737.835	2348.59
1741.054	2321.8
1744.272	2309.69
1747.491	2352.31
1750.709	2376.98
1753.927	2324.51
1757.144	2351.56
1760.361	2410.08
1763.578	2384
1766.795	2333.19
1770.011	2321.67
1773.227	2347.01
1776.443	2387.41
1779.658	2433.87
1782.874	2370.46
1786.089	2361.74
1789.303	2364.73
1792.518	2358.79
1795.732	2344.51
1798.945	2363.31
1802.159	2402.48
1805.372	2343.26
1808.585	2340.2
1811.797	2342.44
1815.01	2361.47
1818.222	2385.32
1821.434	2341.57
1824.645	2384.32
1827.856	2395.79
1831.067	2427.39
1834.278	2360.87
1837.488	2346.22
1840.698	2469.75
1843.908	2407.93
1847.117	2374.52
1850.326	2299.62
1853.535	2362.29
1856.744	2399.18
1859.952	2319.38
1863.16	2321.11
1866.368	2334.69
1869.575	2450.78
1872.782	2331.21
1875.989	2262.18
1879.196	2312.34
1882.402	2300.07
1885.608	2336.51
1888.814	2274.85
1892.019	2180.92
1895.224	2232.66
1898.429	2198.09
1901.634	2181.31
1904.838	2153.55
1908.042	2209.74
1911.246	2226.42
1914.449	2187.74
1917.652	2169.63
1920.855	2149.3
1924.058	2172.6
1927.26	2218.12
1930.462	2242.58
1933.664	2280.48
1936.865	2221.11
1940.066	2241.12
1943.267	2185.76
1946.467	2191.79
1949.668	2211.28
1952.868	2284.39
1956.067	2272.79
1959.267	2214.82
1962.466	2238.56
1965.665	2218.65
1968.863	2212.29
1972.061	2216.86
1975.259	2208.61
1978.457	2283.17
1981.654	2245.01
1984.852	2249.06
1988.048	2200.79
1991.245	2187.31
1994.441	2276.55
1997.637	2236.77
2000.833	2217.79
2004.028	2255.59
2007.223	2318.22
2010.418	2307.66
2013.613	2257.38
2016.807	2251.26
2020.001	2245.72
2023.194	2266.62
2026.388	2254.19
2029.581	2196.52
2032.774	2258.19
2035.966	2272.33
2039.158	2214.98
2042.35	2234.13
2045.542	2158.17
2048.733	2240.86
2051.924	2234.98
2055.115	2249.99
2058.306	2215.57
2061.496	2270.46
2064.686	2320.8
2067.875	2228.66
2071.065	2231.15
2074.254	2249.1
2077.442	2204.89
2080.631	2289.49
2083.819	2220.22
2087.007	2212.55
2090.195	2196.77
2093.382	2212.13
2096.569	2195.43
2099.756	2156.59
2102.942	2203.55
2106.128	2214.26
2109.314	2206.48
2112.5	2189.78
2115.685	2156.57
2118.87	2165.77
2122.055	2224.67
2125.239	2204.95
2128.424	2194.44
2131.608	2255.77
2134.791	2239.73
2137.974	2276.99
2141.157	2269.33
2144.34	2237.84
2147.523	2227.73
2150.705	2253.26
2153.887	2222.41
2157.068	2194.54
2160.25	2175.81
2163.431	2200
2166.611	2168.6
2169.792	2190.52
2172.972	2101.76
2176.152	2151.97
2179.331	2179.11
2182.511	2183.3
2185.69	2206.46
2188.868	2210.26
2192.047	2246.93
2195.225	2263.24
2198.403	2208.97
2201.58	2198.5
2204.758	2183.82
2207.935	2259.39
2211.111	2173.93
2214.288	2163.75
2217.464	2197.29
2220.64	2151.26
2223.815	2202.12
2226.991	2132.2
2230.166	2148.11
2233.34	2194.36
2236.515	2204.06
2239.689	2269.07
2242.863	2218.58
2246.036	2273.75
2249.209	2257.07
2252.382	2275.7
2255.555	2285.37
2258.727	2232.27
2261.9	2263.31
2265.071	2255.44
2268.243	2249.54
2271.414	2196.82
2274.585	2181.91
2277.756	2242.07
2280.926	2197.59
2284.096	2225.44
2287.266	2157.58
2290.436	2204.64
2293.605	2223.31
2296.774	2260.93
2299.942	2267.11
2303.111	2283.34
2306.279	2338.39
2309.447	2320.24
2312.614	2292.98
2315.781	2316.19
2318.948	2293.46
2322.115	2328.05
2325.281	2227.76
2328.447	2238.92
2331.613	2208.12
2334.779	2198.63
2337.944	2193.17
2341.109	2194.55
2344.274	2183.53
2347.438	2149.92
2350.602	2171.36
2353.766	2182.44
2356.929	2172.06
2360.092	2207.27
2363.255	2177.05
2366.418	2141.79
2369.58	2210.63
2372.742	2081.14
2375.904	2076.61
2379.066	2062.21
2382.227	2087
2385.388	2048.91
2388.548	1997.13
2391.709	2040.34
2394.869	2030.06
2398.029	2085.61
2401.188	2082.08
2404.347	2043.64
2407.506	2126.28
2410.665	2162.17
2413.823	2150.9
2416.981	2129.09
2420.139	2146.13
2423.296	2189.5
2426.453	2159.28
2429.61	2181.28
2432.767	2151.07
2435.923	2191.17
2439.079	2137.19
2442.235	2171.91
2445.391	2115.54
2448.546	2154.83
2451.701	2192.51
2454.855	2188.25
2458.009	2214.65
2461.163	2207.35
2464.317	2179.34
2467.471	2205.59
2470.624	2233.02
2473.777	2225.42
2476.929	2241.55
2480.082	2262.74
2483.234	2237.08
2486.385	2175.04
2489.537	2168.6
2492.688	2158.88
2495.839	2172.99
2498.989	2187.96
2502.14	2173.16
2505.29	2168.2
2508.439	2188.63
2511.589	2129.12
2514.738	2132
2517.887	2154.4
2521.035	2230.69
2524.183	2191.89
2527.331	2178.51
2530.479	2173.15
2533.627	2174.67
