Data from N_2_DIV_WI_4N_Splice17_12-17-56-150.txt Node
Date: Sat Mar 14 12:17:56 EDT 2020
User: sa697716
Spectrometer: FLMS03696
Trigger mode: 0
Integration Time (sec): 3.180400E-1
Scans to average: 20
Electric dark correction enabled: true
Nonlinearity correction enabled: true
Boxcar width: 5
XAxis mode: Wavelengths
Number of Pixels in Spectrum: 2048
>>>>>Begin Spectral Data<<<<<
187.83	-258433.05
188.298	2039.83
188.766	1117.61
189.233	1022.43
189.701	1378.21
190.169	1913.12
190.636	712.14
191.104	606.82
191.571	116.14
192.039	-37.3
192.506	-32.5
192.974	417.87
193.441	-482.5
193.908	144.07
194.375	86.53
194.842	98.08
195.31	180.82
195.777	185.36
196.244	404.29
196.711	466.59
197.177	544.33
197.644	756.66
198.111	1306.17
198.578	1828.58
199.045	1458.05
199.511	2372.84
199.978	2801.37
200.445	2402.16
200.911	2665.9
201.378	2957.7
201.844	2694.6
202.31	4649.52
202.777	4806.18
203.243	2681.7
203.709	2577.52
204.176	3081.82
204.642	2579.72
205.108	2413.91
205.574	1957.77
206.04	1785.01
206.506	1685.48
206.972	1593.72
207.438	1540.16
207.903	1770.76
208.369	1561.57
208.835	1550.16
209.301	1614.26
209.766	1644.98
210.232	1625.11
210.697	2029.78
211.163	2520.14
211.628	3820.18
212.094	3239
212.559	3998.67
213.024	2504.4
213.49	3086.08
213.955	3037.99
214.42	3008.57
214.885	2816.45
215.35	2724.6
215.815	2633.78
216.28	2833.6
216.745	2335.14
217.21	2553.63
217.675	2378.51
218.14	2729.3
218.604	3102.01
219.069	3624.52
219.534	3869.93
219.998	4597.73
220.463	5675.1
220.927	7138.88
221.392	6801.04
221.856	6973.22
222.32	8903.88
222.785	11096.97
223.249	14082.28
223.713	15848.08
224.177	15921.97
224.642	20525.93
225.106	25306.02
225.57	27734.99
226.034	20641.1
226.497	31496.23
226.961	28452.44
227.425	33095.66
227.889	36842.2
228.353	36826.56
228.816	76044.11
229.28	72686.84
229.744	61384.92
230.207	37299.09
230.671	36688.82
231.134	60747.31
231.597	70010.54
232.061	70043.85
232.524	68316.15
232.987	46974.2
233.45	42230.81
233.914	37866.2
234.377	38813.79
234.84	35500.3
235.303	41846.34
235.766	46644.25
236.229	48073.87
236.691	30217.48
237.154	33929.32
237.617	25521.14
238.08	26110.53
238.542	30561.74
239.005	21801.5
239.468	21628.65
239.93	20340
240.393	18466.32
240.855	16190.11
241.317	16593.91
241.78	20184.21
242.242	20829.85
242.704	22464.85
243.166	19528.17
243.629	17702.37
244.091	20393.93
244.553	22293.73
245.015	23926.03
245.477	30930.88
245.939	45320.36
246.4	47995.66
246.862	46617.88
247.324	43889.87
247.786	49051.8
248.247	64237.06
248.709	66318.35
249.17	49558.44
249.632	46651.74
250.093	54067.21
250.555	46653.16
251.016	28425.22
251.477	26941.44
251.939	29036.84
252.4	30453.46
252.861	36171
253.322	33607.97
253.783	39927.36
254.244	51737.19
254.705	40787.2
255.166	36226.46
255.627	35590.59
256.088	50114.09
256.549	53168.02
257.009	45762.38
257.47	55447.64
257.931	45107.81
258.391	33785.69
258.852	34820.75
259.312	36467.25
259.773	45024.17
260.233	38001.31
260.694	32029.44
261.154	36323
261.614	29136.38
262.074	26043.16
262.534	27050.66
262.994	25495.88
263.455	33965.11
263.915	28578.6
264.374	26904.35
264.834	29334.46
265.294	32526.77
265.754	33692.21
266.214	31861.4
266.673	29832.46
267.133	37613.71
267.593	37292.3
268.052	45574.24
268.512	39597.14
268.971	47700.25
269.431	52270.36
269.89	46791.16
270.349	70076.99
270.809	78083.72
271.268	70212.36
271.727	157413.53
272.186	101927.89
272.645	76429.17
273.104	55074.05
273.563	79642.82
274.022	62651.97
274.481	53264.99
274.94	41025.65
275.399	30469.76
275.857	35450.21
276.316	47900.11
276.775	42595.57
277.233	41932.55
277.692	39216.98
278.15	44400.75
278.609	45652.49
279.067	42225.36
279.525	39152.34
279.984	50522.74
280.442	60626.29
280.9	59740.96
281.358	39268.42
281.816	36575.81
282.274	35771.78
282.732	36910.06
283.19	37012.88
283.648	31936.19
284.106	33949.19
284.564	34507.4
285.021	31941.1
285.479	23805.88
285.937	21619.34
286.394	18942.23
286.852	19468.66
287.309	20428.53
287.767	19720.98
288.224	18728.06
288.682	20513.96
289.139	22486.17
289.596	20558.99
290.053	21345.95
290.511	26898.55
290.968	32585.35
291.425	44173.45
291.882	36703.01
292.339	31910.72
292.796	31652.51
293.252	29819.89
293.709	23672.79
294.166	21216.93
294.623	23424.24
295.079	22457.16
295.536	22535.11
295.992	20445.29
296.449	20203.71
296.905	20974.04
297.362	20082.36
297.818	21078.22
298.274	21850.62
298.731	22240.55
299.187	21989.77
299.643	23574.62
300.099	28496.92
300.555	31225.98
301.011	26095
301.467	25113.46
301.923	29399.73
302.379	28708.5
302.835	28211.91
303.291	28229.07
303.746	32135.15
304.202	40549.04
304.658	40679.27
305.113	27327.98
305.569	26763.84
306.024	28486.52
306.479	27112.99
306.935	22819.33
307.39	24911.42
307.845	22954.21
308.301	23051.2
308.756	22420.48
309.211	21585.26
309.666	22110.17
310.121	27400.39
310.576	27747.18
311.031	27509.17
311.486	31449.49
311.94	31386.58
312.395	41878.05
312.85	78606.18
313.305	385776.26
313.759	1996594.77
314.214	144405.16
314.668	114248.63
315.123	96005.03
315.577	34427.23
316.032	30535.28
316.486	38228.3
316.94	30144.24
317.394	20969.08
317.849	16288.93
318.303	15399.45
318.757	14490.67
319.211	15996.75
319.665	13988.34
320.119	14135.18
320.572	20243.73
321.026	18927.82
321.48	15751.19
321.934	17177.38
322.387	17220.25
322.841	18573.8
323.295	16679.83
323.748	19220.42
324.202	19519.96
324.655	23426.74
325.108	32734.7
325.562	23143.91
326.015	27474.81
326.468	20755.68
326.921	23173.39
327.374	21579.38
327.827	22466.53
328.28	25442.12
328.733	17018.36
329.186	14951.15
329.639	14247.46
330.092	12006.3
330.545	11408.15
330.997	11497.36
331.45	12565.33
331.903	14716.45
332.355	25302.15
332.808	24581.75
333.26	20247.63
333.713	21995.64
334.165	22129.61
334.617	29558.62
335.069	23866.94
335.522	43210.17
335.974	47818
336.426	43635.74
336.878	30207.96
337.33	15315.38
337.782	14935.18
338.234	18713.88
338.686	22365.85
339.137	26478.4
339.589	24918.17
340.041	19527.31
340.493	16748.04
340.944	17127.26
341.396	18417.96
341.847	15487.23
342.299	18248.12
342.75	22278.85
343.201	19467.25
343.653	22373.19
344.104	27512.86
344.555	21625.92
345.006	33628.35
345.457	25769.39
345.908	20503.59
346.359	19296.24
346.81	15720.97
347.261	16572.4
347.712	16313.83
348.163	17466.95
348.613	17648.97
349.064	16483.09
349.515	14418.98
349.965	14783.37
350.416	17786.04
350.866	19517.4
351.317	22030.01
351.767	36459.61
352.217	46002.89
352.668	38157.47
353.118	35025.89
353.568	33853.28
354.018	26749.09
354.468	28220.96
354.918	20241.55
355.368	17710.85
355.818	24955.32
356.268	71912.68
356.718	300920.26
357.168	74892.74
357.617	37594.99
358.067	41735.84
358.517	39061.46
358.966	45779.87
359.416	51463.28
359.865	55586.16
360.315	66113.17
360.764	30867.37
361.213	17270.34
361.663	16325.31
362.112	20156.33
362.561	32505.22
363.01	24522.17
363.459	20620.91
363.908	22285.32
364.357	18856.17
364.806	31832.9
365.255	21885.58
365.703	20070.44
366.152	20077.72
366.601	16296.67
367.05	13208.35
367.498	11988.84
367.947	12521.37
368.395	13028.87
368.844	11530.45
369.292	13887.85
369.74	9582.43
370.189	14655.71
370.637	17173.39
371.085	14822.7
371.533	18036.72
371.981	17366.78
372.429	16559.93
372.877	17203.74
373.325	14373.94
373.773	14642.11
374.221	13018.22
374.669	16165.64
375.116	13953.78
375.564	14018.3
376.012	15656.15
376.459	12897.88
376.907	15423.54
377.354	18618.71
377.801	17372.33
378.249	19963.24
378.696	25476.48
379.143	30853.22
379.591	32764.01
380.038	55411.55
380.485	40021.17
380.932	43150.74
381.379	39334.2
381.826	28896.09
382.273	20529.3
382.72	17911.09
383.166	17421.96
383.613	11276.21
384.06	10152.79
384.506	11762.59
384.953	8629.18
385.4	8676.41
385.846	7590.96
386.292	7403.58
386.739	7234.92
387.185	7142.25
387.631	7144.52
388.078	6910.89
388.524	7388.42
388.97	6821.07
389.416	5676.09
389.862	6030.47
390.308	5712.32
390.754	5790.59
391.2	6272.01
391.645	6409.9
392.091	6119.11
392.537	5905.77
392.983	5915.85
393.428	5809.56
393.874	6210.68
394.319	6215.62
394.765	5875.22
395.21	6026.12
395.655	5644.07
396.101	5283.45
396.546	4759.47
396.991	4797.01
397.436	4441.97
397.881	4287.1
398.326	4053.34
398.771	3825.26
399.216	3339.75
399.661	3006.39
400.106	2992.61
400.551	3059.71
400.995	2737.07
401.44	2707.02
401.885	2539.63
402.329	2562.83
402.774	2453.87
403.218	2372.26
403.663	2284.8
404.107	2349.61
404.551	2365.19
404.995	2165.52
405.44	2079.56
405.884	2103.68
406.328	2028.73
406.772	2018.44
407.216	1837.01
407.66	1772.94
408.104	1678.62
408.547	1565.44
408.991	1510.51
409.435	1448.1
409.879	1425.02
410.322	1406.14
410.766	1361.17
411.209	1294.45
411.653	1241.92
412.096	1214.79
412.54	1214.2
412.983	1209.91
413.426	1217.48
413.869	1214.33
414.312	1193.49
414.756	1150.09
415.199	1095.78
415.642	1061.82
416.085	1061.65
416.527	1052.59
416.97	1069.44
417.413	1012.48
417.856	998.41
418.298	984.97
418.741	977.24
419.184	972.99
419.626	1010.76
420.069	1012.39
420.511	1016.2
420.953	994.12
421.396	985.54
421.838	957.51
422.28	978.9
422.722	981.88
423.164	995.28
423.606	979.73
424.048	974.7
424.49	927.71
424.932	920.9
425.374	907.01
425.816	920.53
426.258	935.83
426.699	945.39
427.141	931.48
427.582	945.45
428.024	936.65
428.465	928.78
428.907	906.32
429.348	894.12
429.789	893.7
430.231	876.3
430.672	889.11
431.113	868.28
431.554	855.26
431.995	833.75
432.436	805.81
432.877	790.08
433.318	780.38
433.759	777.62
434.2	777.14
434.64	769.59
435.081	772.2
435.522	732.01
435.962	706.32
436.403	692.09
436.843	700.13
437.284	684.3
437.724	666.07
438.164	663.77
438.604	649.98
439.045	626.89
439.485	601.11
439.925	587.99
440.365	574.13
440.805	567.01
441.245	559.88
441.685	541.03
442.125	536.57
442.564	538.79
443.004	525.23
443.444	523.16
443.883	521.82
444.323	516.1
444.762	514.98
445.202	519.21
445.641	527.68
446.081	522.4
446.52	525.86
446.959	521.28
447.398	509.69
447.837	506.13
448.276	497.44
448.716	501.72
449.154	505.59
449.593	494.27
450.032	493.6
450.471	483.07
450.91	484.93
451.349	483.32
451.787	479.57
452.226	486.03
452.664	484.46
453.103	483.47
453.541	483.77
453.98	484.17
454.418	487.36
454.856	479.65
455.295	479.3
455.733	481.43
456.171	483.72
456.609	485.21
457.047	483.45
457.485	490.65
457.923	492.55
458.361	484.86
458.798	486.11
459.236	484.33
459.674	487.1
460.111	488.92
460.549	485.93
460.987	482.97
461.424	481.04
461.862	479.24
462.299	471.29
462.736	470.73
463.173	472.45
463.611	468.84
464.048	467.73
464.485	472.49
464.922	467.73
465.359	464.38
465.796	462.58
466.233	459.4
466.67	456.39
467.106	457.76
467.543	453.46
467.98	448.35
468.416	435.54
468.853	431.98
469.29	418.39
469.726	413.51
470.162	402.26
470.599	393.66
471.035	389.2
471.471	379.57
471.907	375.72
472.344	372.94
472.78	374.04
473.216	378.47
473.652	374.93
474.088	374.26
474.523	372.78
474.959	376.03
475.395	372.11
475.831	369.78
476.266	371.38
476.702	369.65
477.138	364.93
477.573	362.21
478.008	359.51
478.444	359.75
478.879	362.48
479.314	364.07
479.75	364.28
480.185	365.61
480.62	367.98
481.055	369.83
481.49	371.9
481.925	376.98
482.36	384.61
482.795	394.97
483.229	405.28
483.664	413.75
484.099	414.98
484.534	420.25
484.968	424.32
485.403	425.7
485.837	424.18
486.271	423.95
486.706	424.75
487.14	418.75
487.574	412.58
488.009	409.09
488.443	405.36
488.877	410.44
489.311	411.58
489.745	417.2
490.179	421.97
490.613	431.41
491.046	434.98
491.48	438.03
491.914	439.69
492.348	443.97
492.781	447.07
493.215	448.99
493.648	450.05
494.082	454.61
494.515	455.07
494.948	461.6
495.382	463.85
495.815	467.9
496.248	472.85
496.681	481.7
497.114	489.75
497.547	497.76
497.98	508.09
498.413	514.3
498.846	522.87
499.279	530.79
499.711	534.6
500.144	539.01
500.577	548.4
501.009	557.76
501.442	567.59
501.874	571.66
502.306	576.12
502.739	584.9
503.171	597.47
503.603	602.41
504.036	612.13
504.468	618.67
504.9	629.89
505.332	637.84
505.764	645.29
506.196	653.76
506.627	667.82
507.059	681.21
507.491	689.54
507.923	691.85
508.354	707.03
508.786	719
509.217	736.67
509.649	752.21
510.08	771.44
510.512	787.69
510.943	803.86
511.374	817.18
511.805	836.27
512.237	856.61
512.668	886.46
513.099	912.15
513.53	937.87
513.961	959.09
514.391	989.1
514.822	1020.51
515.253	1054.58
515.684	1079.18
516.114	1107.17
516.545	1129.5
516.975	1156.11
517.406	1176.08
517.836	1182.68
518.267	1193.21
518.697	1213.77
519.127	1221.58
519.558	1231.14
519.988	1237.49
520.418	1250.21
520.848	1268.9
521.278	1280.46
521.708	1303.53
522.138	1317.68
522.567	1347.02
522.997	1371.68
523.427	1387.08
523.857	1405.37
524.286	1418.32
524.716	1435.78
525.145	1454.63
525.575	1467.14
526.004	1482.12
526.433	1474.18
526.863	1476.14
527.292	1470.17
527.721	1477.22
528.15	1485.05
528.579	1487.27
529.008	1497.13
529.437	1518.08
529.866	1531.91
530.295	1548.25
530.724	1561.35
531.152	1587.47
531.581	1600.93
532.01	1617.58
532.438	1626.1
532.867	1639.35
533.295	1656.64
533.723	1663.9
534.152	1663.05
534.58	1663.37
535.008	1649.8
535.436	1651.53
535.865	1658.29
536.293	1672.75
536.721	1688.46
537.149	1711.68
537.576	1715.05
538.004	1726.22
538.432	1733.41
538.86	1732.05
539.287	1739.03
539.715	1752.45
540.143	1755.85
540.57	1752.25
540.998	1748.55
541.425	1726.43
541.852	1707.49
542.28	1705.09
542.707	1690.11
543.134	1677.04
543.561	1673.76
543.988	1667.7
544.415	1666.47
544.842	1660.68
545.269	1654.39
545.696	1655.77
546.123	1668.9
546.549	1659.66
546.976	1648.15
547.403	1648.19
547.829	1650.43
548.256	1651.4
548.682	1647.25
549.108	1639.87
549.535	1638.83
549.961	1639.99
550.387	1628.61
550.813	1622.92
551.24	1627.63
551.666	1627.63
552.092	1617.65
552.518	1610.61
552.943	1604.76
553.369	1611.15
553.795	1616.04
554.221	1616.92
554.646	1613.38
555.072	1622.56
555.498	1625.23
555.923	1632.97
556.349	1645.88
556.774	1653.24
557.199	1654.14
557.625	1658.9
558.05	1652.27
558.475	1661.46
558.9	1659.43
559.325	1650.8
559.75	1643.25
560.175	1637.4
560.6	1630.2
561.025	1628.22
561.449	1627.69
561.874	1631.47
562.299	1632.39
562.723	1636.9
563.148	1624.85
563.572	1626.66
563.997	1634.83
564.421	1637.56
564.846	1635.36
565.27	1636.81
565.694	1631.19
566.118	1639.89
566.542	1642.69
566.966	1635.34
567.39	1629.15
567.814	1617.56
568.238	1614.38
568.662	1616.24
569.086	1615.25
569.509	1619.05
569.933	1602.73
570.357	1593.89
570.78	1572.14
571.204	1558.79
571.627	1547.14
572.05	1542.94
572.474	1540.39
572.897	1527.83
573.32	1518.55
573.743	1507.85
574.166	1490.14
574.589	1487.11
575.012	1477.62
575.435	1475.04
575.858	1465.06
576.281	1453.07
576.704	1437.07
577.126	1424.98
577.549	1412.2
577.972	1401.58
578.394	1390.96
578.817	1381.8
579.239	1364.41
579.661	1351.91
580.084	1336.97
580.506	1324.31
580.928	1319.03
581.35	1307.44
581.772	1300.63
582.194	1287.84
582.616	1275.11
583.038	1260.69
583.46	1250.6
583.882	1246.1
584.303	1247.57
584.725	1242.12
585.147	1243.45
585.568	1251.27
585.99	1260.76
586.411	1264.95
586.833	1276.16
587.254	1276.26
587.675	1287.99
588.096	1295.92
588.518	1291.03
588.939	1276
589.36	1272.65
589.781	1259.93
590.202	1236.13
590.623	1227.64
591.043	1224.08
591.464	1211.71
591.885	1207.42
592.305	1201.29
592.726	1190.59
593.147	1190.15
593.567	1185.41
593.987	1178.85
594.408	1174.83
594.828	1171.68
595.248	1166.4
595.669	1152.48
596.089	1147.37
596.509	1142.32
596.929	1130.79
597.349	1130.42
597.769	1122.68
598.189	1117.12
598.608	1117.88
599.028	1118.5
599.448	1117.49
599.867	1106.21
600.287	1101.85
600.706	1097.65
601.126	1088.54
601.545	1087.13
601.965	1085.55
602.384	1080.11
602.803	1081.52
603.222	1076.29
603.641	1070.65
604.061	1066.86
604.48	1062.79
604.898	1067.95
605.317	1070.32
605.736	1070.91
606.155	1067.01
606.574	1058.06
606.992	1061.01
607.411	1055.98
607.829	1048.64
608.248	1044.05
608.666	1040.63
609.085	1038.87
609.503	1030.91
609.921	1024.49
610.339	1024.66
610.758	1022.76
611.176	1018.38
611.594	1010.16
612.012	1005.38
612.43	1005.98
612.847	1009.62
613.265	1009.03
613.683	1010.69
614.101	1008.84
614.518	1004.29
614.936	994.91
615.353	982.74
615.771	978.33
616.188	976.72
616.606	972.64
617.023	965.99
617.44	953.23
617.857	946.37
618.274	937.85
618.691	933.32
619.108	925.9
619.525	919.91
619.942	922.79
620.359	923.74
620.776	918.16
621.192	915.14
621.609	912.37
622.026	917.53
622.442	921.28
622.859	923.29
623.275	916.43
623.691	920.13
624.108	928.45
624.524	938.25
624.94	938.06
625.356	945.01
625.772	954.19
626.188	962.3
626.604	962.5
627.02	959.2
627.436	958.04
627.852	962.78
628.268	969.82
628.683	962.47
629.099	956.38
629.514	951.76
629.93	954.75
630.345	957.89
630.761	953.55
631.176	955.31
631.591	950.99
632.007	945.93
632.422	943.07
632.837	934.23
633.252	932.05
633.667	922.91
634.082	915.14
634.497	903.65
634.911	887.54
635.326	884.62
635.741	870.21
636.155	860.84
636.57	859.98
636.984	858.35
637.399	857.21
637.813	854.68
638.228	851.87
638.642	852.35
639.056	842.58
639.47	839.89
639.884	830.79
640.298	823.94
640.712	820.32
641.126	808.16
641.54	799.16
641.954	792.37
642.368	780.45
642.781	772.53
643.195	757.99
643.609	755.96
644.022	748.74
644.436	743.82
644.849	733.65
645.262	723.4
645.676	722.34
646.089	716.04
646.502	704.36
646.915	699.4
647.328	686.64
647.741	684.37
648.154	674.17
648.567	672.19
648.98	661.62
649.393	660.4
649.805	656.5
650.218	648.87
650.631	639.54
651.043	634.79
651.456	629.69
651.868	628.6
652.28	636.86
652.693	644.43
653.105	645.86
653.517	651.64
653.929	650.89
654.341	653.23
654.753	645.99
655.165	648.05
655.577	645.41
655.989	641.21
656.401	634.28
656.813	611.67
657.224	598.16
657.636	578.5
658.047	566.65
658.459	553.51
658.87	545.61
659.282	537.54
659.693	524.19
660.104	514.42
660.515	504.55
660.926	501.76
661.338	498.78
661.749	492.94
662.159	487.86
662.57	482.54
662.981	479.37
663.392	474.89
663.803	475.86
664.213	473.05
664.624	468.72
665.035	469.87
665.445	462.01
665.855	457.04
666.266	454.2
666.676	452.47
667.086	447.18
667.497	446.32
667.907	442.09
668.317	436.43
668.727	436.34
669.137	437.6
669.547	436.43
669.956	438.31
670.366	439.87
670.776	440.24
671.186	442.67
671.595	445.7
672.005	447.04
672.414	449.19
672.824	449.69
673.233	450.82
673.642	451.88
674.052	454.25
674.461	456.68
674.87	460.08
675.279	460.13
675.688	460.5
676.097	462.69
676.506	461.62
676.915	468.97
677.323	470.81
677.732	470.21
678.141	470.45
678.549	465.57
678.958	465.06
679.366	464.82
679.775	467.03
680.183	475.71
680.592	479.43
681	484.42
681.408	481.04
681.816	487.09
682.224	493.9
682.632	501.92
683.04	520.37
683.448	536.67
683.856	556.3
684.264	580.37
684.671	600.43
685.079	625.4
685.487	653.78
685.894	695.86
686.302	728.98
686.709	759.2
687.116	795.36
687.524	825.97
687.931	853.33
688.338	879
688.745	900.67
689.152	926.71
689.559	962.01
689.966	999.54
690.373	1021.97
690.78	1057.94
691.187	1107.37
691.593	1147.27
692	1186.5
692.407	1240.25
692.813	1306.53
693.22	1362.11
693.626	1420.14
694.032	1469.19
694.439	1537.02
694.845	1591.27
695.251	1660.66
695.657	1725.36
696.063	1816.87
696.469	1888.2
696.875	1957.56
697.281	2002.56
697.687	2052.69
698.093	2099.41
698.498	2174.84
698.904	2236.4
699.31	2325.11
699.715	2391.72
700.12	2483.63
700.526	2511.77
700.931	2582.35
701.337	2639.13
701.742	2680.85
702.147	2768.19
702.552	2805.61
702.957	2870.43
703.362	2900.19
703.767	2936.94
704.172	2983.29
704.577	2950.77
704.981	3003.95
705.386	3030.53
705.791	3032.34
706.195	3108.31
706.6	3124.44
707.004	3205.87
707.408	3187.18
707.813	3220.93
708.217	3219.52
708.621	3232.83
709.025	3333.08
709.43	3342.92
709.834	3406.53
710.237	3480.66
710.641	3475.19
711.045	3506.16
711.449	3509.91
711.853	3544.22
712.256	3590.92
712.66	3634.91
713.064	3711.77
713.467	3759.03
713.87	3874.24
714.274	3926.96
714.677	4041.16
715.08	4204.58
715.484	4372.62
715.887	4576.24
716.29	4775.63
716.693	4986.05
717.096	5224.3
717.499	5360.47
717.901	5395.09
718.304	5427.67
718.707	5459.41
719.109	5367.66
719.512	5344.38
719.915	5217.96
720.317	5170.29
720.719	5220.4
721.122	5197.15
721.524	5153.85
721.926	5120.02
722.328	5223.51
722.731	5222.25
723.133	5253.97
723.535	5447.43
723.937	5471.22
724.338	5529.46
724.74	5571.42
725.142	5511.38
725.544	5515
725.945	5546.22
726.347	5548.01
726.748	5544.88
727.15	5561.79
727.551	5528.24
727.952	5503.12
728.354	5479.6
728.755	5484.94
729.156	5447.5
729.557	5441.36
729.958	5323.27
730.359	5271.81
730.76	5254.34
731.161	5196.63
731.562	5173.58
731.962	5181.19
732.363	5118.89
732.763	5054.37
733.164	5090.09
733.564	5025.77
733.965	4933.46
734.365	4898.71
734.766	4929.18
735.166	4892.64
735.566	4838.31
735.966	4813.68
736.366	4807.61
736.766	4752.61
737.166	4789.31
737.566	4750.46
737.966	4726.23
738.365	4766.59
738.765	4763.4
739.165	4687.37
739.564	4659.05
739.964	4704.09
740.363	4658.31
740.763	4657.8
741.162	4644.32
741.561	4612.64
741.96	4567.83
742.36	4586.26
742.759	4592.24
743.158	4631.09
743.557	4649.31
743.955	4691.87
744.354	4648.06
744.753	4706.71
745.152	4666.63
745.55	4722.39
745.949	4715.34
746.348	4717.6
746.746	4737.13
747.144	4696.82
747.543	4675.45
747.941	4723.96
748.339	4652.65
748.737	4645.69
749.136	4636.61
749.534	4699.67
749.932	4670.23
750.33	4695.32
750.727	4749.18
751.125	4724.15
751.523	4707.02
751.921	4750.07
752.318	4716.82
752.716	4776.87
753.113	4793.03
753.511	4817.88
753.908	4819.95
754.305	4804.7
754.703	4866.7
755.1	4930.22
755.497	4991.56
755.894	5183.91
756.291	5359.61
756.688	5689.01
757.085	6127.37
757.482	6740.82
757.878	7414.6
758.275	8024.64
758.672	8865.23
759.068	9547.33
759.465	10519.08
759.861	11775.07
760.258	13234.63
760.654	14000.93
761.05	13885.26
761.447	13254.76
761.843	12340.42
762.239	11395.43
762.635	10966.44
763.031	10552.75
763.427	9963.54
763.822	9342.94
764.218	8727.88
764.614	7929.95
765.01	7396.06
765.405	7051.79
765.801	6790.96
766.196	6458.61
766.592	6278.06
766.987	5962.21
767.382	5750.54
767.778	5658.52
768.173	5527.11
768.568	5453.05
768.963	5329
769.358	5346.51
769.753	5300.67
770.148	5214.99
770.542	5213.36
770.937	5177.4
771.332	5268.68
771.726	5288.54
772.121	5226.5
772.515	5279.44
772.91	5267.64
773.304	5340.21
773.699	5274.65
774.093	5326.41
774.487	5382.86
774.881	5424.45
775.275	5418.84
775.669	5379
776.063	5421.05
776.457	5457.36
776.851	5383.92
777.245	5374.85
777.638	5405.69
778.032	5521.37
778.425	5484.48
778.819	5523.95
779.212	5479.14
779.606	5441.2
779.999	5459
780.392	5439.28
780.786	5518.18
781.179	5541.17
781.572	5584.69
781.965	5597.45
782.358	5538.38
782.751	5596.65
783.143	5551.57
783.536	5628.92
783.929	5671.65
784.322	5786.65
784.714	5821.15
785.107	5817.67
785.499	5888.21
785.891	5864.99
786.284	5844.45
786.676	5983.98
787.068	5961.94
787.46	6010.09
787.852	6027.8
788.245	6113.4
788.636	6140.43
789.028	6208.82
789.42	6248.4
789.812	6254.63
790.204	6351.25
790.595	6450.08
790.987	6255.84
791.378	6281.51
791.77	6413.51
792.161	6548.83
792.553	6604.36
792.944	6495.38
793.335	6426.73
793.726	6499.11
794.117	6590.09
794.508	6729.47
794.899	6698.66
795.29	6840.61
795.681	6896.26
796.072	6754.79
796.463	6571.92
796.853	6579.17
797.244	6736.76
797.634	6769.95
798.025	6772.07
798.415	6778.83
798.806	6866.04
799.196	6948.26
799.586	6999.84
799.976	6960.57
800.366	7190.98
800.756	7432.95
801.146	7393.15
801.536	7419.74
801.926	7491.47
802.316	7515.58
802.706	7592.34
803.095	7465.79
803.485	7573.75
803.874	7611.03
804.264	7873.09
804.653	7846.84
805.043	7987.72
805.432	8100.59
805.821	8102.47
806.21	8126.41
806.599	8244.17
806.988	8292.27
807.377	8402.42
807.766	8530.48
808.155	8812.12
808.544	8546.46
808.933	8554.95
809.321	8533.88
809.71	8821.65
810.098	8977.81
810.487	9435.13
810.875	9911.66
811.264	9931.13
811.652	10216.46
812.04	10359.07
812.428	10523.59
812.816	11284.34
813.204	11703.3
813.592	12249.55
813.98	12588.27
814.368	12495.84
814.756	12968.23
815.144	12888.97
815.531	13356.06
815.919	13277.8
816.306	13586.09
816.694	13274.68
817.081	13331.45
817.469	13674.61
817.856	13672.85
818.243	13937.26
818.63	14330.88
819.017	13913.42
819.404	13974.29
819.791	14354.49
820.178	14975.31
820.565	15215.12
820.952	16144.86
821.339	15647.76
821.725	15832.16
822.112	15096.92
822.498	15057.54
822.885	15184.9
823.271	15095.81
823.657	15504.06
824.044	15506.13
824.43	15574.18
824.816	15547.88
825.202	15114.28
825.588	16126.19
825.974	16138.21
826.36	16652.1
826.746	16686.25
827.132	17049.58
827.517	17020.06
827.903	16248.49
828.289	16285.03
828.674	15513.79
829.06	15407.78
829.445	15807.6
829.83	16162.23
830.216	16639.23
830.601	16998.1
830.986	16589.08
831.371	16444.61
831.756	17003.62
832.141	16577.9
832.526	16574.95
832.911	16860.6
833.295	16748.64
833.68	17214.75
834.065	16603.73
834.449	15698.16
834.834	15628.39
835.218	15629.73
835.603	15975.24
835.987	15766.94
836.371	16597.15
836.755	16493.46
837.139	16895.84
837.524	17144.07
837.908	16968.23
838.291	17028.67
838.675	17094.57
839.059	17309.19
839.443	17307.18
839.827	17078.6
840.21	17555.52
840.594	17412.59
840.977	17630.81
841.361	17607.64
841.744	17977.05
842.127	17817.16
842.511	18057.48
842.894	18653.55
843.277	19028.65
843.66	19563.8
844.043	19649.79
844.426	18846.19
844.809	18534.07
845.191	18556.56
845.574	18099.28
845.957	17736.25
846.339	17635.25
846.722	17113.22
847.104	17188.46
847.487	17012.08
847.869	17024.78
848.252	17297.92
848.634	17631.73
849.016	17899.27
849.398	18020.6
849.78	18872.41
850.162	18880.49
850.544	19283.54
850.926	19915.3
851.307	19823.11
851.689	20104.61
852.071	20554.51
852.452	20873.06
852.834	20843.91
853.215	21230.16
853.597	21389.42
853.978	21677.36
854.359	22124.33
854.741	21137.85
855.122	21036.99
855.503	20740.8
855.884	20879.62
856.265	20820.74
856.646	20939.95
857.026	20557.96
857.407	20488.15
857.788	20644.05
858.169	20917.54
858.549	20076.18
858.93	20694.62
859.31	20741.1
859.69	20945.4
860.071	20530.31
860.451	20308.97
860.831	19570.62
861.211	20711.45
861.591	21257.28
861.971	21225.2
862.351	21419.77
862.731	21799.71
863.111	22066.18
863.491	22396.64
863.87	23271.68
864.25	23626.24
864.629	23231.83
865.009	23735.03
865.388	24583.98
865.768	26354.06
866.147	26249.86
866.526	24786.05
866.905	25080.74
867.284	26478.44
867.663	25134.65
868.042	24098.39
868.421	24014.53
868.8	24408.1
869.179	24642.89
869.558	23203.71
869.936	21369.83
870.315	21755.52
870.693	22290.88
871.072	24035.76
871.45	22904.51
871.828	23196.08
872.207	24376.27
872.585	24004.26
872.963	24664.49
873.341	23827.08
873.719	23540.23
874.097	23273.36
874.475	23713.93
874.853	24262.75
875.23	23256.6
875.608	24228.14
875.986	26210.4
876.363	25063.69
876.741	25842.62
877.118	25194.19
877.495	26440.1
877.873	26885.1
878.25	28288.8
878.627	27131.42
879.004	27516.42
879.381	27386.35
879.758	26659.41
880.135	24821
880.512	26263.14
880.889	25564.52
881.265	25295.07
881.642	25074.81
882.019	25504.76
882.395	24987.78
882.772	25982.93
883.148	24849.25
883.524	24750.96
883.901	24617.85
884.277	24990.91
884.653	24827.51
885.029	25520.33
885.405	28272.74
885.781	28060.67
886.157	26912.96
886.532	27253.29
886.908	27248.33
887.284	30306.28
887.659	31288.34
888.035	32257.91
888.411	33085.58
888.786	33521.43
889.161	34714.74
889.537	34074.57
889.912	35159.1
890.287	35120.01
890.662	36006.71
891.037	35347.55
891.412	32953.86
891.787	32637.03
892.162	31511.54
892.536	32256.76
892.911	31051.57
893.286	30384.55
893.66	29139.81
894.035	29883.59
894.409	32538.97
894.784	31234.01
895.158	31758.96
895.532	33652.36
895.906	34563.11
896.281	35355.13
896.655	34778.07
897.029	39735.67
897.402	41388.46
897.776	46095.61
898.15	45961.51
898.524	45472.39
898.898	46072.69
899.271	51571.71
899.645	44673.53
900.018	42922.41
900.392	44528.42
900.765	44893.07
901.138	41540.9
901.511	40909.64
901.884	37555.67
902.258	34631.72
902.631	35780.61
903.003	41161.04
903.376	37144.42
903.749	41622.62
904.122	44564.49
904.495	49058.53
904.867	49691.13
905.24	43151.68
905.612	40170.62
905.985	41091.98
906.357	42951.64
906.729	40976.72
907.102	35020.48
907.474	33645.79
907.846	33854.53
908.218	33379.47
908.59	29481.05
908.962	28492.77
909.334	30671.01
909.705	32211.47
910.077	31264.3
910.449	32521.37
910.82	33425.94
911.192	36762.4
911.563	38209.38
911.935	40882.13
912.306	40936.86
912.677	42290.3
913.048	41880.57
913.419	45422.67
913.79	45674.03
914.161	48978.72
914.532	46821.42
914.903	43024.78
915.274	40860.73
915.645	40259.86
916.015	35442.22
916.386	33799.21
916.756	35966.9
917.127	37091.33
917.497	33142.01
917.868	36069.76
918.238	34265.5
918.608	35252.87
918.978	35989.6
919.348	38120.83
919.718	39390.83
920.088	37953.68
920.458	39423.98
920.828	41482.34
921.198	39341.54
921.567	42031.27
921.937	32544.65
922.306	32856.68
922.676	35459.78
923.045	29591.2
923.415	28108.55
923.784	25605.65
924.153	26339
924.522	26311.92
924.891	24739.39
925.26	26490.56
925.629	25859.75
925.998	29758.51
926.367	29068.87
926.736	27667.21
927.104	32938.6
927.473	35432.91
927.842	42794.63
928.21	42356.79
928.578	44527.79
928.947	42093.04
929.315	42362.47
929.683	49688.74
930.051	50073.62
930.42	58096.64
930.788	49647.12
931.156	49288.61
931.523	46188.98
931.891	42672.03
932.259	40983.38
932.627	47489.24
932.994	67233.39
933.362	55520.46
933.729	48241.64
934.097	46163.34
934.464	39114.98
934.831	45130.81
935.199	44460.53
935.566	43129.67
935.933	43772.72
936.3	53024.15
936.667	41310.07
937.034	37249.99
937.401	36880.18
937.767	31794.78
938.134	28301.74
938.501	39873.33
938.867	42502.78
939.234	71905.24
939.6	61297.26
939.967	67399.75
940.333	45137.11
940.699	38379.8
941.065	30824.02
941.431	40389.56
941.798	38956.26
942.163	51167.75
942.529	31956.56
942.895	29423.88
943.261	19029.48
943.627	24967.09
943.992	21850.45
944.358	21872.07
944.723	21951.84
945.089	21363.58
945.454	19738.28
945.82	21071.9
946.185	20245.74
946.55	23449.75
946.915	21061.18
947.28	24732.53
947.645	21794.37
948.01	20123.5
948.375	20998.61
948.74	25176.25
949.104	29390.87
949.469	42479.28
949.834	75082.31
950.198	71157.38
950.562	42676.27
950.927	35508.86
951.291	42711.95
951.655	36405.8
952.02	34215.36
952.384	25834.87
952.748	22512.9
953.112	21968.71
953.476	19109.1
953.839	17683.54
954.203	17505.19
954.567	21894.55
954.931	34487.57
955.294	29519.4
955.658	29656.88
956.021	50413.5
956.385	85520.41
956.748	126177.24
957.111	195676.57
957.474	219709.63
957.837	247409.39
958.2	187386.63
958.563	67379.51
958.926	45564.2
959.289	69093.04
959.652	77218.59
960.015	57922.39
960.377	83135.16
960.74	94815.64
961.102	163664.89
961.465	175591.95
961.827	94055
962.189	180299.16
962.552	125054.47
962.914	100197.97
963.276	65094.71
963.638	53804.9
964	53231.67
964.362	35980.38
964.724	34788.82
965.085	24800.22
965.447	20317.65
965.809	23152.05
966.17	23198.62
966.532	25080.38
966.893	23037.01
967.255	20926.44
967.616	24700.31
967.977	19779.89
968.338	21619.11
968.699	17763.39
969.061	17747.98
969.421	17870.35
969.782	20037.54
970.143	16901.51
970.504	17506.51
970.865	19863.29
971.225	20313.9
971.586	19851.8
971.946	28297.21
972.307	24559.62
972.667	32095.23
973.027	33059.69
973.388	40099.99
973.748	27281.24
974.108	29718.49
974.468	40233.97
974.828	31022.26
975.188	23895.1
975.548	21976.96
975.907	18455.51
976.267	20665.37
976.627	17375.65
976.986	18026.08
977.346	17178.93
977.705	16519.21
978.064	15054.23
978.424	12532.7
978.783	12960.52
979.142	14791.68
979.501	14126.11
979.86	14936.44
980.219	14414.72
980.578	18548.9
980.937	20753.13
981.296	18492.22
981.654	19012.55
982.013	29594.69
982.371	38363.58
982.73	35813.95
983.088	40535.82
983.447	43369.17
983.805	62009.92
984.163	129507.04
984.521	143966.15
984.879	211280.5
985.237	-343751.78
985.595	332017.38
985.953	82500.63
986.311	47680.67
986.669	27739.78
987.026	23937.94
987.384	32162.9
987.741	33256.23
988.099	23785.89
988.456	18970.12
988.814	17732.15
989.171	15426.64
989.528	15211.17
989.885	16041.68
990.242	12699.05
990.599	15807.07
990.956	12924.22
991.313	9052.75
991.67	7423.3
992.027	7853.75
992.383	6975.71
992.74	6123.71
993.096	6415.99
993.453	6653.12
993.809	6899.56
994.165	9195.47
994.522	8432.1
994.878	9305.4
995.234	11660.46
995.59	11520.34
995.946	10921.12
996.302	12456.71
996.658	14400.61
997.013	15897.05
997.369	18859.38
997.725	24170.75
998.08	15634.61
998.436	24064.45
998.791	33123.56
999.147	33052.03
999.502	35952.38
999.857	26167.02
1000.212	42744.9
1000.567	60884.96
1000.922	35072.29
1001.277	22243.24
1001.632	16478.61
1001.987	21256.14
1002.342	15249.35
1002.696	12202.83
1003.051	9759.99
1003.406	11836.09
1003.76	11727.7
1004.114	11526.31
1004.469	9698.69
1004.823	8021.38
1005.177	8670.96
1005.531	6885.37
1005.885	6105.14
1006.239	6910.4
1006.593	8663.72
1006.947	11572.56
1007.301	8694.06
1007.655	9511.42
1008.008	6990.36
1008.362	7837.31
1008.715	11216.3
1009.069	10182.5
1009.422	15263.39
1009.776	30603.3
1010.129	20272.12
1010.482	16880.2
1010.835	14294.82
1011.188	29792.65
1011.541	28051.3
1011.894	-171322.06
1012.247	504335.49
1012.6	34228.24
1012.952	21602.43
1013.305	11141.35
1013.657	8037.9
1014.01	7606.77
1014.362	6306.03
1014.715	5595.97
1015.067	4874.1
1015.419	4758.55
1015.771	4222.38
1016.123	3759.43
1016.475	3874.63
1016.827	4123.67
1017.179	4444.27
1017.531	4478.15
1017.883	4584.61
1018.234	4419.33
1018.586	5587.71
1018.938	5874.05
1019.289	8123.54
1019.64	9310.34
1019.992	8647.61
1020.343	7885.61
1020.694	6209.8
1021.045	5486.17
1021.396	6233.33
1021.747	6682.13
1022.098	8003.12
1022.449	5793.57
1022.8	5398.73
1023.151	3744.21
1023.501	3307.18
1023.852	3592.91
1024.202	3724.06
1024.553	4115.67
1024.903	4021.77
1025.253	3446.82
1025.604	3105.91
1025.954	3859.75
1026.304	4695.23
1026.654	5504.85
1027.004	8108.63
1027.354	13088.26
1027.703	12395.62
1028.053	16361.39
1028.403	23698.62
1028.753	34204.94
1029.102	46843.53
1029.452	241015.65
1029.801	10480.35
1030.15	6790
1030.499	5730.11
897.758	2479.06
901.051	2427.65
904.343	2458.82
907.636	2462.76
910.928	2525.41
914.22	2438.1
917.511	2444.53
920.803	2500.8
924.094	2511.56
927.384	2501.7
930.675	2466.05
933.965	2421.61
937.255	2437.02
940.544	2403.49
943.834	2371.6
947.123	2310.75
950.411	2402.12
953.7	2377.66
956.988	2350.79
960.276	2291.41
963.563	2360.41
966.851	2363.12
970.138	2415.07
973.424	2410.2
976.711	2365.49
979.997	2459.56
983.283	2501.99
986.568	2420.18
989.853	2427.67
993.138	2454.58
996.423	2535.09
999.708	2479.8
1002.992	2527.97
1006.275	2397.78
1009.559	2425.96
1012.842	2534.9
1016.125	2472.99
1019.408	2453.3
1022.69	2528.46
1025.972	2551.72
1029.254	2527.47
1032.536	2472.2
1035.817	2495.55
1039.098	2449.25
1042.379	2556.41
1045.659	2569.2
1048.939	2506.19
1052.219	2523.34
1055.498	2527.9
1058.778	2518.32
1062.057	2498.07
1065.335	2519.89
1068.614	2536.3
1071.892	2519.88
1075.17	2591.95
1078.447	2582.58
1081.724	2577.42
1085.001	2608.46
1088.278	2587.05
1091.554	2596.83
1094.83	2592.46
1098.106	2621.26
1101.382	2661.36
1104.657	2663.91
1107.932	2662.93
1111.206	2629.06
1114.481	2587.55
1117.755	2588.7
1121.029	2575.23
1124.302	2626.77
1127.575	2587.31
1130.848	2576.86
1134.121	2543.86
1137.393	2496.71
1140.665	2560.28
1143.937	2535.9
1147.208	2491.75
1150.48	2537.63
1153.75	2523.07
1157.021	2545.36
1160.291	2519.39
1163.561	2561.19
1166.831	2544.8
1170.101	2573.76
1173.37	2546.65
1176.639	2492.82
1179.907	2547
1183.176	2561.39
1186.444	2564.32
1189.711	2592.18
1192.979	2607.19
1196.246	2561.68
1199.513	2581.15
1202.78	2580.21
1206.046	2590.12
1209.312	2613.46
1212.578	2636.6
1215.843	2593.61
1219.108	2565.25
1222.373	2592.28
1225.638	2557.67
1228.902	2542.97
1232.166	2510.44
1235.43	2492.41
1238.693	2517.11
1241.956	2512.73
1245.219	2556.44
1248.482	2543.45
1251.744	2539.84
1255.006	2676.58
1258.268	2628.85
1261.529	2578.07
1264.79	2582.9
1268.051	2682.96
1271.312	2697.65
1274.572	2662.37
1277.832	2652.48
1281.092	2638.22
1284.351	2618.32
1287.61	2599.63
1290.869	2525.07
1294.128	2507.38
1297.386	2581.21
1300.644	2574.02
1303.902	2583.25
1307.159	2448.4
1310.416	2501.22
1313.673	2526.05
1316.93	2518.06
1320.186	2559.43
1323.442	2597.53
1326.697	2590.85
1329.953	2576.39
1333.208	2603.09
1336.463	2580.29
1339.717	2527.42
1342.972	2650.75
1346.226	2626.31
1349.479	2564.05
1352.733	2536.52
1355.986	2555.23
1359.238	2533
1362.491	2535.46
1365.743	2535.32
1368.995	2531.85
1372.247	2542.08
1375.498	2564.49
1378.749	2587.39
1382	2540.8
1385.251	2589.17
1388.501	2548.88
1391.751	2536.58
1395	2505.67
1398.25	2535.2
1401.499	2548.07
1404.748	2481.76
1407.996	2467.98
1411.244	2456.72
1414.492	2438.78
1417.74	2417.83
1420.987	2426.8
1424.234	2480.74
1427.481	2454.84
1430.728	2513
1433.974	2487.38
1437.22	2499.32
1440.465	2497.94
1443.711	2475.74
1446.956	2502.59
1450.201	2486.75
1453.445	2533.51
1456.689	2511.39
1459.933	2525.14
1463.177	2558.58
1466.42	2532.09
1469.663	2513.99
1472.906	2511.44
1476.148	2571.03
1479.391	2559.83
1482.633	2529.2
1485.874	2539.66
1489.115	2531.94
1492.356	2531.99
1495.597	2507.8
1498.838	2509.55
1502.078	2484.12
1505.318	2441.46
1508.557	2481.76
1511.797	2471.75
1515.036	2506.04
1518.274	2498.88
1521.513	2470.21
1524.751	2486.05
1527.989	2502.54
1531.227	2519.35
1534.464	2517.77
1537.701	2529.66
1540.938	2547.55
1544.174	2498.43
1547.41	2493.72
1550.646	2532.61
1553.882	2572.44
1557.117	2621.38
1560.352	2635.53
1563.587	2596.6
1566.821	2558.29
1570.055	2589.08
1573.289	2560.96
1576.523	2629.39
1579.756	2638.9
1582.989	2660.77
1586.222	2620.28
1589.454	2656.57
1592.686	2636.4
1595.918	2663.33
1599.15	2652.9
1602.381	2718.29
1605.612	2680.71
1608.843	2778.44
1612.073	2694.28
1615.303	2681.45
1618.533	2672.95
1621.762	2677.72
1624.992	2658.15
1628.221	2650.6
1631.449	2635.96
1634.678	2682.9
1637.906	2643.93
1641.134	2679.14
1644.361	2637.95
1647.588	2627.24
1650.815	2645
1654.042	2618.94
1657.269	2647.67
1660.495	2608.4
1663.72	2620.95
1666.946	2587.39
1670.171	2541.89
1673.396	2514.27
1676.621	2499.94
1679.845	2513.54
1683.069	2530.36
1686.293	2567.86
1689.517	2546.42
1692.74	2484.64
1695.963	2510.93
1699.185	2531.56
1702.408	2505.27
1705.63	2542.5
1708.852	2556.7
1712.073	2531.17
1715.294	2524.58
1718.515	2578
1721.736	2528.91
1724.956	2517.39
1728.176	2541.4
1731.396	2563.71
1734.616	2551.12
1737.835	2583.5
1741.054	2559.8
1744.272	2552.79
1747.491	2584.36
1750.709	2626.61
1753.927	2547.56
1757.144	2586.57
1760.361	2633
1763.578	2620.2
1766.795	2564.37
1770.011	2565.81
1773.227	2598.91
1776.443	2636.49
1779.658	2678.46
1782.874	2620.26
1786.089	2602.46
1789.303	2603.72
1792.518	2606.19
1795.732	2595.14
1798.945	2604.98
1802.159	2653.4
1805.372	2568.39
1808.585	2556.28
1811.797	2558.63
1815.01	2597.24
1818.222	2606.15
1821.434	2585.2
1824.645	2637.22
1827.856	2631.85
1831.067	2663.75
1834.278	2616.64
1837.488	2599.6
1840.698	2739
1843.908	2671.82
1847.117	2634.3
1850.326	2534.98
1853.535	2621.21
1856.744	2637.09
1859.952	2557.17
1863.16	2556.94
1866.368	2575.33
1869.575	2679.78
1872.782	2567.51
1875.989	2506.46
1879.196	2576.64
1882.402	2567.25
1885.608	2605.88
1888.814	2523.26
1892.019	2426.14
1895.224	2476.82
1898.429	2457.62
1901.634	2436.98
1904.838	2413
1908.042	2462.32
1911.246	2471.19
1914.449	2415.65
1917.652	2409.68
1920.855	2391.38
1924.058	2432.14
1927.26	2473.4
1930.462	2498.68
1933.664	2523.89
1936.865	2467.1
1940.066	2475.46
1943.267	2421.11
1946.467	2435.9
1949.668	2457.59
1952.868	2524.28
1956.067	2506.96
1959.267	2442.71
1962.466	2467.23
1965.665	2451.57
1968.863	2446.62
1972.061	2456.25
1975.259	2455.37
1978.457	2534.44
1981.654	2492.53
1984.852	2494.51
1988.048	2433.7
1991.245	2434.17
1994.441	2518.49
1997.637	2494.97
2000.833	2476.68
2004.028	2513.06
2007.223	2571.19
2010.418	2553.25
2013.613	2511.01
2016.807	2488.15
2020.001	2492.56
2023.194	2529.24
2026.388	2504.47
2029.581	2452.1
2032.774	2502.57
2035.966	2512.49
2039.158	2450.32
2042.35	2475.16
2045.542	2399.85
2048.733	2493.52
2051.924	2508.71
2055.115	2531.59
2058.306	2482.78
2061.496	2541.41
2064.686	2598.66
2067.875	2511.94
2071.065	2522.25
2074.254	2547.62
2077.442	2499.25
2080.631	2587.31
2083.819	2492.33
2087.007	2476.28
2090.195	2454.74
2093.382	2482.57
2096.569	2464.08
2099.756	2420.96
2102.942	2454.71
2106.128	2459.38
2109.314	2451.54
2112.5	2423.22
2115.685	2394.86
2118.87	2403.57
2122.055	2467.62
2125.239	2437.76
2128.424	2419.25
2131.608	2504.6
2134.791	2486.27
2137.974	2537.77
2141.157	2524.07
2144.34	2481.13
2147.523	2489.3
2150.705	2508.58
2153.887	2485.24
2157.068	2441.7
2160.25	2435.71
2163.431	2466.35
2166.611	2422.54
2169.792	2438.17
2172.972	2338.86
2176.152	2411.17
2179.331	2441.32
2182.511	2428.5
2185.69	2455.38
2188.868	2452.13
2192.047	2501.01
2195.225	2500.6
2198.403	2452.89
2201.58	2441.33
2204.758	2436.64
2207.935	2516.57
2211.111	2411.5
2214.288	2399.79
2217.464	2438.8
2220.64	2404.55
2223.815	2457.95
2226.991	2383.55
2230.166	2400.98
2233.34	2433.62
2236.515	2455.74
2239.689	2524.18
2242.863	2471.58
2246.036	2530.33
2249.209	2523
2252.382	2550.48
2255.555	2545.64
2258.727	2488.87
2261.9	2524.43
2265.071	2516.65
2268.243	2515.7
2271.414	2454.28
2274.585	2424.43
2277.756	2488.46
2280.926	2441.24
2284.096	2479.72
2287.266	2396.82
2290.436	2447.6
2293.605	2474.5
2296.774	2506.76
2299.942	2518.87
2303.111	2537.47
2306.279	2586.87
2309.447	2572.85
2312.614	2547.15
2315.781	2568.68
2318.948	2542.63
2322.115	2577.43
2325.281	2481.98
2328.447	2496.37
2331.613	2470.31
2334.779	2453.02
2337.944	2451.46
2341.109	2449.9
2344.274	2435.25
2347.438	2401.99
2350.602	2425.71
2353.766	2438.21
2356.929	2426.82
2360.092	2466.68
2363.255	2424.37
2366.418	2370.42
2369.58	2466.83
2372.742	2288.83
2375.904	2295.92
2379.066	2275.92
2382.227	2306.18
2385.388	2271.58
2388.548	2205.49
2391.709	2255.48
2394.869	2236.02
2398.029	2321.82
2401.188	2325.45
2404.347	2271.14
2407.506	2387.35
2410.665	2419.39
2413.823	2420.81
2416.981	2385.71
2420.139	2409.05
2423.296	2458.74
2426.453	2428.96
2429.61	2454.42
2432.767	2399.4
2435.923	2440.69
2439.079	2396.62
2442.235	2442.47
2445.391	2376.31
2448.546	2405.12
2451.701	2449.76
2454.855	2430.28
2458.009	2473.68
2461.163	2471.47
2464.317	2433.93
2467.471	2463.67
2470.624	2498.73
2473.777	2477.44
2476.929	2488.92
2480.082	2511.81
2483.234	2481.32
2486.385	2430.07
2489.537	2424.97
2492.688	2394.22
2495.839	2412.96
2498.989	2426.87
2502.14	2411.2
2505.29	2398.17
2508.439	2419.09
2511.589	2350.03
2514.738	2356.36
2517.887	2383.85
2521.035	2455.91
2524.183	2431.11
2527.331	2413.44
2530.479	2395.19
2533.627	2401.27
