Data from N_2_DIV_WI_4N_Splice17_12-17-35-370.txt Node
Date: Sat Mar 14 12:17:35 EDT 2020
User: sa697716
Spectrometer: FLMS03696
Trigger mode: 0
Integration Time (sec): 3.180400E-1
Scans to average: 20
Electric dark correction enabled: true
Nonlinearity correction enabled: true
Boxcar width: 5
XAxis mode: Wavelengths
Number of Pixels in Spectrum: 2048
>>>>>Begin Spectral Data<<<<<
187.83	-281067.24
188.298	1996.08
188.766	1105.78
189.233	944.08
189.701	1276.24
190.169	1790.61
190.636	721.08
191.104	584.66
191.571	102.37
192.039	-69.07
192.506	-75.81
192.974	364.69
193.441	-574.83
193.908	-80.2
194.375	-40.54
194.842	-32.82
195.31	87.52
195.777	178.68
196.244	369.73
196.711	457.27
197.177	582.14
197.644	832.46
198.111	1444.28
198.578	1978.02
199.045	1601.96
199.511	2580.59
199.978	3027.36
200.445	2550.41
200.911	2815.13
201.378	3160.63
201.844	2878.51
202.31	4899.1
202.777	5107.57
203.243	2824.21
203.709	2718.42
204.176	3226.03
204.642	2690.14
205.108	2499.56
205.574	2047.26
206.04	1878.85
206.506	1768.86
206.972	1663.15
207.438	1611.63
207.903	1835.77
208.369	1621.89
208.835	1616.35
209.301	1690.88
209.766	1733.75
210.232	1731.36
210.697	2149.29
211.163	2667.85
211.628	4037.41
212.094	3451.56
212.559	4231.36
213.024	2652.32
213.49	3256.59
213.955	3194.24
214.42	3130.09
214.885	2929.2
215.35	2833.8
215.815	2743.21
216.28	2926.79
216.745	2421.57
217.21	2629.34
217.675	2473.49
218.14	2820.32
218.604	3216.09
219.069	3761.72
219.534	4031.54
219.998	4769.24
220.463	5871.68
220.927	7345.25
221.392	7000.36
221.856	7117.24
222.32	9039.88
222.785	11220.25
223.249	14198.48
223.713	15932.6
224.177	15958.85
224.642	20544.72
225.106	25347.6
225.57	27771.45
226.034	20672.82
226.497	31481.82
226.961	28504.97
227.425	33262.06
227.889	36953.07
228.353	36971.34
228.816	76382.44
229.28	73145.31
229.744	61711.92
230.207	37485.71
230.671	36861.11
231.134	60951.22
231.597	70274.37
232.061	70272.44
232.524	68567.24
232.987	47142.17
233.45	42414.8
233.914	37989.27
234.377	38884.48
234.84	35522.93
235.303	41858.81
235.766	46598.33
236.229	48141.99
236.691	30279.48
237.154	33968.02
237.617	25493.68
238.08	26090.56
238.542	30495.52
239.005	21746.61
239.468	21556.23
239.93	20302.8
240.393	18430.1
240.855	16178.07
241.317	16550.69
241.78	20126.86
242.242	20770.31
242.704	22375.58
243.166	19436.53
243.629	17626.33
244.091	20297.44
244.553	22200.15
245.015	23800.33
245.477	30769.12
245.939	45001.26
246.4	47705.67
246.862	46333.64
247.324	43628.35
247.786	48835.13
248.247	64052.63
248.709	66085.84
249.17	49351.07
249.632	46434.89
250.093	53802.97
250.555	46344.18
251.016	28262.01
251.477	26757.13
251.939	28805.02
252.4	30183.91
252.861	35830.84
253.322	33296.44
253.783	39547.46
254.244	51275.92
254.705	40413.75
255.166	35893.83
255.627	35325.85
256.088	49712.35
256.549	52715.44
257.009	45389.32
257.47	55016.23
257.931	44755.74
258.391	33473.32
258.852	34496.22
259.312	36108.25
259.773	44548.32
260.233	37607.94
260.694	31685.37
261.154	35862.48
261.614	28753.25
262.074	25682.74
262.534	26660.31
262.994	25095.12
263.455	33393.98
263.915	28085.34
264.374	26430.86
264.834	28815.71
265.294	31906.75
265.754	33020.48
266.214	31274.53
266.673	29306.95
267.133	36933.19
267.593	36623.02
268.052	44788.92
268.512	38918.64
268.971	46893.63
269.431	51375.67
269.89	45992.56
270.349	68928.87
270.809	76772.01
271.268	68929.2
271.727	154358.08
272.186	99982.66
272.645	74865.9
273.104	54007.06
273.563	78153.5
274.022	61410.92
274.481	52212.53
274.94	40184.3
275.399	29845.89
275.857	34730.33
276.316	46967.72
276.775	41756.33
277.233	41056.03
277.692	38415.68
278.15	43407.62
278.609	44612.54
279.067	41293.66
279.525	38309.35
279.984	49408.48
280.442	59325.41
280.9	58390.19
281.358	38350.68
281.816	35738.72
282.274	34959.16
282.732	36093.37
283.19	36188.64
283.648	31221.22
284.106	33186.58
284.564	33721.71
285.021	31270.8
285.479	23263.32
285.937	21154.36
286.394	18535.25
286.852	19043.72
287.309	20000.6
287.767	19307.22
288.224	18346.4
288.682	20106.39
289.139	22056.18
289.596	20171.81
290.053	20924.58
290.511	26391.88
290.968	31988.91
291.425	43404.14
291.882	36097.11
292.339	31361.22
292.796	31071.43
293.252	29285.26
293.709	23220.05
294.166	20799.98
294.623	22944.61
295.079	22007.98
295.536	22074.3
295.992	20008.74
296.449	19756.27
296.905	20490.88
297.362	19643.45
297.818	20654.61
298.274	21380.8
298.731	21766.81
299.187	21499.09
299.643	23051.95
300.099	27819.17
300.555	30486.33
301.011	25463.28
301.467	24514.08
301.923	28668.16
302.379	27970.47
302.835	27429.19
303.291	27429.08
303.746	31242.1
304.202	39446.04
304.658	39599.68
305.113	26648.36
305.569	26081.2
306.024	27784.47
306.479	26433.74
306.935	22254.59
307.39	24279.78
307.845	22382.24
308.301	22520.7
308.756	21874.7
309.211	21060.74
309.666	21548.9
310.121	26731.58
310.576	27106.14
311.031	26839.59
311.486	30746.99
311.94	30714.32
312.395	41044.58
312.85	77109.42
313.305	378154.02
313.759	1956052.39
314.214	141620
314.668	112152.33
315.123	94100.54
315.577	33717.88
316.032	29942.95
316.486	37477.83
316.94	29567.99
317.394	20561.94
317.849	15989.45
318.303	15136.7
318.757	14263.72
319.211	15751.52
319.665	13773.61
320.119	13932.79
320.572	19950.65
321.026	18649.55
321.48	15498.15
321.934	16882.88
322.387	16905.98
322.841	18238.05
323.295	16383.09
323.748	18873.04
324.202	19135.24
324.655	22961.48
325.108	32049.91
325.562	22629.76
326.015	26839.17
326.468	20264.69
326.921	22649.29
327.374	21085.24
327.827	21922.46
328.28	24791.78
328.733	16609.87
329.186	14584.67
329.639	13885.42
330.092	11699.69
330.545	11146.82
330.997	11236.67
331.45	12279.59
331.903	14377.35
332.355	24778.14
332.808	24064.73
333.26	19843.18
333.713	21518.35
334.165	21690.32
334.617	28971.43
335.069	23383.99
335.522	42187.09
335.974	46692.69
336.426	42646.2
336.878	29541.76
337.33	14979.64
337.782	14618.95
338.234	18296.12
338.686	21906.04
339.137	25927.1
339.589	24375.07
340.041	19129.7
340.493	16441.99
340.944	16858.64
341.396	18156.64
341.847	15261.97
342.299	17953.62
342.75	21919.37
343.201	19149.06
343.653	22001.09
344.104	27021.95
344.555	21261.29
345.006	33087.58
345.457	25371.95
345.908	20105.98
346.359	18905.63
346.81	15384.4
347.261	16191.46
347.712	15919
348.163	17080.74
348.613	17295.12
349.064	16145.72
349.515	14143.54
349.965	14481.31
350.416	17419.71
350.866	19161.42
351.317	21652.6
351.767	35860.45
352.217	45410.22
352.668	37758.24
353.118	34560.47
353.568	33300.49
354.018	26338.66
354.468	27796.75
354.918	19907.79
355.368	17401.8
355.818	24580.03
356.268	70665.69
356.718	295562.59
357.168	73434.25
357.617	36776.5
358.067	40857.9
358.517	38260.78
358.966	44829.34
359.416	50238.27
359.865	54274.43
360.315	64628.4
360.764	30123.34
361.213	16895.71
361.663	15984.22
362.112	19795.38
362.561	32018.52
363.01	24085.78
363.459	20236.08
363.908	21896.91
364.357	18587.8
364.806	31411.79
365.255	21624.8
365.703	19829.98
366.152	19817.21
366.601	16079.12
367.05	12990.07
367.498	11799.44
367.947	12353.97
368.395	12873.77
368.844	11379.86
369.292	13685.39
369.74	9456.45
370.189	14448.13
370.637	16924.66
371.085	14605.97
371.533	17789.62
371.981	17161.93
372.429	16309.23
372.877	16983.31
373.325	14165.97
373.773	14430.21
374.221	12853.04
374.669	15933.82
375.116	13767.38
375.564	13859.78
376.012	15488.43
376.459	12763.71
376.907	15226.27
377.354	18400.22
377.801	17121.13
378.249	19698.42
378.696	25140.06
379.143	30422.01
379.591	32366.13
380.038	54736.62
380.485	39505.48
380.932	42551.27
381.379	38791.77
381.826	28544.18
382.273	20277.49
382.72	17744.44
383.166	17268.5
383.613	11198.32
384.06	10088.08
384.506	11675
384.953	8551.9
385.4	8579.93
385.846	7501.33
386.292	7304.88
386.739	7130.31
387.185	7044.75
387.631	7033.63
388.078	6820.18
388.524	7288.4
388.97	6720.2
389.416	5602.32
389.862	5958.97
390.308	5648.95
390.754	5734.38
391.2	6225.15
391.645	6365.25
392.091	6088.75
392.537	5884.14
392.983	5887.71
393.428	5787.06
393.874	6194.78
394.319	6199.18
394.765	5867.02
395.21	6018.51
395.655	5644.46
396.101	5280.82
396.546	4757.61
396.991	4790.28
397.436	4431.95
397.881	4266.78
398.326	4035.07
398.771	3817.65
399.216	3336.17
399.661	2998.15
400.106	2986.25
400.551	3056.03
400.995	2731.21
401.44	2701.42
401.885	2532.44
402.329	2555.32
402.774	2449.76
403.218	2369.25
403.663	2275.33
404.107	2335.69
404.551	2352.85
404.995	2151.5
405.44	2070.17
405.884	2103.3
406.328	2029.39
406.772	2019.03
407.216	1836.98
407.66	1773.35
408.104	1679.95
408.547	1572.5
408.991	1519.15
409.435	1457.64
409.879	1437.23
410.322	1414.38
410.766	1362.05
411.209	1295.13
411.653	1242.81
412.096	1218.33
412.54	1217.03
412.983	1209.62
413.426	1211.3
413.869	1211.95
414.312	1190.22
414.756	1147.64
415.199	1093.69
415.642	1060.16
416.085	1060.46
416.527	1050.63
416.97	1065.19
417.413	1009.93
417.856	995.43
418.298	982.95
418.741	970.54
419.184	965.51
419.626	1001.86
420.069	1000.25
420.511	1007.1
420.953	985.14
421.396	980
421.838	954.06
422.28	976.32
422.722	983.73
423.164	998.62
423.606	984.06
424.048	981.07
424.49	933.17
424.932	927.63
425.374	913.38
425.816	928.51
426.258	942.38
426.699	951.38
427.141	935.98
427.582	947.58
428.024	939.76
428.465	933.26
428.907	911.4
429.348	900.8
429.789	902.28
430.231	885.17
430.672	896.67
431.113	876.2
431.554	864.77
431.995	843.91
432.436	815.37
432.877	799.35
433.318	787.39
433.759	786.76
434.2	784.91
434.64	775.37
435.081	777.22
435.522	736.85
435.962	710.68
436.403	696.21
436.843	705.57
437.284	688.76
437.724	669.77
438.164	669.77
438.604	652.73
439.045	629.03
439.485	605.09
439.925	590.87
440.365	577.12
440.805	569.81
441.245	561.35
441.685	540.77
442.125	537.72
442.564	539.63
443.004	526.58
443.444	524.62
443.883	526.68
444.323	522.18
444.762	521.06
445.202	526.33
445.641	535.22
446.081	532.69
446.52	535.53
446.959	529.48
447.398	517.74
447.837	513.01
448.276	505.03
448.716	506.86
449.154	508.64
449.593	499.03
450.032	497.97
450.471	486.86
450.91	487.01
451.349	487.66
451.787	484.91
452.226	491.82
452.664	490.02
453.103	489.05
453.541	489.39
453.98	488.91
454.418	491.5
454.856	484.33
455.295	483.67
455.733	485.91
456.171	486.62
456.609	487.91
457.047	488.38
457.485	496.37
457.923	498.2
458.361	491.68
458.798	492.59
459.236	492.11
459.674	494.74
460.111	497.29
460.549	492.68
460.987	490.32
461.424	488.19
461.862	485.63
462.299	477.54
462.736	477.51
463.173	478.62
463.611	476.34
464.048	474.67
464.485	478.62
464.922	475.69
465.359	474.23
465.796	472.44
466.233	470.27
466.67	466.88
467.106	466.97
467.543	461.69
467.98	455.56
468.416	443.14
468.853	438.44
469.29	424.78
469.726	419.12
470.162	407.44
470.599	399.27
471.035	394.32
471.471	383.11
471.907	379.7
472.344	377.1
472.78	378.03
473.216	381.93
473.652	377.55
474.088	376.92
474.523	375.66
474.959	379.05
475.395	375.01
475.831	372.48
476.266	374.1
476.702	372.53
477.138	368.72
477.573	367.48
478.008	365.33
478.444	366.92
478.879	369.48
479.314	370.64
479.75	369.81
480.185	371.45
480.62	374.08
481.055	376.21
481.49	379.49
481.925	384.48
482.36	391.6
482.795	402.15
483.229	412.48
483.664	420.78
484.099	421.9
484.534	428.49
484.968	432.81
485.403	433.96
485.837	433.31
486.271	431.42
486.706	430.82
487.14	424.87
487.574	418.58
488.009	414.6
488.443	410.9
488.877	415.55
489.311	416.62
489.745	420.89
490.179	425.53
490.613	434.06
491.046	438.42
491.48	442.57
491.914	443.87
492.348	447.32
492.781	450.42
493.215	452.72
493.648	453.15
494.082	457.49
494.515	459.75
494.948	465.65
495.382	468.94
495.815	472.59
496.248	477.21
496.681	487.18
497.114	495.65
497.547	504.52
497.98	515.2
498.413	521.41
498.846	528.85
499.279	535.32
499.711	539.04
500.144	542.59
500.577	552.67
501.009	562.42
501.442	571.13
501.874	575.45
502.306	578.69
502.739	586.62
503.171	599.83
503.603	605.53
504.036	614.95
504.468	623.03
504.9	634.26
505.332	642.63
505.764	648.77
506.196	657.64
506.627	671.08
507.059	685.16
507.491	694.36
507.923	697.73
508.354	713.19
508.786	726.02
509.217	743.54
509.649	759.75
510.08	777.79
510.512	795.98
510.943	812.27
511.374	826.58
511.805	846.78
512.237	867.1
512.668	896.85
513.099	923.2
513.53	949.21
513.961	970.91
514.391	1001.03
514.822	1033.73
515.253	1067.61
515.684	1093.36
516.114	1122.44
516.545	1145.09
516.975	1171.22
517.406	1191.14
517.836	1197.61
518.267	1208.46
518.697	1228.66
519.127	1237.02
519.558	1246.92
519.988	1253.92
520.418	1267.01
520.848	1286.38
521.278	1298.33
521.708	1322.42
522.138	1337.78
522.567	1369.13
522.997	1394.46
523.427	1410.75
523.857	1429.27
524.286	1442.85
524.716	1459.4
525.145	1478.1
525.575	1490.67
526.004	1505.85
526.433	1499.19
526.863	1501.11
527.292	1495.3
527.721	1502.63
528.15	1509.96
528.579	1512.79
529.008	1523.04
529.437	1545.46
529.866	1560
530.295	1577.38
530.724	1589.75
531.152	1616.16
531.581	1630.54
532.01	1647.91
532.438	1657.13
532.867	1672.43
533.295	1690.35
533.723	1697.75
534.152	1697.36
534.58	1698.48
535.008	1683.56
535.436	1686.42
535.865	1693.76
536.293	1708.09
536.721	1721.94
537.149	1744.54
537.576	1746.86
538.004	1759.31
538.432	1767.91
538.86	1766.85
539.287	1774.01
539.715	1788.04
540.143	1791.32
540.57	1787.17
540.998	1783.41
541.425	1763.32
541.852	1745.89
542.28	1745.02
542.707	1729.63
543.134	1716.25
543.561	1711.35
543.988	1703.65
544.415	1701.96
544.842	1696.37
545.269	1689.91
545.696	1690.79
546.123	1702.48
546.549	1692.01
546.976	1678.98
547.403	1677.88
547.829	1678.62
548.256	1680.66
548.682	1676.58
549.108	1670.48
549.535	1669.86
549.961	1671.25
550.387	1658.67
550.813	1652.59
551.24	1657.75
551.666	1658.47
552.092	1649.27
552.518	1642.44
552.943	1636.37
553.369	1643.06
553.795	1647.13
554.221	1647.56
554.646	1644.98
555.072	1655.15
555.498	1660.09
555.923	1667.44
556.349	1680.68
556.774	1688.64
557.199	1688.89
557.625	1694.02
558.05	1687.45
558.475	1696.22
558.9	1694.67
559.325	1685.58
559.75	1678.24
560.175	1670.5
560.6	1663.65
561.025	1660.24
561.449	1658.91
561.874	1662.52
562.299	1664.3
562.723	1669.66
563.148	1658.79
563.572	1660.25
563.997	1667.56
564.421	1670.05
564.846	1667.12
565.27	1667.96
565.694	1664
566.118	1672.74
566.542	1677.6
566.966	1669.5
567.39	1662.67
567.814	1649.77
568.238	1646.39
568.662	1649.01
569.086	1649.41
569.509	1655.04
569.933	1638.86
570.357	1629.24
570.78	1607.93
571.204	1592.94
571.627	1580.19
572.05	1576.29
572.474	1574.5
572.897	1561.79
573.32	1551.58
573.743	1539.32
574.166	1519.94
574.589	1518.14
575.012	1509.43
575.435	1505.02
575.858	1494.68
576.281	1483.32
576.704	1466.87
577.126	1452.6
577.549	1439.71
577.972	1430.14
578.394	1419.46
578.817	1410.93
579.239	1391.56
579.661	1377.27
580.084	1362.4
580.506	1349.45
580.928	1343.59
581.35	1332.89
581.772	1327.67
582.194	1314.57
582.616	1300.46
583.038	1287.06
583.46	1277.03
583.882	1273.25
584.303	1275.22
584.725	1269.28
585.147	1270.19
585.568	1277.61
585.99	1286.11
586.411	1290.34
586.833	1301.52
587.254	1301.38
587.675	1312.22
588.096	1320.04
588.518	1314.05
588.939	1299.16
589.36	1296.63
589.781	1285.39
590.202	1261.7
590.623	1252.29
591.043	1250.08
591.464	1238.76
591.885	1235.35
592.305	1229
592.726	1217.45
593.147	1217.8
593.567	1212.92
593.987	1206.66
594.408	1202.18
594.828	1199.62
595.248	1194.85
595.669	1178.04
596.089	1171.58
596.509	1164.75
596.929	1152.99
597.349	1153.63
597.769	1144.39
598.189	1138.26
598.608	1137.31
599.028	1138.53
599.448	1137.32
599.867	1125.9
600.287	1121.61
600.706	1117.37
601.126	1110.01
601.545	1108.76
601.965	1106.2
602.384	1100.74
602.803	1101.69
603.222	1097.23
603.641	1090.97
604.061	1087.34
604.48	1082.53
604.898	1087.5
605.317	1089.58
605.736	1089.02
606.155	1085.96
606.574	1077.18
606.992	1080.69
607.411	1075.67
607.829	1067.76
608.248	1062.79
608.666	1058.62
609.085	1057.51
609.503	1049.66
609.921	1044.43
610.339	1045.05
610.758	1042.14
611.176	1037.56
611.594	1029.63
612.012	1025.89
612.43	1027.27
612.847	1031.27
613.265	1030.84
613.683	1032.23
614.101	1032.06
614.518	1027.41
614.936	1017.72
615.353	1004.09
615.771	999.14
616.188	996.86
616.606	991.49
617.023	984.47
617.44	972.57
617.857	966.02
618.274	957.78
618.691	950.96
619.108	941.57
619.525	935.46
619.942	939.44
620.359	940.84
620.776	935.68
621.192	932.33
621.609	929.87
622.026	933.39
622.442	937.31
622.859	939.27
623.275	933.37
623.691	936.57
624.108	944.87
624.524	955.34
624.94	954.82
625.356	962.03
625.772	971.33
626.188	978.83
626.604	979.7
627.02	975.19
627.436	973.42
627.852	978.98
628.268	988.36
628.683	981.33
629.099	974.26
629.514	969.39
629.93	972.07
630.345	974.57
630.761	971.22
631.176	972.18
631.591	967.32
632.007	961.78
632.422	958.21
632.837	948.27
633.252	945.6
633.667	936.05
634.082	928.9
634.497	917.33
634.911	902
635.326	897.52
635.741	884.59
636.155	875.65
636.57	875.42
636.984	873
637.399	871.74
637.813	867.31
638.228	864.45
638.642	864.2
639.056	854.62
639.47	852.63
639.884	844.34
640.298	835.96
640.712	832.1
641.126	819.07
641.54	810.64
641.954	803.76
642.368	793.8
642.781	786.34
643.195	772.07
643.609	769.11
644.022	761.01
644.436	755.16
644.849	743.81
645.262	732.81
645.676	732.65
646.089	727.1
646.502	715.81
646.915	710.33
647.328	696.86
647.741	693.7
648.154	683.83
648.567	681.69
648.98	671.24
649.393	670.69
649.805	668.47
650.218	661.82
650.631	650.98
651.043	646.2
651.456	641.55
651.868	641.1
652.28	649.84
652.693	656.59
653.105	658.4
653.517	663.77
653.929	664.27
654.341	665.85
654.753	656.81
655.165	660.34
655.577	657.14
655.989	652.67
656.401	645.13
656.813	623.15
657.224	610.26
657.636	591.21
658.047	579.04
658.459	564.13
658.87	556.78
659.282	548.38
659.693	533.51
660.104	523.41
660.515	512.25
660.926	510.43
661.338	506.59
661.749	500.43
662.159	495.13
662.57	490.51
662.981	487.17
663.392	481.48
663.803	482.37
664.213	479.4
664.624	475.83
665.035	478.27
665.445	469.35
665.855	465.31
666.266	461.48
666.676	458.81
667.086	453.74
667.497	452.98
667.907	449.6
668.317	444.88
668.727	445.3
669.137	445.27
669.547	444.13
669.956	446.29
670.366	447.8
670.776	449
671.186	451.7
671.595	454.9
672.005	457.06
672.414	458.42
672.824	458.51
673.233	459.75
673.642	462.82
674.052	464.96
674.461	466.75
674.87	469.64
675.279	469
675.688	469.61
676.097	471.22
676.506	470.24
676.915	478.12
677.323	480.39
677.732	480.35
678.141	480.76
678.549	474.85
678.958	475.15
679.366	475.38
679.775	479.24
680.183	488.14
680.592	491.94
681	496.86
681.408	493.79
681.816	500.01
682.224	506.48
682.632	514.38
683.04	534.99
683.448	551.88
683.856	572.81
684.264	597.88
684.671	619.47
685.079	647.18
685.487	677.48
685.894	721.3
686.302	756.45
686.709	787.66
687.116	823.16
687.524	855.28
687.931	883.82
688.338	910.79
688.745	932.82
689.152	961
689.559	997.07
689.966	1033.57
690.373	1056.67
690.78	1093.07
691.187	1146.69
691.593	1191.17
692	1230.48
692.407	1286.21
692.813	1354.08
693.22	1410.95
693.626	1468.82
694.032	1518.6
694.439	1588.97
694.845	1646.51
695.251	1717.5
695.657	1783.27
696.063	1875.03
696.469	1948.34
696.875	2017.72
697.281	2060.29
697.687	2112.9
698.093	2158.86
698.498	2235.75
698.904	2298.07
699.31	2386.93
699.715	2454.88
700.12	2545.68
700.526	2575.07
700.931	2647.88
701.337	2705.84
701.742	2749.19
702.147	2834.67
702.552	2873.15
702.957	2936.72
703.362	2969.26
703.767	3006.75
704.172	3053.86
704.577	3022.02
704.981	3075.67
705.386	3099.9
705.791	3103.22
706.195	3178.89
706.6	3197.88
707.004	3282.41
707.408	3265.55
707.813	3297.49
708.217	3294.08
708.621	3304.63
709.025	3405.72
709.43	3414.2
709.834	3481.35
710.237	3554.65
710.641	3551.77
711.045	3580.34
711.449	3581.45
711.853	3616.27
712.256	3664.41
712.66	3709.73
713.064	3790.35
713.467	3839.44
713.87	3953.98
714.274	4007.02
714.677	4122.76
715.08	4289.13
715.484	4462.1
715.887	4670.87
716.29	4875.12
716.693	5087.51
717.096	5332.67
717.499	5471.16
717.901	5502.04
718.304	5540.91
718.707	5572.1
719.109	5479.56
719.512	5453.62
719.915	5327.66
720.317	5278.13
720.719	5327.02
721.122	5304.44
721.524	5260.27
721.926	5223.16
722.328	5329.49
722.731	5327.59
723.133	5361.79
723.535	5558.89
723.937	5588.44
724.338	5645.38
724.74	5689.94
725.142	5627.2
725.544	5634.44
725.945	5664.48
726.347	5664.93
726.748	5662.48
727.15	5679.47
727.551	5644.05
727.952	5619.12
728.354	5590.94
728.755	5597.02
729.156	5557.79
729.557	5552.41
729.958	5427.25
730.359	5375.32
730.76	5362.5
731.161	5304.07
731.562	5280.57
731.962	5283.89
732.363	5221.68
732.763	5158.77
733.164	5195.96
733.564	5129.64
733.965	5035.29
734.365	5002.32
734.766	5030.44
735.166	4992.13
735.566	4936.77
735.966	4911.56
736.366	4911.45
736.766	4852.7
737.166	4885.15
737.566	4843.37
737.966	4819.86
738.365	4863.22
738.765	4860.43
739.165	4785.89
739.564	4760.19
739.964	4810.15
740.363	4763.31
740.763	4761.23
741.162	4749.5
741.561	4717.43
741.96	4671.42
742.36	4692.97
742.759	4698.67
743.158	4738.17
743.557	4755.84
743.955	4796.47
744.354	4748.86
744.753	4809.38
745.152	4769.15
745.55	4824.65
745.949	4818.74
746.348	4819.3
746.746	4837.02
747.144	4794.95
747.543	4772.63
747.941	4821.26
748.339	4751.33
748.737	4746
749.136	4737.26
749.534	4801.36
749.932	4771.9
750.33	4797.11
750.727	4856.18
751.125	4830.92
751.523	4815.5
751.921	4860.72
752.318	4827.18
752.716	4887.72
753.113	4900.95
753.511	4927.08
753.908	4927.62
754.305	4912.72
754.703	4974.38
755.1	5035.41
755.497	5097.73
755.894	5292.53
756.291	5473.5
756.688	5810.8
757.085	6258.09
757.482	6886.72
757.878	7571.78
758.275	8196.46
758.672	9055.56
759.068	9753.75
759.465	10754.28
759.861	12039.33
760.258	13532.28
760.654	14308.95
761.05	14191.52
761.447	13538.54
761.843	12604.29
762.239	11643.43
762.635	11207.37
763.031	10787.1
763.427	10185.44
763.822	9547.56
764.218	8917.17
764.614	8100.2
765.01	7553.48
765.405	7200.35
765.801	6930.66
766.196	6593.41
766.592	6401.8
766.987	6081.75
767.382	5860.31
767.778	5771.69
768.173	5638.87
768.568	5567.63
768.963	5440.64
769.358	5457.47
769.753	5410.79
770.148	5327.55
770.542	5324.2
770.937	5291.51
771.332	5381.35
771.726	5401.02
772.121	5336.65
772.515	5392.07
772.91	5375.72
773.304	5446.46
773.699	5379.99
774.093	5432.48
774.487	5489.75
774.881	5533.83
775.275	5530.86
775.669	5488.85
776.063	5535.06
776.457	5571.42
776.851	5496.88
777.245	5488.05
777.638	5520.88
778.032	5638.69
778.425	5602.4
778.819	5644.17
779.212	5599.14
779.606	5555.64
779.999	5574.35
780.392	5559.01
780.786	5639.43
781.179	5659.9
781.572	5703.65
781.965	5718.85
782.358	5662.11
782.751	5719.6
783.143	5670.11
783.536	5742.63
783.929	5787.83
784.322	5904.93
784.714	5935.31
785.107	5929.78
785.499	6002.39
785.891	5977.48
786.284	5957.26
786.676	6097.29
787.068	6073.85
787.46	6125.1
787.852	6145.78
788.245	6234.48
788.636	6264.04
789.028	6331.87
789.42	6372.39
789.812	6380.58
790.204	6479.74
790.595	6579.38
790.987	6380.64
791.378	6409.23
791.77	6542.57
792.161	6680.78
792.553	6736.86
792.944	6625.17
793.335	6556.91
793.726	6630.84
794.117	6720.89
794.508	6861.49
794.899	6830.88
795.29	6973.91
795.681	7030.87
796.072	6887.18
796.463	6698.36
796.853	6705.58
797.244	6862.19
797.634	6892.25
798.025	6894.85
798.415	6909.5
798.806	7000.95
799.196	7086.02
799.586	7139.94
799.976	7099.29
800.366	7331.93
800.756	7577.78
801.146	7538.31
801.536	7572.38
801.926	7652.22
802.316	7675.72
802.706	7745.9
803.095	7615.33
803.485	7722.64
803.874	7763.84
804.264	8030.25
804.653	8002.96
805.043	8149.62
805.432	8260.02
805.821	8258.24
806.21	8277.14
806.599	8399.79
806.988	8446.37
807.377	8557.7
807.766	8686.25
808.155	8973.52
808.544	8705.64
808.933	8722.91
809.321	8699.61
809.71	8998.74
810.098	9154.59
810.487	9625.66
810.875	10109.87
811.264	10130.05
811.652	10425.56
812.04	10572.31
812.428	10740.03
812.816	11513.14
813.204	11934.33
813.592	12495.73
813.98	12840.86
814.368	12751.55
814.756	13232.24
815.144	13153.39
815.531	13638.09
815.919	13561.79
816.306	13873.09
816.694	13558.59
817.081	13611.74
817.469	13961.94
817.856	13967.09
818.243	14232.99
818.63	14632.39
819.017	14207.23
819.404	14268.57
819.791	14649.56
820.178	15282.56
820.565	15540.3
820.952	16478.56
821.339	15975.01
821.725	16167.39
822.112	15409.01
822.498	15372.66
822.885	15506.6
823.271	15412.83
823.657	15836.5
824.044	15841.91
824.43	15905.96
824.816	15871.57
825.202	15431.17
825.588	16458.94
825.974	16470.48
826.36	16990.85
826.746	17023.91
827.132	17386.28
827.517	17355.25
827.903	16558.23
828.289	16595.14
828.674	15810.94
829.06	15705.38
829.445	16110.23
829.83	16478.77
830.216	16962.52
830.601	17337.05
830.986	16935.09
831.371	16801.8
831.756	17372.17
832.141	16939.59
832.526	16936.36
832.911	17218.96
833.295	17103.61
833.68	17577.53
834.065	16951.78
834.449	16029.36
834.834	15957.53
835.218	15948.39
835.603	16289.69
835.987	16071.23
836.371	16920.47
836.755	16810.63
837.139	17219.89
837.524	17469.5
837.908	17291.87
838.291	17348.33
838.675	17416.94
839.059	17627.52
839.443	17613.21
839.827	17383.57
840.21	17873.16
840.594	17719.96
840.977	17933.21
841.361	17906.67
841.744	18287.37
842.127	18129.98
842.511	18382.28
842.894	18995.42
843.277	19385.57
843.66	19940.17
844.043	20021.11
844.426	19209.71
844.809	18896.47
845.191	18929.36
845.574	18470.78
845.957	18094.25
846.339	17985.2
846.722	17463.8
847.104	17527.63
847.487	17349.27
847.869	17362.69
848.252	17645.98
848.634	17980.61
849.016	18253.71
849.398	18383.27
849.78	19251.21
850.162	19260.39
850.544	19688.38
850.926	20319.61
851.307	20225.98
851.689	20503.66
852.071	20955.05
852.452	21276.49
852.834	21250.46
853.215	21649.24
853.597	21804.85
853.978	22096.72
854.359	22553.48
854.741	21542.27
855.122	21433.87
855.503	21132.61
855.884	21270.47
856.265	21205.04
856.646	21323.55
857.026	20926.01
857.407	20856.91
857.788	21005.86
858.169	21289.75
858.549	20433.64
858.93	21053.24
859.31	21100.27
859.69	21316.81
860.071	20901.71
860.451	20690.46
860.831	19949.95
861.211	21120.44
861.591	21679.79
861.971	21653.07
862.351	21846.56
862.731	22239.37
863.111	22509.88
863.491	22843.99
863.87	23737.71
864.25	24096.83
864.629	23692.31
865.009	24192.11
865.388	25045.6
865.768	26828.67
866.147	26727.64
866.526	25258.61
866.905	25555.9
867.284	26996.66
867.663	25640.72
868.042	24582.73
868.421	24504.96
868.8	24910.34
869.179	25167.36
869.558	23711.75
869.936	21860.75
870.315	22258.78
870.693	22804.06
871.072	24603.24
871.45	23436.27
871.828	23735.69
872.207	24933.7
872.585	24553.51
872.963	25227.53
873.341	24356.43
873.719	24081.53
874.097	23792.63
874.475	24240.62
874.853	24794.49
875.23	23757.41
875.608	24735.77
875.986	26749.26
876.363	25589.55
876.741	26375.86
877.118	25706.84
877.495	26974.48
877.873	27411.93
878.25	28851.6
878.627	27674.61
879.004	28064.81
879.381	27935.25
879.758	27223.29
880.135	25356.86
880.512	26813.41
880.889	26109.9
881.265	25842.49
881.642	25631.56
882.019	26066.49
882.395	25529.27
882.772	26547.19
883.148	25383.41
883.524	25275.29
883.901	25126.91
884.277	25496.61
884.653	25341.61
885.029	26063.99
885.405	28861.13
885.781	28628.23
886.157	27451.49
886.532	27789.75
886.908	27770.21
887.284	30887.18
887.659	31893.8
888.035	32879.08
888.411	33728.76
888.786	34160.45
889.161	35343.58
889.537	34706.54
889.912	35830.08
890.287	35794.06
890.662	36719.45
891.037	36050.54
891.412	33628.27
891.787	33291.66
892.162	32126.71
892.536	32887.34
892.911	31660.37
893.286	30997.68
893.66	29729.72
894.035	30489.5
894.409	33196.96
894.784	31853.63
895.158	32386.15
895.532	34287.58
895.906	35222.36
896.281	36061.12
896.655	35476.62
897.029	40541.33
897.402	42211.09
897.776	46999.25
898.15	46843.19
898.524	46347.97
898.898	46974.87
899.271	52582.99
899.645	45558.11
900.018	43786.19
900.392	45403.77
900.765	45794.29
901.138	42381.96
901.511	41740.78
901.884	38323.74
902.258	35341.44
902.631	36510.03
903.003	41998.4
903.376	37927.1
903.749	42547
904.122	45540.42
904.495	50130.03
904.867	50725.29
905.24	44033.25
905.612	40996.61
905.985	41944.9
906.357	43858.98
906.729	41862.69
907.102	35760.32
907.474	34362.28
907.846	34556.3
908.218	34073.1
908.59	30115.35
908.962	29133.67
909.334	31354.34
909.705	32938.23
910.077	31951.07
910.449	33243.98
910.82	34164.08
911.192	37606.56
911.563	39061.64
911.935	41784.71
912.306	41838.35
912.677	43185.5
913.048	42743.24
913.419	46388.76
913.79	46634.23
914.161	50011.45
914.532	47787.9
914.903	43899.08
915.274	41660.78
915.645	41061.45
916.015	36137.17
916.386	34460.17
916.756	36681.76
917.127	37836.5
917.497	33798.99
917.868	36778.92
918.238	34956.65
918.608	35968.78
918.978	36740.3
919.348	38929.27
919.718	40228.8
920.088	38763.39
920.458	40273.62
920.828	42424.54
921.198	40198.26
921.567	42958.72
921.937	33284.7
922.306	33610.91
922.676	36257.33
923.045	30244.97
923.415	28723.3
923.784	26153
924.153	26894.16
924.522	26863.31
924.891	25230.25
925.26	27047.26
925.629	26416.95
925.998	30363.2
926.367	29634.72
926.736	28210.21
927.104	33582.78
927.473	36112.33
927.842	43635.98
928.21	43201.07
928.578	45441.41
928.947	42979.35
929.315	43236.11
929.683	50662.94
930.051	51080.46
930.42	59302.55
930.788	50707.18
931.156	50341.36
931.523	47198.64
931.891	43619.14
932.259	41905.25
932.627	48525.59
932.994	68687.65
933.362	56779.97
933.729	49326.71
934.097	47186.71
934.464	39929.33
934.831	46068.16
935.199	45439.81
935.566	44099.18
935.933	44730.34
936.3	54200.79
936.667	42235.59
937.034	38056.7
937.401	37641.05
937.767	32494.29
938.134	28965.85
938.501	40885.71
938.867	43579.55
939.234	73638.83
939.6	62795.74
939.967	69094.11
940.333	46264.2
940.699	39387.63
941.065	31656.86
941.431	41481.36
941.798	40007.63
942.163	52486.14
942.529	32783.45
942.895	30183.87
943.261	19539.86
943.627	25643.6
943.992	22447.42
944.358	22473.83
944.723	22542.56
945.089	21980.37
945.454	20317.25
945.82	21696.42
946.185	20857.54
946.55	24146.1
946.915	21665.33
947.28	25411.25
947.645	22347.9
948.01	20631.49
948.375	21503.73
948.74	25788.3
949.104	30028.52
949.469	43416.46
949.834	76695.34
950.198	72743.39
950.562	43626.83
950.927	36323.25
951.291	43678.02
951.655	37226.18
952.02	34968.26
952.384	26467.56
952.748	23016.92
953.112	22475.67
953.476	19519.03
953.839	18037.98
954.203	17847.23
954.567	22327.99
954.931	35171.72
955.294	30099.54
955.658	30273.8
956.021	51455.59
956.385	87219.98
956.748	128776.76
957.111	199522.73
957.474	224248.33
957.837	252694.28
958.2	191180
958.563	68766.98
958.926	46484.87
959.289	70539.2
959.652	78772.97
960.015	59107.21
960.377	84764.11
960.74	96771.22
961.102	167208.89
961.465	179306.42
961.827	95956.92
962.189	184095.26
962.552	127514.58
962.914	102267.58
963.276	66372.87
963.638	54887.18
964	54308.33
964.362	36740.6
964.724	35494.98
965.085	25299.83
965.447	20761.12
965.809	23679.56
966.17	23719.47
966.532	25683.74
966.893	23547.88
967.255	21408.06
967.616	25250.56
967.977	20228.68
968.338	22077.42
968.699	18154.46
969.061	18174.11
969.421	18275.95
969.782	20502.99
970.143	17313.84
970.504	17917.37
970.865	20376.93
971.225	20841.78
971.586	20399.5
971.946	29063.31
972.307	25222.09
972.667	32968.95
973.027	33943.84
973.388	41226.51
973.748	28002.46
974.108	30507.68
974.468	41296.97
974.828	31838.86
975.188	24497.56
975.548	22504.26
975.907	18913.37
976.267	21217.41
976.627	17829.91
976.986	18454.17
977.346	17573.05
977.705	16941.22
978.064	15413.34
978.424	12833.51
978.783	13280.98
979.142	15169.05
979.501	14503.34
979.86	15316.12
980.219	14772.89
980.578	19049.23
980.937	21349.76
981.296	19036.13
981.654	19576.18
982.013	30467.82
982.371	39583.47
982.73	36952.94
983.088	41829.32
983.447	44759.63
983.805	64044.93
984.163	133830.85
984.521	148544.33
984.879	217835.27
985.237	-354572.26
985.595	341886.41
985.953	84962.7
986.311	48985.7
986.669	28416.97
987.026	24493.54
987.384	32882.95
987.741	33971.08
988.099	24266.15
988.456	19323.77
988.814	18097.28
989.171	15737.9
989.528	15523.56
989.885	16400.87
990.242	12999.71
990.599	16224.84
990.956	13295.83
991.313	9304.99
991.67	7647.7
992.027	8092.39
992.383	7198.14
992.74	6300.52
993.096	6600.33
993.453	6846.23
993.809	7095.45
994.165	9434.1
994.522	8626.35
994.878	9502.41
995.234	11919.84
995.59	11761.67
995.946	11147.71
996.302	12728.02
996.658	14742.85
997.013	16243.24
997.369	19262.31
997.725	24669.29
998.08	15984.48
998.436	24693.96
998.791	34081.1
999.147	34047.87
999.502	37115.3
999.857	27003.41
1000.212	43988.8
1000.567	62627.69
1000.922	36119.85
1001.277	22963.39
1001.632	17024.03
1001.987	21933.54
1002.342	15757.97
1002.696	12604.57
1003.051	10046.24
1003.406	12182.05
1003.76	12124.94
1004.114	11950.46
1004.469	10049.4
1004.823	8320.32
1005.177	8973.68
1005.531	7121.32
1005.885	6322.64
1006.239	7130.06
1006.593	8936.25
1006.947	11980.37
1007.301	8991.86
1007.655	9803.84
1008.008	7191.43
1008.362	8063.27
1008.715	11535.01
1009.069	10489.33
1009.422	15776.11
1009.776	31693.51
1010.129	20978.49
1010.482	17527.62
1010.835	14840.66
1011.188	30833.86
1011.541	29054.5
1011.894	-177523.56
1012.247	523717.88
1012.6	35530.73
1012.952	22328.37
1013.305	11528.87
1013.657	8306.24
1014.01	7878.33
1014.362	6525.09
1014.715	5779.24
1015.067	5043.82
1015.419	4920.71
1015.771	4368.34
1016.123	3866.01
1016.475	3982.34
1016.827	4262.06
1017.179	4568.08
1017.531	4602.5
1017.883	4691.31
1018.234	4514.77
1018.586	5707.75
1018.938	6026.43
1019.289	8330.91
1019.64	9557.04
1019.992	8947.02
1020.343	8165.67
1020.694	6443.31
1021.045	5702.39
1021.396	6502.97
1021.747	6982.05
1022.098	8408.94
1022.449	6083.08
1022.8	5656.25
1023.151	3932.92
1023.501	3471.84
1023.852	3780.12
1024.202	3920.65
1024.553	4310.55
1024.903	4188.78
1025.253	3586.22
1025.604	3230.62
1025.954	3993.74
1026.304	4892.03
1026.654	5709.91
1027.004	8405.2
1027.354	13538.43
1027.703	12712.26
1028.053	16810.85
1028.403	24199.73
1028.753	35328.27
1029.102	48294.9
1029.452	249496.46
1029.801	10821.75
1030.15	6976.37
1030.499	5901.93
897.758	2468.31
901.051	2418.34
904.343	2451.17
907.636	2456.1
910.928	2518.65
914.22	2432.01
917.511	2439.27
920.803	2496.68
924.094	2506.3
927.384	2497.55
930.675	2462.7
933.965	2419.25
937.255	2434.59
940.544	2400.2
943.834	2368.34
947.123	2307.66
950.411	2398.76
953.7	2373.71
956.988	2348.11
960.276	2289.86
963.563	2356.6
966.851	2359.24
970.138	2409.64
973.424	2405.33
976.711	2361.99
979.997	2455.19
983.283	2497.36
986.568	2415.24
989.853	2424.64
993.138	2449.34
996.423	2530.13
999.708	2477.61
1002.992	2523.64
1006.275	2395.77
1009.559	2424.35
1012.842	2530.25
1016.125	2469.98
1019.408	2450.79
1022.69	2525.13
1025.972	2548.39
1029.254	2524.64
1032.536	2467.86
1035.817	2488.6
1039.098	2443.76
1042.379	2552.56
1045.659	2563.46
1048.939	2501.15
1052.219	2518.41
1055.498	2524.02
1058.778	2514.18
1062.057	2492.23
1065.335	2515.39
1068.614	2533.8
1071.892	2518.01
1075.17	2589.95
1078.447	2576.6
1081.724	2571.03
1085.001	2605.61
1088.278	2581.39
1091.554	2589.37
1094.83	2584.66
1098.106	2616.75
1101.382	2654.78
1104.657	2655.08
1107.932	2655.66
1111.206	2621.42
1114.481	2583
1117.755	2584.31
1121.029	2568.81
1124.302	2621.04
1127.575	2580.48
1130.848	2572.17
1134.121	2538.03
1137.393	2492.45
1140.665	2554.79
1143.937	2531.34
1147.208	2489.05
1150.48	2532.25
1153.75	2519
1157.021	2540.38
1160.291	2515.02
1163.561	2560.88
1166.831	2543.65
1170.101	2571.06
1173.37	2543.07
1176.639	2491.1
1179.907	2545.94
1183.176	2557.82
1186.444	2562.22
1189.711	2590.12
1192.979	2605.62
1196.246	2560.3
1199.513	2575.9
1202.78	2573.32
1206.046	2582.83
1209.312	2607.15
1212.578	2630
1215.843	2587.2
1219.108	2559.41
1222.373	2584.57
1225.638	2549.67
1228.902	2536.44
1232.166	2501.59
1235.43	2487.39
1238.693	2510.91
1241.956	2507.44
1245.219	2552.23
1248.482	2537.22
1251.744	2532.94
1255.006	2669.74
1258.268	2623.87
1261.529	2573.19
1264.79	2577.52
1268.051	2679.56
1271.312	2691.22
1274.572	2661.83
1277.832	2649.16
1281.092	2633.36
1284.351	2616.78
1287.61	2597.34
1290.869	2521.16
1294.128	2503.62
1297.386	2577.93
1300.644	2569.01
1303.902	2577.88
1307.159	2443.93
1310.416	2494.76
1313.673	2520.73
1316.93	2509.64
1320.186	2549.97
1323.442	2585.77
1326.697	2583.29
1329.953	2567.76
1333.208	2594.41
1336.463	2572.6
1339.717	2519.84
1342.972	2642.49
1346.226	2618.54
1349.479	2558.17
1352.733	2531.83
1355.986	2549.75
1359.238	2530.42
1362.491	2530.09
1365.743	2530.8
1368.995	2524.74
1372.247	2538.73
1375.498	2560.7
1378.749	2584.02
1382	2537.62
1385.251	2583.57
1388.501	2544.98
1391.751	2533.16
1395	2501.02
1398.25	2532.22
1401.499	2546.33
1404.748	2480.18
1407.996	2464.88
1411.244	2454.14
1414.492	2435.34
1417.74	2414.77
1420.987	2423.71
1424.234	2478.75
1427.481	2453.4
1430.728	2512.49
1433.974	2485.48
1437.22	2496.53
1440.465	2497.39
1443.711	2473.58
1446.956	2498.39
1450.201	2484.76
1453.445	2528.52
1456.689	2509.1
1459.933	2522.58
1463.177	2554.43
1466.42	2527.04
1469.663	2508.78
1472.906	2507.26
1476.148	2566.64
1479.391	2556.11
1482.633	2528.17
1485.874	2535.31
1489.115	2529.19
1492.356	2529.21
1495.597	2503.67
1498.838	2505.36
1502.078	2480.21
1505.318	2438.11
1508.557	2478.6
1511.797	2468.18
1515.036	2500.6
1518.274	2491.67
1521.513	2462.31
1524.751	2479.28
1527.989	2494.93
1531.227	2510.58
1534.464	2510.08
1537.701	2522.28
1540.938	2538.86
1544.174	2489.5
1547.41	2485.88
1550.646	2524.36
1553.882	2565.83
1557.117	2618.12
1560.352	2631.19
1563.587	2590.74
1566.821	2553.42
1570.055	2584.14
1573.289	2557.02
1576.523	2625.81
1579.756	2635.19
1582.989	2653.94
1586.222	2616.29
1589.454	2650.4
1592.686	2631.18
1595.918	2656.81
1599.15	2648.07
1602.381	2713.86
1605.612	2676.7
1608.843	2773.34
1612.073	2689.36
1615.303	2676.54
1618.533	2668.86
1621.762	2673.27
1624.992	2654.04
1628.221	2645.62
1631.449	2631.33
1634.678	2675.33
1637.906	2637.14
1641.134	2671.2
1644.361	2631.65
1647.588	2620.45
1650.815	2637.03
1654.042	2615.09
1657.269	2642.51
1660.495	2604.14
1663.72	2614.34
1666.946	2583.21
1670.171	2539.82
1673.396	2511.69
1676.621	2496.69
1679.845	2510.27
1683.069	2527.41
1686.293	2564.41
1689.517	2540.81
1692.74	2479.04
1695.963	2506.91
1699.185	2529.2
1702.408	2500.45
1705.63	2539.86
1708.852	2551.13
1712.073	2527.78
1715.294	2519.54
1718.515	2572.37
1721.736	2524.79
1724.956	2513.15
1728.176	2537.44
1731.396	2559.4
1734.616	2545.39
1737.835	2578.15
1741.054	2554.24
1744.272	2549.82
1747.491	2579.87
1750.709	2621.55
1753.927	2544.16
1757.144	2582.66
1760.361	2628.05
1763.578	2615.85
1766.795	2558.37
1770.011	2561.49
1773.227	2595.44
1776.443	2631.28
1779.658	2673.89
1782.874	2616.62
1786.089	2597.87
1789.303	2598.63
1792.518	2602.19
1795.732	2590.53
1798.945	2601.27
1802.159	2649.9
1805.372	2565.42
1808.585	2552.4
1811.797	2552.97
1815.01	2593.08
1818.222	2601.95
1821.434	2578.17
1824.645	2632.36
1827.856	2625.3
1831.067	2659.55
1834.278	2610.4
1837.488	2593.11
1840.698	2731.94
1843.908	2665.83
1847.117	2629.03
1850.326	2528.6
1853.535	2614.12
1856.744	2634.85
1859.952	2552.82
1863.16	2553.2
1866.368	2570.95
1869.575	2673.05
1872.782	2561.79
1875.989	2501.34
1879.196	2571.03
1882.402	2560.91
1885.608	2600.8
1888.814	2519.16
1892.019	2421.96
1895.224	2472.5
1898.429	2450.28
1901.634	2429.64
1904.838	2408.65
1908.042	2458.21
1911.246	2466.18
1914.449	2410.52
1917.652	2405.57
1920.855	2385.14
1924.058	2425.74
1927.26	2465.43
1930.462	2491.5
1933.664	2520.36
1936.865	2462.24
1940.066	2470.06
1943.267	2417.93
1946.467	2430.87
1949.668	2454.97
1952.868	2520.61
1956.067	2503.39
1959.267	2439.88
1962.466	2465.54
1965.665	2447.88
1968.863	2440.77
1972.061	2455.08
1975.259	2453.03
1978.457	2526.69
1981.654	2486.98
1984.852	2486.5
1988.048	2427.6
1991.245	2427.22
1994.441	2509.6
1997.637	2486.84
2000.833	2470.49
2004.028	2507.97
2007.223	2561.56
2010.418	2541.87
2013.613	2502.94
2016.807	2480.47
2020.001	2485.82
2023.194	2523.22
2026.388	2499.39
2029.581	2445.93
2032.774	2497.72
2035.966	2504.88
2039.158	2444.02
2042.35	2468.58
2045.542	2395.71
2048.733	2488.16
2051.924	2502.74
2055.115	2523.57
2058.306	2473.7
2061.496	2532.11
2064.686	2589.91
2067.875	2505.47
2071.065	2514.11
2074.254	2537.69
2077.442	2489.33
2080.631	2578.17
2083.819	2484.1
2087.007	2468.47
2090.195	2448.08
2093.382	2476.2
2096.569	2457.71
2099.756	2415.94
2102.942	2446.05
2106.128	2453.6
2109.314	2447.63
2112.5	2420.05
2115.685	2392.23
2118.87	2401.26
2122.055	2462.98
2125.239	2432.46
2128.424	2414.53
2131.608	2500.58
2134.791	2483.1
2137.974	2534.56
2141.157	2523.16
2144.34	2479.66
2147.523	2487.56
2150.705	2505.01
2153.887	2483.73
2157.068	2442.8
2160.25	2437.56
2163.431	2466.37
2166.611	2422.42
2169.792	2438.24
2172.972	2339.08
2176.152	2408.08
2179.331	2438.7
2182.511	2426.17
2185.69	2452.86
2188.868	2447.37
2192.047	2495.1
2195.225	2494.11
2198.403	2446.12
2201.58	2435.76
2204.758	2430.98
2207.935	2511.22
2211.111	2409.26
2214.288	2396.16
2217.464	2435.47
2220.64	2402.75
2223.815	2456.45
2226.991	2381.08
2230.166	2398.65
2233.34	2433.01
2236.515	2452.21
2239.689	2521.01
2242.863	2467.16
2246.036	2520.73
2249.209	2515.49
2252.382	2543.4
2255.555	2540.52
2258.727	2483.08
2261.9	2520.81
2265.071	2510.91
2268.243	2509.09
2271.414	2449.96
2274.585	2417.75
2277.756	2481.76
2280.926	2437.83
2284.096	2476.14
2287.266	2392.78
2290.436	2439.96
2293.605	2466.86
2296.774	2497.04
2299.942	2512.85
2303.111	2534.76
2306.279	2580.46
2309.447	2567.55
2312.614	2541.39
2315.781	2563.52
2318.948	2536.4
2322.115	2572.04
2325.281	2477.3
2328.447	2491.56
2331.613	2465.61
2334.779	2446.57
2337.944	2442.4
2341.109	2443.9
2344.274	2431.67
2347.438	2397.99
2350.602	2421.44
2353.766	2433.03
2356.929	2420.37
2360.092	2460.35
2363.255	2418.37
2366.418	2366.12
2369.58	2461.27
2372.742	2284.26
2375.904	2290.45
2379.066	2267.58
2382.227	2301.43
2385.388	2265.3
2388.548	2200.24
2391.709	2250.62
2394.869	2230.72
2398.029	2315.85
2401.188	2321.04
2404.347	2266.37
2407.506	2382.29
2410.665	2415.9
2413.823	2416.39
2416.981	2379.64
2420.139	2405.24
2423.296	2455.13
2426.453	2427
2429.61	2451
2432.767	2396.4
2435.923	2434.94
2439.079	2395.94
2442.235	2438.74
2445.391	2371.49
2448.546	2402.34
2451.701	2446.95
2454.855	2427.72
2458.009	2469.46
2461.163	2466.45
2464.317	2430.29
2467.471	2462.24
2470.624	2498.21
2473.777	2472.74
2476.929	2486.72
2480.082	2510.91
2483.234	2479.36
2486.385	2426.42
2489.537	2419.99
2492.688	2391.33
2495.839	2411.21
2498.989	2423.1
2502.14	2405.97
2505.29	2392.11
2508.439	2415.21
2511.589	2345.29
2514.738	2352.93
2517.887	2380.44
2521.035	2452.66
2524.183	2427.68
2527.331	2408.72
2530.479	2387.98
2533.627	2396.6
