Data from N_2_DEC_CT_2N_Splice17_12-28-31-346.txt Node
Date: Sat Mar 14 12:28:31 EDT 2020
User: sa697716
Spectrometer: FLMS03696
Trigger mode: 0
Integration Time (sec): 3.180400E-1
Scans to average: 20
Electric dark correction enabled: true
Nonlinearity correction enabled: true
Boxcar width: 5
XAxis mode: Wavelengths
Number of Pixels in Spectrum: 2048
>>>>>Begin Spectral Data<<<<<
187.83	-346129.08
188.298	2713.37
188.766	1416
189.233	1259.52
189.701	1759.7
190.169	2432.94
190.636	944.64
191.104	742.74
191.571	123.78
192.039	-51.77
192.506	-83.7
192.974	339.77
193.441	-262.59
193.908	122.44
194.375	44.22
194.842	102.82
195.31	151.64
195.777	203.51
196.244	444.2
196.711	534.82
197.177	655.01
197.644	937.01
198.111	1630.55
198.578	2285.14
199.045	1826.04
199.511	2977.25
199.978	3519.96
200.445	3016.86
200.911	3290.09
201.378	3637.09
201.844	3296.59
202.31	5634.54
202.777	5834.52
203.243	3238.38
203.709	3088.91
204.176	3722.3
204.642	3093.87
205.108	2862.31
205.574	2326.13
206.04	2153.17
206.506	2037.55
206.972	1934.34
207.438	1884.84
207.903	2174.15
208.369	1899.81
208.835	1901.75
209.301	1981.72
209.766	2034.11
210.232	2043.57
210.697	2549.56
211.163	3168.14
211.628	4819.1
212.094	4060.01
212.559	4995.79
213.024	3128.86
213.49	3872.63
213.955	3821.53
214.42	3785.74
214.885	3546.97
215.35	3403.97
215.815	3275.83
216.28	3512.33
216.745	2919.79
217.21	3218.47
217.675	3059.45
218.14	3555.57
218.604	4096.25
219.069	4842.42
219.534	5217.44
219.998	6264.35
220.463	7809.98
220.927	9937.06
221.392	9553.6
221.856	9825.71
222.32	12607.57
222.785	15722.52
223.249	19981.59
223.713	22511.49
224.177	22651.69
224.642	29270.58
225.106	36263.03
225.57	39827.13
226.034	29630.11
226.497	45250.43
226.961	40960.37
227.425	47751.05
227.889	53197.8
228.353	53363.56
228.816	110485.07
229.28	105831.94
229.744	89533.76
230.207	54407.1
230.671	53644.45
231.134	89141.02
231.597	102799.69
232.061	103009.51
232.524	100830.02
232.987	69551.64
233.45	62627.65
233.914	56261.23
234.377	57789
234.84	52912.26
235.303	62508.44
235.766	69795.78
236.229	72132.4
236.691	45513.8
237.154	51137.31
237.617	38449.81
238.08	39382.51
238.542	46141.26
239.005	32988.36
239.468	32748.87
239.93	30887.02
240.393	28056.95
240.855	24616.53
241.317	25253.79
241.78	30761.94
242.242	31824.09
242.704	34337.7
243.166	29914.94
243.629	27138.18
244.091	31287.84
244.553	34321.63
245.015	36901.44
245.477	47827.37
245.939	70297.53
246.4	74648.22
246.862	72658.22
247.324	68605.55
247.786	76972.35
248.247	101107.69
248.709	104730.29
249.17	78442.81
249.632	73955.44
250.093	85826.85
250.555	74251.11
251.016	45325.7
251.477	43036.07
251.939	46520.81
252.4	48883.3
252.861	58253.56
253.322	54232.17
253.783	64693.63
254.244	84048.06
254.705	66434.54
255.166	59227.58
255.627	58382.18
256.088	82372.08
256.549	87651.01
257.009	75572.9
257.47	91907.39
257.931	74967.95
258.391	56238.96
258.852	58019.39
259.312	60952.06
259.773	75390.04
260.233	63675.6
260.694	53767.44
261.154	61150.53
261.614	49085.08
262.074	43971.08
262.534	45703.03
262.994	43106.85
263.455	57557.26
263.915	48518.18
264.374	45738.68
264.834	50005.9
265.294	55551.93
265.754	57561.59
266.214	54523.4
266.673	51174.64
267.133	64643.66
267.593	64208.96
268.052	78654.38
268.512	68471.5
268.971	82566.99
269.431	90602.03
269.89	81175.53
270.349	121732.95
270.809	135877.28
271.268	122213.68
271.727	274389.49
272.186	177815.04
272.645	133448.46
273.104	96362.44
273.563	139608.41
274.022	110052.86
274.481	93623.44
274.94	72137.84
275.399	53685.11
275.857	62579.58
276.316	84722.03
276.775	75423.54
277.233	74268.35
277.692	69495.93
278.15	78603.59
278.609	80779.98
279.067	74700.86
279.525	69405.02
279.984	89668.35
280.442	107726.78
280.9	106072.62
281.358	69790.04
281.816	65043.5
282.274	63738.3
282.732	65909.82
283.19	66219.41
283.648	57173.23
284.106	60968.11
284.564	62017.95
285.021	57487.57
285.479	42839.5
285.937	39020.14
286.394	34213.34
286.852	35217.83
287.309	37003.85
287.767	35687.7
288.224	33944.54
288.682	37272.92
289.139	40850.61
289.596	37397.24
290.053	38915.93
290.511	49217.81
290.968	59721.11
291.425	81171.04
291.882	67493.67
292.339	58787.78
292.796	58477.35
293.252	55166.58
293.709	43830.37
294.166	39348.57
294.623	43527.3
295.079	41825.78
295.536	41974.64
295.992	38109.82
296.449	37700.41
296.905	39245.78
297.362	37653.73
297.818	39668.19
298.274	41157.02
298.731	42008.13
299.187	41628.4
299.643	44746.8
300.099	54145.61
300.555	59487.39
301.011	49766.56
301.467	47896.47
301.923	56159.97
302.379	54853.15
302.835	53878.37
303.291	54003.56
303.746	61501.05
304.202	77701.39
304.658	78071.61
305.113	52556.45
305.569	51530.39
306.024	55013.51
306.479	52563.06
306.935	44327.04
307.39	48513.19
307.845	44858.29
308.301	45173.36
308.756	44052.06
309.211	42487.77
309.666	43560.9
310.121	53980.59
310.576	54782.33
311.031	54364.74
311.486	62245.92
311.94	62169.33
312.395	83028.97
312.85	155863.59
313.305	765738.16
313.759	3954396.75
314.214	285971.88
314.668	226230.82
315.123	190140.33
315.577	68123.77
316.032	60522.82
316.486	75873.24
316.94	59766.23
317.394	41634.14
317.849	32374.62
318.303	30652.26
318.757	28975.77
319.211	32090.79
319.665	28129.14
320.119	28500.66
320.572	40970.82
321.026	38278.72
321.48	31839.87
321.934	34819.38
322.387	34917.11
322.841	37686.17
323.295	33823.66
323.748	38974.88
324.202	39517.87
324.655	47427.31
325.108	66108.32
325.562	46612.04
326.015	55456.54
326.468	41922.11
326.921	46818.88
327.374	43589.41
327.827	45400.92
328.28	51422.53
328.733	34424.46
329.186	30243.51
329.639	28791.05
330.092	24309.72
330.545	23130.61
330.997	23299.89
331.45	25433.47
331.903	29736.59
332.355	51217.57
332.808	49725.61
333.26	40994.18
333.713	44453.51
334.165	44802.62
334.617	59805.37
335.069	48361.19
335.522	87544.47
335.974	96811.59
336.426	88367.04
336.878	61283.45
337.33	31012.37
337.782	30252
338.234	37819.39
338.686	45295.88
339.137	53642.89
339.589	50515.53
340.041	39496.95
340.493	33934.97
340.944	34776.87
341.396	37465.69
341.847	31485.03
342.299	37095.27
342.75	45271.91
343.201	39668.16
343.653	45613.02
344.104	56018.85
344.555	44104.8
345.006	68868.56
345.457	52619.62
345.908	41837.04
346.359	39341.61
346.81	32067.97
347.261	33842.88
347.712	33355.99
348.163	35768.44
348.613	36164.44
349.064	33815.73
349.515	29601.41
349.965	30324.94
350.416	36597.24
350.866	40177.79
351.317	45517.18
351.767	75380.18
352.217	95318.96
352.668	79157.87
353.118	72478.77
353.568	70014.43
354.018	55240.33
354.468	58204.3
354.918	41722.57
355.368	36449.35
355.818	51450.09
356.268	147856.26
356.718	617563.76
357.168	153446.46
357.617	76962.26
358.067	85622.87
358.517	80097.61
358.966	93852.72
359.416	105206.19
359.865	113745.81
360.315	135532.65
360.764	63236.09
361.213	35400.7
361.663	33604.84
362.112	41528.8
362.561	67041.04
363.01	50535.1
363.459	42561.53
363.908	46118.46
364.357	39117.11
364.806	66146.93
365.255	45450.16
365.703	41588.61
366.152	41638.43
366.601	33761.57
367.05	27380.54
367.498	24879.38
367.947	26014.32
368.395	27046.8
368.844	23940.22
369.292	28923.57
369.74	19944.48
370.189	30571.76
370.637	35883.6
371.085	30996.12
371.533	37724.9
371.981	36397.18
372.429	34672.15
372.877	36135.11
373.325	30236.8
373.773	30845.99
374.221	27507.05
374.669	34135
375.116	29532.58
375.564	29775.35
376.012	33328.3
376.459	27493.13
376.907	32870.38
377.354	39851.75
377.801	37120.08
378.249	42718.4
378.696	54655.02
379.143	66225.24
379.591	70786.44
380.038	119809.06
380.485	86541.16
380.932	93416.72
381.379	85356.8
381.826	62849.38
382.273	44640.32
382.72	39090.23
383.166	38075
383.613	24695.56
384.06	22281.83
384.506	25761.46
384.953	18937.51
385.4	19111.17
385.846	16790.92
386.292	16439.38
386.739	16131.6
387.185	15993.22
387.631	16044.69
388.078	15577.63
388.524	16705.45
388.97	15452.27
389.416	12922.59
389.862	13774.38
390.308	13077.41
390.754	13282.71
391.2	14443.83
391.645	14815.49
392.091	14156.59
392.537	13683.12
392.983	13775.89
393.428	13543.43
393.874	14552.03
394.319	14602.73
394.765	13859.29
395.21	14283.45
395.655	13429.1
396.101	12597.25
396.546	11378.15
396.991	11542.17
397.436	10755.67
397.881	10400.8
398.326	9889.13
398.771	9364.03
399.216	8220.1
399.661	7422.73
400.106	7406.77
400.551	7595.83
400.995	6823.11
401.44	6767.99
401.885	6366.45
402.329	6444.37
402.774	6197.43
403.218	5993.06
403.663	5790.1
404.107	5953.82
404.551	6005.43
404.995	5520.7
405.44	5336.06
405.884	5434.56
406.328	5274.96
406.772	5271.53
407.216	4810.46
407.66	4659.43
408.104	4454.29
408.547	4179.06
408.991	4058.66
409.435	3916.71
409.879	3865.77
410.322	3819.91
410.766	3688.22
411.209	3507.67
411.653	3375.06
412.096	3307.79
412.54	3314.36
412.983	3291.8
413.426	3294.73
413.869	3297.46
414.312	3234.74
414.756	3122.32
415.199	2980.48
415.642	2895.8
416.085	2901.41
416.527	2879.15
416.97	2927.64
417.413	2773.26
417.856	2748.73
418.298	2727.63
418.741	2712.58
419.184	2709.9
419.626	2829.86
420.069	2832.9
420.511	2847.97
420.953	2783.15
421.396	2758.32
421.838	2692.08
422.28	2758.12
422.722	2767.36
423.164	2808.07
423.606	2757.94
424.048	2756.77
424.49	2616.72
424.932	2607.72
425.374	2580.17
425.816	2635.1
426.258	2690.66
426.699	2721.75
427.141	2684.25
427.582	2735.46
428.024	2730.66
428.465	2722.04
428.907	2659.82
429.348	2634.37
429.789	2630.3
430.231	2571.65
430.672	2606.5
431.113	2546.49
431.554	2510.23
431.995	2452.45
432.436	2360.6
432.877	2303.98
433.318	2259.15
433.759	2252.02
434.2	2248.53
434.64	2226.91
435.081	2233.68
435.522	2115.4
435.962	2039.66
436.403	1993.9
436.843	2021.92
437.284	1981.58
437.724	1932.29
438.164	1946.32
438.604	1904.71
439.045	1834.59
439.485	1756.68
439.925	1722.83
440.365	1683.69
440.805	1663.89
441.245	1645.94
441.685	1588.84
442.125	1582.38
442.564	1596.37
443.004	1560.43
443.444	1560.52
443.883	1567.19
444.323	1565.76
444.762	1578.31
445.202	1604.63
445.641	1634.05
446.081	1632.95
446.52	1648.18
446.959	1633.91
447.398	1595.5
447.837	1580.02
448.276	1556.27
448.716	1573.36
449.154	1593.39
449.593	1556.42
450.032	1555.36
450.471	1534.29
450.91	1541.32
451.349	1540.91
451.787	1541.3
452.226	1570.44
452.664	1576.8
453.103	1582.01
453.541	1584.77
453.98	1579.74
454.418	1596.64
454.856	1572.72
455.295	1573.19
455.733	1585.95
456.171	1598.33
456.609	1599.49
457.047	1601.56
457.485	1621.46
457.923	1624.25
458.361	1604.96
458.798	1615.08
459.236	1611.16
459.674	1625.43
460.111	1634.89
460.549	1619.91
460.987	1615.81
461.424	1613.75
461.862	1606.29
462.299	1583.37
462.736	1581.91
463.173	1588.92
463.611	1567.26
464.048	1561.55
464.485	1573.24
464.922	1558.13
465.359	1549.51
465.796	1516.29
466.233	1502.43
466.67	1483.67
467.106	1477.85
467.543	1463.53
467.98	1444
468.416	1410.34
468.853	1399.45
469.29	1358.56
469.726	1344.73
470.162	1310.2
470.599	1304.56
471.035	1295.74
471.471	1267.93
471.907	1265.01
472.344	1257.8
472.78	1260.22
473.216	1277.97
473.652	1264.75
474.088	1263.39
474.523	1257.98
474.959	1269.86
475.395	1258.6
475.831	1250.36
476.266	1258.17
476.702	1256.06
477.138	1244.48
477.573	1241.63
478.008	1235.41
478.444	1240.38
478.879	1249.68
479.314	1255.35
479.75	1254.85
480.185	1261.86
480.62	1275.34
481.055	1282.79
481.49	1291.23
481.925	1309.56
482.36	1330.95
482.795	1370.67
483.229	1409.98
483.664	1441.3
484.099	1449.43
484.534	1473.49
484.968	1488.7
485.403	1494.75
485.837	1496.03
486.271	1496.24
486.706	1500.59
487.14	1487.99
487.574	1464.63
488.009	1452.37
488.443	1441.34
488.877	1454.32
489.311	1459.07
489.745	1476.06
490.179	1488.47
490.613	1512.26
491.046	1524.13
491.48	1534.39
491.914	1534.08
492.348	1545.42
492.781	1553.8
493.215	1556.35
493.648	1560.9
494.082	1572.19
494.515	1571.58
494.948	1586.77
495.382	1599.27
495.815	1608.48
496.248	1618.97
496.681	1647.09
497.114	1671.21
497.547	1690.7
497.98	1715.74
498.413	1723.65
498.846	1741.04
499.279	1758.41
499.711	1764.4
500.144	1765.15
500.577	1781.82
501.009	1800.42
501.442	1814.63
501.874	1809.62
502.306	1808.86
502.739	1815.67
503.171	1842.3
503.603	1841.84
504.036	1853.03
504.468	1857.87
504.9	1873.81
505.332	1880.47
505.764	1880.04
506.196	1885.84
506.627	1907.01
507.059	1923.55
507.491	1934.38
507.923	1918.35
508.354	1937
508.786	1946.15
509.217	1969.34
509.649	1984.43
510.08	2008.6
510.512	2026.94
510.943	2042.99
511.374	2050.36
511.805	2075.78
512.237	2098.75
512.668	2145.78
513.099	2182.44
513.53	2218.38
513.961	2239.6
514.391	2281.97
514.822	2322.25
515.253	2369.88
515.684	2396.45
516.114	2431.22
516.545	2449.3
516.975	2477.29
517.406	2490.63
517.836	2478.03
518.267	2471.55
518.697	2485.28
519.127	2476.58
519.558	2474.06
519.988	2465.17
520.418	2467.41
520.848	2481.22
521.278	2482.32
521.708	2470.14
522.138	2476.26
522.567	2512.94
522.997	2539.11
523.427	2550.34
523.857	2564.1
524.286	2568.48
524.716	2580.05
525.145	2597.66
525.575	2602.13
526.004	2612.95
526.433	2613.22
526.863	2602.76
527.292	2575.79
527.721	2575.22
528.15	2575.55
528.579	2567.1
529.008	2574.8
529.437	2601.87
529.866	2614.77
530.295	2634.05
530.724	2644.26
531.152	2677.76
531.581	2692.04
532.01	2713.16
532.438	2720.83
532.867	2738.18
533.295	2759.66
533.723	2763.5
534.152	2755.56
534.58	2750.82
535.008	2723.48
535.436	2722.52
535.865	2731.02
536.293	2750.6
536.721	2771.05
537.149	2805.24
537.576	2805.04
538.004	2822.28
538.432	2832.81
538.86	2826.97
539.287	2836.02
539.715	2855.44
540.143	2859.54
540.57	2852.58
540.998	2845.46
541.425	2808.97
541.852	2776.06
542.28	2771.79
542.707	2746.14
543.134	2723.08
543.561	2715.34
543.988	2702.84
544.415	2700.29
544.842	2690.16
545.269	2677.44
545.696	2678.78
546.123	2696.79
546.549	2680.28
546.976	2660.07
547.403	2658.25
547.829	2660.28
548.256	2663.56
548.682	2658.08
549.108	2646.96
549.535	2645.61
549.961	2648.17
550.387	2627.61
550.813	2618.96
551.24	2627.77
551.666	2630.06
552.092	2615.95
552.518	2607.09
552.943	2597.77
553.369	2607.56
553.795	2614.41
554.221	2616.91
554.646	2613.75
555.072	2631.21
555.498	2641.95
555.923	2658.84
556.349	2682.2
556.774	2698.61
557.199	2705.13
557.625	2718
558.05	2712.98
558.475	2733.8
558.9	2735.08
559.325	2727.13
559.75	2721.01
560.175	2715.46
560.6	2708.19
561.025	2710.22
561.449	2716.63
561.874	2728.37
562.299	2739.46
562.723	2756.21
563.148	2746.2
563.572	2759.64
563.997	2780.31
564.421	2796.91
564.846	2803.47
565.27	2817.86
565.694	2821.47
566.118	2846.79
566.542	2865.96
566.966	2864.7
567.39	2866.25
567.814	2858.05
568.238	2865.53
568.662	2883.21
569.086	2894.76
569.509	2915.46
569.933	2899.47
570.357	2896.76
570.78	2871.79
571.204	2858.17
571.627	2850.42
572.05	2856.4
572.474	2862.78
572.897	2851.13
573.32	2845.97
573.743	2838.32
574.166	2815.99
574.589	2823.75
575.012	2820.09
575.435	2827.14
575.858	2821.32
576.281	2809.59
576.704	2790.28
577.126	2778.17
577.549	2767.15
577.972	2757.07
578.394	2745.44
578.817	2737.87
579.239	2712.32
579.661	2693.95
580.084	2672
580.506	2654.39
580.928	2654.03
581.35	2639.49
581.772	2637.57
582.194	2619.21
582.616	2604.65
583.038	2588.51
583.46	2577.88
583.882	2579.35
584.303	2592.71
584.725	2590.75
585.147	2594.78
585.568	2615.9
585.99	2641.79
586.411	2657.07
586.833	2687.17
587.254	2692.9
587.675	2722.22
588.096	2748.46
588.518	2743.36
588.939	2718.24
589.36	2717.32
589.781	2707.81
590.202	2659.79
590.623	2648.16
591.043	2648.82
591.464	2630.44
591.885	2627.69
592.305	2619.65
592.726	2598.54
593.147	2601.94
593.567	2594.65
593.987	2584.9
594.408	2579.58
594.828	2583.23
595.248	2576.48
595.669	2544.73
596.089	2535.42
596.509	2526.76
596.929	2506.31
597.349	2510.22
597.769	2496.08
598.189	2488.6
598.608	2493.42
599.028	2499.41
599.448	2501.49
599.867	2482.08
600.287	2478.73
600.706	2473.04
601.126	2458.37
601.545	2458.01
601.965	2458.66
602.384	2452.09
602.803	2461.89
603.222	2456.66
603.641	2448.52
604.061	2444.15
604.48	2441.07
604.898	2458.47
605.317	2472.41
605.736	2480.02
606.155	2477.04
606.574	2464.33
606.992	2478.06
607.411	2471.87
607.829	2462.43
608.248	2460.96
608.666	2461.54
609.085	2462.97
609.503	2452.39
609.921	2444.1
610.339	2451.98
610.758	2457.73
611.176	2453.97
611.594	2440.64
612.012	2438.64
612.43	2447.35
612.847	2463.92
613.265	2470.19
613.683	2483.9
614.101	2490.88
614.518	2488.88
614.936	2474.95
615.353	2451.65
615.771	2449.13
616.188	2454.92
616.606	2453.14
617.023	2444.37
617.44	2421.81
617.857	2414.59
618.274	2402.63
618.691	2395.57
619.108	2381.7
619.525	2374.57
619.942	2390.65
620.359	2401.66
620.776	2395.68
621.192	2390.81
621.609	2390.91
622.026	2406.14
622.442	2420.1
622.859	2430.09
623.275	2419.24
623.691	2433.19
624.108	2455.99
624.524	2485.9
624.94	2487.2
625.356	2509.7
625.772	2538.36
626.188	2562.77
626.604	2567.5
627.02	2559.21
627.436	2555.39
627.852	2567.69
628.268	2591.02
628.683	2577.08
629.099	2562.05
629.514	2552.41
629.93	2559.33
630.345	2567.84
630.761	2562.61
631.176	2571.76
631.591	2561.95
632.007	2552.51
632.422	2553.95
632.837	2535.2
633.252	2530.96
633.667	2513.26
634.082	2500.36
634.497	2479.19
634.911	2444.08
635.326	2441.18
635.741	2411.08
636.155	2399.03
636.57	2407.12
636.984	2412.73
637.399	2423.04
637.813	2431.54
638.228	2438.61
638.642	2456.14
639.056	2446.41
639.47	2457.52
639.884	2449.59
640.298	2447.49
640.712	2452.42
641.126	2436.64
641.54	2428.52
641.954	2428.69
642.368	2411.98
642.781	2400.86
643.195	2374.29
643.609	2381.71
644.022	2379.33
644.436	2379.62
644.849	2362.7
645.262	2346.71
645.676	2360.69
646.089	2356.66
646.502	2330
646.915	2326.5
647.328	2299.54
647.741	2298.75
648.154	2275.96
648.567	2270.17
648.98	2244.82
649.393	2250.16
649.805	2245.74
650.218	2231.36
650.631	2198.37
651.043	2185.77
651.456	2173.55
651.868	2176.42
652.28	2217.75
652.693	2250.77
653.105	2270.79
653.517	2294.74
653.929	2297.59
654.341	2312.05
654.753	2285.85
655.165	2304.11
655.577	2302.16
655.989	2296.36
656.401	2285.89
656.813	2206.38
657.224	2165.75
657.636	2105.32
658.047	2067.59
658.459	2027.69
658.87	2014.4
659.282	1994.05
659.693	1951.35
660.104	1922.96
660.515	1896.63
660.926	1894.77
661.338	1892.8
661.749	1881.62
662.159	1862.78
662.57	1857.54
662.981	1849.41
663.392	1832.19
663.803	1841.61
664.213	1838.06
664.624	1829.97
665.035	1838.39
665.445	1809.59
665.855	1793.82
666.266	1776.14
666.676	1770.99
667.086	1750.34
667.497	1746.9
667.907	1733.63
668.317	1712.38
668.727	1698.39
669.137	1699.9
669.547	1691.8
669.956	1694.14
670.366	1694.47
670.776	1694.11
671.186	1701.33
671.595	1705.08
672.005	1711.99
672.414	1706.8
672.824	1698.97
673.233	1710.43
673.642	1711.32
674.052	1713.59
674.461	1714.41
674.87	1723.15
675.279	1714.56
675.688	1716.56
676.097	1713.96
676.506	1702.16
676.915	1733.15
677.323	1736.27
677.732	1728.67
678.141	1723.87
678.549	1699.72
678.958	1695.5
679.366	1691.27
679.775	1701.29
680.183	1717.84
680.592	1730.05
681	1741.22
681.408	1721.71
681.816	1737.54
682.224	1757.34
682.632	1775.94
683.04	1838.58
683.448	1889.51
683.856	1952.19
684.264	2024.53
684.671	2092.98
685.079	2176.81
685.487	2267.09
685.894	2392.95
686.302	2492.92
686.709	2564.29
687.116	2653.31
687.524	2715.28
687.931	2761.96
688.338	2799.16
688.745	2819.27
689.152	2846.72
689.559	2891.79
689.966	2929.84
690.373	2926.63
690.78	2956.56
691.187	3031.19
691.593	3070.69
692	3098.73
692.407	3161.48
692.813	3243.65
693.22	3299.33
693.626	3356.59
694.032	3385.86
694.439	3461.94
694.845	3507.54
695.251	3580.09
695.657	3637.04
696.063	3747.35
696.469	3814.27
696.875	3872.43
697.281	3883.7
697.687	3908.54
698.093	3922.37
698.498	3992.47
698.904	4034.48
699.31	4124.6
699.715	4172.32
700.12	4263.47
700.526	4247
700.931	4306.99
701.337	4341.17
701.742	4349.56
702.147	4432.27
702.552	4437.17
702.957	4487.69
703.362	4482.34
703.767	4487.87
704.172	4511.52
704.577	4418.17
704.981	4453
705.386	4444.95
705.791	4407.52
706.195	4479.34
706.6	4464.3
707.004	4539.87
707.408	4475.61
707.813	4488.62
708.217	4450.23
708.621	4429.6
709.025	4530.26
709.43	4508.66
709.834	4563.73
710.237	4629.79
710.641	4590.38
711.045	4595.62
711.449	4569.7
711.853	4583.67
712.256	4612.56
712.66	4638.17
713.064	4710.3
713.467	4741.27
713.87	4858.3
714.274	4895.11
714.677	5006.24
715.08	5179.42
715.484	5360.61
715.887	5585.59
716.29	5801.14
716.693	6026.42
717.096	6285.39
717.499	6419.68
717.901	6431.51
718.304	6443.91
718.707	6453.53
719.109	6321.36
719.512	6270.43
719.915	6101.69
720.317	6019.8
720.719	6057.43
721.122	6014.53
721.524	5946.81
721.926	5887.55
722.328	5988.31
722.731	5966.56
723.133	5990.24
723.535	6195.41
723.937	6205.24
724.338	6251.57
724.74	6286.56
725.142	6201.34
725.544	6189.62
725.945	6209.39
726.347	6194.37
726.748	6179.51
727.15	6189.59
727.551	6137.69
727.952	6097.93
728.354	6057.59
728.755	6054.82
729.156	6002.87
729.557	5985.69
729.958	5845.52
730.359	5782.57
730.76	5761.36
731.161	5690.4
731.562	5656.14
731.962	5656.94
732.363	5583.22
732.763	5510.44
733.164	5543.41
733.564	5468.08
733.965	5359.83
734.365	5319.48
734.766	5342.04
735.166	5293.46
735.566	5229.79
735.966	5197.34
736.366	5187.21
736.766	5119.36
737.166	5152.11
737.566	5102.43
737.966	5069.79
738.365	5108.2
738.765	5098.25
739.165	5016.65
739.564	4986.01
739.964	5030.25
740.363	4977.31
740.763	4969.38
741.162	4953.72
741.561	4915.65
741.96	4867.01
742.36	4885.75
742.759	4889.2
743.158	4928.21
743.557	4941.37
743.955	4981.85
744.354	4933.62
744.753	4995.18
745.152	4952.39
745.55	5008.87
745.949	5001.5
746.348	5000.12
746.746	5017.96
747.144	4976.88
747.543	4951.94
747.941	5004.28
748.339	4930.45
748.737	4924.03
749.136	4913.49
749.534	4981.51
749.932	4952.42
750.33	4978.91
750.727	5039.52
751.125	5013.5
751.523	4998.33
751.921	5044.78
752.318	5009.24
752.716	5072.77
753.113	5085.43
753.511	5112.14
753.908	5111.95
754.305	5094.28
754.703	5158.34
755.1	5220.7
755.497	5281.61
755.894	5481.79
756.291	5670.59
756.688	6018.18
757.085	6481.52
757.482	7135.35
757.878	7846.68
758.275	8493.54
758.672	9381.28
759.068	10105.02
759.465	11137.85
759.861	12470.21
760.258	14011.17
760.654	14802.87
761.05	14681.54
761.447	13999.86
761.843	13027.3
762.239	12034.68
762.635	11580.6
763.031	11143.67
763.427	10511.88
763.822	9856.37
764.218	9207.9
764.614	8364.25
765.01	7802.09
765.405	7437.34
765.801	7161.6
766.196	6808.97
766.592	6607.28
766.987	6275.58
767.382	6049.63
767.778	5956.77
768.173	5818.07
768.568	5739.96
768.963	5608.28
769.358	5626.96
769.753	5576.82
770.148	5491.63
770.542	5488.86
770.937	5457.05
771.332	5552.8
771.726	5574.84
772.121	5509.99
772.515	5566.34
772.91	5552.24
773.304	5628.92
773.699	5559.46
774.093	5616.63
774.487	5676.07
774.881	5724.89
775.275	5721.68
775.669	5677.39
776.063	5723.97
776.457	5762.31
776.851	5687.56
777.245	5681.95
777.638	5717.84
778.032	5842.26
778.425	5806.16
778.819	5851.07
779.212	5805.2
779.606	5765.96
779.999	5786.51
780.392	5770.72
780.786	5858.75
781.179	5881.3
781.572	5926.1
781.965	5936.5
782.358	5874.12
782.751	5932.85
783.143	5882.69
783.536	5961.53
783.929	6007
784.322	6129.27
784.714	6162.99
785.107	6158.55
785.499	6232.73
785.891	6210.45
786.284	6191.6
786.676	6342.93
787.068	6325.07
787.46	6377.49
787.852	6400.73
788.245	6489.95
788.636	6522.48
789.028	6590.57
789.42	6635.33
789.812	6646.77
790.204	6747.69
790.595	6850.03
790.987	6643.07
791.378	6666.95
791.77	6803.97
792.161	6944.23
792.553	7004.86
792.944	6890.52
793.335	6820.76
793.726	6892.5
794.117	6984.22
794.508	7129.12
794.899	7103.73
795.29	7254.46
795.681	7317.08
796.072	7165.88
796.463	6972.26
796.853	6977.94
797.244	7138.29
797.634	7170.34
798.025	7167.47
798.415	7181.93
798.806	7274.23
799.196	7360.19
799.586	7411.79
799.976	7365.39
800.366	7607.51
800.756	7854.63
801.146	7809.6
801.536	7840.91
801.926	7917.08
802.316	7943.41
802.706	8011.88
803.095	7882.51
803.485	7988.75
803.874	8029.86
804.264	8302.54
804.653	8279.02
805.043	8434.75
805.432	8554.93
805.821	8558.56
806.21	8586.84
806.599	8712.85
806.988	8772.42
807.377	8890.99
807.766	9035.98
808.155	9337.99
808.544	9065.32
808.933	9076.54
809.321	9054.99
809.71	9367.92
810.098	9537.08
810.487	10024.48
810.875	10538.26
811.264	10559.24
811.652	10860.33
812.04	11005.52
812.428	11177.14
812.816	11983.51
813.204	12427.93
813.592	13015.4
813.98	13372.25
814.368	13280.85
814.756	13787.98
815.144	13704.54
815.531	14201.21
815.919	14133.17
816.306	14458.71
816.694	14137.62
817.081	14194.31
817.469	14562.53
817.856	14566.67
818.243	14855.45
818.63	15272.01
819.017	14826.97
819.404	14894.56
819.791	15297.94
820.178	15943.55
820.565	16216.83
820.952	17204.83
821.339	16688.41
821.725	16882.38
822.112	16085.07
822.498	16038.64
822.885	16163.62
823.271	16063.22
823.657	16506.19
824.044	16516.9
824.43	16590.1
824.816	16562.3
825.202	16093.64
825.588	17166.58
825.974	17189.88
826.36	17739.69
826.746	17778.91
827.132	18159.97
827.517	18145.35
827.903	17319.76
828.289	17350.74
828.674	16532.49
829.06	16415.72
829.445	16835.02
829.83	17209.81
830.216	17708.47
830.601	18092.1
830.986	17660.2
831.371	17505.74
831.756	18081.86
832.141	17625.7
832.526	17619.42
832.911	17913.95
833.295	17786.97
833.68	18277.84
834.065	17617.44
834.449	16657.83
834.834	16577.36
835.218	16572.3
835.603	16930.53
835.987	16698.23
836.371	17574.19
836.755	17462.27
837.139	17873.58
837.524	18127.63
837.908	17945.31
838.291	18007.06
838.675	18079.15
839.059	18295.36
839.443	18281.93
839.827	18048.64
840.21	18566.95
840.594	18399.16
840.977	18618.12
841.361	18609.56
841.744	19008.52
842.127	18839.6
842.511	19107.29
842.894	19725.26
843.277	20133.27
843.66	20704.87
844.043	20794.15
844.426	19944.74
844.809	19621.44
845.191	19659.83
845.574	19174.99
845.957	18793.52
846.339	18687.22
846.722	18136.3
847.104	18215.21
847.487	18036.04
847.869	18051.39
848.252	18346.04
848.634	18696.61
849.016	18981.77
849.398	19111.36
849.78	20008.56
850.162	20012.96
850.544	20454.27
850.926	21116.12
851.307	21032.27
851.689	21331.43
852.071	21821.68
852.452	22159.16
852.834	22139.43
853.215	22563.59
853.597	22732.66
853.978	23045.28
854.359	23536.94
854.741	22481.12
855.122	22378.86
855.503	22065.96
855.884	22206.84
856.265	22128.21
856.646	22259.21
857.026	21849.49
857.407	21776.28
857.788	21932.26
858.169	22234.96
858.549	21334.27
858.93	21996.18
859.31	22047.17
859.69	22264.96
860.071	21834.82
860.451	21612.98
860.831	20831.14
861.211	22045.96
861.591	22631.78
861.971	22618.66
862.351	22830.98
862.731	23242.65
863.111	23528.9
863.491	23870.91
863.87	24795.44
864.25	25171.38
864.629	24738.25
865.009	25280.85
865.388	26179.25
865.768	28037
866.147	27917.88
866.526	26352.14
866.905	26669.73
867.284	28157.66
867.663	26728.41
868.042	25633.32
868.421	25539.85
868.8	25967.45
869.179	26215.86
869.558	24688.7
869.936	22761.48
870.315	23165.56
870.693	23729.54
871.072	25563.98
871.45	24350.56
871.828	24672.8
872.207	25924.8
872.585	25530.89
872.963	26224.27
873.341	25308.35
873.719	25004.56
874.097	24693.26
874.475	25151.26
874.853	25733.91
875.23	24670.83
875.608	25690.5
875.986	27780
876.363	26558.17
876.741	27357.24
877.118	26669.49
877.495	27991.49
877.873	28461.32
878.25	29949.76
878.627	28726.19
879.004	29116.51
879.381	28970.28
879.758	28214.97
880.135	26271.83
880.512	27781.03
880.889	27055.09
881.265	26765.76
881.642	26541.2
882.019	26979.98
882.395	26435.6
882.772	27490.02
883.148	26297.87
883.524	26186.54
883.901	26029.86
884.277	26401.59
884.653	26231.42
885.029	26969.88
885.405	29862.12
885.781	29615.98
886.157	28399.44
886.532	28736.05
886.908	28723.58
887.284	31945.4
887.659	32981.27
888.035	34017.06
888.411	34919.99
888.786	35392.67
889.161	36637.46
889.537	35976.1
889.912	37152.92
890.287	37123.26
890.662	38098.38
891.037	37404.49
891.412	34890.38
891.787	34550.38
892.162	33343.49
892.536	34125.91
892.911	32845.95
893.286	32154.91
893.66	30863.54
894.035	31648.52
894.409	34468.12
894.784	33080.77
895.158	33632.8
895.532	35625.77
895.906	36610.63
896.281	37479.76
896.655	36870.31
897.029	42128.34
897.402	43862.49
897.776	48823.41
898.15	48659.36
898.524	48133.47
898.898	48781.23
899.271	54630.4
899.645	47303.52
900.018	45438.94
900.392	47108.41
900.765	47495.71
901.138	43938.63
901.511	43291.01
901.884	39755.55
902.258	36668.49
902.631	37882.74
903.003	43581
903.376	39308.8
903.749	44088.73
904.122	47185.64
904.495	51943.97
904.867	52609.7
905.24	45692.91
905.612	42519.18
905.985	43470.86
906.357	45450.25
906.729	43388.26
907.102	37047.53
907.474	35621.09
907.846	35848.76
908.218	35357.59
908.59	31229.35
908.962	30192.25
909.334	32502.73
909.705	34137.24
910.077	33137.67
910.449	34471.14
910.82	35408.65
911.192	38972.65
911.563	40502.88
911.935	43316.95
912.306	43395.72
912.677	44813.51
913.048	44356.06
913.419	48126.22
913.79	48393.71
914.161	51867.49
914.532	49561.59
914.903	45548.96
915.274	43227.43
915.645	42584.35
916.015	37475.7
916.386	35711.72
916.756	38032.8
917.127	39212.86
917.497	35015.13
917.868	38119.08
918.238	36217.36
918.608	37266.94
918.978	38040.4
919.348	40307.82
919.718	41659
920.088	40119
920.458	41660.87
920.828	43815
921.198	41540.4
921.567	44390.86
921.937	34371.34
922.306	34698.01
922.676	37405.94
923.045	31190.64
923.415	29616.94
923.784	26949.77
924.153	27711.96
924.522	27698.96
924.891	26043.44
925.26	27905.24
925.629	27245.16
925.998	31320.35
926.367	30566.05
926.736	29116.9
927.104	34695.08
927.473	37305.22
927.842	45098.03
928.21	44660.09
928.578	46958.11
928.947	44408.61
929.315	44693.1
929.683	52410.49
930.051	52821.76
930.42	61348.33
930.788	52461.01
931.156	52061.05
931.523	48806.75
931.891	45073.34
932.259	43308.76
932.627	50193.46
932.994	71012.15
933.362	58677.32
933.729	50952.97
934.097	48751.14
934.464	41261.55
934.831	47597.11
935.199	46937.54
935.566	45533.55
935.933	46105.81
936.3	55827.48
936.667	43454.88
937.034	39230.26
937.401	38772.33
937.767	33469.06
938.134	29822.85
938.501	42040.81
938.867	44799.21
939.234	75733.68
939.6	64641.43
939.967	71322.34
940.333	47781.4
940.699	40703.15
941.065	32636.1
941.431	42841.96
941.798	41321.75
942.163	54243.72
942.529	33936.68
942.895	31263.88
943.261	20241.48
943.627	26547.66
943.992	23247.85
944.358	23265.59
944.723	23346.49
945.089	22750.55
945.454	21004.95
945.82	22423.91
946.185	21561.84
946.55	24981.22
946.915	22407.08
947.28	26282.53
947.645	23144.99
948.01	21377.85
948.375	22299.86
948.74	26718.23
949.104	31188.12
949.469	45110.72
949.834	79710.22
950.198	75474.52
950.562	45203.31
950.927	37642.16
951.291	45290.79
951.655	38554.87
952.02	36179.1
952.384	27332.55
952.748	23793.44
953.112	23195.11
953.476	20162.32
953.839	18650.87
954.203	18450.96
954.567	23076.78
954.931	36338.07
955.294	31074.64
955.658	31263.68
956.021	53158.95
956.385	90227.62
956.748	133092.52
957.111	206251.95
957.474	231461.23
957.837	260707.1
958.2	197430.02
958.563	71061.09
958.926	48003.42
959.289	72804.46
959.652	81218.89
960.015	60875.75
960.377	87307.68
960.74	99618.81
961.102	171909.23
961.465	184309.67
961.827	98589.2
962.189	189158.86
962.552	131019.57
962.914	105103.56
963.276	68213.18
963.638	56401.74
964	55892.82
964.362	37752.75
964.724	36516.41
965.085	26056.7
965.447	21383.68
965.809	24375.13
966.17	24404.8
966.532	26427.35
966.893	24254.15
967.255	22059.81
967.616	26068.16
967.977	20861.78
968.338	22795.58
968.699	18728.74
969.061	18729.19
969.421	18859.62
969.782	21162.46
970.143	17868.19
970.504	18479.68
970.865	21001.1
971.225	21459.6
971.586	20988.42
971.946	29911.33
972.307	25949.52
972.667	33912.66
973.027	34874.52
973.388	42246.1
973.748	28717.84
974.108	31257.79
974.468	42336.06
974.828	32621.1
975.188	25115.3
975.548	23033.33
975.907	19335.56
976.267	21701.96
976.627	18230.36
976.986	18919.51
977.346	18039.37
977.705	17355.4
978.064	15808.86
978.424	13149.72
978.783	13604.8
979.142	15542.23
979.501	14875.26
979.86	15729.93
980.219	15149.71
980.578	19536.64
980.937	21859.13
981.296	19491.89
981.654	20031.05
982.013	31182.58
982.371	40503.54
982.73	37787.74
983.088	42725.3
983.447	45660.6
983.805	65285.71
984.163	136467.94
984.521	151490.37
984.879	222295.61
985.237	-361582.39
985.595	349174.92
985.953	86837.68
986.311	50054.07
986.669	29052.94
987.026	25062.95
987.384	33734.42
987.741	34906.38
988.099	24952
988.456	19880.59
988.814	18612.66
989.171	16175.15
989.528	15963.93
989.885	16841.99
990.242	13357.13
990.599	16663.22
990.956	13656.5
991.313	9548.42
991.67	7834.53
992.027	8294.93
992.383	7362.64
992.74	6451.6
993.096	6761.82
993.453	7001.82
993.809	7272.68
994.165	9683.71
994.522	8862.11
994.878	9752.46
995.234	12230.55
995.59	12030.74
995.946	11370.36
996.302	12991.56
996.658	15041.27
997.013	16573.88
997.369	19679.06
997.725	25169.15
998.08	16296.74
998.436	25125.47
998.791	34726.3
999.147	34618.11
999.502	37886.52
999.857	27602.55
1000.212	44944
1000.567	63868.64
1000.922	36847.33
1001.277	23399.62
1001.632	17315.43
1001.987	22302.96
1002.342	15996.34
1002.696	12762.87
1003.051	10195.83
1003.406	12336.14
1003.76	12295.26
1004.114	12141.99
1004.469	10239.14
1004.823	8509.3
1005.177	9187.54
1005.531	7288.51
1005.885	6466.95
1006.239	7304.46
1006.593	9172.8
1006.947	12269.08
1007.301	9209.12
1007.655	10033.78
1008.008	7355.87
1008.362	8264.98
1008.715	11748.29
1009.069	10677.16
1009.422	16066.43
1009.776	32162.67
1010.129	21357.86
1010.482	17848.15
1010.835	15106.97
1011.188	31412.24
1011.541	29517.03
1011.894	-180449.02
1012.247	528391.28
1012.6	35967.94
1012.952	22691.22
1013.305	11664.55
1013.657	8420.42
1014.01	7967.9
1014.362	6567.78
1014.715	5838.9
1015.067	5081.74
1015.419	4968.88
1015.771	4392.93
1016.123	3923.18
1016.475	4034.93
1016.827	4294.73
1017.179	4619.62
1017.531	4660.85
1017.883	4762.33
1018.234	4579.01
1018.586	5773.39
1018.938	6128.95
1019.289	8478.67
1019.64	9732.3
1019.992	9049.15
1020.343	8244
1020.694	6505.36
1021.045	5772.83
1021.396	6580.77
1021.747	7061.99
1022.098	8517.97
1022.449	6193.41
1022.8	5748.01
1023.151	3990.37
1023.501	3557.01
1023.852	3883.55
1024.202	4043.75
1024.553	4449.38
1024.903	4328.08
1025.253	3722.72
1025.604	3345.81
1025.954	4163.31
1026.304	5076.74
1026.654	5923.95
1027.004	8712.68
1027.354	14008.52
1027.703	13145.76
1028.053	17337.59
1028.403	25342.05
1028.753	36936.88
1029.102	50049.6
1029.452	257885.14
1029.801	11104.67
1030.15	7164.69
1030.499	6067.77
897.758	2675.01
901.051	2634.39
904.343	2672.52
907.636	2672.12
910.928	2737.49
914.22	2643.67
917.511	2651.72
920.803	2718.37
924.094	2738.72
927.384	2715.47
930.675	2683.99
933.965	2636.85
937.255	2644.91
940.544	2610.64
943.834	2550.7
947.123	2493.81
950.411	2592.81
953.7	2565.31
956.988	2529.28
960.276	2474.55
963.563	2557.4
966.851	2553.61
970.138	2611.58
973.424	2603.77
976.711	2552.86
979.997	2688.49
983.283	2723.85
986.568	2627.39
989.853	2649.45
993.138	2675
996.423	2754.51
999.708	2689.92
1002.992	2755.93
1006.275	2590.18
1009.559	2639.25
1012.842	2755.43
1016.125	2686.77
1019.408	2665.86
1022.69	2755.98
1025.972	2769.84
1029.254	2747.48
1032.536	2676.42
1035.817	2705.87
1039.098	2646.02
1042.379	2794.58
1045.659	2789.12
1048.939	2722.41
1052.219	2739.69
1055.498	2755.49
1058.778	2738.18
1062.057	2724.11
1065.335	2745.14
1068.614	2765.48
1071.892	2744.62
1075.17	2824.48
1078.447	2811.78
1081.724	2802.55
1085.001	2836.82
1088.278	2814.99
1091.554	2826.11
1094.83	2824.39
1098.106	2850.72
1101.382	2896.69
1104.657	2894.57
1107.932	2890.7
1111.206	2852.29
1114.481	2812.93
1117.755	2818.17
1121.029	2798.67
1124.302	2851
1127.575	2800.7
1130.848	2786.76
1134.121	2746.92
1137.393	2694.57
1140.665	2765.31
1143.937	2738.27
1147.208	2700.94
1150.48	2735.56
1153.75	2722.45
1157.021	2756.35
1160.291	2725.14
1163.561	2769.11
1166.831	2761.89
1170.101	2795.35
1173.37	2772.26
1176.639	2713.7
1179.907	2778.25
1183.176	2779.35
1186.444	2789.08
1189.711	2816.5
1192.979	2830.36
1196.246	2785.13
1199.513	2804.38
1202.78	2798.32
1206.046	2806.89
1209.312	2830.06
1212.578	2855.35
1215.843	2805
1219.108	2783.22
1222.373	2804.94
1225.638	2767.79
1228.902	2746.73
1232.166	2715.03
1235.43	2695.68
1238.693	2721.27
1241.956	2717.8
1245.219	2758.32
1248.482	2751.31
1251.744	2745.96
1255.006	2894.51
1258.268	2850.41
1261.529	2794.27
1264.79	2800.79
1268.051	2908.52
1271.312	2923.28
1274.572	2883.46
1277.832	2875.24
1281.092	2866.14
1284.351	2840.52
1287.61	2817.75
1290.869	2731.12
1294.128	2705.49
1297.386	2799.54
1300.644	2788.41
1303.902	2798.98
1307.159	2658.25
1310.416	2714.24
1313.673	2736.81
1316.93	2721.11
1320.186	2767
1323.442	2812.94
1326.697	2800.35
1329.953	2794.31
1333.208	2810.7
1336.463	2795.03
1339.717	2729.67
1342.972	2869.22
1346.226	2849.83
1349.479	2780.76
1352.733	2748.69
1355.986	2774.09
1359.238	2747.66
1362.491	2751.04
1365.743	2755.7
1368.995	2752.93
1372.247	2764.99
1375.498	2789.02
1378.749	2799.25
1382	2751.32
1385.251	2808.72
1388.501	2772.9
1391.751	2754.64
1395	2726.25
1398.25	2760.36
1401.499	2764.97
1404.748	2690.73
1407.996	2681.72
1411.244	2667.08
1414.492	2649.02
1417.74	2625.45
1420.987	2635.01
1424.234	2689.98
1427.481	2672.64
1430.728	2732.4
1433.974	2708.16
1437.22	2722.87
1440.465	2725.91
1443.711	2687.22
1446.956	2723.1
1450.201	2712.55
1453.445	2758.32
1456.689	2736.48
1459.933	2751.53
1463.177	2781.01
1466.42	2754.12
1469.663	2730.36
1472.906	2724.74
1476.148	2803.76
1479.391	2764.59
1482.633	2736.12
1485.874	2740.21
1489.115	2727.08
1492.356	2737.58
1495.597	2708.86
1498.838	2715.02
1502.078	2680.68
1505.318	2631.23
1508.557	2673.87
1511.797	2644.64
1515.036	2715.72
1518.274	2707.98
1521.513	2684.82
1524.751	2708.65
1527.989	2716.06
1531.227	2729.91
1534.464	2720.83
1537.701	2743.56
1540.938	2763.63
1544.174	2715.89
1547.41	2715.23
1550.646	2755.79
1553.882	2790.03
1557.117	2844.55
1560.352	2858.23
1563.587	2814.61
1566.821	2774.72
1570.055	2810.69
1573.289	2780.32
1576.523	2857.07
1579.756	2865.6
1582.989	2883.24
1586.222	2844.07
1589.454	2880.68
1592.686	2852.99
1595.918	2879.2
1599.15	2867.44
1602.381	2945.91
1605.612	2898.43
1608.843	2997.75
1612.073	2908.19
1615.303	2889.51
1618.533	2883.34
1621.762	2881.61
1624.992	2874.83
1628.221	2858.11
1631.449	2841.93
1634.678	2903.26
1637.906	2856.78
1641.134	2898.31
1644.361	2853.2
1647.588	2840.53
1650.815	2856.99
1654.042	2835.32
1657.269	2870.04
1660.495	2816.57
1663.72	2841.1
1666.946	2802.57
1670.171	2741.75
1673.396	2717.94
1676.621	2706.8
1679.845	2727.18
1683.069	2750.21
1686.293	2796.76
1689.517	2766.14
1692.74	2692.78
1695.963	2724.7
1699.185	2739.01
1702.408	2718.27
1705.63	2759.15
1708.852	2769.18
1712.073	2741.96
1715.294	2725.37
1718.515	2787.89
1721.736	2729.65
1724.956	2727.31
1728.176	2753.81
1731.396	2772.45
1734.616	2759.87
1737.835	2784.7
1741.054	2769.68
1744.272	2763.6
1747.491	2789.77
1750.709	2849.07
1753.927	2750.78
1757.144	2798.32
1760.361	2836.25
1763.578	2831.96
1766.795	2774.77
1770.011	2782.75
1773.227	2825.05
1776.443	2856.69
1779.658	2899.75
1782.874	2846.24
1786.089	2821.76
1789.303	2822.87
1792.518	2831.38
1795.732	2817.27
1798.945	2825.9
1802.159	2877.4
1805.372	2777.36
1808.585	2761.18
1811.797	2763.21
1815.01	2814.79
1818.222	2813.87
1821.434	2785.78
1824.645	2847.28
1827.856	2826.25
1831.067	2864.28
1834.278	2825.14
1837.488	2805.96
1840.698	2959.41
1843.908	2881.75
1847.117	2846.91
1850.326	2726.01
1853.535	2834.57
1856.744	2859.18
1859.952	2772.7
1863.16	2777.61
1866.368	2800.19
1869.575	2897.9
1872.782	2790.77
1875.989	2728.75
1879.196	2817.16
1882.402	2808.92
1885.608	2851.9
1888.814	2752.02
1892.019	2646.26
1895.224	2699.53
1898.429	2682.36
1901.634	2659.16
1904.838	2641.07
1908.042	2684.83
1911.246	2694.69
1914.449	2622.93
1917.652	2618.95
1920.855	2601.06
1924.058	2653.35
1927.26	2688.76
1930.462	2718.31
1933.664	2743.38
1936.865	2682.96
1940.066	2686.03
1943.267	2635.36
1946.467	2649.59
1949.668	2676.79
1952.868	2743.34
1956.067	2720.65
1959.267	2649.37
1962.466	2679
1965.665	2660.62
1968.863	2652.34
1972.061	2670.7
1975.259	2669.45
1978.457	2751.95
1981.654	2707.28
1984.852	2707.8
1988.048	2640.1
1991.245	2644.36
1994.441	2728.73
1997.637	2716.56
2000.833	2704.22
2004.028	2744.76
2007.223	2798.05
2010.418	2773.23
2013.613	2731.7
2016.807	2701.03
2020.001	2710.58
2023.194	2754.99
2026.388	2729.98
2029.581	2677.19
2032.774	2724.93
2035.966	2723.07
2039.158	2654.67
2042.35	2681.2
2045.542	2611.88
2048.733	2712.49
2051.924	2740.84
2055.115	2766.06
2058.306	2708.24
2061.496	2770.08
2064.686	2832.16
2067.875	2747.18
2071.065	2765.86
2074.254	2794.52
2077.442	2742.81
2080.631	2833.74
2083.819	2721.02
2087.007	2702.86
2090.195	2675.31
2093.382	2709.38
2096.569	2688.55
2099.756	2641.16
2102.942	2663.67
2106.128	2665.23
2109.314	2657.95
2112.5	2620.09
2115.685	2596.8
2118.87	2607.89
2122.055	2673.47
2125.239	2635.7
2128.424	2612.85
2131.608	2719.7
2134.791	2702.58
2137.974	2761.83
2141.157	2747.51
2144.34	2694.19
2147.523	2715.49
2150.705	2727.71
2153.887	2709.73
2157.068	2655.01
2160.25	2662.03
2163.431	2699.64
2166.611	2642.44
2169.792	2657.48
2172.972	2550.33
2176.152	2633.17
2179.331	2669.45
2182.511	2644.64
2185.69	2674.49
2188.868	2667.02
2192.047	2723.82
2195.225	2709.8
2198.403	2660.72
2201.58	2653.69
2204.758	2651.85
2207.935	2736.05
2211.111	2618.34
2214.288	2603.01
2217.464	2644.07
2220.64	2619.63
2223.815	2674.69
2226.991	2595.02
2230.166	2615.51
2233.34	2643.74
2236.515	2670.69
2239.689	2743.29
2242.863	2686.78
2246.036	2744.56
2249.209	2745.89
2252.382	2782.54
2255.555	2766.24
2258.727	2702.59
2261.9	2745.88
2265.071	2736.03
2268.243	2739.21
2271.414	2666.76
2274.585	2627.82
2277.756	2696.09
2280.926	2651.06
2284.096	2694.69
2287.266	2596.34
2290.436	2651.63
2293.605	2681.87
2296.774	2706.52
2299.942	2730.22
2303.111	2745.59
2306.279	2794.18
2309.447	2781.95
2312.614	2755.98
2315.781	2778.08
2318.948	2747.69
2322.115	2789.77
2325.281	2690.48
2328.447	2712.73
2331.613	2690.3
2334.779	2663.33
2337.944	2665.74
2341.109	2663.22
2344.274	2642.67
2347.438	2610.64
2350.602	2635.21
2353.766	2650.46
2356.929	2637.39
2360.092	2682.68
2363.255	2631.51
2366.418	2561.62
2369.58	2677.1
2372.742	2460.62
2375.904	2477.51
2379.066	2453.45
2382.227	2486.57
2385.388	2451.46
2388.548	2377.36
2391.709	2431.33
2394.869	2407.1
2398.029	2508.64
2401.188	2525.34
2404.347	2458.43
2407.506	2603.07
2410.665	2631.69
2413.823	2639
2416.981	2595
2420.139	2626.72
2423.296	2676.55
2426.453	2649.93
2429.61	2675.84
2432.767	2606.85
2435.923	2641.57
2439.079	2609.54
2442.235	2657.45
2445.391	2582.96
2448.546	2609.68
2451.701	2660.15
2454.855	2629.68
2458.009	2684.71
2461.163	2687.54
2464.317	2645.91
2467.471	2681.74
2470.624	2721.35
2473.777	2685.45
2476.929	2701.02
2480.082	2725.56
2483.234	2690.3
2486.385	2646.66
2489.537	2637.45
2492.688	2595.89
2495.839	2617.24
2498.989	2626.81
2502.14	2606.26
2505.29	2590.14
2508.439	2617.24
2511.589	2538.74
2514.738	2553.56
2517.887	2584.5
2521.035	2646.92
2524.183	2634.62
2527.331	2612.76
2530.479	2581.91
2533.627	2593.22
