Data from N_2_HIR_IL_4N_Splice17_12-10-36-876.txt Node
Date: Sat Mar 14 12:10:36 EDT 2020
User: sa697716
Spectrometer: FLMS03696
Trigger mode: 0
Integration Time (sec): 3.180400E-1
Scans to average: 20
Electric dark correction enabled: true
Nonlinearity correction enabled: true
Boxcar width: 5
XAxis mode: Wavelengths
Number of Pixels in Spectrum: 2048
>>>>>Begin Spectral Data<<<<<
187.83	-297896.29
188.298	2194.53
188.766	1167.71
189.233	1067.35
189.701	1539.42
190.169	2188.08
190.636	841.93
191.104	693.88
191.571	123.52
192.039	-48.74
192.506	-58.35
192.974	465.68
193.441	-630.77
193.908	-239.73
194.375	-45.75
194.842	48.21
195.31	165.61
195.777	165.29
196.244	350.09
196.711	423.46
197.177	521.82
197.644	738.13
198.111	1279.83
198.578	1823.98
199.045	1497.08
199.511	2429.67
199.978	2833.59
200.445	2408.65
200.911	2675.11
201.378	3022.75
201.844	2742.66
202.31	4681.56
202.777	4892.25
203.243	2749.39
203.709	2601.65
204.176	3099.22
204.642	2554.31
205.108	2382.94
205.574	1945.03
206.04	1787.05
206.506	1667.56
206.972	1574.57
207.438	1523.1
207.903	1743.91
208.369	1523.87
208.835	1529.62
209.301	1590.64
209.766	1630.15
210.232	1612.65
210.697	2005.39
211.163	2454.59
211.628	3697.12
212.094	3095.88
212.559	3807.72
213.024	2328.78
213.49	2843.58
213.955	2760.66
214.42	2685.67
214.885	2495.58
215.35	2402.13
215.815	2300.57
216.28	2438.82
216.745	1976.16
217.21	2138.74
217.675	1946.44
218.14	2193.28
218.604	2408.63
219.069	2710.44
219.534	2829.91
219.998	3274.38
220.463	3947.87
220.927	4822.4
221.392	4534.62
221.856	4584.93
222.32	5737.17
222.785	7087.27
223.249	8922.91
223.713	9967.62
224.177	9986.68
224.642	12817.87
225.106	15766.15
225.57	17220.02
226.034	12835.73
226.497	19442.08
226.961	17562.13
227.425	20480.13
227.889	22678.92
228.353	22655.06
228.816	46753.26
229.28	44668.39
229.744	37636.33
230.207	22905.29
230.671	22488.94
231.134	37120.53
231.597	42894.96
232.061	42828.96
232.524	41702.66
232.987	28729.68
233.45	25833.09
233.914	23150.78
234.377	23747.15
234.84	21717.03
235.303	25582.52
235.766	28530.18
236.229	29498.21
236.691	18574.19
237.154	20850.74
237.617	15699.48
238.08	16095.25
238.542	18863.93
239.005	13485.92
239.468	13382.23
239.93	12630.01
240.393	11476.34
240.855	10096.58
241.317	10327.75
241.78	12564.07
242.242	13013.72
242.704	14050.29
243.166	12223.53
243.629	11089.68
244.091	12781.74
244.553	14001.29
245.015	15047.96
245.477	19481.43
245.939	28555.96
246.4	30330.87
246.862	29532.22
247.324	27827.98
247.786	31133.91
248.247	40825.21
248.709	42170.67
249.17	31574.16
249.632	29756.35
250.093	34556.99
250.555	29823.26
251.016	18184.23
251.477	17254.36
251.939	18604.83
252.4	19520.86
252.861	23245.52
253.322	21672.98
253.783	25816.2
254.244	33492.92
254.705	26427.34
255.166	23470.98
255.627	23152.98
256.088	32683.71
256.549	34773.69
257.009	29950.75
257.47	36337.79
257.931	29584.01
258.391	22143.28
258.852	22832.67
259.312	23954.69
259.773	29575.63
260.233	25036.53
260.694	21125.93
261.154	23987.84
261.614	19257.3
262.074	17216.48
262.534	17919.64
262.994	16909.3
263.455	22536.2
263.915	18993.34
264.374	17898.18
264.834	19563.82
265.294	21680.96
265.754	22457.09
266.214	21279.67
266.673	19936.01
267.133	25189.06
267.593	25006.11
268.052	30597.21
268.512	26607.31
268.971	32119.51
269.431	35222.54
269.89	31581.05
270.349	47333.89
270.809	52837.41
271.268	47484.6
271.727	106636.5
272.186	69142.56
272.645	51878.98
273.104	37446.59
273.563	54278.75
274.022	42745.59
274.481	36409.71
274.94	28080.45
275.399	20906.86
275.857	24342.99
276.316	32961.36
276.775	29331.25
277.233	28891.19
277.692	27070.11
278.15	30674.41
278.609	31586.4
279.067	29235.42
279.525	27168.32
279.984	35086.73
280.442	42181.59
280.9	41626.77
281.358	27375.51
281.816	25566.05
282.274	25074.49
282.732	25926.15
283.19	26044.38
283.648	22483.32
284.106	23947.91
284.564	24387.49
285.021	22643.29
285.479	16869.63
285.937	15348.66
286.394	13467.51
286.852	13856.16
287.309	14547.58
287.767	14081.02
288.224	13403.8
288.682	14711.5
289.139	16149.63
289.596	14765.7
290.053	15326.71
290.511	19332.35
290.968	23451.36
291.425	31850.01
291.882	26476.7
292.339	23052.81
292.796	22804.37
293.252	21495.98
293.709	17076.34
294.166	15322.16
294.623	16952.71
295.079	16288.22
295.536	16369.01
295.992	14873.63
296.449	14716.5
296.905	15327.74
297.362	14702.59
297.818	15478.72
298.274	16056.47
298.731	16373.57
299.187	16187.87
299.643	17362.75
300.099	20993.53
300.555	23048.42
301.011	19249.86
301.467	18577.88
301.923	21716.7
302.379	21209.87
302.835	20835.04
303.291	20839.59
303.746	23749.21
304.202	30013.5
304.658	30161.03
305.113	20280.01
305.569	19876.09
306.024	21214.1
306.479	20165.65
306.935	17006.11
307.39	18578.85
307.845	17173.56
308.301	17310.17
308.756	16845.17
309.211	16232.12
309.666	16628.05
310.121	20668.21
310.576	20968.18
311.031	20760.85
311.486	23781.78
311.94	23763.99
312.395	31782.33
312.85	59673.84
313.305	292773.55
313.759	1517858.78
314.214	110056.32
314.668	87356.31
315.123	73470.74
315.577	26402.95
316.032	23488.91
316.486	29459.17
316.94	23259.08
317.394	16205.43
317.849	12593.51
318.303	11920.38
318.757	11237.19
319.211	12417.17
319.665	10847.15
320.119	10963.2
320.572	15693.57
321.026	14652.27
321.48	12211.25
321.934	13302.94
322.387	13329.02
322.841	14427.85
323.295	12975.08
323.748	14933.02
324.202	15155.81
324.655	18216.67
325.108	25484.12
325.562	17998.62
326.015	21402.49
326.468	16163.88
326.921	18071.15
327.374	16867.46
327.827	17532.7
328.28	19877.28
328.733	13333.85
329.186	11736.79
329.639	11178.23
330.092	9411.23
330.545	8983.25
330.997	9078.31
331.45	9921.49
331.903	11654.55
332.355	20044.96
332.808	19483.26
333.26	16058.58
333.713	17441.83
334.165	17551.45
334.617	23478.08
335.069	18962.08
335.522	34204.51
335.974	37835.08
336.426	34505.94
336.878	23893.25
337.33	12110.12
337.782	11832.85
338.234	14829.77
338.686	17738.89
339.137	20995.1
339.589	19732.82
340.041	15508.03
340.493	13342.87
340.944	13691.22
341.396	14764.7
341.847	12397.32
342.299	14634.56
342.75	17853.25
343.201	15589.82
343.653	17891.96
344.104	21983.45
344.555	17298.95
345.006	26866.28
345.457	20608.78
345.908	16352.08
346.359	15378.23
346.81	12500.8
347.261	13159.96
347.712	12973.19
348.163	13900.56
348.613	14078.7
349.064	13150.28
349.515	11525
349.965	11822.06
350.416	14206.07
350.866	15563.25
351.317	17583.84
351.767	29156.29
352.217	36773.51
352.668	30528.82
353.118	27948.26
353.568	26976.97
354.018	21335.68
354.468	22524.84
354.918	16166.29
355.368	14133.42
355.818	19989.54
356.268	57663.72
356.718	241792.75
357.168	60256.16
357.617	30164.81
358.067	33549.41
358.517	31411.47
358.966	36888.74
359.416	41355.42
359.865	44699.04
360.315	53256.11
360.764	24903.35
361.213	13903.75
361.663	13151.88
362.112	16230.71
362.561	26243.61
363.01	19813.79
363.459	16664.83
363.908	18009.03
364.357	15298.04
364.806	25796.59
365.255	17739.79
365.703	16226
366.152	16261.94
366.601	13201.15
367.05	10744.14
367.498	9790.22
367.947	10261.91
368.395	10675.96
368.844	9470.08
369.292	11395.45
369.74	7875.07
370.189	12076.17
370.637	14173.11
371.085	12241.97
371.533	14880.23
371.981	14326.33
372.429	13642.1
372.877	14173.02
373.325	11902.98
373.773	12091.15
374.221	10785.76
374.669	13391.88
375.116	11562.61
375.564	11651.56
376.012	13044.05
376.459	10774.51
376.907	12879.27
377.354	15560.32
377.801	14550.68
378.249	16693.84
378.696	21406.74
379.143	25907.05
379.591	27701.04
380.038	46992.86
380.485	34062.73
380.932	36852.72
381.379	33765.87
381.826	24907.02
382.273	17770.04
382.72	15588.04
383.166	15231.54
383.613	9912.68
384.06	8956.49
384.506	10391.33
384.953	7643.12
385.4	7714.2
385.846	6777.08
386.292	6636.78
386.739	6518.67
387.185	6471.14
387.631	6476.13
388.078	6313.77
388.524	6780.94
388.97	6292.06
389.416	5261.55
389.862	5611.39
390.308	5334.9
390.754	5440.27
391.2	5916.91
391.645	6083.28
392.091	5841.34
392.537	5678.55
392.983	5703.15
393.428	5629.02
393.874	6069.27
394.319	6125.86
394.765	5849.65
395.21	6046.13
395.655	5687.63
396.101	5369.03
396.546	4872.43
396.991	4933.75
397.436	4610.27
397.881	4474.5
398.326	4259.37
398.771	4037.99
399.216	3548.22
399.661	3208.57
400.106	3211.95
400.551	3307.54
400.995	2974.13
401.44	2951.32
401.885	2784.97
402.329	2823.5
402.774	2719.58
403.218	2643.47
403.663	2563.13
404.107	2649.57
404.551	2682.44
404.995	2469.53
405.44	2390.81
405.884	2440.37
406.328	2376.82
406.772	2378.11
407.216	2172.13
407.66	2111.58
408.104	2017.42
408.547	1899.65
408.991	1840.83
409.435	1779.74
409.879	1759.09
410.322	1741.17
410.766	1685.96
411.209	1607.18
411.653	1546.95
412.096	1520.09
412.54	1525.56
412.983	1516.8
413.426	1522.29
413.869	1526.29
414.312	1500.2
414.756	1453.09
415.199	1390.84
415.642	1353.86
416.085	1357.28
416.527	1353.3
416.97	1378.57
417.413	1308.43
417.856	1296.24
418.298	1286.89
418.741	1279.88
419.184	1281
419.626	1333.47
420.069	1334
420.511	1342.11
420.953	1315.5
421.396	1304.54
421.838	1271.84
422.28	1302.26
422.722	1314.25
423.164	1333.85
423.606	1313.8
424.048	1310.66
424.49	1248.18
424.932	1244.41
425.374	1228.77
425.816	1249.15
426.258	1273.2
426.699	1290.05
427.141	1273.78
427.582	1288.93
428.024	1280.14
428.465	1274.38
428.907	1242.04
429.348	1227.52
429.789	1229.03
430.231	1203.32
430.672	1219.88
431.113	1193.15
431.554	1175.56
431.995	1146.91
432.436	1108.56
432.877	1085.9
433.318	1068.1
433.759	1067.05
434.2	1067.13
434.64	1054.72
435.081	1057.06
435.522	1003.93
435.962	969.64
436.403	949.9
436.843	962.76
437.284	942.21
437.724	918.5
438.164	920.31
438.604	898.95
439.045	865.73
439.485	829.76
439.925	812.82
440.365	794.46
440.805	782.54
441.245	772.78
441.685	744.83
442.125	739.96
442.564	742.6
443.004	724.32
443.444	722.07
443.883	723.22
444.323	718.66
444.762	720.07
445.202	728.01
445.641	740.77
446.081	736.08
446.52	740.52
446.959	731.95
447.398	714.85
447.837	707.96
448.276	695.73
448.716	703.77
449.154	708.54
449.593	690.57
450.032	687.57
450.471	674.59
450.91	674.31
451.349	673.9
451.787	670.21
452.226	678.8
452.664	676.92
453.103	677.87
453.541	673.72
453.98	672.12
454.418	676.6
454.856	664.14
455.295	661.72
455.733	665.28
456.171	666.68
456.609	668.38
457.047	668.72
457.485	678.55
457.923	678.01
458.361	668.05
458.798	670.05
459.236	668.56
459.674	673.21
460.111	675.87
460.549	669.02
460.987	667.3
461.424	665.85
461.862	662.13
462.299	650.98
462.736	650
463.173	653.45
463.611	646.31
464.048	644.27
464.485	650.38
464.922	645.92
465.359	643.09
465.796	634.82
466.233	629.1
466.67	624.11
467.106	624.8
467.543	618.65
467.98	610.73
468.416	596.15
468.853	591.72
469.29	573.78
469.726	566.17
470.162	552.24
470.599	545.43
471.035	541.5
471.471	528.54
471.907	524.05
472.344	521.64
472.78	523.21
473.216	528.56
473.652	522.6
474.088	521.27
474.523	520.55
474.959	525.24
475.395	519.9
475.831	515.66
476.266	517.8
476.702	516.16
477.138	509.58
477.573	507.26
478.008	504.13
478.444	505.48
478.879	508.86
479.314	509.91
479.75	508.2
480.185	509.82
480.62	513.17
481.055	514.62
481.49	517.91
481.925	524.71
482.36	532.29
482.795	546.04
483.229	559.34
483.664	569.17
484.099	569.16
484.534	577.05
484.968	580.68
485.403	582.09
485.837	580.82
486.271	578.41
486.706	578.4
487.14	571.44
487.574	562.89
488.009	557
488.443	552.11
488.877	557.52
489.311	558
489.745	564.33
490.179	568.53
490.613	578.44
491.046	582.09
491.48	585.28
491.914	584.74
492.348	587.72
492.781	590.93
493.215	591.36
493.648	591.34
494.082	594.94
494.515	594
494.948	598.97
495.382	601.29
495.815	604.18
496.248	607.8
496.681	616.72
497.114	624.95
497.547	631.83
497.98	641.6
498.413	645.91
498.846	652.47
499.279	658.59
499.711	660.96
500.144	661.95
500.577	668.69
501.009	676.38
501.442	683.56
501.874	683.72
502.306	684.41
502.739	690.02
503.171	701.23
503.603	703.88
504.036	711.27
504.468	715.1
504.9	723.22
505.332	728.34
505.764	732.03
506.196	737.24
506.627	748.86
507.059	759.37
507.491	766.39
507.923	765.03
508.354	777.04
508.786	785.08
509.217	799.84
509.649	812.69
510.08	829.23
510.512	842.46
510.943	855.41
511.374	865.05
511.805	882.78
512.237	898.74
512.668	926.11
513.099	948.28
513.53	970.76
513.961	987.9
514.391	1014
514.822	1041.84
515.253	1072.5
515.684	1094.81
516.114	1121.55
516.545	1139.93
516.975	1163.45
517.406	1179.57
517.836	1184.93
518.267	1193.98
518.697	1212.16
519.127	1219.53
519.558	1228.5
519.988	1235.22
520.418	1247.01
520.848	1264.65
521.278	1274.64
521.708	1297.41
522.138	1311.23
522.567	1340.77
522.997	1365.72
523.427	1381.42
523.857	1398.01
524.286	1408.94
524.716	1423.2
525.145	1442.52
525.575	1453.92
526.004	1469.36
526.433	1462.69
526.863	1465
527.292	1457.3
527.721	1464.35
528.15	1472.51
528.579	1475.82
529.008	1488.48
529.437	1511.17
529.866	1525.18
530.295	1542.18
530.724	1554.48
531.152	1579.7
531.581	1593.75
532.01	1611.44
532.438	1620.92
532.867	1635.68
533.295	1652.97
533.723	1658.55
534.152	1657.39
534.58	1658.28
535.008	1644.99
535.436	1648.65
535.865	1656.62
536.293	1671.15
536.721	1686.61
537.149	1709.07
537.576	1710.6
538.004	1723.25
538.432	1730.76
538.86	1729.95
539.287	1736.26
539.715	1748.51
540.143	1750.56
540.57	1747.42
540.998	1744.49
541.425	1725.26
541.852	1706.54
542.28	1706.81
542.707	1692.44
543.134	1681.5
543.561	1677.78
543.988	1671.78
544.415	1672.13
544.842	1668.47
545.269	1663.25
545.696	1665.28
546.123	1677.08
546.549	1668.56
546.976	1657.33
547.403	1657.76
547.829	1660.15
548.256	1663.91
548.682	1661.09
549.108	1655.08
549.535	1655.04
549.961	1656.28
550.387	1645.53
550.813	1640.01
551.24	1646.09
551.666	1647.77
552.092	1638.49
552.518	1632.01
552.943	1625.94
553.369	1632.05
553.795	1637.23
554.221	1636.64
554.646	1633.35
555.072	1640.95
555.498	1645.07
555.923	1652.14
556.349	1663.4
556.774	1669.6
557.199	1669.91
557.625	1674.19
558.05	1666.99
558.475	1674.77
558.9	1673.47
559.325	1664.01
559.75	1657.51
560.175	1648.85
560.6	1640.66
561.025	1636.61
561.449	1636.44
561.874	1639.08
562.299	1640.77
562.723	1645.78
563.148	1633.46
563.572	1633.23
563.997	1639.05
564.421	1640.99
564.846	1638.96
565.27	1639.04
565.694	1633.87
566.118	1640.38
566.542	1643.1
566.966	1633.71
567.39	1627.44
567.814	1615.07
568.238	1612.77
568.662	1615.08
569.086	1614.51
569.509	1619.03
569.933	1604.81
570.357	1597.08
570.78	1576.9
571.204	1564.16
571.627	1553.3
572.05	1548.88
572.474	1546.73
572.897	1533.79
573.32	1525.79
573.743	1515.07
574.166	1497.14
574.589	1493.91
575.012	1484.9
575.435	1482.28
575.858	1472.86
576.281	1461.59
576.704	1446.31
577.126	1433.98
577.549	1423.38
577.972	1412.22
578.394	1402.41
578.817	1395.22
579.239	1377.86
579.661	1366.22
580.084	1351.43
580.506	1338.25
580.928	1334.55
581.35	1324.79
581.772	1321.13
582.194	1308.12
582.616	1297.71
583.038	1283.87
583.46	1273.81
583.882	1271.5
584.303	1272.36
584.725	1267.78
585.147	1268.75
585.568	1275.07
585.99	1282.35
586.411	1284.31
586.833	1294.6
587.254	1292.72
587.675	1302.73
588.096	1311.12
588.518	1304.37
588.939	1290.4
589.36	1288.17
589.781	1277.76
590.202	1253.48
590.623	1245.35
591.043	1243.17
591.464	1232.12
591.885	1227.45
592.305	1221.57
592.726	1209.73
593.147	1209.29
593.567	1203.54
593.987	1195.37
594.408	1189.77
594.828	1187.31
595.248	1182.24
595.669	1166.94
596.089	1160.01
596.509	1154.96
596.929	1144.27
597.349	1143.64
597.769	1135.59
598.189	1128.59
598.608	1128.87
599.028	1129.7
599.448	1128.19
599.867	1116.4
600.287	1113.38
600.706	1110.37
601.126	1102.12
601.545	1100.33
601.965	1099.54
602.384	1094.98
602.803	1097.26
603.222	1093.7
603.641	1088.38
604.061	1085.37
604.48	1082.51
604.898	1087.06
605.317	1089.45
605.736	1089.86
606.155	1086.81
606.574	1077.93
606.992	1081.05
607.411	1077.08
607.829	1068.9
608.248	1065.52
608.666	1062.39
609.085	1060.53
609.503	1053.73
609.921	1048.95
610.339	1049.91
610.758	1048.6
611.176	1044.45
611.594	1036.99
612.012	1033.14
612.43	1035.19
612.847	1039.56
613.265	1040.63
613.683	1043.88
614.101	1044.32
614.518	1040.38
614.936	1033.28
615.353	1021.36
615.771	1018.48
616.188	1018.1
616.606	1014.86
617.023	1008.98
617.44	997.89
617.857	991.29
618.274	983.34
618.691	977.5
619.108	971.01
619.525	964.94
619.942	968.92
620.359	970.27
620.776	965.33
621.192	961.91
621.609	959.71
622.026	963.71
622.442	967.09
622.859	970.4
623.275	965.25
623.691	967.22
624.108	975.83
624.524	986.06
624.94	985.58
625.356	992.66
625.772	1002.42
626.188	1010.05
626.604	1010.91
627.02	1009.26
627.436	1007.54
627.852	1012.29
628.268	1022.48
628.683	1015.28
629.099	1008.85
629.514	1005.25
629.93	1006.84
630.345	1010.18
630.761	1006.91
631.176	1009.79
631.591	1004.75
632.007	999.01
632.422	996.29
632.837	986.92
633.252	984.16
633.667	975.74
634.082	967.57
634.497	957.9
634.911	942.76
635.326	939.38
635.741	925.36
636.155	916.45
636.57	916.95
636.984	914.84
637.399	914.11
637.813	911.51
638.228	908.66
638.642	910.71
639.056	901.15
639.47	899
639.884	890.48
640.298	882.86
640.712	880.19
641.126	868.31
641.54	860.05
641.954	853.81
642.368	844.5
642.781	837.99
643.195	823.16
643.609	822.06
644.022	815.6
644.436	811.63
644.849	802.13
645.262	791.88
645.676	791.9
646.089	787.14
646.502	776.38
646.915	770.99
647.328	758.86
647.741	757.5
648.154	748.94
648.567	748.33
648.98	738.54
649.393	739.79
649.805	737.95
650.218	733.36
650.631	724.25
651.043	720.07
651.456	717.71
651.868	718.12
652.28	731.19
652.693	740.87
653.105	745.6
653.517	753.24
653.929	752.62
654.341	757.23
654.753	748.32
655.165	752.37
655.577	751.43
655.989	747.93
656.401	743.28
656.813	717.87
657.224	705.55
657.636	684.93
658.047	675.06
658.459	663.11
658.87	658.05
659.282	651.56
659.693	638.43
660.104	630.44
660.515	622.51
660.926	622.48
661.338	621.72
661.749	618.69
662.159	614.44
662.57	611.5
662.981	609.72
663.392	605.33
663.803	610.28
664.213	610.78
664.624	609.1
665.035	613.49
665.445	606.04
665.855	604.16
666.266	598.96
666.676	598.53
667.086	594.34
667.497	595.78
667.907	594
668.317	587.65
668.727	587.73
669.137	588.94
669.547	588.24
669.956	591.23
670.366	593.27
670.776	596.42
671.186	601.31
671.595	604.82
672.005	607.87
672.414	607.56
672.824	608.7
673.233	612.21
673.642	615.87
674.052	619.55
674.461	623.24
674.87	627.5
675.279	625.77
675.688	628.05
676.097	630.19
676.506	629.07
676.915	641.69
677.323	644.95
677.732	644.26
678.141	644.36
678.549	636.35
678.958	634.85
679.366	634.44
679.775	639.47
680.183	648.6
680.592	653.14
681	658.19
681.408	652.51
681.816	658.49
682.224	663.9
682.632	672.13
683.04	694.37
683.448	712.92
683.856	735.72
684.264	760.99
684.671	783.15
685.079	809.61
685.487	840.97
685.894	885.88
686.302	920
686.709	948.54
687.116	979.38
687.524	1005.12
687.931	1026.37
688.338	1043.28
688.745	1057.88
689.152	1075.85
689.559	1106.17
689.966	1134.78
690.373	1148.76
690.78	1177.35
691.187	1223.49
691.593	1259.95
692	1291.55
692.407	1340.74
692.813	1401.59
693.22	1452.19
693.626	1503.95
694.032	1547.01
694.439	1610.73
694.845	1663.71
695.251	1729.65
695.657	1790.1
696.063	1877.44
696.469	1947.01
696.875	2011.14
697.281	2051.48
697.687	2101.59
698.093	2145.54
698.498	2220.57
698.904	2280.76
699.31	2365.03
699.715	2430.35
700.12	2519.8
700.526	2548.38
700.931	2621.75
701.337	2680.32
701.742	2725.22
702.147	2809.22
702.552	2848.4
702.957	2914.6
703.362	2945.05
703.767	2985.33
704.172	3034.84
704.577	3005.36
704.981	3060.4
705.386	3087.64
705.791	3092.68
706.195	3172.03
706.6	3192.67
707.004	3279.57
707.408	3261.36
707.813	3299.83
708.217	3297.6
708.621	3309.82
709.025	3414.74
709.43	3425.75
709.834	3492.85
710.237	3569.53
710.641	3566.83
711.045	3600.91
711.449	3606.51
711.853	3646.1
712.256	3696.34
712.66	3744.03
713.064	3826.59
713.467	3875.73
713.87	3995.11
714.274	4049.44
714.677	4166.41
715.08	4333.26
715.484	4504.73
715.887	4711.23
716.29	4913.39
716.693	5123.44
717.096	5368.02
717.499	5508.67
717.901	5544.25
718.304	5580.7
718.707	5614.79
719.109	5525.66
719.512	5506.42
719.915	5382.93
720.317	5335.68
720.719	5393.9
721.122	5377.97
721.524	5338.65
721.926	5305.39
722.328	5414.55
722.731	5414.74
723.133	5453.5
723.535	5657.25
723.937	5683.89
724.338	5747.3
724.74	5799.14
725.142	5730.54
725.544	5739.45
725.945	5770.47
726.347	5773.9
726.748	5773.67
727.15	5795.66
727.551	5761.24
727.952	5738.96
728.354	5715.92
728.755	5720.34
729.156	5684.26
729.557	5687.63
729.958	5565.44
730.359	5516.96
730.76	5506.2
731.161	5453.14
731.562	5433.35
731.962	5444.64
732.363	5381.31
732.763	5320.7
733.164	5363.61
733.564	5297.61
733.965	5204.85
734.365	5172.7
734.766	5207.65
735.166	5170.73
735.566	5115.53
735.966	5091.94
736.366	5090.47
736.766	5029.18
737.166	5065.56
737.566	5026.07
737.966	5001.21
738.365	5040.55
738.765	5036.27
739.165	4957.44
739.564	4928.84
739.964	4978.39
740.363	4930.17
740.763	4928.44
741.162	4918.86
741.561	4887.92
741.96	4841.03
742.36	4863.36
742.759	4872.38
743.158	4914.52
743.557	4933.39
743.955	4979.25
744.354	4930.16
744.753	4993.57
745.152	4950.58
745.55	5010.27
745.949	5003.56
746.348	5004.82
746.746	5024.16
747.144	4983.04
747.543	4959.82
747.941	5010.96
748.339	4937.24
748.737	4931.32
749.136	4921.05
749.534	4990.28
749.932	4961.34
750.33	4985.36
750.727	5046.62
751.125	5021.73
751.523	5003.32
751.921	5047.53
752.318	5011.99
752.716	5073.91
753.113	5087.1
753.511	5114.59
753.908	5113.63
754.305	5094.93
754.703	5161.58
755.1	5222.92
755.497	5285.37
755.894	5488.15
756.291	5674.7
756.688	6018.55
757.085	6471.36
757.482	7109.4
757.878	7804.12
758.275	8430.43
758.672	9294.34
759.068	9988.67
759.465	10994.38
759.861	12288.52
760.258	13781.85
760.654	14551.04
761.05	14423.51
761.447	13762.88
761.843	12819.33
762.239	11843.15
762.635	11406.21
763.031	10986.63
763.427	10380.08
763.822	9737.58
764.218	9106.9
764.614	8285.63
765.01	7739.94
765.405	7388.42
765.801	7122.12
766.196	6779.16
766.592	6590.34
766.987	6265.63
767.382	6047.76
767.778	5959.2
768.173	5824.09
768.568	5748.1
768.963	5618.99
769.358	5638.07
769.753	5587.89
770.148	5500.98
770.542	5499.85
770.937	5467.16
771.332	5563.15
771.726	5580.48
772.121	5514.75
772.515	5572.99
772.91	5557.27
773.304	5632.39
773.699	5565.11
774.093	5621.88
774.487	5679.51
774.881	5726.96
775.275	5720.89
775.669	5676.15
776.063	5725.65
776.457	5763.91
776.851	5686.56
777.245	5678.62
777.638	5712.99
778.032	5836.51
778.425	5796.35
778.819	5840.14
779.212	5794.38
779.606	5752.31
779.999	5773.81
780.392	5753.21
780.786	5841.63
781.179	5864.96
781.572	5907.97
781.965	5922.12
782.358	5854.06
782.751	5915.59
783.143	5866.43
783.536	5942.51
783.929	5988.37
784.322	6109.22
784.714	6140.67
785.107	6128.84
785.499	6202.97
785.891	6181.88
786.284	6157.46
786.676	6305.41
787.068	6282.89
787.46	6334.99
787.852	6350.98
788.245	6440.94
788.636	6466.34
789.028	6534.4
789.42	6575.87
789.812	6580.87
790.204	6680.66
790.595	6781.24
790.987	6575.84
791.378	6594.73
791.77	6728.72
792.161	6872.12
792.553	6923.62
792.944	6809.31
793.335	6738.44
793.726	6814.29
794.117	6907.5
794.508	7052.69
794.899	7022.1
795.29	7167.42
795.681	7234.73
796.072	7085.57
796.463	6887.92
796.853	6896.96
797.244	7062.33
797.634	7095.29
798.025	7088.25
798.415	7096.73
798.806	7182.71
799.196	7269.48
799.586	7322.73
799.976	7275.77
800.366	7511.64
800.756	7757.71
801.146	7714.95
801.536	7736.54
801.926	7812.54
802.316	7843.62
802.706	7917.76
803.095	7783.53
803.485	7886.24
803.874	7927.82
804.264	8195.8
804.653	8170.31
805.043	8321.64
805.432	8433.59
805.821	8435.24
806.21	8457.74
806.599	8575.83
806.988	8615.54
807.377	8733.6
807.766	8867.25
808.155	9157.48
808.544	8886.34
808.933	8898.26
809.321	8873.37
809.71	9175.58
810.098	9335.71
810.487	9810.49
810.875	10303.55
811.264	10329.71
811.652	10617.16
812.04	10765.36
812.428	10927.47
812.816	11703.52
813.204	12133.78
813.592	12702.91
813.98	13051.2
814.368	12953.73
814.756	13438.69
815.144	13350.02
815.531	13827.72
815.919	13753.44
816.306	14067.23
816.694	13751.49
817.081	13808.16
817.469	14154.96
817.856	14151.53
818.243	14420.06
818.63	14821.57
819.017	14397.89
819.404	14463.07
819.791	14851.51
820.178	15484.87
820.565	15744.08
820.952	16692.17
821.339	16180.99
821.725	16371.85
822.112	15607.87
822.498	15568.53
822.885	15699.96
823.271	15591.61
823.657	16017.9
824.044	16021.89
824.43	16097.27
824.816	16052.44
825.202	15616.87
825.588	16666.65
825.974	16687.08
826.36	17212.92
826.746	17243.77
827.132	17608.64
827.517	17583.34
827.903	16780.76
828.289	16826.56
828.674	16021.72
829.06	15918.99
829.445	16318.15
829.83	16682.24
830.216	17156.29
830.601	17531.25
830.986	17111.3
831.371	16974.38
831.756	17545.74
832.141	17105.8
832.526	17098.69
832.911	17388.78
833.295	17269.95
833.68	17743.66
834.065	17104.55
834.449	16177.1
834.834	16102.36
835.218	16100.67
835.603	16444.87
835.987	16233.89
836.371	17085.5
836.755	16975.33
837.139	17388.1
837.524	17636.23
837.908	17459.18
838.291	17517.62
838.675	17579.45
839.059	17791.11
839.443	17783.52
839.827	17551.92
840.21	18033.21
840.594	17877.45
840.977	18089.13
841.361	18063.87
841.744	18447.48
842.127	18285.21
842.511	18542.1
842.894	19160.63
843.277	19551.5
843.66	20104.01
844.043	20184.85
844.426	19366.63
844.809	19056.02
845.191	19090.64
845.574	18627.27
845.957	18256.09
846.339	18143.48
846.722	17610.87
847.104	17680.83
847.487	17511.73
847.869	17527.29
848.252	17814.37
848.634	18146.58
849.016	18416.83
849.398	18544.83
849.78	19408.86
850.162	19415.59
850.544	19848.16
850.926	20487.94
851.307	20400.76
851.689	20676.6
852.071	21140.23
852.452	21476.5
852.834	21459.61
853.215	21859.85
853.597	22008.02
853.978	22314.06
854.359	22777.42
854.741	21755.35
855.122	21650.74
855.503	21344.91
855.884	21478.08
856.265	21408.38
856.646	21513.33
857.026	21116.75
857.407	21056.95
857.788	21218.81
858.169	21509.89
858.549	20646.29
858.93	21279.75
859.31	21328
859.69	21554.46
860.071	21138.16
860.451	20917.41
860.831	20167.05
861.211	21354.26
861.591	21909.6
861.971	21888.64
862.351	22082.18
862.731	22469.49
863.111	22747.57
863.491	23082.87
863.87	23966.26
864.25	24323.24
864.629	23914.89
865.009	24432.65
865.388	25296.19
865.768	27111.76
866.147	27003.3
866.526	25508.55
866.905	25810.57
867.284	27253.13
867.663	25872.94
868.042	24794.61
868.421	24712.79
868.8	25129.09
869.179	25373.8
869.558	23892.94
869.936	22023.03
870.315	22411.58
870.693	22957.34
871.072	24751.24
871.45	23577.2
871.828	23889.55
872.207	25115.58
872.585	24738.39
872.963	25398.99
873.341	24531
873.719	24225.5
874.097	23926.28
874.475	24376.26
874.853	24936.55
875.23	23905.01
875.608	24895.84
875.986	26915.36
876.363	25741.33
876.741	26527.65
877.118	25864.09
877.495	27136.3
877.873	27598.63
878.25	29048.72
878.627	27859.82
879.004	28239.44
879.381	28096.13
879.758	27374.87
880.135	25482.57
880.512	26939.08
880.889	26211.44
881.265	25937.75
881.642	25715.44
882.019	26140.65
882.395	25601.42
882.772	26614.94
883.148	25456.84
883.524	25348.4
883.901	25190.7
884.277	25574.46
884.653	25404.25
885.029	26149.68
885.405	28952.98
885.781	28722.89
886.157	27543.18
886.532	27872.09
886.908	27873.21
887.284	31002.65
887.659	32029.66
888.035	33036.73
888.411	33893.51
888.786	34357.05
889.161	35556.33
889.537	34919.71
889.912	36035.93
890.287	36010.03
890.662	36967.43
891.037	36288.16
891.412	33829.87
891.787	33498.45
892.162	32321.07
892.536	33070.6
892.911	31822.98
893.286	31141.26
893.66	29875.12
894.035	30641.94
894.409	33355.4
894.784	32000.93
895.158	32535.34
895.532	34459.75
895.906	35377.44
896.281	36215.55
896.655	35658.97
897.029	40745.43
897.402	42428.29
897.776	47225.69
898.15	47045.29
898.524	46575.09
898.898	47166.29
899.271	52768.56
899.645	45690.57
900.018	43900.8
900.392	45506.23
900.765	45844.12
901.138	42435.92
901.511	41785.59
901.884	38371.09
902.258	35412.35
902.631	36555.6
903.003	42101.77
903.376	38003.87
903.749	42652.6
904.122	45672.18
904.495	50313.45
904.867	50930
905.24	44223.58
905.612	41173.39
905.985	42101.83
906.357	44012.51
906.729	42027.73
907.102	35893.32
907.474	34532.25
907.846	34739.95
908.218	34265.88
908.59	30279.49
908.962	29293.38
909.334	31528.63
909.705	33124.5
910.077	32160.07
910.449	33471.19
910.82	34418.05
911.192	37839.46
911.563	39298.19
911.935	42021.12
912.306	42051.76
912.677	43394.32
913.048	42941.43
913.419	46577.44
913.79	46817.74
914.161	50190.55
914.532	47941.31
914.903	44016.85
915.274	41805.89
915.645	41182.79
916.015	36263.95
916.386	34595.94
916.756	36815.1
917.127	37982.82
917.497	33937.36
917.868	36933.84
918.238	35076.39
918.608	36084.5
918.978	36838.97
919.348	39012.06
919.718	40319.64
920.088	38827.38
920.458	40317.24
920.828	42414.1
921.198	40184.21
921.567	42933.78
921.937	33245.46
922.306	33562.55
922.676	36205.07
923.045	30194.11
923.415	28691.61
923.784	26127.63
924.153	26858.08
924.522	26830.85
924.891	25225.73
925.26	27020.67
925.629	26382.77
925.998	30344.18
926.367	29629.76
926.736	28209.55
927.104	33599.16
927.473	36126.89
927.842	43609.4
928.21	43189.42
928.578	45422.68
928.947	42965.92
929.315	43222.47
929.683	50656.56
930.051	51045.48
930.42	59270.06
930.788	50691.97
931.156	50333.69
931.523	47157.22
931.891	43595.49
932.259	41862.3
932.627	48491.38
932.994	68619.74
933.362	56739.49
933.729	49294.17
934.097	47173.8
934.464	39935.23
934.831	46071.42
935.199	45390.9
935.566	44030.04
935.933	44578.86
936.3	54009.11
936.667	42052.52
937.034	37933.71
937.401	37522.22
937.767	32375.09
938.134	28820.28
938.501	40626.67
938.867	43291.99
939.234	73220.65
939.6	62472.96
939.967	68938.47
940.333	46149.11
940.699	39282.1
941.065	31517.07
941.431	41312.16
941.798	39833.38
942.163	52289.18
942.529	32695.29
942.895	30093.14
943.261	19449.01
943.627	25543.83
943.992	22360.25
944.358	22406.33
944.723	22486.34
945.089	21929.22
945.454	20272.11
945.82	21654.13
946.185	20836.82
946.55	24122.32
946.915	21657.45
947.28	25434.85
947.645	22369.45
948.01	20655.31
948.375	21543.4
948.74	25849.31
949.104	30144.12
949.469	43508.39
949.834	76986.17
950.198	72939.21
950.562	43740.13
950.927	36383.03
951.291	43779.42
951.655	37330.61
952.02	35043.38
952.384	26490.76
952.748	23061.33
953.112	22487.86
953.476	19574.26
953.839	18090.2
954.203	17906.09
954.567	22364.43
954.931	35279.74
955.294	30177.45
955.658	30304.55
956.021	51508.88
956.385	87340.67
956.748	128787.55
957.111	199761.52
957.474	224260.61
957.837	252365.65
958.2	191056.24
958.563	68785.85
958.926	46517.23
959.289	70531.07
959.652	78881.43
960.015	59242.67
960.377	85087.26
960.74	97106.1
961.102	167487.69
961.465	179604.19
961.827	96121.24
962.189	184337.47
962.552	127807.52
962.914	102354.94
963.276	66457.83
963.638	54913.71
964	54335.38
964.362	36685.65
964.724	35455.35
965.085	25299.1
965.447	20741.04
965.809	23647.01
966.17	23688.74
966.532	25634.63
966.893	23533.33
967.255	21409.33
967.616	25264.55
967.977	20243.84
968.338	22134.87
968.699	18183.71
969.061	18175.57
969.421	18295.91
969.782	20540.73
970.143	17332.88
970.504	17937.01
970.865	20363.78
971.225	20817.38
971.586	20365.74
971.946	29015.38
972.307	25161.22
972.667	32874.83
973.027	33855.4
973.388	41086.21
973.748	27942.57
974.108	30449.88
974.468	41215.27
974.828	31801.09
975.188	24467.27
975.548	22477.63
975.907	18853.48
976.267	21154.83
976.627	17806.29
976.986	18482.18
977.346	17622.01
977.705	16948.04
978.064	15427.59
978.424	12835.86
978.783	13279.66
979.142	15161.16
979.501	14483.82
979.86	15309.69
980.219	14759.53
980.578	19013.34
980.937	21257.03
981.296	18939.77
981.654	19501.57
982.013	30339.98
982.371	39348.12
982.73	36753.58
983.088	41648.89
983.447	44555.62
983.805	63772.21
984.163	133229.52
984.521	147919.86
984.879	216968.57
985.237	-353094.96
985.595	340267.68
985.953	84598
986.311	48932.63
986.669	28401.93
987.026	24518.79
987.384	32991.92
987.741	34111.13
988.099	24336.37
988.456	19394.38
988.814	18165.38
989.171	15783.55
989.528	15554.81
989.885	16433.29
990.242	12998.32
990.599	16181.94
990.956	13228.65
991.313	9236.45
991.67	7569.82
992.027	8033.23
992.383	7137.95
992.74	6253.35
993.096	6553.84
993.453	6798.3
993.809	7039.49
994.165	9382.44
994.522	8594.35
994.878	9467.83
995.234	11891.66
995.59	11750.23
995.946	11127.24
996.302	12690.06
996.658	14670.75
997.013	16164.98
997.369	19160.77
997.725	24516.11
998.08	15874.49
998.436	24496.66
998.791	33834.09
999.147	33757.98
999.502	36767.28
999.857	26722.36
1000.212	43518.44
1000.567	61873.65
1000.922	35723.46
1001.277	22675.59
1001.632	16835.68
1001.987	21686.71
1002.342	15549.51
1002.696	12422.24
1003.051	9915.92
1003.406	12032.44
1003.76	11968
1004.114	11818.65
1004.469	9962.24
1004.823	8243.1
1005.177	8891.78
1005.531	7049.25
1005.885	6243.23
1006.239	7045.86
1006.593	8817.55
1006.947	11779.54
1007.301	8823.82
1007.655	9617.98
1008.008	7048.6
1008.362	7905.44
1008.715	11296.77
1009.069	10283.82
1009.422	15453.73
1009.776	31002.4
1010.129	20578.51
1010.482	17218.08
1010.835	14580.35
1011.188	30307.37
1011.541	28557.91
1011.894	-174270.84
1012.247	514219.64
1012.6	34914.5
1012.952	22005.1
1013.305	11321.2
1013.657	8181.84
1014.01	7730.09
1014.362	6383.09
1014.715	5660.55
1015.067	4933.32
1015.419	4805.24
1015.771	4280.85
1016.123	3805.23
1016.475	3921.11
1016.827	4164.4
1017.179	4479.68
1017.531	4505.71
1017.883	4601.98
1018.234	4422.38
1018.586	5578.4
1018.938	5893.7
1019.289	8152.62
1019.64	9304.59
1019.992	8627.51
1020.343	7893.04
1020.694	6272.33
1021.045	5547.89
1021.396	6317.43
1021.747	6777.25
1022.098	8157.62
1022.449	5936.7
1022.8	5543.46
1023.151	3857.62
1023.501	3419.34
1023.852	3723.74
1024.202	3857.28
1024.553	4227.27
1024.903	4123.54
1025.253	3541.93
1025.604	3196.62
1025.954	3974.14
1026.304	4826.3
1026.654	5607.78
1027.004	8179.81
1027.354	13221.97
1027.703	12450.05
1028.053	16352.01
1028.403	23836.69
1028.753	34657.97
1029.102	47001.54
1029.452	240691.84
1029.801	10337.86
1030.15	6694.04
1030.499	5659.88
897.758	2318.86
901.051	2257.87
904.343	2292.65
907.636	2301.17
910.928	2362.45
914.22	2277.23
917.511	2280.57
920.803	2334.44
924.094	2337.5
927.384	2333.6
930.675	2296.37
933.965	2257.92
937.255	2283.19
940.544	2246.51
943.834	2235.18
947.123	2171.68
950.411	2263.82
953.7	2242.79
956.988	2222.25
960.276	2160.89
963.563	2217.78
966.851	2227.7
970.138	2273.56
973.424	2270.03
976.711	2229.99
979.997	2292.96
983.283	2340.53
986.568	2264.88
989.853	2262.48
993.138	2289.94
996.423	2373.9
999.708	2326.87
1002.992	2359.77
1006.275	2256.81
1009.559	2272.08
1012.842	2369.44
1016.125	2318.93
1019.408	2298.5
1022.69	2362.3
1025.972	2392.01
1029.254	2368.81
1032.536	2323.27
1035.817	2338.83
1039.098	2304.58
1042.379	2378.61
1045.659	2403.3
1048.939	2348.42
1052.219	2357.67
1055.498	2358.29
1058.778	2352
1062.057	2331.51
1065.335	2353.79
1068.614	2366.23
1071.892	2360.21
1075.17	2421.68
1078.447	2419.78
1081.724	2412.08
1085.001	2444.79
1088.278	2421.45
1091.554	2427.57
1094.83	2423.53
1098.106	2459.04
1101.382	2491.56
1104.657	2494.79
1107.932	2491.22
1111.206	2465.67
1114.481	2422.83
1117.755	2424.71
1121.029	2410.61
1124.302	2469.88
1127.575	2433.48
1130.848	2428.72
1134.121	2393.06
1137.393	2354.04
1140.665	2413.33
1143.937	2390.53
1147.208	2343.82
1150.48	2394.61
1153.75	2383.03
1157.021	2393.71
1160.291	2369.99
1163.561	2420.79
1166.831	2395.72
1170.101	2423.07
1173.37	2387.51
1176.639	2340.54
1179.907	2390.08
1183.176	2407.6
1186.444	2411.07
1189.711	2436.92
1192.979	2457.93
1196.246	2411.26
1199.513	2424.55
1202.78	2426.86
1206.046	2437.24
1209.312	2463.39
1212.578	2482.95
1215.843	2445.89
1219.108	2413.4
1222.373	2437.06
1225.638	2406.7
1228.902	2398.71
1232.166	2357.8
1235.43	2346.03
1238.693	2366.51
1241.956	2362.58
1245.219	2407.53
1248.482	2392.99
1251.744	2389.89
1255.006	2521.67
1258.268	2472.48
1261.529	2423.75
1264.79	2422.86
1268.051	2526.1
1271.312	2536.33
1274.572	2507.76
1277.832	2495.32
1281.092	2479.76
1284.351	2465.17
1287.61	2447.89
1290.869	2378.77
1294.128	2369.57
1297.386	2427.81
1300.644	2421.51
1303.902	2431.74
1307.159	2298.09
1310.416	2350.7
1313.673	2376
1316.93	2371.73
1320.186	2406.37
1323.442	2443.18
1326.697	2438.25
1329.953	2415.46
1333.208	2448.93
1336.463	2423.42
1339.717	2376.55
1342.972	2488.58
1346.226	2463.52
1349.479	2406.96
1352.733	2380.59
1355.986	2392.68
1359.238	2371.26
1362.491	2376.12
1365.743	2379.83
1368.995	2368.45
1372.247	2382.21
1375.498	2402.65
1378.749	2434.69
1382	2388.11
1385.251	2430.06
1388.501	2384.02
1391.751	2379.77
1395	2346.14
1398.25	2374.28
1401.499	2389.35
1404.748	2336.88
1407.996	2315.41
1411.244	2303.35
1414.492	2287.02
1417.74	2267.4
1420.987	2272.89
1424.234	2333.23
1427.481	2300.57
1430.728	2359.25
1433.974	2331.22
1437.22	2335.17
1440.465	2332.54
1443.711	2322.45
1446.956	2349.42
1450.201	2327.45
1453.445	2371.53
1456.689	2355.13
1459.933	2367.99
1463.177	2404.09
1466.42	2376.25
1469.663	2360.43
1472.906	2368.48
1476.148	2422.75
1479.391	2407.52
1482.633	2379.03
1485.874	2398.99
1489.115	2398.17
1492.356	2391.66
1495.597	2368.38
1498.838	2366.19
1502.078	2346.67
1505.318	2313.52
1508.557	2349.58
1511.797	2343.29
1515.036	2377.63
1518.274	2359.41
1521.513	2319.88
1524.751	2334.26
1527.989	2354.19
1531.227	2371.62
1534.464	2379.07
1537.701	2379.35
1540.938	2393.51
1544.174	2343.51
1547.41	2336.89
1550.646	2376.89
1553.882	2421.2
1557.117	2477.41
1560.352	2486.62
1563.587	2451.06
1566.821	2416.83
1570.055	2435.08
1573.289	2416.53
1576.523	2479.38
1579.756	2490.54
1582.989	2511.11
1586.222	2471.71
1589.454	2505.5
1592.686	2487.43
1595.918	2516.16
1599.15	2507.07
1602.381	2559.15
1605.612	2536.4
1608.843	2630.72
1612.073	2553.18
1615.303	2539.93
1618.533	2536.47
1621.762	2538.12
1624.992	2513.49
1628.221	2510.62
1631.449	2497.64
1634.678	2535.42
1637.906	2502.34
1641.134	2533.05
1644.361	2496.05
1647.588	2481.25
1650.815	2504.19
1654.042	2472.36
1657.269	2497.98
1660.495	2472.03
1663.72	2467.51
1666.946	2433.97
1670.171	2398.01
1673.396	2371.9
1676.621	2354.67
1679.845	2358.54
1683.069	2371.51
1686.293	2402.98
1689.517	2387.48
1692.74	2333.57
1695.963	2357.86
1699.185	2392.14
1702.408	2365.88
1705.63	2398.24
1708.852	2413.04
1712.073	2384.59
1715.294	2387.07
1718.515	2435.54
1721.736	2393.15
1724.956	2376.14
1728.176	2399.29
1731.396	2419.71
1734.616	2403.84
1737.835	2438.03
1741.054	2413.65
1744.272	2403.7
1747.491	2440.63
1750.709	2473.84
1753.927	2408.91
1757.144	2438.8
1760.361	2491.72
1763.578	2471.42
1766.795	2418.99
1770.011	2414.43
1773.227	2442.74
1776.443	2481.6
1779.658	2526.99
1782.874	2466.7
1786.089	2454.99
1789.303	2457.63
1792.518	2455.2
1795.732	2442.18
1798.945	2456.32
1802.159	2498.65
1805.372	2428.94
1808.585	2421.26
1811.797	2421.15
1815.01	2450.44
1818.222	2468.26
1821.434	2435.46
1824.645	2479.91
1827.856	2484.49
1831.067	2518.71
1834.278	2460.65
1837.488	2445.32
1840.698	2575.65
1843.908	2513.63
1847.117	2479.74
1850.326	2393.96
1853.535	2465.62
1856.744	2492.1
1859.952	2412.92
1863.16	2414.57
1866.368	2428.53
1869.575	2538.4
1872.782	2423.81
1875.989	2358.14
1879.196	2413.58
1882.402	2404.65
1885.608	2439.85
1888.814	2368.64
1892.019	2273.05
1895.224	2325.57
1898.429	2293.82
1901.634	2274.93
1904.838	2249.94
1908.042	2300.27
1911.246	2311.26
1914.449	2267.23
1917.652	2250.7
1920.855	2232.87
1924.058	2267.05
1927.26	2308.83
1930.462	2332.56
1933.664	2367.99
1936.865	2309.86
1940.066	2323.25
1943.267	2269.9
1946.467	2279.9
1949.668	2299.28
1952.868	2372.19
1956.067	2357.49
1959.267	2295.16
1962.466	2318.98
1965.665	2303.41
1968.863	2297.79
1972.061	2303.77
1975.259	2299.58
1978.457	2376.86
1981.654	2335.12
1984.852	2340.24
1988.048	2285.95
1991.245	2279.03
1994.441	2364.29
1997.637	2329.98
2000.833	2311.67
2004.028	2348.78
2007.223	2407.98
2010.418	2392.52
2013.613	2348.55
2016.807	2337.46
2020.001	2335.33
2023.194	2362.29
2026.388	2344.54
2029.581	2290.75
2032.774	2349.43
2035.966	2356.71
2039.158	2297.84
2042.35	2321.71
2045.542	2247.73
2048.733	2331.17
2051.924	2334.97
2055.115	2351.93
2058.306	2312.06
2061.496	2366.99
2064.686	2418.52
2067.875	2332.24
2071.065	2339.23
2074.254	2359.46
2077.442	2312.42
2080.631	2398.49
2083.819	2318.67
2087.007	2308.65
2090.195	2290.48
2093.382	2311.13
2096.569	2294.29
2099.756	2255.56
2102.942	2293.57
2106.128	2305.92
2109.314	2297.78
2112.5	2275.57
2115.685	2246.75
2118.87	2256.15
2122.055	2316.23
2125.239	2292.6
2128.424	2276.73
2131.608	2347.59
2134.791	2333.02
2137.974	2376.45
2141.157	2363.43
2144.34	2328.82
2147.523	2326.88
2150.705	2348.33
2153.887	2319.66
2157.068	2285.95
2160.25	2276.48
2163.431	2302.61
2166.611	2265.67
2169.792	2282.85
2172.972	2190.37
2176.152	2248.14
2179.331	2277.3
2182.511	2273.47
2185.69	2297.92
2188.868	2298.51
2192.047	2338.93
2195.225	2344.77
2198.403	2296.54
2201.58	2285.37
2204.758	2274.7
2207.935	2352.63
2211.111	2261.22
2214.288	2248.7
2217.464	2283.05
2220.64	2244.24
2223.815	2296.16
2226.991	2225.21
2230.166	2242.51
2233.34	2280.58
2236.515	2294.83
2239.689	2361.5
2242.863	2309.11
2246.036	2363.98
2249.209	2353.19
2252.382	2378
2255.555	2379.87
2258.727	2325.97
2261.9	2358.4
2265.071	2349.74
2268.243	2346.83
2271.414	2294.68
2274.585	2270.92
2277.756	2331.74
2280.926	2286.38
2284.096	2316.59
2287.266	2241.78
2290.436	2288.58
2293.605	2313.98
2296.774	2347.53
2299.942	2354.6
2303.111	2373.64
2306.279	2422.78
2309.447	2408.42
2312.614	2380.65
2315.781	2404.44
2318.948	2383.02
2322.115	2419.21
2325.281	2318.74
2328.447	2328.96
2331.613	2301.64
2334.779	2290.09
2337.944	2285.5
2341.109	2284.46
2344.274	2273.39
2347.438	2241.93
2350.602	2264.36
2353.766	2274.65
2356.929	2261.98
2360.092	2303.99
2363.255	2267.44
2366.418	2225.66
2369.58	2304.11
2372.742	2156.16
2375.904	2157.26
2379.066	2139.28
2382.227	2167.3
2385.388	2128.4
2388.548	2071.13
2391.709	2118.88
2394.869	2103.09
2398.029	2170.4
2401.188	2169.59
2404.347	2123.99
2407.506	2219.41
2410.665	2256.98
2413.823	2248.08
2416.981	2219.97
2420.139	2244.2
2423.296	2287.65
2426.453	2258.06
2429.61	2280.48
2432.767	2241.48
2435.923	2282.11
2439.079	2236.35
2442.235	2273.34
2445.391	2211.37
2448.546	2248.87
2451.701	2288.88
2454.855	2274.81
2458.009	2309.4
2461.163	2305.08
2464.317	2273.97
2467.471	2301.08
2470.624	2333.43
2473.777	2316.93
2476.929	2334.36
2480.082	2356.37
2483.234	2328.57
2486.385	2272.72
2489.537	2268
2492.688	2250
2495.839	2264.44
2498.989	2278.02
2502.14	2265.56
2505.29	2253.5
2508.439	2276.6
2511.589	2211.02
2514.738	2214.8
2517.887	2239.46
2521.035	2310.23
2524.183	2278.1
2527.331	2264.45
2530.479	2253.34
2533.627	2258.21
