Data from N_2_DIV_OH_2N_Splice17_12-22-03-959.txt Node
Date: Sat Mar 14 12:22:03 EDT 2020
User: sa697716
Spectrometer: FLMS03696
Trigger mode: 0
Integration Time (sec): 3.180400E-1
Scans to average: 20
Electric dark correction enabled: true
Nonlinearity correction enabled: true
Boxcar width: 5
XAxis mode: Wavelengths
Number of Pixels in Spectrum: 2048
>>>>>Begin Spectral Data<<<<<
187.83	-299546.3
188.298	2190.17
188.766	1157.94
189.233	1032.79
189.701	1458.89
190.169	2038.59
190.636	769.55
191.104	590.98
191.571	77.3
192.039	-68.94
192.506	-131.29
192.974	336.35
193.441	-613.32
193.908	-74.63
194.375	-20.28
194.842	22.6
195.31	130.87
195.777	201.41
196.244	429.67
196.711	514.19
197.177	659.23
197.644	923.87
198.111	1646.18
198.578	2326.12
199.045	1854.75
199.511	3059.66
199.978	3624.39
200.445	3064.77
200.911	3368.61
201.378	3773.33
201.844	3441.57
202.31	5879.48
202.777	6174.8
203.243	3419.36
203.709	3249.99
204.176	3863.55
204.642	3200.34
205.108	2971.17
205.574	2420.81
206.04	2209.44
206.506	2082.09
206.972	1964.86
207.438	1895.23
207.903	2154.88
208.369	1873.53
208.835	1874.02
209.301	1961.73
209.766	1994.39
210.232	1965.53
210.697	2436.79
211.163	3016.64
211.628	4532.63
212.094	3787.59
212.559	4612.71
213.024	2848.46
213.49	3486.86
213.955	3376.03
214.42	3291.07
214.885	3032.53
215.35	2898.54
215.815	2770.32
216.28	2942.71
216.745	2371.16
217.21	2550.67
217.675	2319.58
218.14	2584.65
218.604	2834.65
219.069	3202.13
219.534	3327.48
219.998	3848.26
220.463	4613.08
220.927	5626.91
221.392	5226.19
221.856	5281.11
222.32	6613.58
222.785	8138.17
223.249	10196.29
223.713	11351.73
224.177	11322.66
224.642	14483.93
225.106	17734.03
225.57	19346.51
226.034	14371.9
226.497	21864.58
226.961	19696.05
227.425	22859.95
227.889	25344.45
228.353	25280.36
228.816	52148.17
229.28	49840.91
229.744	41970.37
230.207	25521.63
230.671	25105.07
231.134	41456.67
231.597	47754.44
232.061	47699.56
232.524	46560.21
232.987	32019.79
233.45	28830.48
233.914	25858.85
234.377	26459.19
234.84	24163.03
235.303	28465.68
235.766	31701.91
236.229	32706.26
236.691	20582.42
237.154	23104.59
237.617	17370.38
238.08	17791.71
238.542	20803.29
239.005	14855.68
239.468	14744.66
239.93	13920.64
240.393	12637.71
240.855	11108.8
241.317	11387.91
241.78	13846.53
242.242	14299.79
242.704	15433.89
243.166	13433.37
243.629	12198.19
244.091	14047.9
244.553	15385.55
245.015	16517.96
245.477	21336.18
245.939	31206.28
246.4	33062.46
246.862	32107.65
247.324	30244.96
247.786	33801.46
248.247	44202.01
248.709	45576.75
249.17	34056.85
249.632	32043.97
250.093	37095.21
250.555	31990.08
251.016	19525.17
251.477	18497.61
251.939	19935.48
252.4	20853.41
252.861	24763.07
253.322	23002.89
253.783	27336.05
254.244	35399.74
254.705	27873.2
255.166	24750.76
255.627	24371.69
256.088	34325.79
256.549	36406.75
257.009	31361.19
257.47	38089.65
257.931	30974.33
258.391	23202.33
258.852	23899.36
259.312	25020.68
259.773	30850.18
260.233	26078.95
260.694	21964.46
261.154	24840.51
261.614	19925.14
262.074	17766.5
262.534	18417.19
262.994	17334.58
263.455	23058.48
263.915	19382.17
264.374	18217.74
264.834	19897.12
265.294	22000.52
265.754	22764.94
266.214	21536.22
266.673	20152.33
267.133	25399.81
267.593	25173.41
268.052	30772.68
268.512	26749.68
268.971	32257.99
269.431	35364.66
269.89	31622.53
270.349	47376.29
270.809	52823.08
271.268	47433.03
271.727	106275.25
272.186	68855.31
272.645	51646.29
273.104	37242.23
273.563	53905.7
274.022	42370.27
274.481	36079.31
274.94	27791.73
275.399	20651.16
275.857	24029.65
276.316	32493.06
276.775	28903.81
277.233	28452.71
277.692	26640.84
278.15	30186.34
278.609	31077.09
279.067	28765.2
279.525	26722.71
279.984	34521.61
280.442	41498.55
280.9	40963.68
281.358	26980.46
281.816	25178.07
282.274	24659.16
282.732	25481.3
283.19	25619.76
283.648	22119.1
284.106	23580.32
284.564	23970.12
285.021	22261.65
285.479	16608.76
285.937	15109.47
286.394	13265.4
286.852	13664.98
287.309	14396.8
287.767	13931.67
288.224	13230.78
288.682	14507.73
289.139	15935.3
289.596	14600.18
290.053	15169.33
290.511	19112.93
290.968	23178.15
291.425	31462.59
291.882	26154.98
292.339	22728.72
292.796	22515.8
293.252	21190.77
293.709	16834.11
294.166	15051.63
294.623	16624.45
295.079	15932.5
295.536	16017.52
295.992	14524.6
296.449	14346
296.905	14914.86
297.362	14308.16
297.818	15051.65
298.274	15621.59
298.731	15920.9
299.187	15773.24
299.643	16934.98
300.099	20490.29
300.555	22419.55
301.011	18739.81
301.467	18078.79
301.923	21168.05
302.379	20667.24
302.835	20310.32
303.291	20350.11
303.746	23137.41
304.202	29232.97
304.658	29345.73
305.113	19735.24
305.569	19407.64
306.024	20678.49
306.479	19708.22
306.935	16633.51
307.39	18181.13
307.845	16807.1
308.301	16942.21
308.756	16528.5
309.211	15938.68
309.666	16310.97
310.121	20281.6
310.576	20576.96
311.031	20453.74
311.486	23415.96
311.94	23393.93
312.395	31292.36
312.85	58774.42
313.305	288196.5
313.759	1494501.06
314.214	108336.4
314.668	86119.54
315.123	72509.51
315.577	26006.6
316.032	23120.52
316.486	28980.61
316.94	22852.66
317.394	15925.34
317.849	12366.41
318.303	11725.25
318.757	11050.83
319.211	12213.24
319.665	10685.06
320.119	10788.66
320.572	15449.96
321.026	14449.17
321.48	12016.2
321.934	13096.98
322.387	13108.45
322.841	14168.34
323.295	12742.26
323.748	14665.32
324.202	14891.66
324.655	17872.45
325.108	24989.06
325.562	17687.39
326.015	21009.81
326.468	15893.11
326.921	17760.92
327.374	16586.53
327.827	17301.13
328.28	19573.55
328.733	13138.62
329.186	11564.22
329.639	11029.86
330.092	9295.86
330.545	8848.85
330.997	8943.05
331.45	9773.09
331.903	11484.83
332.355	19749.72
332.808	19159.57
333.26	15803.71
333.713	17160.71
334.165	17303.99
334.617	23128.58
335.069	18693.93
335.522	33889.56
335.974	37503.76
336.426	34366.99
336.878	23819.83
337.33	12076.74
337.782	11797.85
338.234	14808.32
338.686	17727.31
339.137	20953.53
339.589	19712.86
340.041	15454.36
340.493	13249.18
340.944	13546.86
341.396	14568.28
341.847	12240.28
342.299	14450.32
342.75	17648.15
343.201	15388.71
343.653	17671.23
344.104	21673.37
344.555	17041.62
345.006	26510.95
345.457	20320.76
345.908	16151.74
346.359	15198.85
346.81	12387.14
347.261	13042.42
347.712	12843.5
348.163	13770.75
348.613	13978.12
349.064	13072.89
349.515	11443.52
349.965	11750.19
350.416	14166.16
350.866	15551.41
351.317	17566.13
351.767	29072.12
352.217	36694.56
352.668	30439.37
353.118	27918.57
353.568	26899.52
354.018	21254.33
354.468	22439.05
354.918	16074.05
355.368	14055.82
355.818	19886.04
356.268	57247.1
356.718	239776.77
357.168	59769.72
357.617	30037.19
358.067	33455.99
358.517	31354.89
358.966	36865.39
359.416	41474.2
359.865	44822.84
360.315	53369.52
360.764	24900.65
361.213	13983.33
361.663	13246.98
362.112	16343.05
362.561	26457.04
363.01	19929.05
363.459	16772.49
363.908	18145.94
364.357	15390.51
364.806	26022.2
365.255	17894.29
365.703	16410.52
366.152	16435.95
366.601	13307.24
367.05	10844.92
367.498	9868.99
367.947	10332.24
368.395	10764.25
368.844	9551.42
369.292	11538.29
369.74	8002.33
370.189	12289.5
370.637	14435.35
371.085	12476.2
371.533	15279.19
371.981	14691.34
372.429	14013.63
372.877	14653.41
373.325	12283.33
373.773	12559.27
374.221	11214.77
374.669	13962.15
375.116	12144.11
375.564	12284.82
376.012	13775.77
376.459	11420.21
376.907	13759.49
377.354	16712.28
377.801	15652.2
378.249	18084.94
378.696	23200.23
379.143	28217.17
379.591	30210.46
380.038	51262.1
380.485	37254.13
380.932	40466.56
381.379	37114.99
381.826	27484.79
382.273	19647.23
382.72	17241.44
383.166	16889.53
383.613	11029.86
384.06	9998.29
384.506	11618.08
384.953	8581.91
385.4	8676.03
385.846	7618.26
386.292	7460.58
386.739	7323.97
387.185	7280.63
387.631	7323.15
388.078	7141.41
388.524	7662.66
388.97	7112.07
389.416	5963.75
389.862	6363.5
390.308	6058.09
390.754	6191.26
391.2	6751.06
391.645	6940.16
392.091	6667.98
392.537	6463.75
392.983	6502.55
393.428	6428.98
393.874	6917.05
394.319	6957.05
394.765	6611.15
395.21	6815.17
395.655	6407.79
396.101	6010.32
396.546	5434.62
396.991	5477.19
397.436	5096.1
397.881	4929.31
398.326	4671.56
398.771	4419.82
399.216	3869.6
399.661	3486.14
400.106	3473.3
400.551	3549.34
400.995	3181.15
401.44	3141.88
401.885	2952.54
402.329	2977.08
402.774	2849.76
403.218	2751.36
403.663	2644.39
404.107	2716.33
404.551	2734.92
404.995	2502.8
405.44	2412.67
405.884	2446.1
406.328	2369.37
406.772	2359.94
407.216	2149.73
407.66	2073.9
408.104	1967.19
408.547	1837.75
408.991	1773.34
409.435	1703.4
409.879	1676.95
410.322	1650.85
410.766	1593.32
411.209	1509.95
411.653	1447.27
412.096	1416.84
412.54	1415.39
412.983	1405.02
413.426	1411.3
413.869	1408.64
414.312	1382.4
414.756	1334.26
415.199	1272.17
415.642	1233.76
416.085	1236.09
416.527	1227.93
416.97	1246.71
417.413	1184.33
417.856	1171.25
418.298	1154.6
418.741	1146.15
419.184	1138.95
419.626	1182.73
420.069	1182.77
420.511	1190.73
420.953	1164.19
421.396	1151.34
421.838	1118.01
422.28	1141.14
422.722	1145.27
423.164	1162.2
423.606	1143.53
424.048	1141.79
424.49	1084.26
424.932	1076.25
425.374	1059.41
425.816	1078.27
426.258	1100.32
426.699	1113.44
427.141	1095.21
427.582	1111.11
428.024	1105.46
428.465	1098.98
428.907	1073.04
429.348	1063.37
429.789	1065.01
430.231	1044.18
430.672	1056.92
431.113	1030.32
431.554	1016.23
431.995	994.29
432.436	961.57
432.877	941.42
433.318	924.58
433.759	921.78
434.2	920.91
434.64	911.41
435.081	913.8
435.522	866.22
435.962	836.51
436.403	819.8
436.843	831.3
437.284	814.33
437.724	791.82
438.164	795.97
438.604	779.87
439.045	751.96
439.485	721.3
439.925	705.92
440.365	690.61
440.805	683.29
441.245	674.13
441.685	650.46
442.125	645.16
442.564	650.73
443.004	637.51
443.444	637.37
443.883	640.42
444.323	636.57
444.762	639.4
445.202	649.38
445.641	661.69
446.081	660.23
446.52	666.32
446.959	662.39
447.398	646.32
447.837	639.62
448.276	628.6
448.716	634.57
449.154	642.03
449.593	629.06
450.032	627.46
450.471	616.69
450.91	617.7
451.349	619.11
451.787	617.54
452.226	629.21
452.664	630.83
453.103	631.95
453.541	630.7
453.98	630.49
454.418	633.35
454.856	623.02
455.295	621.56
455.733	627.15
456.171	629.37
456.609	630.77
457.047	630.78
457.485	640.04
457.923	641.83
458.361	632.66
458.798	633.89
459.236	633.93
459.674	639.24
460.111	642.4
460.549	635.66
460.987	633.16
461.424	629.36
461.862	625.76
462.299	614.28
462.736	613.63
463.173	616.89
463.611	610.51
464.048	608.86
464.485	613.6
464.922	608.45
465.359	605.23
465.796	599.14
466.233	595.2
466.67	591.44
467.106	591.06
467.543	585.27
467.98	577.42
468.416	563.52
468.853	558.33
469.29	540.9
469.726	534.68
470.162	520.84
470.599	513.25
471.035	508.97
471.471	495.37
471.907	491.06
472.344	487.85
472.78	488.73
473.216	494.29
473.652	488.71
474.088	487.12
474.523	486.22
474.959	490.14
475.395	484.72
475.831	481.67
476.266	484.27
476.702	483.23
477.138	477.55
477.573	476.88
478.008	474.6
478.444	476.15
478.879	480.11
479.314	481.74
479.75	481.04
480.185	482.85
480.62	486.59
481.055	489.68
481.49	494.34
481.925	501.3
482.36	509.78
482.795	524.01
483.229	538.09
483.664	550.2
484.099	552.49
484.534	562.14
484.968	568.66
485.403	570.79
485.837	569.79
486.271	568.55
486.706	570
487.14	563.91
487.574	555.24
488.009	551.12
488.443	547.12
488.877	553.51
489.311	555.79
489.745	563.16
490.179	568.42
490.613	580.11
491.046	585.71
491.48	591.59
491.914	593.95
492.348	600.64
492.781	606.45
493.215	610.06
493.648	612.37
494.082	620.02
494.515	622.91
494.948	634.06
495.382	641.58
495.815	648.94
496.248	657.42
496.681	672.93
497.114	686.68
497.547	698.93
497.98	714.75
498.413	726.29
498.846	739.18
499.279	751.63
499.711	759.33
500.144	765.8
500.577	780.89
501.009	796.31
501.442	810.73
501.874	817.75
502.306	825.84
502.739	838.79
503.171	857.47
503.603	865.86
504.036	881.08
504.468	892.83
504.9	910.19
505.332	923.25
505.764	932.97
506.196	946.25
506.627	966.81
507.059	986.96
507.491	1002.89
507.923	1007.8
508.354	1030.29
508.786	1047.77
509.217	1073
509.649	1094.74
510.08	1120.79
510.512	1146.65
510.943	1168.74
511.374	1187.54
511.805	1215.8
512.237	1243.62
512.668	1285.6
513.099	1323.14
513.53	1360.66
513.961	1390.92
514.391	1434.08
514.822	1479.37
515.253	1525.21
515.684	1561.37
516.114	1602.14
516.545	1631.94
516.975	1667.38
517.406	1694.07
517.836	1701.84
518.267	1714.36
518.697	1740.59
519.127	1750.36
519.558	1762.3
519.988	1771.24
520.418	1787.08
520.848	1811.81
521.278	1827.34
521.708	1844.41
522.138	1863.11
522.567	1904.01
522.997	1937.46
523.427	1958.12
523.857	1981.04
524.286	1996.66
524.716	2017.62
525.145	2042.98
525.575	2057.88
526.004	2077.34
526.433	2079.33
526.863	2081.68
527.292	2071.85
527.721	2079.32
528.15	2089.28
528.579	2092.87
529.008	2108.02
529.437	2138.86
529.866	2157.51
530.295	2181.68
530.724	2199.94
531.152	2236.19
531.581	2255.74
532.01	2278.64
532.438	2292.14
532.867	2312.02
533.295	2335.7
533.723	2345.55
534.152	2343.18
534.58	2346.03
535.008	2326.01
535.436	2328.05
535.865	2338.93
536.293	2358.58
536.721	2380.09
537.149	2413.6
537.576	2417.84
538.004	2436.74
538.432	2447.66
538.86	2446.91
539.287	2454.82
539.715	2475.26
540.143	2480.45
540.57	2475.79
540.998	2471.3
541.425	2441.89
541.852	2415.93
542.28	2415
542.707	2394.64
543.134	2376.18
543.561	2371.82
543.988	2362.49
544.415	2361.73
544.842	2355.32
545.269	2347.35
545.696	2350.26
546.123	2367.63
546.549	2353.55
546.976	2337.67
547.403	2335.9
547.829	2338.7
548.256	2340.78
548.682	2335.87
549.108	2325.34
549.535	2323.9
549.961	2326.19
550.387	2309.03
550.813	2300.76
551.24	2309.6
551.666	2309.76
552.092	2297.35
552.518	2290.33
552.943	2283.01
553.369	2293.54
553.795	2300.41
554.221	2301.8
554.646	2297.79
555.072	2312.31
555.498	2320
555.923	2330.97
556.349	2350.6
556.774	2360.97
557.199	2361.47
557.625	2367.64
558.05	2359.84
558.475	2373.62
558.9	2372.98
559.325	2362.79
559.75	2352.11
560.175	2342.57
560.6	2333.92
561.025	2331.44
561.449	2333.33
561.874	2340.59
562.299	2347.4
562.723	2356.68
563.148	2343.6
563.572	2348.3
563.997	2359.6
564.421	2367.19
564.846	2368.4
565.27	2373.8
565.694	2369.01
566.118	2384.93
566.542	2394.68
566.966	2386.04
567.39	2379.78
567.814	2365.78
568.238	2363.76
568.662	2372.12
569.086	2377.21
569.509	2387
569.933	2366.35
570.357	2357.91
570.78	2329.28
571.204	2310.93
571.627	2297.57
572.05	2295.65
572.474	2296.05
572.897	2280.26
573.32	2267.66
573.743	2254.09
574.166	2228.51
574.589	2228.71
575.012	2218.04
575.435	2216.46
575.858	2203.48
576.281	2187.46
576.704	2163.96
577.126	2147.01
577.549	2133.42
577.972	2120.33
578.394	2105.5
578.817	2095.69
579.239	2070.82
579.661	2052.63
580.084	2031.84
580.506	2014.21
580.928	2009.4
581.35	1996.64
581.772	1989.75
582.194	1971.14
582.616	1955.59
583.038	1936.47
583.46	1923.6
583.882	1918.75
584.303	1924.67
584.725	1918.92
585.147	1921.36
585.568	1933.59
585.99	1949.05
586.411	1956.28
586.833	1975.15
587.254	1976.1
587.675	1994.19
588.096	2008.47
588.518	2001.52
588.939	1978.74
589.36	1974.98
589.781	1962.05
590.202	1923.81
590.623	1911.3
591.043	1908.28
591.464	1891.47
591.885	1885.17
592.305	1877.44
592.726	1859.9
593.147	1860.3
593.567	1853.31
593.987	1843.36
594.408	1835.31
594.828	1833.69
595.248	1825.8
595.669	1801.52
596.089	1791.25
596.509	1783.98
596.929	1765.77
597.349	1765.81
597.769	1754.04
598.189	1746.18
598.608	1746.77
599.028	1749.95
599.448	1749.64
599.867	1733.83
600.287	1729.25
600.706	1723.01
601.126	1710.14
601.545	1708.37
601.965	1707.49
602.384	1699.22
602.803	1701.39
603.222	1695.27
603.641	1685.48
604.061	1680.87
604.48	1674.85
604.898	1683.16
605.317	1689.23
605.736	1691.48
606.155	1687.08
606.574	1674.01
606.992	1679.53
607.411	1673.14
607.829	1662.22
608.248	1657.86
608.666	1653.63
609.085	1651.36
609.503	1640.29
609.921	1631.6
610.339	1632.93
610.758	1632.04
611.176	1626.36
611.594	1615.26
612.012	1609.43
612.43	1613.58
612.847	1621.55
613.265	1622.13
613.683	1627.49
614.101	1629.11
614.518	1625.08
614.936	1611.23
615.353	1592.45
615.771	1589.15
616.188	1589.25
616.606	1585.94
617.023	1576.69
617.44	1558.19
617.857	1548.65
618.274	1537.38
618.691	1528.02
619.108	1515.49
619.525	1507.58
619.942	1515.08
620.359	1516.52
620.776	1509.87
621.192	1503.95
621.609	1500.37
622.026	1508.38
622.442	1514.76
622.859	1519.5
623.275	1511.31
623.691	1516.5
624.108	1530.3
624.524	1546.77
624.94	1546.06
625.356	1557.6
625.772	1573.58
626.188	1587.21
626.604	1589.08
627.02	1584.12
627.436	1580.89
627.852	1589.27
628.268	1603.89
628.683	1593.04
629.099	1582.4
629.514	1576.19
629.93	1580.23
630.345	1584.13
630.761	1579.06
631.176	1581.98
631.591	1574.37
632.007	1566.52
632.422	1562.95
632.837	1548.25
633.252	1543.89
633.667	1530.83
634.082	1518.03
634.497	1500.02
634.911	1474.39
635.326	1467.57
635.741	1444.57
636.155	1429.69
636.57	1427.04
636.984	1422.78
637.399	1421
637.813	1416.83
638.228	1411.72
638.642	1413.1
639.056	1396.69
639.47	1392.37
639.884	1377.76
640.298	1365.68
640.712	1359.21
641.126	1339.57
641.54	1325.28
641.954	1313.63
642.368	1293.41
642.781	1277.79
643.195	1252.95
643.609	1247.97
644.022	1235.89
644.436	1226.51
644.849	1208.78
645.262	1191.26
645.676	1188.65
646.089	1178.45
646.502	1158.31
646.915	1149.3
647.328	1127.82
647.741	1120.52
648.154	1103.31
648.567	1097.36
648.98	1079.56
649.393	1076.71
649.805	1069.18
650.218	1059.06
650.631	1040.4
651.043	1031.78
651.456	1024.08
651.868	1023.4
652.28	1040.01
652.693	1053.53
653.105	1059.07
653.517	1069.31
653.929	1067.9
654.341	1074.11
654.753	1060.52
655.165	1065.13
655.577	1061.53
655.989	1053.48
656.401	1041.88
656.813	1003.27
657.224	979.71
657.636	947.29
658.047	924.52
658.459	902.23
658.87	889.07
659.282	873.51
659.693	848.87
660.104	830.94
660.515	814.25
660.926	811.23
661.338	804.22
661.749	794.72
662.159	782.28
662.57	774.86
662.981	766.06
663.392	756.2
663.803	755.87
664.213	750.17
664.624	742.6
665.035	742.55
665.445	724.15
665.855	714.52
666.266	703.4
666.676	698.55
667.086	687.25
667.497	683.97
667.907	675.45
668.317	665.87
668.727	661.95
669.137	660.04
669.547	655.65
669.956	655.97
670.366	656.56
670.776	657.56
671.186	659.96
671.595	663.55
672.005	665.63
672.414	664.42
672.824	662.03
673.233	665.35
673.642	667.64
674.052	671.14
674.461	674.03
674.87	678.62
675.279	676.69
675.688	678.32
676.097	678.93
676.506	677.57
676.915	691.25
677.323	695.42
677.732	695.1
678.141	697.07
678.549	689.26
678.958	690.93
679.366	692.26
679.775	699.47
680.183	712.34
680.592	721.5
681	730.97
681.408	730.03
681.816	741.48
682.224	753.92
682.632	769.26
683.04	804.01
683.448	833.65
683.856	870.68
684.264	913.15
684.671	953.96
685.079	1003.66
685.487	1059.13
685.894	1133.97
686.302	1200.24
686.709	1260.05
687.116	1326.21
687.524	1384.59
687.931	1439.86
688.338	1487.4
688.745	1533.62
689.152	1584.63
689.559	1647.69
689.966	1710.95
690.373	1748.26
690.78	1809.03
691.187	1893.02
691.593	1961.08
692	2021.46
692.407	2106.18
692.813	2208.46
693.22	2288.62
693.626	2373.97
694.032	2441.54
694.439	2539.03
694.845	2618.42
695.251	2716.41
695.657	2804.68
696.063	2935.38
696.469	3034.31
696.875	3123.26
697.281	3177.34
697.687	3243
698.093	3296.08
698.498	3396.49
698.904	3478.28
699.31	3592.87
699.715	3676.12
700.12	3796.32
700.526	3822.25
700.931	3913.45
701.337	3981.48
701.742	4026.82
702.147	4137.77
702.552	4177.44
702.957	4256.73
703.362	4282.89
703.767	4323.51
704.172	4376.48
704.577	4316.96
704.981	4376.94
705.386	4397.54
705.791	4389.47
706.195	4486.68
706.6	4497.15
707.004	4600.24
707.408	4558.47
707.813	4591.87
708.217	4573.26
708.621	4574.81
709.025	4699.39
709.43	4699.65
709.834	4777.58
710.237	4867.65
710.641	4845.42
711.045	4871.22
711.449	4862.38
711.853	4895.71
712.256	4948.96
712.66	4998.19
713.064	5092.47
713.467	5142.92
713.87	5286.01
714.274	5342.76
714.677	5479.67
715.08	5685.75
715.484	5901.88
715.887	6159.56
716.29	6417.69
716.693	6682.32
717.096	6987.74
717.499	7155.8
717.901	7186.53
718.304	7219.64
718.707	7247.93
719.109	7115.28
719.512	7074.07
719.915	6894.93
720.317	6823.18
720.719	6877.73
721.122	6839.58
721.524	6772.55
721.926	6714.19
722.328	6844.11
722.731	6827.56
723.133	6863.21
723.535	7107.7
723.937	7128.07
724.338	7192.86
724.74	7237.36
725.142	7131.42
725.544	7124.3
725.945	7153
726.347	7147
726.748	7132.78
727.15	7147.28
727.551	7093.1
727.952	7059.21
728.354	7021.19
728.755	7022.83
729.156	6970.78
729.557	6974.95
729.958	6818.02
730.359	6747.46
730.76	6724.24
731.161	6646.43
731.562	6615.99
731.962	6622.14
732.363	6536.88
732.763	6455.61
733.164	6498.64
733.564	6412.01
733.965	6288.43
734.365	6244.24
734.766	6279.23
735.166	6227.32
735.566	6157.4
735.966	6121.98
736.366	6112.69
736.766	6035.92
737.166	6072.55
737.566	6017.87
737.966	5981.84
738.365	6031.9
738.765	6025.37
739.165	5930.15
739.564	5895.65
739.964	5952.64
740.363	5894.69
740.763	5891.56
741.162	5874.35
741.561	5836.12
741.96	5782.05
742.36	5809.36
742.759	5816.27
743.158	5863.39
743.557	5881.19
743.955	5933.97
744.354	5875.87
744.753	5946.9
745.152	5895.42
745.55	5966.95
745.949	5958.83
746.348	5957.99
746.746	5980.19
747.144	5926.04
747.543	5897.16
747.941	5959.79
748.339	5867.78
748.737	5859.87
749.136	5850.9
749.534	5933.83
749.932	5894.29
750.33	5924.58
750.727	5997.8
751.125	5966.24
751.523	5948.65
751.921	6001.53
752.318	5958.55
752.716	6032.35
753.113	6047.28
753.511	6076.23
753.908	6075.76
754.305	6053.27
754.703	6128.65
755.1	6201
755.497	6276.5
755.894	6514.59
756.291	6740.93
756.688	7153.48
757.085	7706.52
757.482	8481.71
757.878	9329.08
758.275	10092.69
758.672	11148.84
759.068	12009.18
759.465	13232.48
759.861	14811.96
760.258	16646.27
760.654	17598.21
761.05	17457.92
761.447	16663.06
761.843	15515.01
762.239	14326.27
762.635	13785.53
763.031	13271.71
763.427	12528.38
763.822	11749.07
764.218	10980.05
764.614	9973.49
765.01	9300.07
765.405	8864.64
765.801	8533.2
766.196	8113.98
766.592	7885.34
766.987	7491.31
767.382	7224.22
767.778	7110.73
768.173	6944.15
768.568	6850.79
768.963	6694.15
769.358	6719.05
769.753	6664.59
770.148	6561.67
770.542	6557.85
770.937	6515.78
771.332	6630.85
771.726	6655.54
772.121	6576.49
772.515	6647.01
772.91	6631.26
773.304	6724.11
773.699	6637.2
774.093	6703.74
774.487	6768.91
774.881	6826.78
775.275	6819.68
775.669	6768.87
776.063	6825.1
776.457	6871.21
776.851	6779.09
777.245	6767.03
777.638	6806.47
778.032	6951.3
778.425	6904.01
778.819	6957.72
779.212	6902.17
779.606	6853.12
779.999	6878.37
780.392	6855.41
780.786	6958.07
781.179	6985.77
781.572	7040.01
781.965	7056.51
782.358	6984.6
782.751	7054.82
783.143	6997.22
783.536	7092.1
783.929	7146.29
784.322	7289.03
784.714	7331.63
785.107	7328.34
785.499	7416.16
785.891	7387.77
786.284	7363.46
786.676	7543.23
787.068	7519.69
787.46	7581.94
787.852	7605.83
788.245	7713.05
788.636	7751.16
789.028	7831.72
789.42	7877.54
789.812	7887.46
790.204	8007.9
790.595	8131.47
790.987	7885.77
791.378	7915.25
791.77	8077.53
792.161	8243.96
792.553	8311.89
792.944	8168.53
793.335	8083.28
793.726	8176.27
794.117	8291.35
794.508	8463.86
794.899	8422.35
795.29	8598.44
795.681	8671.82
796.072	8497.57
796.463	8257.53
796.853	8270.54
797.244	8468.46
797.634	8510.63
798.025	8508.27
798.415	8522.69
798.806	8632.8
799.196	8739.83
799.586	8799.85
799.976	8750.96
800.366	9037.73
800.756	9348.56
801.146	9300.42
801.536	9334.48
801.926	9426.01
802.316	9457.96
802.706	9542.95
803.095	9390.41
803.485	9521.3
803.874	9574.71
804.264	9893.5
804.653	9863.13
805.043	10043.03
805.432	10179.47
805.821	10186.78
806.21	10217.65
806.599	10367.14
806.988	10423.86
807.377	10557.59
807.766	10720
808.155	11074.38
808.544	10750.13
808.933	10766.48
809.321	10740
809.71	11107.66
810.098	11302.99
810.487	11880.87
810.875	12485.99
811.264	12522.63
811.652	12885.6
812.04	13068.65
812.428	13271.05
812.816	14226.92
813.204	14757.43
813.592	15452.72
813.98	15875.84
814.368	15757.64
814.756	16352.02
815.144	16245.9
815.531	16827.07
815.919	16729.96
816.306	17109.08
816.694	16725.84
817.081	16792.82
817.469	17212.02
817.856	17205.61
818.243	17539.03
818.63	18033.48
819.017	17505.43
819.404	17584.34
819.791	18049.96
820.178	18824.06
820.565	19139.71
820.952	20300.21
821.339	19685.18
821.725	19913.95
822.112	18982.26
822.498	18932.88
822.885	19086.06
823.271	18971.09
823.657	19495.67
824.044	19505.64
824.43	19597.21
824.816	19551.22
825.202	19006.4
825.588	20269.05
825.974	20295.61
826.36	20941.97
826.746	20981.77
827.132	21416.32
827.517	21382.63
827.903	20395.97
828.289	20438.16
828.674	19459.35
829.06	19332.8
829.445	19820.5
829.83	20263.7
830.216	20846.76
830.601	21300.28
830.986	20792.48
831.371	20630.78
831.756	21322.81
832.141	20782.72
832.526	20779.32
832.911	21128.82
833.295	20982.3
833.68	21575.44
834.065	20800.62
834.449	19674.5
834.834	19587.89
835.218	19581.45
835.603	19999.83
835.987	19733.83
836.371	20779.44
836.755	20652.7
837.139	21161.23
837.524	21469.43
837.908	21244.7
838.291	21324.31
838.675	21403.86
839.059	21661.59
839.443	21648.42
839.827	21372.4
840.21	21974.69
840.594	21787.17
840.977	22048.14
841.361	22021.84
841.744	22500.51
842.127	22314.56
842.511	22619.27
842.894	23369.12
843.277	23845.1
843.66	24529.7
844.043	24634.34
844.426	23630.67
844.809	23250.6
845.191	23286.81
845.574	22710.21
845.957	22244.95
846.339	22106.46
846.722	21461.58
847.104	21541.93
847.487	21325.14
847.869	21335.65
848.252	21679.48
848.634	22093.71
849.016	22423.46
849.398	22588.51
849.78	23655.41
850.162	23662.33
850.544	24186
850.926	24972.61
851.307	24875.87
851.689	25222.16
852.071	25789.24
852.452	26194.6
852.834	26172.21
853.215	26664.35
853.597	26839.59
853.978	27202.78
854.359	27771.92
854.741	26538.19
855.122	26399.93
855.503	26035.16
855.884	26214.65
856.265	26144.01
856.646	26295.38
857.026	25810.13
857.407	25726.99
857.788	25930.62
858.169	26290.36
858.549	25226.18
858.93	25988.8
859.31	26060.61
859.69	26314.63
860.071	25808.35
860.451	25534.88
860.831	24609.6
861.211	26047.03
861.591	26728.16
861.971	26695.1
862.351	26935.46
862.731	27424.15
863.111	27752.52
863.491	28160.18
863.87	29250.9
864.25	29675.99
864.629	29169.23
865.009	29803.51
865.388	30865.31
865.768	33078.3
866.147	32949.59
866.526	31123.48
866.905	31493.45
867.284	33271.78
867.663	31592.83
868.042	30280.01
868.421	30176.94
868.8	30677.02
869.179	30966.4
869.558	29162.19
869.936	26868.18
870.315	27351.68
870.693	28002.47
871.072	30182.46
871.45	28743.04
871.828	29108.95
872.207	30610.63
872.585	30155.08
872.963	30973.36
873.341	29912.49
873.719	29553.49
874.097	29208.64
874.475	29749
874.853	30439.13
875.23	29170.95
875.608	30380.74
875.986	32854.64
876.363	31392.28
876.741	32335.17
877.118	31527.83
877.495	33071.8
877.873	33621.06
878.25	35385.08
878.627	33942.41
879.004	34407.66
879.381	34256.13
879.758	33364.58
880.135	31073.79
880.512	32870.48
880.889	32003.07
881.265	31656.92
881.642	31402.74
882.019	31936.27
882.395	31274.82
882.772	32523.13
883.148	31126.01
883.524	30998.47
883.901	30816.3
884.277	31280.73
884.653	31098.98
885.029	31995.28
885.405	35445.58
885.781	35171.13
886.157	33718.68
886.532	34132.14
886.908	34118.91
887.284	37941.13
887.659	39182.05
888.035	40403.64
888.411	41430.42
888.786	41977.98
889.161	43448.37
889.537	42666.36
889.912	44044.69
890.287	44009.3
890.662	45154.32
891.037	44340.71
891.412	41344.17
891.787	40923.52
892.162	39506.81
892.536	40425.9
892.911	38899.53
893.286	38070.73
893.66	36525.59
894.035	37450.27
894.409	40787.6
894.784	39142.44
895.158	39796.81
895.532	42148.18
895.906	43302.09
896.281	44316.93
896.655	43614.84
897.029	49835.11
897.402	51909.5
897.776	57777.16
898.15	57570.82
898.524	56937.19
898.898	57694.89
899.271	64572.77
899.645	55928.59
900.018	53718.38
900.392	55702.55
900.765	56165.98
901.138	51979.59
901.511	51187.07
901.884	46997.32
902.258	43348.66
902.631	44782.4
903.003	51540.84
903.376	46513.07
903.749	52165.27
904.122	55851.09
904.495	61513.96
904.867	62303.18
905.24	54092.22
905.612	50357.1
905.985	51524.69
906.357	53879.46
906.729	51430.8
907.102	43932.58
907.474	42258.12
907.846	42535.06
908.218	41985.4
908.59	37084.27
908.962	35862.83
909.334	38612.81
909.705	40547.16
910.077	39338.09
910.449	40947.56
910.82	42096.37
911.192	46314.37
911.563	48103.83
911.935	51458
912.306	51520.47
912.677	53203.96
913.048	52642.59
913.419	57116.66
913.79	57457.6
914.161	61619.39
914.532	58895.8
914.903	54140.54
915.274	51433.93
915.645	50685.83
916.015	44623.96
916.386	42533.49
916.756	45271.27
917.127	46709.92
917.497	41736.14
917.868	45423.29
918.238	43146.28
918.608	44376.53
918.978	45293.28
919.348	47945.35
919.718	49524.86
920.088	47672.35
920.458	49518.21
920.828	52112.22
921.198	49399.41
921.567	52778.46
921.937	40876.95
922.306	41284.88
922.676	44537.43
923.045	37125.18
923.415	35254
923.784	32113.93
924.153	33018.67
924.522	32984.69
924.891	30996.55
925.26	33191.13
925.629	32401.24
925.998	37251.34
926.367	36361.47
926.736	34608.29
927.104	41234
927.473	44369.5
927.842	53564.6
928.21	53105.24
928.578	55846.36
928.947	52826.86
929.315	53143.46
929.683	62320.96
930.051	62809.53
930.42	72903.37
930.788	62327.81
931.156	61846.21
931.523	57932.47
931.891	53526.14
932.259	51411.18
932.627	59590.6
932.994	84326.36
933.362	69703.28
933.729	60533.77
934.097	57907.91
934.464	49032.58
934.831	56596.26
935.199	55807.47
935.566	54120.79
935.933	54919.67
936.3	66477.09
936.667	51738.1
937.034	46606.67
937.401	46112.21
937.767	39772.77
938.134	35435.09
938.501	49959.04
938.867	53198.64
939.234	89955.22
939.6	76776.45
939.967	84445.27
940.333	56467.57
940.699	48031.77
941.065	38570.27
941.431	50538.22
941.798	48702.63
942.163	63872.19
942.529	39900.57
942.895	36750.71
943.261	23758.91
943.627	31144.68
943.992	27281.51
944.358	27342.42
944.723	27456.86
945.089	26762.77
945.454	24725.63
945.82	26405.54
946.185	25394.78
946.55	29435.46
946.915	26368.9
947.28	30954.28
947.645	27264.77
948.01	25143.23
948.375	26214.82
948.74	31422.01
949.104	36677.9
949.469	53004.74
949.834	93700.8
950.198	88770.39
950.562	53201.18
950.927	44350.94
951.291	53355.46
951.655	45432.16
952.02	42693.59
952.384	32283.31
952.748	28089.11
953.112	27375.99
953.476	23798.7
953.839	22020.04
954.203	21776.6
954.567	27238.83
954.931	42964.84
955.294	36723.84
955.658	36944.85
956.021	62828.27
956.385	106702.8
956.748	157530.31
957.111	244704.65
957.474	274895.77
957.837	309570.64
958.2	234674.73
958.563	84406.76
958.926	56996.47
959.289	86649.89
959.652	96908.83
960.015	72764.75
960.377	104302.69
960.74	119105.8
961.102	205549.85
961.465	220602.83
961.827	118063.03
962.189	226536.49
962.552	157121.4
962.914	126113.36
963.276	81738.8
963.638	67590.66
964	66941.68
964.362	45256.67
964.724	43749.63
965.085	31199.15
965.447	25614.62
965.809	29195.86
966.17	29249.73
966.532	31656.79
966.893	29035.53
967.255	26445.07
967.616	31203.86
967.977	24977.19
968.338	27283.78
968.699	22416.51
969.061	22416.67
969.421	22548.78
969.782	25368.92
970.143	21406.7
970.504	22154.99
970.865	25164.1
971.225	25700.33
971.586	25137.33
971.946	35839.25
972.307	31134.48
972.667	40739.35
973.027	41951.35
973.388	50894.29
973.748	34564.44
974.108	37661.43
974.468	51008.46
974.828	39313.81
975.188	30270.55
975.548	27800.72
975.907	23332.92
976.267	26176.18
976.627	21973.47
976.986	22785.13
977.346	21724.99
977.705	20892.34
978.064	19026.67
978.424	15831.82
978.783	16409.26
979.142	18741.58
979.501	17943.34
979.86	18980.28
980.219	18264.09
980.578	23576.95
980.937	26411.4
981.296	23536.05
981.654	24221.49
982.013	37702.08
982.371	48903.52
982.73	45624.13
983.088	51687.81
983.447	55181.36
983.805	78843.92
984.163	164930.76
984.521	182934.92
984.879	268185.79
985.237	-436098.54
985.595	420444.6
985.953	104605.69
986.311	60451
986.669	35107.28
987.026	30299.15
987.384	40780.94
987.741	42229.22
988.099	30135.48
988.456	24030.8
988.814	22494.08
989.171	19558.26
989.528	19296.84
989.885	20348.29
990.242	16112.01
990.599	20063.67
990.956	16411.05
991.313	11471.16
991.67	9402.16
992.027	9956.56
992.383	8848.65
992.74	7752.51
993.096	8117.27
993.453	8415.63
993.809	8729.31
994.165	11626.53
994.522	10638.96
994.878	11721.48
995.234	14722.07
995.59	14516.48
995.946	13767.87
996.302	15697.95
996.658	18169.46
997.013	20044.36
997.369	23770.56
997.725	30376.85
998.08	19650.45
998.436	30374.86
998.791	41914.49
999.147	41823.75
999.502	45627.47
999.857	33198.57
1000.212	54101.92
1000.567	76911.66
1000.922	44404.69
1001.277	28193.57
1001.632	20940.76
1001.987	27000.64
1002.342	19383
1002.696	15508.8
1003.051	12363.47
1003.406	14990.91
1003.76	14923.65
1004.114	14724.68
1004.469	12385.2
1004.823	10245.07
1005.177	11079.82
1005.531	8784.03
1005.885	7792.65
1006.239	8787.16
1006.593	10996.48
1006.947	14740.04
1007.301	11039.6
1007.655	12033.54
1008.008	8847.33
1008.362	9937.45
1008.715	14200.03
1009.069	12894.78
1009.422	19344.17
1009.776	38898.65
1010.129	25784.35
1010.482	21553.26
1010.835	18217.15
1011.188	37992.76
1011.541	35766.99
1011.894	-218426.1
1012.247	644321.87
1012.6	43793.43
1012.952	27639.53
1013.305	14305.93
1013.657	10266.43
1014.01	9756.38
1014.362	8047.76
1014.715	7118.68
1015.067	6188.24
1015.419	6044.95
1015.771	5355.6
1016.123	4749.33
1016.475	4885.33
1016.827	5198.83
1017.179	5580.26
1017.531	5658.48
1017.883	5771.95
1018.234	5562.77
1018.586	7038.39
1018.938	7456.97
1019.289	10268.46
1019.64	11751.55
1019.992	10969.87
1020.343	10028.98
1020.694	7884.76
1021.045	6959.05
1021.396	7917.27
1021.747	8472.84
1022.098	10181.95
1022.449	7383.32
1022.8	6841.5
1023.151	4783.41
1023.501	4216.06
1023.852	4595.14
1024.202	4776.24
1024.553	5283.14
1024.903	5163.25
1025.253	4412.68
1025.604	3969.26
1025.954	4930.7
1026.304	6026.51
1026.654	7044.12
1027.004	10324.88
1027.354	16793.57
1027.703	15781.21
1028.053	20699.48
1028.403	30218.64
1028.753	44014.21
1029.102	59979.43
1029.452	308886.6
1029.801	13336.15
1030.15	8618.36
1030.499	7312.95
897.758	2537.43
901.051	2492.88
904.343	2526.82
907.636	2526.86
910.928	2594.77
914.22	2504.63
917.511	2512.38
920.803	2573.77
924.094	2585.84
927.384	2573.12
930.675	2537.28
933.965	2494.76
937.255	2508.74
940.544	2475.33
943.834	2435.96
947.123	2373.29
950.411	2469.3
953.7	2442.75
956.988	2415.07
960.276	2356.17
963.563	2429.94
966.851	2427.38
970.138	2482.19
973.424	2475.83
976.711	2427.07
979.997	2534.02
983.283	2575.71
986.568	2487.34
989.853	2499.34
993.138	2527.12
996.423	2608.53
999.708	2551.34
1002.992	2607.56
1006.275	2464.23
1009.559	2497.73
1012.842	2609.23
1016.125	2547.96
1019.408	2525.67
1022.69	2607.6
1025.972	2627.54
1029.254	2602.76
1032.536	2544.16
1035.817	2566.96
1039.098	2519.21
1042.379	2639.84
1045.659	2648.53
1048.939	2587.88
1052.219	2604.31
1055.498	2612.85
1058.778	2599.99
1062.057	2585.15
1065.335	2607.02
1068.614	2622.49
1071.892	2610.18
1075.17	2681.06
1078.447	2672.49
1081.724	2665.64
1085.001	2698.19
1088.278	2675.19
1091.554	2687.38
1094.83	2682.8
1098.106	2713.01
1101.382	2753.8
1104.657	2757.6
1107.932	2751.87
1111.206	2719.68
1114.481	2676.39
1117.755	2679.53
1121.029	2662.64
1124.302	2717.97
1127.575	2671.25
1130.848	2663.28
1134.121	2625.02
1137.393	2576.27
1140.665	2642.5
1143.937	2619.9
1147.208	2575.81
1150.48	2623.17
1153.75	2606.29
1157.021	2634.07
1160.291	2604.93
1163.561	2654.09
1166.831	2636.31
1170.101	2666.95
1173.37	2640.97
1176.639	2586.79
1179.907	2643.36
1183.176	2653.66
1186.444	2658.9
1189.711	2688.93
1192.979	2700.63
1196.246	2656.91
1199.513	2673.74
1202.78	2674.07
1206.046	2683.35
1209.312	2708.12
1212.578	2730.91
1215.843	2686.01
1219.108	2661.24
1222.373	2685.09
1225.638	2648.84
1228.902	2635.68
1232.166	2598.35
1235.43	2580.48
1238.693	2603.57
1241.956	2599.46
1245.219	2642.63
1248.482	2632.47
1251.744	2625.71
1255.006	2765.29
1258.268	2718.81
1261.529	2665.74
1264.79	2670.99
1268.051	2775.99
1271.312	2792.68
1274.572	2757.39
1277.832	2747.13
1281.092	2735.03
1284.351	2712.01
1287.61	2692.7
1290.869	2614.55
1294.128	2595.83
1297.386	2674.88
1300.644	2664.84
1303.902	2675.51
1307.159	2534.25
1310.416	2589.45
1313.673	2614.37
1316.93	2601.69
1320.186	2644.44
1323.442	2687.73
1326.697	2680.28
1329.953	2663.05
1333.208	2689.55
1336.463	2667.12
1339.717	2610.73
1342.972	2737.88
1346.226	2714.19
1349.479	2650.38
1352.733	2623.59
1355.986	2640.35
1359.238	2618.9
1362.491	2619.34
1365.743	2622.56
1368.995	2617.82
1372.247	2629.69
1375.498	2652.54
1378.749	2675.03
1382	2625.77
1385.251	2675.25
1388.501	2634.28
1391.751	2620.84
1395	2588.03
1398.25	2620.57
1401.499	2632.58
1404.748	2564.68
1407.996	2550.2
1411.244	2536.19
1414.492	2517.35
1417.74	2496.28
1420.987	2505.49
1424.234	2560.17
1427.481	2536.87
1430.728	2596.76
1433.974	2569.78
1437.22	2581.18
1440.465	2581.14
1443.711	2555.33
1446.956	2588.13
1450.201	2570.05
1453.445	2617.56
1456.689	2596.74
1459.933	2609.78
1463.177	2646.55
1466.42	2617.01
1469.663	2597.97
1472.906	2595.56
1476.148	2659.32
1479.391	2637.56
1482.633	2603.53
1485.874	2618.42
1489.115	2607.21
1492.356	2610.63
1495.597	2587.62
1498.838	2588.03
1502.078	2560.57
1505.318	2516.55
1508.557	2560.4
1511.797	2544.51
1515.036	2597.29
1518.274	2589.14
1521.513	2559.79
1524.751	2580.07
1527.989	2596.02
1531.227	2610.93
1534.464	2611.12
1537.701	2626.45
1540.938	2645.15
1544.174	2594.03
1547.41	2592.85
1550.646	2632.32
1553.882	2674.14
1557.117	2726.42
1560.352	2740.59
1563.587	2699.08
1566.821	2661.27
1570.055	2693.08
1573.289	2663.41
1576.523	2736.91
1579.756	2748.73
1582.989	2766.55
1586.222	2728.22
1589.454	2761.36
1592.686	2740.65
1595.918	2767.59
1599.15	2758.76
1602.381	2825.99
1605.612	2787.46
1608.843	2888.12
1612.073	2799.19
1615.303	2782.56
1618.533	2778.08
1621.762	2775.61
1624.992	2763.28
1628.221	2752.62
1631.449	2740.21
1634.678	2787.11
1637.906	2744.34
1641.134	2780.5
1644.361	2740.02
1647.588	2727.17
1650.815	2745.49
1654.042	2722.56
1657.269	2753.41
1660.495	2708.99
1663.72	2722.83
1666.946	2686.38
1670.171	2638.87
1673.396	2614.23
1676.621	2599.65
1679.845	2611.62
1683.069	2629.92
1686.293	2668.57
1689.517	2642.92
1692.74	2579.09
1695.963	2607.2
1699.185	2632.42
1702.408	2603.52
1705.63	2643
1708.852	2653.79
1712.073	2628.76
1715.294	2619.37
1718.515	2677.53
1721.736	2629.44
1724.956	2615.03
1728.176	2639.27
1731.396	2663.05
1734.616	2647.63
1737.835	2679.79
1741.054	2656.73
1744.272	2651.71
1747.491	2680.62
1750.709	2727.86
1753.927	2642.59
1757.144	2681.65
1760.361	2731.75
1763.578	2719.31
1766.795	2662.33
1770.011	2662.31
1773.227	2699.5
1776.443	2737.24
1779.658	2779.82
1782.874	2720.27
1786.089	2700.55
1789.303	2702.25
1792.518	2707.53
1795.732	2693.02
1798.945	2702.27
1802.159	2752.04
1805.372	2663.09
1808.585	2650.73
1811.797	2650.06
1815.01	2693.06
1818.222	2701.96
1821.434	2679.83
1824.645	2736.4
1827.856	2724.37
1831.067	2760.43
1834.278	2712.68
1837.488	2691.06
1840.698	2836.18
1843.908	2761.93
1847.117	2727.63
1850.326	2622.93
1853.535	2714.45
1856.744	2730.08
1859.952	2644.94
1863.16	2646.67
1866.368	2665
1869.575	2768.94
1872.782	2655.58
1875.989	2589.75
1879.196	2665.28
1882.402	2651.77
1885.608	2690.2
1888.814	2601.66
1892.019	2500.5
1895.224	2550.51
1898.429	2528.15
1901.634	2506.13
1904.838	2484.14
1908.042	2530.09
1911.246	2540.97
1914.449	2479.58
1917.652	2473.03
1920.855	2454.03
1924.058	2496.49
1927.26	2536.59
1930.462	2562.95
1933.664	2591.37
1936.865	2528.99
1940.066	2537.32
1943.267	2487.78
1946.467	2498.52
1949.668	2523.87
1952.868	2592.97
1956.067	2574.5
1959.267	2510.44
1962.466	2535.56
1965.665	2522.45
1968.863	2517.53
1972.061	2530.03
1975.259	2528.22
1978.457	2607.05
1981.654	2565.68
1984.852	2567
1988.048	2505.88
1991.245	2504.35
1994.441	2587.95
1997.637	2567.98
2000.833	2544.43
2004.028	2583.08
2007.223	2642.63
2010.418	2620.97
2013.613	2576.01
2016.807	2553.85
2020.001	2561.83
2023.194	2597.01
2026.388	2576.54
2029.581	2522.65
2032.774	2572.92
2035.966	2583.88
2039.158	2520.25
2042.35	2545.06
2045.542	2472.33
2048.733	2572.76
2051.924	2588.62
2055.115	2609.67
2058.306	2560.38
2061.496	2618.31
2064.686	2680.3
2067.875	2593.02
2071.065	2604.03
2074.254	2626.08
2077.442	2578.72
2080.631	2667.4
2083.819	2566.84
2087.007	2552.88
2090.195	2528.3
2093.382	2559.19
2096.569	2539.5
2099.756	2494.32
2102.942	2525.38
2106.128	2532.68
2109.314	2526.38
2112.5	2495.02
2115.685	2468.23
2118.87	2477.64
2122.055	2539.52
2125.239	2508.9
2128.424	2489.59
2131.608	2580.71
2134.791	2564.22
2137.974	2617.59
2141.157	2604.1
2144.34	2558.44
2147.523	2569.63
2150.705	2586.97
2153.887	2563.16
2157.068	2518.34
2160.25	2514.36
2163.431	2544.25
2166.611	2497.33
2169.792	2514.42
2172.972	2411.82
2176.152	2484.27
2179.331	2517.92
2182.511	2501.13
2185.69	2532.02
2188.868	2527.06
2192.047	2578.66
2195.225	2575.97
2198.403	2526.17
2201.58	2515.17
2204.758	2510.11
2207.935	2593.52
2211.111	2485.57
2214.288	2471.78
2217.464	2511.4
2220.64	2473.7
2223.815	2529.4
2226.991	2451.57
2230.166	2470.91
2233.34	2504.21
2236.515	2526.03
2239.689	2592.15
2242.863	2539.12
2246.036	2595.91
2249.209	2592.9
2252.382	2621.5
2255.555	2616.89
2258.727	2557.29
2261.9	2595.41
2265.071	2585.63
2268.243	2587.3
2271.414	2524.44
2274.585	2493.15
2277.756	2556.67
2280.926	2511.4
2284.096	2546.69
2287.266	2462.56
2290.436	2514.05
2293.605	2542.64
2296.774	2572.06
2299.942	2589.74
2303.111	2605.67
2306.279	2654.72
2309.447	2641.5
2312.614	2614.33
2315.781	2638.63
2318.948	2609.41
2322.115	2646.58
2325.281	2549.02
2328.447	2565.12
2331.613	2540.17
2334.779	2517.62
2337.944	2516.6
2341.109	2515.31
2344.274	2499.69
2347.438	2465.99
2350.602	2489.39
2353.766	2505.1
2356.929	2491.77
2360.092	2534.99
2363.255	2488.11
2366.418	2430.22
2369.58	2532.48
2372.742	2343.83
2375.904	2353.61
2379.066	2331.52
2382.227	2363.37
2385.388	2325.77
2388.548	2256.88
2391.709	2307.36
2394.869	2286.64
2398.029	2378.55
2401.188	2386.85
2404.347	2326.99
2407.506	2452.84
2410.665	2483.62
2413.823	2486.49
2416.981	2449.2
2420.139	2477.09
2423.296	2526.3
2426.453	2498.46
2429.61	2522.94
2432.767	2462.96
2435.923	2502.41
2439.079	2463.12
2442.235	2507.57
2445.391	2437.95
2448.546	2469.34
2451.701	2515.85
2454.855	2493.97
2458.009	2538.18
2461.163	2537.81
2464.317	2499.08
2467.471	2532.14
2470.624	2567.78
2473.777	2541.79
2476.929	2557.14
2480.082	2584.22
2483.234	2549.17
2486.385	2499.55
2489.537	2491.57
2492.688	2460.81
2495.839	2480.11
2498.989	2491.25
2502.14	2476.18
2505.29	2462.05
2508.439	2484.63
2511.589	2411.54
2514.738	2418.99
2517.887	2448.47
2521.035	2514.88
2524.183	2493.92
2527.331	2475.78
2530.479	2453.14
2533.627	2460.87
