Data from N_2_DEC_NC_4N_Splice17_12-25-30-279.txt Node
Date: Sat Mar 14 12:25:30 EDT 2020
User: sa697716
Spectrometer: FLMS03696
Trigger mode: 0
Integration Time (sec): 3.180400E-1
Scans to average: 20
Electric dark correction enabled: true
Nonlinearity correction enabled: true
Boxcar width: 5
XAxis mode: Wavelengths
Number of Pixels in Spectrum: 2048
>>>>>Begin Spectral Data<<<<<
187.83	-418960.8
188.298	2980.55
188.766	1602.41
189.233	1438.52
189.701	1966.92
190.169	2691.52
190.636	1027.46
191.104	809.52
191.571	143.34
192.039	-42.58
192.506	-68.02
192.974	405.75
193.441	-647.61
193.908	22
194.375	20.14
194.842	13.06
195.31	23.08
195.777	115.37
196.244	303.85
196.711	383.76
197.177	501.21
197.644	717.53
198.111	1270.48
198.578	1801.22
199.045	1440.02
199.511	2387.21
199.978	2817.09
200.445	2432.84
200.911	2720
201.378	3024.71
201.844	2777.21
202.31	4743.52
202.777	4967.73
203.243	2761.05
203.709	2635.06
204.176	3153.09
204.642	2587.51
205.108	2421.97
205.574	1972.62
206.04	1780.28
206.506	1672.01
206.972	1562.49
207.438	1524.1
207.903	1744.95
208.369	1522.81
208.835	1521.97
209.301	1598.49
209.766	1628.76
210.232	1607.92
210.697	1983.57
211.163	2443.9
211.628	3678.95
212.094	3103.65
212.559	3791.57
213.024	2370.12
213.49	2905.14
213.955	2827.15
214.42	2753.52
214.885	2574.95
215.35	2465.66
215.815	2375.14
216.28	2513.42
216.745	2051.2
217.21	2206.9
217.675	2006.87
218.14	2232.48
218.604	2469.78
219.069	2804.82
219.534	2947.72
219.998	3403.88
220.463	4130.37
220.927	5066.36
221.392	4769.83
221.856	4818.79
222.32	6048.21
222.785	7474.45
223.249	9382.15
223.713	10483.09
224.177	10465.73
224.642	13365.11
225.106	16407.72
225.57	17903.74
226.034	13301.47
226.497	20227.93
226.961	18297.24
227.425	21301.38
227.889	23630.3
228.353	23604.61
228.816	48598.23
229.28	46464.3
229.744	39184.32
230.207	23817.9
230.671	23369.99
231.134	38613.3
231.597	44494.63
232.061	44342.88
232.524	43108.23
232.987	29587.5
233.45	26585.59
233.914	23822.06
234.377	24390.39
234.84	22292.97
235.303	26222.18
235.766	29209.41
236.229	30113.3
236.691	18923
237.154	21228.07
237.617	15973.11
238.08	16352.69
238.542	19137.87
239.005	13669.28
239.468	13531.97
239.93	12723.17
240.393	11569.37
240.855	10159.09
241.317	10386.17
241.78	12605.69
242.242	13026.07
242.704	14068.26
243.166	12217.66
243.629	11075.06
244.091	12734.14
244.553	13945.33
245.015	14978.86
245.477	19321.85
245.939	28244.17
246.4	29932.34
246.862	29076.26
247.324	27340.16
247.786	30501.88
248.247	39970.38
248.709	41176.22
249.17	30775.24
249.632	28986.94
250.093	33586.57
250.555	28968.86
251.016	17644.48
251.477	16724.05
251.939	18038.25
252.4	18908.29
252.861	22437.04
253.322	20839.18
253.783	24783.19
254.244	32122.39
254.705	25276.92
255.166	22384.38
255.627	22022.86
256.088	31083.58
256.549	33021.29
257.009	28417.89
257.47	34453.66
257.931	28036.41
258.391	21019.95
258.852	21646.61
259.312	22651.58
259.773	27963.89
260.233	23686.44
260.694	19970.89
261.154	22643.63
261.614	18150.91
262.074	16193.69
262.534	16808.53
262.994	15844.59
263.455	21064.1
263.915	17732.25
264.374	16681.68
264.834	18164.38
265.294	20087.03
265.754	20801.4
266.214	19665.59
266.673	18411.45
267.133	23215.1
267.593	23003.52
268.052	28085.89
268.512	24397.41
268.971	29422.17
269.431	32225.95
269.89	28860.24
270.349	43304.02
270.809	48227.05
271.268	43278.22
271.727	96881.61
272.186	62709.06
272.645	47031.85
273.104	33925.05
273.563	49095.53
274.022	38561.51
274.481	32813.94
274.94	25257.49
275.399	18727.67
275.857	21772.54
276.316	29389.42
276.775	26160.24
277.233	25742.75
277.692	24067.87
278.15	27244.55
278.609	28044.98
279.067	25917.95
279.525	24061.06
279.984	31069.56
280.442	37318.7
280.9	36804.73
281.358	24244.21
281.816	22569.86
282.274	22101.53
282.732	22845.68
283.19	22927.2
283.648	19779.04
284.106	21073.88
284.564	21426.96
285.021	19871.09
285.479	14795.37
285.937	13433.26
286.394	11789.1
286.852	12141.59
287.309	12777.13
287.767	12349.12
288.224	11743.86
288.682	12873.67
289.139	14117.64
289.596	12905.49
290.053	13376.5
290.511	16862.66
290.968	20460.23
291.425	27718.85
291.882	23026.18
292.339	20020.18
292.796	19807.08
293.252	18633.57
293.709	14799.1
294.166	13235.2
294.623	14612.66
295.079	14022.14
295.536	14081.22
295.992	12771.62
296.449	12627.87
296.905	13127.27
297.362	12577.8
297.818	13214.27
298.274	13706.39
298.731	13950.69
299.187	13801.69
299.643	14792.13
300.099	17881.33
300.555	19596.28
301.011	16350.76
301.467	15769.4
301.923	18427.47
302.379	17965.55
302.835	17652.07
303.291	17665.99
303.746	20072.3
304.202	25376.49
304.658	25490.46
305.113	17134.13
305.569	16798.86
306.024	17927.5
306.479	17047.3
306.935	14399.16
307.39	15705.64
307.845	14513.1
308.301	14591.69
308.756	14192.8
309.211	13680.1
309.666	14022.52
310.121	17438.83
310.576	17659.58
311.031	17477
311.486	19947.27
311.94	19866.97
312.395	26529.49
312.85	49730.03
313.305	244111.69
313.759	1268492.67
314.214	91833.97
314.668	72752.52
315.123	60989.83
315.577	21944.06
316.032	19548.09
316.486	24514.39
316.94	19320.67
317.394	13455.08
317.849	10461.28
318.303	9883.45
318.757	9299.3
319.211	10260.39
319.665	8970.76
320.119	9088.2
320.572	12983.27
321.026	12139.07
321.48	10094.64
321.934	11009.11
322.387	11014.33
322.841	11897.87
323.295	10715.4
323.748	12330.9
324.202	12522.59
324.655	15032.29
325.108	21028.02
325.562	14852.08
326.015	17607.82
326.468	13319.89
326.921	14886.21
327.374	13908.61
327.827	14483.01
328.28	16396.68
328.733	10993.12
329.186	9656.94
329.639	9201.98
330.092	7752.81
330.545	7390.01
330.997	7450.69
331.45	8156.87
331.903	9581.59
332.355	16467.63
332.808	15983.81
333.26	13162.89
333.713	14317.44
334.165	14442
334.617	19267.34
335.069	15532.74
335.522	28099.79
335.974	31143.81
336.426	28348.58
336.878	19542.07
337.33	9910.34
337.782	9680.64
338.234	12147.92
338.686	14487.26
339.137	17107.69
339.589	16105.82
340.041	12633.77
340.493	10822.92
340.944	11042.28
341.396	11928.6
341.847	10056.37
342.299	11870.91
342.75	14503.72
343.201	12645.71
343.653	14521.04
344.104	17846.24
344.555	14042.63
345.006	21807.63
345.457	16758.23
345.908	13340.77
346.359	12553.57
346.81	10220.72
347.261	10758.61
347.712	10562.45
348.163	11311.41
348.613	11473.34
349.064	10704.33
349.515	9377.99
349.965	9608.04
350.416	11557.68
350.866	12678.3
351.317	14293.3
351.767	23661.61
352.217	29926.33
352.668	24860.47
353.118	22762.96
353.568	21896.77
354.018	17323.05
354.468	18244.99
354.918	13117.31
355.368	11438.9
355.818	16154.14
356.268	46455.36
356.718	194563.67
357.168	48435.23
357.617	24322.81
358.067	27025.52
358.517	25364.95
358.966	29802.84
359.416	33467.62
359.865	36123.09
360.315	43175.47
360.764	20182.92
361.213	11323.34
361.663	10731.08
362.112	13225.46
362.561	21296.32
363.01	16117.68
363.459	13569.58
363.908	14668.59
364.357	12491.67
364.806	21087.28
365.255	14434.26
365.703	13243.54
366.152	13246.6
366.601	10728.96
367.05	8750.62
367.498	7990.9
367.947	8340.12
368.395	8666.16
368.844	7688.5
369.292	9224.62
369.74	6378.98
370.189	9786.5
370.637	11461.01
371.085	9880.68
371.533	12041.23
371.981	11550.55
372.429	11023.82
372.877	11459.14
373.325	9597.42
373.773	9726.34
374.221	8659.93
374.669	10733.7
375.116	9273.49
375.564	9334.28
376.012	10411.75
376.459	8554.28
376.907	10214.49
377.354	12299.61
377.801	11473.66
378.249	13156.94
378.696	16860
379.143	20393.35
379.591	21736.69
380.038	36772.39
380.485	26548.2
380.932	28749.8
381.379	26382.72
381.826	19443.17
382.273	13837.1
382.72	12094.47
383.166	11796.88
383.613	7647.5
384.06	6891.61
384.506	7964.5
384.953	5856.44
385.4	5876.31
385.846	5135.79
386.292	4991.2
386.739	4886.78
387.185	4826.54
387.631	4824.05
388.078	4693.69
388.524	5018.75
388.97	4647.25
389.416	3887.68
389.862	4142.7
390.308	3943.02
390.754	4022.79
391.2	4389.83
391.645	4504.57
392.091	4337.64
392.537	4210.67
392.983	4226.38
393.428	4188.34
393.874	4504.31
394.319	4538.55
394.765	4318.94
395.21	4446.3
395.655	4172.22
396.101	3907.49
396.546	3534.83
396.991	3562.39
397.436	3320.7
397.881	3216.1
398.326	3038.96
398.771	2882.09
399.216	2526.34
399.661	2281.38
400.106	2291.36
400.551	2355.06
400.995	2122.09
401.44	2108.46
401.885	1993.11
402.329	2018.97
402.774	1942.68
403.218	1895.21
403.663	1832.35
404.107	1893.26
404.551	1918.79
404.995	1760.4
405.44	1699.71
405.884	1732.71
406.328	1679.15
406.772	1674.48
407.216	1528.69
407.66	1480.71
408.104	1406.41
408.547	1317.64
408.991	1276.89
409.435	1228.12
409.879	1213.31
410.322	1201.89
410.766	1161.12
411.209	1106.68
411.653	1065.93
412.096	1047.72
412.54	1050.26
412.983	1047.24
413.426	1055.57
413.869	1051.98
414.312	1034.69
414.756	998.06
415.199	952.46
415.642	927.78
416.085	929.69
416.527	923.25
416.97	937.96
417.413	890.18
417.856	878.42
418.298	868.72
418.741	865.05
419.184	861.5
419.626	896.29
420.069	899.04
420.511	904.95
420.953	887.44
421.396	879.79
421.838	856.88
422.28	877.09
422.722	887.5
423.164	900.4
423.606	887.41
424.048	885.53
424.49	844.23
424.932	838.86
425.374	826.08
425.816	838.21
426.258	851.22
426.699	859.55
427.141	848
427.582	857.5
428.024	851.7
428.465	846.88
428.907	826.19
429.348	816.67
429.789	816.14
430.231	799.24
430.672	809.04
431.113	792.8
431.554	783.02
431.995	763.24
432.436	738.66
432.877	724.35
433.318	712.33
433.759	711.53
434.2	710.57
434.64	704.93
435.081	707.65
435.522	674.34
435.962	648.51
436.403	638.02
436.843	648.21
437.284	631.3
437.724	613.58
438.164	613.57
438.604	599.32
439.045	579.9
439.485	557.71
439.925	546.46
440.365	532.73
440.805	528.31
441.245	521.76
441.685	502.81
442.125	501.4
442.564	506.08
443.004	497.19
443.444	496.89
443.883	497.88
444.323	495.64
444.762	497.77
445.202	506.62
445.641	519.4
446.081	517.19
446.52	524.13
446.959	522.55
447.398	512.68
447.837	509.5
448.276	504.45
448.716	512.03
449.154	516.55
449.593	508.37
450.032	507.63
450.471	498.02
450.91	501.05
451.349	503.5
451.787	502.11
452.226	512.41
452.664	514.15
453.103	516
453.541	515.51
453.98	517.69
454.418	521.86
454.856	516.23
455.295	516.89
455.733	522.18
456.171	523.97
456.609	526.62
457.047	527.47
457.485	536.57
457.923	539.32
458.361	533.59
458.798	536.4
459.236	535.88
459.674	539.48
460.111	543.23
460.549	537.85
460.987	537.37
461.424	535.36
461.862	531.78
462.299	522.59
462.736	521.55
463.173	523.59
463.611	517.89
464.048	517.09
464.485	522.21
464.922	517.81
465.359	515.82
465.796	511.79
466.233	508.58
466.67	505.36
467.106	506.16
467.543	502.14
467.98	495.76
468.416	483.62
468.853	479.17
469.29	465.2
469.726	460.75
470.162	448.92
470.599	441.08
471.035	437.58
471.471	426.96
471.907	423.55
472.344	419.97
472.78	422.29
473.216	428.45
473.652	424.55
474.088	424.09
474.523	422.27
474.959	426.68
475.395	423.88
475.831	421.91
476.266	424.88
476.702	424.5
477.138	421.22
477.573	420.09
478.008	417.93
478.444	420.23
478.879	424.98
479.314	427.85
479.75	427.9
480.185	429.21
480.62	432.06
481.055	434.8
481.49	439.47
481.925	446.67
482.36	455.81
482.795	468.98
483.229	481.84
483.664	492.6
484.099	495.29
484.534	503.95
484.968	510.5
485.403	513.79
485.837	513.68
486.271	513.08
486.706	514
487.14	508.94
487.574	502.48
488.009	499.28
488.443	496
488.877	502.54
489.311	505.31
489.745	513.12
490.179	520.22
490.613	532.49
491.046	538.61
491.48	544.59
491.914	547.76
492.348	553.73
492.781	560.29
493.215	564.22
493.648	568.18
494.082	576.78
494.515	580.67
494.948	590.73
495.382	598.21
495.815	606.57
496.248	616.12
496.681	631.1
497.114	646.03
497.547	659.8
497.98	676.81
498.413	687.93
498.846	701.14
499.279	714.16
499.711	723.44
500.144	731.4
500.577	746.79
501.009	763.17
501.442	778.63
501.874	786.08
502.306	793.99
502.739	807.24
503.171	828.1
503.603	837.98
504.036	854.02
504.468	865.63
504.9	883.21
505.332	896.81
505.764	907.68
506.196	920.53
506.627	942.32
507.059	962.11
507.491	978.36
507.923	982.54
508.354	1004.67
508.786	1021.8
509.217	1047.56
509.649	1068.95
510.08	1095.68
510.512	1119.81
510.943	1141.88
511.374	1158.96
511.805	1186.24
512.237	1212.7
512.668	1253.26
513.099	1287.58
513.53	1322.57
513.961	1349.98
514.391	1390.39
514.822	1430.33
515.253	1473.44
515.684	1505.59
516.114	1542.23
516.545	1568.99
516.975	1600.13
517.406	1621.89
517.836	1627.04
518.267	1635.05
518.697	1656.19
519.127	1661.84
519.558	1670.58
519.988	1675.45
520.418	1688.45
520.848	1709.52
521.278	1721.01
521.708	1737.27
522.138	1751.82
522.567	1788.2
522.997	1817.57
523.427	1835.84
523.857	1855.2
524.286	1867.35
524.716	1885.31
525.145	1905.05
525.575	1916.44
526.004	1931.86
526.433	1928.48
526.863	1928.44
527.292	1915.24
527.721	1921.94
528.15	1927.31
528.579	1927.7
529.008	1939.4
529.437	1964.06
529.866	1980.03
530.295	1999.94
530.724	2014.05
531.152	2044.18
531.581	2060.14
532.01	2079.89
532.438	2088.43
532.867	2105.36
533.295	2126.61
533.723	2133.58
534.152	2130.81
534.58	2129.79
535.008	2110.73
535.436	2111.78
535.865	2119.8
536.293	2136.28
536.721	2154.9
537.149	2184.14
537.576	2187.61
538.004	2200.67
538.432	2210.15
538.86	2208.95
539.287	2218.49
539.715	2234.31
540.143	2238.58
540.57	2234.53
540.998	2229.56
541.425	2202.08
541.852	2176.97
542.28	2174.33
542.707	2156.06
543.134	2138.45
543.561	2132.03
543.988	2122.81
544.415	2122.26
544.842	2115.36
545.269	2106.52
545.696	2108.16
546.123	2122.9
546.549	2111.04
546.976	2094.83
547.403	2094.17
547.829	2096.81
548.256	2100.05
548.682	2094.77
549.108	2084.93
549.535	2083.23
549.961	2085.52
550.387	2070.91
550.813	2064.47
551.24	2071.93
551.666	2073.44
552.092	2062.34
552.518	2054.2
552.943	2046.39
553.369	2055.74
553.795	2063.31
554.221	2065.05
554.646	2060.01
555.072	2072.53
555.498	2079.27
555.923	2088.63
556.349	2106.36
556.774	2115.9
557.199	2117.79
557.625	2125.07
558.05	2119.28
558.475	2131.5
558.9	2130.59
559.325	2122.71
559.75	2115.21
560.175	2108.14
560.6	2101.33
561.025	2099.36
561.449	2101.39
561.874	2108.82
562.299	2114.52
562.723	2121.6
563.148	2109.93
563.572	2114.82
563.997	2127.2
564.421	2134.45
564.846	2135.17
565.27	2140.38
565.694	2138.7
566.118	2153.39
566.542	2163.23
566.966	2157.32
567.39	2154.36
567.814	2142.71
568.238	2144.22
568.662	2151.9
569.086	2156.89
569.509	2167.63
569.933	2151.89
570.357	2144.5
570.78	2121.04
571.204	2107.16
571.627	2095.39
572.05	2093.77
572.474	2095.14
572.897	2080.73
573.32	2072.07
573.743	2062.54
574.166	2040.95
574.589	2041.44
575.012	2033.03
575.435	2031.46
575.858	2020.21
576.281	2007.49
576.704	1989.33
577.126	1975.28
577.549	1961.79
577.972	1950.82
578.394	1936.84
578.817	1928.01
579.239	1905.78
579.661	1888.92
580.084	1870.84
580.506	1854.99
580.928	1850.52
581.35	1838.14
581.772	1831.89
582.194	1817.58
582.616	1802.87
583.038	1786.06
583.46	1774.83
583.882	1771.84
584.303	1777.99
584.725	1774.42
585.147	1776.16
585.568	1787.84
585.99	1801.91
586.411	1810.76
586.833	1827.82
587.254	1829.85
587.675	1848.13
588.096	1862.32
588.518	1856.25
588.939	1836.34
589.36	1832.49
589.781	1822.91
590.202	1789.52
590.623	1779.98
591.043	1777.22
591.464	1761.4
591.885	1757.44
592.305	1749.87
592.726	1732.82
593.147	1733.67
593.567	1727.31
593.987	1718.99
594.408	1711.76
594.828	1710.19
595.248	1702.47
595.669	1681.12
596.089	1674.16
596.509	1665.6
596.929	1649.79
597.349	1652.14
597.769	1639.72
598.189	1632.21
598.608	1633.25
599.028	1635.43
599.448	1636.57
599.867	1622.7
600.287	1617.3
600.706	1612.01
601.126	1600.59
601.545	1598.7
601.965	1596.96
602.384	1592
602.803	1595.14
603.222	1589.99
603.641	1582.04
604.061	1575.9
604.48	1569.82
604.898	1578.82
605.317	1584.23
605.736	1586
606.155	1581.96
606.574	1569.72
606.992	1575.04
607.411	1569.55
607.829	1558.64
608.248	1554.06
608.666	1551.69
609.085	1550.28
609.503	1539.39
609.921	1530.94
610.339	1532.69
610.758	1530.63
611.176	1524.66
611.594	1512.35
612.012	1506.82
612.43	1510
612.847	1516.55
613.265	1515.55
613.683	1519.39
614.101	1520.14
614.518	1514
614.936	1501.37
615.353	1484.22
615.771	1479.29
616.188	1478.84
616.606	1473.9
617.023	1464.85
617.44	1447.36
617.857	1439.1
618.274	1429.2
618.691	1421.78
619.108	1411.09
619.525	1403.09
619.942	1409.69
620.359	1412.06
620.776	1405.66
621.192	1400.35
621.609	1396.56
622.026	1404.1
622.442	1409.75
622.859	1412.34
623.275	1403.56
623.691	1409.77
624.108	1423.13
624.524	1439.2
624.94	1438.24
625.356	1449.41
625.772	1464.06
626.188	1477.4
626.604	1478.3
627.02	1474.18
627.436	1470.52
627.852	1477.32
628.268	1489.44
628.683	1478.42
629.099	1468.96
629.514	1463.66
629.93	1467.27
630.345	1472.35
630.761	1467.59
631.176	1470.9
631.591	1463.98
632.007	1457.52
632.422	1455.64
632.837	1444.17
633.252	1441.32
633.667	1429.14
634.082	1418.66
634.497	1403.91
634.911	1380.86
635.326	1375.41
635.741	1354.88
636.155	1342.17
636.57	1342.83
636.984	1341.84
637.399	1341.65
637.813	1339.62
638.228	1337.06
638.642	1340.79
639.056	1328.65
639.47	1328.38
639.884	1319.27
640.298	1310.53
640.712	1307.38
641.126	1292.03
641.54	1280.29
641.954	1272.89
642.368	1257.27
642.781	1245.29
643.195	1223.34
643.609	1219.86
644.022	1209.84
644.436	1201.65
644.849	1186.71
645.262	1171.37
645.676	1169.43
646.089	1159.84
646.502	1140.1
646.915	1130.54
647.328	1108.19
647.741	1101.76
648.154	1084.06
648.567	1077.15
648.98	1059.33
649.393	1056.03
649.805	1047.8
650.218	1036.82
650.631	1017.38
651.043	1007.04
651.456	998.59
651.868	996.97
652.28	1012.4
652.693	1024.33
653.105	1026.79
653.517	1033.86
653.929	1030.28
654.341	1033.59
654.753	1017.47
655.165	1020.26
655.577	1013.68
655.989	1004.76
656.401	993.11
656.813	952.74
657.224	927.43
657.636	895.51
658.047	872.86
658.459	849.21
658.87	834.36
659.282	817.87
659.693	792.78
660.104	773.51
660.515	754.39
660.926	746.02
661.338	736.26
661.749	723.61
662.159	708.87
662.57	697.57
662.981	686.7
663.392	673.08
663.803	669.55
664.213	660.43
664.624	650.33
665.035	645.88
665.445	626.93
665.855	616.46
666.266	605.46
666.676	598.09
667.086	586.64
667.497	581.68
667.907	572.37
668.317	560.62
668.727	554.76
669.137	550.32
669.547	546.07
669.956	545.2
670.366	542.83
670.776	540.55
671.186	539.75
671.595	538.64
672.005	538.24
672.414	536.86
672.824	534.19
673.233	534.45
673.642	536.01
674.052	537.41
674.461	538.18
674.87	540.36
675.279	538.39
675.688	538.86
676.097	540.86
676.506	539.1
676.915	548.22
677.323	550.76
677.732	550.07
678.141	549.83
678.549	541.95
678.958	542.88
679.366	543.61
679.775	548.83
680.183	560.41
680.592	567.39
681	575.59
681.408	575.51
681.816	585.29
682.224	596.96
682.632	612.09
683.04	642.2
683.448	669.52
683.856	702.1
684.264	740.45
684.671	776.07
685.079	820.61
685.487	869.61
685.894	935.88
686.302	993.54
686.709	1047.09
687.116	1107.08
687.524	1160.28
687.931	1209
688.338	1254.41
688.745	1293.35
689.152	1338.97
689.559	1393.95
689.966	1448.8
690.373	1482.35
690.78	1536.73
691.187	1610.59
691.593	1667.97
692	1720.66
692.407	1793.54
692.813	1878.72
693.22	1948.2
693.626	2020.06
694.032	2076.71
694.439	2161.09
694.845	2225.59
695.251	2306.75
695.657	2380.05
696.063	2489.12
696.469	2568.33
696.875	2639.7
697.281	2682.05
697.687	2734.8
698.093	2773.04
698.498	2851.78
698.904	2911.03
699.31	3004.44
699.715	3067.33
700.12	3160.28
700.526	3173.07
700.931	3243.13
701.337	3295.55
701.742	3324.3
702.147	3407.56
702.552	3437
702.957	3497.98
703.362	3516.63
703.767	3542.56
704.172	3580.51
704.577	3525.17
704.981	3571.91
705.386	3585.68
705.791	3572.24
706.195	3647.49
706.6	3650.65
707.004	3728.81
707.408	3691.94
707.813	3714.3
708.217	3696.67
708.621	3694.81
709.025	3792.87
709.43	3789.4
709.834	3847.2
710.237	3915.04
710.641	3895.47
711.045	3915.54
711.449	3904.82
711.853	3928.56
712.256	3966.75
712.66	4002.18
713.064	4075.86
713.467	4114.43
713.87	4224.38
714.274	4266.98
714.677	4375.47
715.08	4538.34
715.484	4707.48
715.887	4912.25
716.29	5113.34
716.693	5321.18
717.096	5558.3
717.499	5688.99
717.901	5710.72
718.304	5732.58
718.707	5749.15
719.109	5638.75
719.512	5600.23
719.915	5457.33
720.317	5397.06
720.719	5437.93
721.122	5402
721.524	5350.78
721.926	5302.62
722.328	5398.63
722.731	5388.57
723.133	5415.83
723.535	5609.02
723.937	5625.81
724.338	5673.16
724.74	5711.29
725.142	5635.46
725.544	5634.48
725.945	5653.8
726.347	5647.19
726.748	5639.19
727.15	5646.4
727.551	5605.94
727.952	5573.41
728.354	5539.99
728.755	5539.84
729.156	5490.35
729.557	5478.8
729.958	5353.42
730.359	5296.57
730.76	5275.27
731.161	5210.47
731.562	5186.04
731.962	5187.4
732.363	5123.06
732.763	5058.06
733.164	5090.32
733.564	5025.59
733.965	4931.08
734.365	4894.82
734.766	4920.67
735.166	4879.12
735.566	4825.07
735.966	4795.37
736.366	4784.92
736.766	4721.14
737.166	4749.66
737.566	4706.75
737.966	4678.93
738.365	4716.22
738.765	4708.12
739.165	4633.51
739.564	4606.36
739.964	4648.19
740.363	4602.94
740.763	4602.2
741.162	4589.76
741.561	4561.24
741.96	4515.78
742.36	4535.96
742.759	4538.39
743.158	4575.39
743.557	4589.55
743.955	4627.51
744.354	4582.69
744.753	4637.4
745.152	4595.68
745.55	4648.95
745.949	4639.29
746.348	4641.8
746.746	4656.66
747.144	4617.59
747.543	4597.62
747.941	4644.79
748.339	4576.43
748.737	4568.48
749.136	4561.51
749.534	4626.39
749.932	4600.08
750.33	4624.12
750.727	4676.9
751.125	4651.29
751.523	4637.77
751.921	4677.46
752.318	4643.18
752.716	4702.78
753.113	4715.25
753.511	4740.37
753.908	4740.59
754.305	4721.19
754.703	4783.87
755.1	4843.85
755.497	4906.27
755.894	5091.56
756.291	5267.65
756.688	5592.52
757.085	6022.62
757.482	6628.95
757.878	7291.32
758.275	7888.6
758.672	8714.9
759.068	9377.73
759.465	10331.6
759.861	11558.26
760.258	12988.66
760.654	13727.8
761.05	13618.69
761.447	12997.85
761.843	12106.51
762.239	11168.63
762.635	10743.12
763.031	10340.81
763.427	9763.63
763.822	9157.94
764.218	8552.36
764.614	7768.84
765.01	7246.6
765.405	6906.76
765.801	6647.44
766.196	6317.44
766.592	6138.14
766.987	5830.39
767.382	5620.64
767.778	5531.98
768.173	5401.38
768.568	5332.14
768.963	5211.02
769.358	5226.01
769.753	5182.29
770.148	5098.77
770.542	5096.47
770.937	5063.8
771.332	5154.49
771.726	5174.33
772.121	5112.5
772.515	5165.01
772.91	5149.84
773.304	5216.51
773.699	5154.93
774.093	5205.05
774.487	5260.4
774.881	5302.34
775.275	5298.5
775.669	5257.14
776.063	5299.3
776.457	5335.08
776.851	5263.87
777.245	5257.29
777.638	5290.47
778.032	5402.55
778.425	5367.36
778.819	5410.11
779.212	5368.09
779.606	5329.31
779.999	5348.23
780.392	5331.96
780.786	5411.94
781.179	5433.12
781.572	5474.42
781.965	5488.56
782.358	5433.94
782.751	5491.53
783.143	5442.39
783.536	5514.43
783.929	5555.39
784.322	5666.87
784.714	5698.59
785.107	5694.23
785.499	5761.85
785.891	5740.53
786.284	5723.67
786.676	5857.08
787.068	5835.77
787.46	5889
787.852	5908.48
788.245	5991.84
788.636	6021.48
789.028	6084.19
789.42	6124.69
789.812	6137.42
790.204	6230.33
790.595	6327.63
790.987	6139.08
791.378	6161.74
791.77	6281.89
792.161	6413.85
792.553	6467.72
792.944	6360.62
793.335	6296.45
793.726	6367.51
794.117	6451.03
794.508	6585.03
794.899	6552.79
795.29	6689.56
795.681	6745.46
796.072	6608.5
796.463	6429.97
796.853	6440.81
797.244	6591.63
797.634	6623.19
798.025	6618
798.415	6631.43
798.806	6718.81
799.196	6799.95
799.586	6846.54
799.976	6810.38
800.366	7036.7
800.756	7268.01
801.146	7230.86
801.536	7260.71
801.926	7332.45
802.316	7357.23
802.706	7425.88
803.095	7306.68
803.485	7408.56
803.874	7450.78
804.264	7699.94
804.653	7676.48
805.043	7814.77
805.432	7916.94
805.821	7916.62
806.21	7938.34
806.599	8054.19
806.988	8095.79
807.377	8198.61
807.766	8320.3
808.155	8594.04
808.544	8334.41
808.933	8348.9
809.321	8330.92
809.71	8619.85
810.098	8771.66
810.487	9213.66
810.875	9687.59
811.264	9713.5
811.652	9991.4
812.04	10133.58
812.428	10291.52
812.816	11038.25
813.204	11439.42
813.592	11971.87
813.98	12299.32
814.368	12209.98
814.756	12678.42
815.144	12591.13
815.531	13046.32
815.919	12979.11
816.306	13278.91
816.694	12976.88
817.081	13022.46
817.469	13359.77
817.856	13367.17
818.243	13625.53
818.63	14012.17
819.017	13613.02
819.404	13681.59
819.791	14045.45
820.178	14637.16
820.565	14882.53
820.952	15789.34
821.339	15320.2
821.725	15494.8
822.112	14775.03
822.498	14733.82
822.885	14860.99
823.271	14764.13
823.657	15167.45
824.044	15175.88
824.43	15256.89
824.816	15220.74
825.202	14803.78
825.588	15801.85
825.974	15824.05
826.36	16319.56
826.746	16361.98
827.132	16699.67
827.517	16676.1
827.903	15911.13
828.289	15951.51
828.674	15192.64
829.06	15102.61
829.445	15489.98
829.83	15818.13
830.216	16274.7
830.601	16631.44
830.986	16233.03
831.371	16098.45
831.756	16642.12
832.141	16226.77
832.526	16221.72
832.911	16497.08
833.295	16376.22
833.68	16823.12
834.065	16227.67
834.449	15344.75
834.834	15277.09
835.218	15269.77
835.603	15602.35
835.987	15400.94
836.371	16214.79
836.755	16111.01
837.139	16499.93
837.524	16734.67
837.908	16563.34
838.291	16616.35
838.675	16682.72
839.059	16880.81
839.443	16864.54
839.827	16646.51
840.21	17107.35
840.594	16955.05
840.977	17152.9
841.361	17128.01
841.744	17491.61
842.127	17334.47
842.511	17577.59
842.894	18158.61
843.277	18523.51
843.66	19061.96
844.043	19146.7
844.426	18374.03
844.809	18072.07
845.191	18106.94
845.574	17662.81
845.957	17309.89
846.339	17212.66
846.722	16702.43
847.104	16766.7
847.487	16602.5
847.869	16617.37
848.252	16882.15
848.634	17191.65
849.016	17455.23
849.398	17583.77
849.78	18410.75
850.162	18416.04
850.544	18820.85
850.926	19438.5
851.307	19353.24
851.689	19628.51
852.071	20061.62
852.452	20381.98
852.834	20365.1
853.215	20743.59
853.597	20889.41
853.978	21170.57
854.359	21613.78
854.741	20654.71
855.122	20552.14
855.503	20274.62
855.884	20404.63
856.265	20349.34
856.646	20449.64
857.026	20076.4
857.407	20019.18
857.788	20166.59
858.169	20447.05
858.549	19624.34
858.93	20223.22
859.31	20276.5
859.69	20475.27
860.071	20079.24
860.451	19870.3
860.831	19154
861.211	20271.79
861.591	20801.45
861.971	20776.49
862.351	20964.28
862.731	21341.12
863.111	21595.83
863.491	21914.27
863.87	22767.38
864.25	23104.1
864.629	22709.45
865.009	23218.41
865.388	24043.86
865.768	25767.12
866.147	25672.42
866.526	24251.85
866.905	24541.89
867.284	25923.88
867.663	24626.56
868.042	23610.8
868.421	23541.89
868.8	23930.78
869.179	24162.74
869.558	22749.92
869.936	20967.97
870.315	21333.69
870.693	21849.98
871.072	23556.16
871.45	22432.98
871.828	22713.62
872.207	23864.43
872.585	23496.23
872.963	24132.41
873.341	23292.75
873.719	23018.29
874.097	22735.23
874.475	23171.45
874.853	23708.25
875.23	22719.28
875.608	23665.32
875.986	25581.32
876.363	24461.64
876.741	25207.76
877.118	24581.94
877.495	25791.73
877.873	26217.85
878.25	27590.63
878.627	26467.44
879.004	26839.08
879.381	26702.53
879.758	26007.11
880.135	24221.29
880.512	25627.66
880.889	24949.57
881.265	24682.45
881.642	24475.95
882.019	24888.53
882.395	24390.32
882.772	25348.5
883.148	24238.6
883.524	24151.98
883.901	24005.24
884.277	24367.64
884.653	24200.5
885.029	24889.01
885.405	27572.02
885.781	27367.37
886.157	26248.38
886.532	26564.4
886.908	26554.39
887.284	29540.6
887.659	30493.63
888.035	31455.64
888.411	32250.46
888.786	32677.32
889.161	33824.24
889.537	33190.72
889.912	34239.26
890.287	34205.96
890.662	35093.36
891.037	34443.81
891.412	32104.88
891.787	31786.87
892.162	30676.18
892.536	31403.91
892.911	30228.65
893.286	29586.43
893.66	28392.1
894.035	29131.77
894.409	31728.26
894.784	30439.71
895.158	30951.22
895.532	32795.12
895.906	33703.09
896.281	34495.31
896.655	33948.08
897.029	38796.34
897.402	40404.18
897.776	44978.01
898.15	44801.86
898.524	44313.33
898.898	44915.64
899.271	50301.38
899.645	43561.75
900.018	41843.96
900.392	43383.25
900.765	43722.26
901.138	40461.95
901.511	39843.45
901.884	36582.45
902.258	33747.61
902.631	34860.37
903.003	40123.6
903.376	36210.56
903.749	40608.85
904.122	43468.26
904.495	47862.53
904.867	48491.57
905.24	42116.92
905.612	39200.27
905.985	40108.12
906.357	41940.04
906.729	40040.6
907.102	34202.53
907.474	32886.82
907.846	33100.19
908.218	32640.91
908.59	28846.13
908.962	27888.91
909.334	30012.8
909.705	31533.02
910.077	30597
910.449	31849.26
910.82	32748.62
911.192	36031.44
911.563	37437.47
911.935	40031.75
912.306	40093.89
912.677	41391.05
913.048	40965.96
913.419	44437.64
913.79	44699.28
914.161	47941.66
914.532	45805.92
914.903	42086.83
915.274	39932.72
915.645	39346.24
916.015	34648.14
916.386	33031.05
916.756	35168.32
917.127	36290.89
917.497	32439.61
917.868	35296.29
918.238	33537.29
918.608	34519.98
918.978	35226.11
919.348	37319.93
919.718	38554.91
920.088	37136.99
920.458	38605.4
920.828	40631.03
921.198	38528.54
921.567	41159.83
921.937	31885.62
922.306	32194.25
922.676	34687.52
923.045	28930.25
923.415	27488.76
923.784	25030.41
924.153	25738.93
924.522	25703.78
924.891	24151.15
925.26	25863.32
925.629	25249.08
925.998	29016.6
926.367	28324.18
926.736	26983.05
927.104	32158.98
927.473	34580.35
927.842	41756.97
928.21	41349.36
928.578	43469.04
928.947	41135.96
929.315	41405.51
929.683	48557.36
930.051	48960.67
930.42	56852.84
930.788	48627.52
931.156	48279.35
931.523	45282.44
931.891	41872.8
932.259	40249.31
932.627	46647.98
932.994	66040.76
933.362	54567.4
933.729	47405.26
934.097	45377.26
934.464	38416
934.831	44340.47
935.199	43712.61
935.566	42378.14
935.933	43026.6
936.3	52088.2
936.667	40554.5
937.034	36567.27
937.401	36175.21
937.767	31203.12
938.134	27797.94
938.501	39229.09
938.867	41793.62
939.234	70695.34
939.6	60297.28
939.967	66279.01
940.333	44395.2
940.699	37814.78
941.065	30354.94
941.431	39814.17
941.798	38429.26
942.163	50443.21
942.529	31504.63
942.895	28994.57
943.261	18723.84
943.627	24580.14
943.992	21513.2
944.358	21550.19
944.723	21609.69
945.089	21068.95
945.454	19450.44
945.82	20753.47
946.185	19952.01
946.55	23117.46
946.915	20760.17
947.28	24353.83
947.645	21452.57
948.01	19818.48
948.375	20650.57
948.74	24777.72
949.104	28895.78
949.469	41724.7
949.834	73749.55
950.198	69850.23
950.562	41835.28
950.927	34830.4
951.291	41942.57
951.655	35709.9
952.02	33513.6
952.384	25337.59
952.748	22051.63
953.112	21506.2
953.476	18709.12
953.839	17293.43
954.203	17124.46
954.567	21431.71
954.931	33727.33
955.294	28867.5
955.658	29023.41
956.021	49360.52
956.385	83717.3
956.748	123551.98
957.111	191548.58
957.474	215078.65
957.837	242622.37
958.2	183530.13
958.563	66023.74
958.926	44662.58
959.289	67757.7
959.652	75735.68
960.015	56799.01
960.377	81518.99
960.74	93108.65
961.102	160846.5
961.465	172703.4
961.827	92399.56
962.189	177535.07
962.552	123005.36
962.914	98585.26
963.276	63928.85
963.638	52847.56
964	52352.11
964.362	35404.91
964.724	34200.33
965.085	24376.5
965.447	19995.5
965.809	22775.61
966.17	22766.6
966.532	24657.42
966.893	22653.74
967.255	20614.91
967.616	24334.17
967.977	19472.47
968.338	21251.31
968.699	17459.13
969.061	17473.81
969.421	17580.64
969.782	19725.82
970.143	16677.72
970.504	17270.32
970.865	19630.69
971.225	20083.06
971.586	19639.95
971.946	28035.99
972.307	24332.14
972.667	31809.44
973.027	32739.38
973.388	39710.39
973.748	27032.11
974.108	29464.15
974.468	39845.2
974.828	30714.77
975.188	23644.14
975.548	21725.48
975.907	18234.73
976.267	20456.36
976.627	17199.49
976.986	17831.52
977.346	16991.55
977.705	16349.58
978.064	14864.43
978.424	12384.83
978.783	12807.49
979.142	14612.81
979.501	13986.59
979.86	14775.45
980.219	14243.89
980.578	18369.79
980.937	20557.56
981.296	18330.39
981.654	18842.72
982.013	29375.48
982.371	38090.04
982.73	35561.24
983.088	40227.68
983.447	42932.13
983.805	61447.2
984.163	128441.14
984.521	142552.77
984.879	209096.14
985.237	-339901.31
985.595	327952.82
985.953	81456.11
986.311	47022.64
986.669	27318.46
987.026	23638.4
987.384	31841.34
987.741	32860.92
988.099	23453.08
988.456	18690.88
988.814	17507.06
989.171	15241.86
989.528	15034.3
989.885	15861.9
990.242	12565.75
990.599	15670.3
990.956	12823.81
991.313	8962.78
991.67	7369.1
992.027	7812.69
992.383	6960.6
992.74	6114.84
993.096	6412.86
993.453	6658.42
993.809	6905.63
994.165	9213.64
994.522	8440.88
994.878	9283
995.234	11646.33
995.59	11483.69
995.946	10882.87
996.302	12390.76
996.658	14283.06
997.013	15722.67
997.369	18632.5
997.725	23896.87
998.08	15481.19
998.436	23861.46
998.791	32889.87
999.147	32865.31
999.502	35866.53
999.857	26049.7
1000.212	42470.42
1000.567	60523.56
1000.922	34897.29
1001.277	22155.7
1001.632	16416.67
1001.987	21129.11
1002.342	15107.94
1002.696	12085.91
1003.051	9661.72
1003.406	11706.2
1003.76	11657.94
1004.114	11466.48
1004.469	9642.97
1004.823	7991.81
1005.177	8611.55
1005.531	6816.3
1005.885	6038.12
1006.239	6829.44
1006.593	8581.8
1006.947	11442.38
1007.301	8599.97
1007.655	9391.98
1008.008	6911.42
1008.362	7764.05
1008.715	11095.88
1009.069	10109.76
1009.422	15193.31
1009.776	30523.16
1010.129	20273.08
1010.482	16878.22
1010.835	14254.91
1011.188	29712.21
1011.541	27974.95
1011.894	-170631.07
1012.247	502842.82
1012.6	34081.69
1012.952	21486.03
1013.305	11072.01
1013.657	7976.73
1014.01	7553.51
1014.362	6250.86
1014.715	5568.12
1015.067	4827.23
1015.419	4725.25
1015.771	4198.57
1016.123	3742.12
1016.475	3857.29
1016.827	4120.96
1017.179	4434.87
1017.531	4464.95
1017.883	4553.4
1018.234	4401.23
1018.586	5557.97
1018.938	5900
1019.289	8117.9
1019.64	9278.74
1019.992	8618.77
1020.343	7912.05
1020.694	6240.96
1021.045	5524.45
1021.396	6331.42
1021.747	6800.11
1022.098	8159.41
1022.449	5920.62
1022.8	5477.24
1023.151	3811.73
1023.501	3368.64
1023.852	3668.69
1024.202	3779.07
1024.553	4144.86
1024.903	4055.32
1025.253	3474.22
1025.604	3137.35
1025.954	3886.4
1026.304	4739.06
1026.654	5535.5
1027.004	8135.48
1027.354	13174.69
1027.703	12397.2
1028.053	16398.11
1028.403	23902.6
1028.753	34585.73
1029.102	46721.18
1029.452	238649.49
1029.801	10287.13
1030.15	6634.28
1030.499	5617.87
897.758	2586.42
901.051	2545.24
904.343	2577.42
907.636	2578.17
910.928	2642.74
914.22	2554.65
917.511	2561.24
920.803	2624.35
924.094	2639.44
927.384	2626.51
930.675	2588.92
933.965	2544.26
937.255	2556.54
940.544	2525.01
943.834	2477.6
947.123	2418.83
950.411	2512.7
953.7	2488.2
956.988	2456.97
960.276	2397.26
963.563	2475.92
966.851	2473.96
970.138	2527.49
973.424	2519.22
976.711	2473.01
979.997	2587.6
983.283	2626.29
986.568	2536.16
989.853	2549.43
993.138	2576.05
996.423	2658.23
999.708	2593.81
1002.992	2652.5
1006.275	2504.81
1009.559	2543.35
1012.842	2650.44
1016.125	2588
1019.408	2568.64
1022.69	2652.17
1025.972	2671.27
1029.254	2646.14
1032.536	2583.92
1035.817	2607.23
1039.098	2555.98
1042.379	2685.17
1045.659	2689.3
1048.939	2625.72
1052.219	2644.29
1055.498	2653.2
1058.778	2638.48
1062.057	2622.35
1065.335	2645.92
1068.614	2659.61
1071.892	2649.5
1075.17	2720.49
1078.447	2711.37
1081.724	2701.16
1085.001	2736.89
1088.278	2713.85
1091.554	2721.97
1094.83	2719.17
1098.106	2747.38
1101.382	2788.52
1104.657	2794.4
1107.932	2785.33
1111.206	2754.11
1114.481	2711.85
1117.755	2715.81
1121.029	2698.38
1124.302	2749.64
1127.575	2705.78
1130.848	2693.82
1134.121	2657.01
1137.393	2609.51
1140.665	2673.33
1143.937	2649.87
1147.208	2610.34
1150.48	2650.39
1153.75	2636.07
1157.021	2664.16
1160.291	2636.57
1163.561	2683.09
1166.831	2670.22
1170.101	2702.43
1173.37	2672.69
1176.639	2620.08
1179.907	2677.61
1183.176	2683.43
1186.444	2691.29
1189.711	2718.75
1192.979	2734.08
1196.246	2687.27
1199.513	2705.25
1202.78	2702.65
1206.046	2711.24
1209.312	2738.55
1212.578	2761.79
1215.843	2716.8
1219.108	2691.22
1222.373	2715.34
1225.638	2679.18
1228.902	2661.32
1232.166	2629.92
1235.43	2611.4
1238.693	2637.38
1241.956	2631.53
1245.219	2674.49
1248.482	2664.11
1251.744	2659.16
1255.006	2802.06
1258.268	2754.18
1261.529	2702.14
1264.79	2709.45
1268.051	2811.85
1271.312	2827.56
1274.572	2789.42
1277.832	2781.19
1281.092	2768.55
1284.351	2744.2
1287.61	2723.95
1290.869	2642.11
1294.128	2622.42
1297.386	2704.77
1300.644	2692.86
1303.902	2704.22
1307.159	2565.62
1310.416	2620.59
1313.673	2645.02
1316.93	2633.25
1320.186	2677.46
1323.442	2718.96
1326.697	2711.79
1329.953	2698.76
1333.208	2723.3
1336.463	2702.68
1339.717	2643.62
1342.972	2775.64
1346.226	2750.98
1349.479	2685.32
1352.733	2657.21
1355.986	2677.86
1359.238	2655.45
1362.491	2655.79
1365.743	2660.84
1368.995	2657.02
1372.247	2670.94
1375.498	2695.35
1378.749	2711.39
1382	2666.82
1385.251	2721.03
1388.501	2678.24
1391.751	2666.18
1395	2634.1
1398.25	2667.87
1401.499	2677.77
1404.748	2607.52
1407.996	2595.21
1411.244	2581.26
1414.492	2564.14
1417.74	2542.59
1420.987	2548.98
1424.234	2607.81
1427.481	2583.85
1430.728	2643.14
1433.974	2615.61
1437.22	2628.84
1440.465	2628.86
1443.711	2597.84
1446.956	2631.85
1450.201	2615.66
1453.445	2661.23
1456.689	2640.02
1459.933	2652.46
1463.177	2685.01
1466.42	2658
1469.663	2639.44
1472.906	2633.12
1476.148	2700.19
1479.391	2673.11
1482.633	2639.66
1485.874	2651.83
1489.115	2641.41
1492.356	2645.46
1495.597	2621.72
1498.838	2624.79
1502.078	2596.16
1505.318	2548.48
1508.557	2590.2
1511.797	2573.71
1515.036	2631.06
1518.274	2621.96
1521.513	2591.59
1524.751	2613.25
1527.989	2625.67
1531.227	2639.42
1534.464	2635
1537.701	2650.5
1540.938	2669.4
1544.174	2622.1
1547.41	2619.92
1550.646	2658.51
1553.882	2696.78
1557.117	2751.06
1560.352	2762.19
1563.587	2724.37
1566.821	2684.12
1570.055	2718.5
1573.289	2691.8
1576.523	2762.22
1579.756	2772.78
1582.989	2789.86
1586.222	2750.64
1589.454	2790.22
1592.686	2762.85
1595.918	2789.16
1599.15	2777.7
1602.381	2849.14
1605.612	2805.01
1608.843	2902.38
1612.073	2820.91
1615.303	2802.99
1618.533	2796.14
1621.762	2794.72
1624.992	2780.55
1628.221	2772.09
1631.449	2756.72
1634.678	2807.29
1637.906	2763.85
1641.134	2801.33
1644.361	2757.4
1647.588	2744.27
1650.815	2761.76
1654.042	2739.23
1657.269	2772.28
1660.495	2724.31
1663.72	2742.66
1666.946	2708.13
1670.171	2657.31
1673.396	2631.29
1676.621	2619.47
1679.845	2634.8
1683.069	2655.02
1686.293	2693.7
1689.517	2668.68
1692.74	2601.33
1695.963	2628.76
1699.185	2647.67
1702.408	2622.56
1705.63	2661.34
1708.852	2672.64
1712.073	2646.58
1715.294	2636.31
1718.515	2693.45
1721.736	2644.8
1724.956	2636.09
1728.176	2660.85
1731.396	2683.03
1734.616	2670.6
1737.835	2699.26
1741.054	2680.78
1744.272	2674.38
1747.491	2702.54
1750.709	2753.5
1753.927	2664.55
1757.144	2704.73
1760.361	2747.51
1763.578	2740.05
1766.795	2683.39
1770.011	2683.73
1773.227	2722.99
1776.443	2756.6
1779.658	2800.92
1782.874	2745.48
1786.089	2722.49
1789.303	2724.18
1792.518	2731.47
1795.732	2718.65
1798.945	2728.17
1802.159	2780.09
1805.372	2688.46
1808.585	2674.6
1811.797	2675.25
1815.01	2720.5
1818.222	2726.17
1821.434	2710.38
1824.645	2765.02
1827.856	2753.74
1831.067	2790.58
1834.278	2742.31
1837.488	2723.81
1840.698	2871.97
1843.908	2797.9
1847.117	2762.28
1850.326	2654.73
1853.535	2749.91
1856.744	2764.79
1859.952	2683.33
1863.16	2683.48
1866.368	2703.43
1869.575	2809.16
1872.782	2694.72
1875.989	2632.24
1879.196	2712.95
1882.402	2704.58
1885.608	2742.26
1888.814	2651.07
1892.019	2549.75
1895.224	2601.11
1898.429	2581.08
1901.634	2559.69
1904.838	2535.69
1908.042	2584.56
1911.246	2594.25
1914.449	2529.08
1917.652	2520.36
1920.855	2504.62
1924.058	2549.36
1927.26	2586.13
1930.462	2613.98
1933.664	2641.12
1936.865	2578.69
1940.066	2587.45
1943.267	2534.99
1946.467	2549.8
1949.668	2572.5
1952.868	2642.1
1956.067	2619.87
1959.267	2553.54
1962.466	2580.24
1965.665	2563.25
1968.863	2557.38
1972.061	2572.15
1975.259	2571.75
1978.457	2651.3
1981.654	2606.5
1984.852	2611.99
1988.048	2548.36
1991.245	2551.8
1994.441	2637.21
1997.637	2617.45
2000.833	2600.11
2004.028	2640.76
2007.223	2697.56
2010.418	2673.27
2013.613	2632.82
2016.807	2608.47
2020.001	2612.66
2023.194	2653.29
2026.388	2629.09
2029.581	2574.42
2032.774	2626.77
2035.966	2630.25
2039.158	2563.81
2042.35	2589.22
2045.542	2520.18
2048.733	2614.39
2051.924	2636.4
2055.115	2661.86
2058.306	2608.39
2061.496	2668.6
2064.686	2728.84
2067.875	2642.21
2071.065	2657.42
2074.254	2683.07
2077.442	2634.33
2080.631	2722.36
2083.819	2622.8
2087.007	2604.01
2090.195	2576.78
2093.382	2607.96
2096.569	2586.55
2099.756	2543.26
2102.942	2570.81
2106.128	2578.69
2109.314	2568.45
2112.5	2536.26
2115.685	2510.47
2118.87	2520.47
2122.055	2585.28
2125.239	2553.26
2128.424	2531.6
2131.608	2628.85
2134.791	2611.83
2137.974	2668.18
2141.157	2652.21
2144.34	2607.06
2147.523	2619.92
2150.705	2635.6
2153.887	2613.66
2157.068	2565.72
2160.25	2565.4
2163.431	2601.11
2166.611	2548.53
2169.792	2565.35
2172.972	2460.46
2176.152	2536.4
2179.331	2571.37
2182.511	2552.29
2185.69	2581.55
2188.868	2576.01
2192.047	2628.59
2195.225	2622.64
2198.403	2570.06
2201.58	2562.62
2204.758	2559.99
2207.935	2641.07
2211.111	2530.56
2214.288	2514.76
2217.464	2555.97
2220.64	2524.49
2223.815	2577.24
2226.991	2500.04
2230.166	2518.73
2233.34	2553.46
2236.515	2574.41
2239.689	2643.74
2242.863	2591.32
2246.036	2647.9
2249.209	2646.16
2252.382	2678.5
2255.555	2669.38
2258.727	2609.62
2261.9	2648.06
2265.071	2640.19
2268.243	2638.93
2271.414	2575.87
2274.585	2539.44
2277.756	2604.47
2280.926	2560.02
2284.096	2598.74
2287.266	2510.18
2290.436	2562.11
2293.605	2591.85
2296.774	2620.88
2299.942	2638.85
2303.111	2657.55
2306.279	2705.76
2309.447	2694.03
2312.614	2669.8
2315.781	2691.43
2318.948	2662.99
2322.115	2700.77
2325.281	2601.03
2328.447	2620.77
2331.613	2595.86
2334.779	2572.12
2337.944	2571.33
2341.109	2569.88
2344.274	2551.54
2347.438	2516.04
2350.602	2543.35
2353.766	2559.03
2356.929	2544.85
2360.092	2588.53
2363.255	2539.88
2366.418	2479.15
2369.58	2587.09
2372.742	2388.11
2375.904	2400.08
2379.066	2378.64
2382.227	2411.85
2385.388	2373.84
2388.548	2301.9
2391.709	2354.09
2394.869	2334.85
2398.029	2426.84
2401.188	2437.72
2404.347	2376.04
2407.506	2508.82
2410.665	2540.29
2413.823	2543.5
2416.981	2504.71
2420.139	2533.15
2423.296	2582.33
2426.453	2555.22
2429.61	2578.57
2432.767	2517.19
2435.923	2555.56
2439.079	2518.21
2442.235	2564.17
2445.391	2491.84
2448.546	2522.56
2451.701	2568.25
2454.855	2542.74
2458.009	2593.14
2461.163	2590.58
2464.317	2552.6
2467.471	2586.97
2470.624	2623.76
2473.777	2593.45
2476.929	2606.46
2480.082	2634.48
2483.234	2600.15
2486.385	2551.35
2489.537	2544.94
2492.688	2509.48
2495.839	2530.95
2498.989	2542.37
2502.14	2526.1
2505.29	2511.64
2508.439	2536.16
2511.589	2464.01
2514.738	2470.18
2517.887	2500.73
2521.035	2569.17
2524.183	2547.99
2527.331	2529.2
2530.479	2505.32
2533.627	2514.24
