Data from N_2_DIV_IL_4N_Splice17_12-35-57-192.txt Node
Date: Sat Mar 14 12:35:57 EDT 2020
User: sa697716
Spectrometer: FLMS03696
Trigger mode: 0
Integration Time (sec): 3.180400E-1
Scans to average: 20
Electric dark correction enabled: true
Nonlinearity correction enabled: true
Boxcar width: 5
XAxis mode: Wavelengths
Number of Pixels in Spectrum: 2048
>>>>>Begin Spectral Data<<<<<
187.83	-341888.32
188.298	2480.77
188.766	1360.26
189.233	1209.46
189.701	1726.36
190.169	2352.92
190.636	811.85
191.104	604.38
191.571	16.73
192.039	-113.61
192.506	-172.44
192.974	318.05
193.441	-749.86
193.908	-178.26
194.375	-73.74
194.842	11.13
195.31	92.18
195.777	185.72
196.244	426.66
196.711	499.9
197.177	593.57
197.644	805.9
198.111	1412.14
198.578	2043.84
199.045	1662.51
199.511	2718.3
199.978	3163.04
200.445	2673.24
200.911	2924.12
201.378	3266.18
201.844	2969.63
202.31	5137.18
202.777	5388.13
203.243	2969.47
203.709	2821.11
204.176	3350.67
204.642	2774.76
205.108	2593.48
205.574	2121.43
206.04	1941.57
206.506	1815.39
206.972	1708.97
207.438	1641.84
207.903	1873.73
208.369	1651
208.835	1650.34
209.301	1725.46
209.766	1765.13
210.232	1749.13
210.697	2172.04
211.163	2685.86
211.628	4073.6
212.094	3451.95
212.559	4296.52
213.024	2683.17
213.49	3293.38
213.955	3225.57
214.42	3168.29
214.885	2948.38
215.35	2844.72
215.815	2738.44
216.28	2921.9
216.745	2401.45
217.21	2612.76
217.675	2421.86
218.14	2758.62
218.604	3135.53
219.069	3632.26
219.534	3864.9
219.998	4574.62
220.463	5642.07
220.927	7080.02
221.392	6744.26
221.856	6899.02
222.32	8808.29
222.785	10973.7
223.249	13931.57
223.713	15678.66
224.177	15795.63
224.642	20389.72
225.106	25200.05
225.57	27674.1
226.034	20652.56
226.497	31553.11
226.961	28543.8
227.425	33318.68
227.889	37068.08
228.353	37156.44
228.816	76896.74
229.28	73738.23
229.744	62412.43
230.207	38048.38
230.671	37492.94
231.134	62189.64
231.597	71801.23
232.061	71948.08
232.524	70333.03
232.987	48584.79
233.45	43835.18
233.914	39364.71
234.377	40414.69
234.84	37035.72
235.303	43734.97
235.766	48858.01
236.229	50531.05
236.691	31899.8
237.154	35913.09
237.617	27018.32
238.08	27686.9
238.542	32442.37
239.005	23208.94
239.468	23037.56
239.93	21717.57
240.393	19762.69
240.855	17376.55
241.317	17813.66
241.78	21703.93
242.242	22472.73
242.704	24270.95
243.166	21136.81
243.629	19181.27
244.091	22119.04
244.553	24276.77
245.015	26106.94
245.477	33798.19
245.939	49543.39
246.4	52583.95
246.862	51147.77
247.324	48228.08
247.786	54033.44
248.247	70942.71
248.709	73393.19
249.17	54939.88
249.632	51767.69
250.093	60080.54
250.555	51931.02
251.016	31687.83
251.477	30059.7
251.939	32423.05
252.4	34027.62
252.861	40518.92
253.322	37670.08
253.783	44826.49
254.244	58129.55
254.705	45852.17
255.166	40773.24
255.627	40126.49
256.088	56595.61
256.549	60156.78
257.009	51846.99
257.47	62901.36
257.931	51147.71
258.391	38350.79
258.852	39530.42
259.312	41468.65
259.773	51223.86
260.233	43241.52
260.694	36443.68
261.154	41305.57
261.614	33124.34
262.074	29618.98
262.534	30756.16
262.994	28984.04
263.455	38593.96
263.915	32515.78
264.374	30601.95
264.834	33394.47
265.294	37028.14
265.754	38349.36
266.214	36303.17
266.673	34020.92
267.133	42952.14
267.593	42646.47
268.052	52131.6
268.512	45336.23
268.971	54627.69
269.431	59933.17
269.89	53677.47
270.349	80480.11
270.809	89705.05
271.268	80625.82
271.727	180926.01
272.186	117090.15
272.645	87717.41
273.104	63336.98
273.563	91626.67
274.022	72071.34
274.481	61237.36
274.94	47119.36
275.399	35006.3
275.857	40757.15
276.316	55101.21
276.775	48965.06
277.233	48163.13
277.692	45061.66
278.15	50965.8
278.609	52448.8
279.067	48512.67
279.525	45054.94
279.984	58248.08
280.442	69958.09
280.9	68941.25
281.358	45345.83
281.816	42282.53
282.274	41407.31
282.732	42818.33
283.19	43018.96
283.648	37112.71
284.106	39538.21
284.564	40248.29
285.021	37297.3
285.479	27807.55
285.937	25324.32
286.394	22240.1
286.852	22915.38
287.309	24117.66
287.767	23304.43
288.224	22179.43
288.682	24339.29
289.139	26718.16
289.596	24440.33
290.053	25429.62
290.511	32129.02
290.968	38945.76
291.425	52889.71
291.882	43993.23
292.339	38271.51
292.796	37986.95
293.252	35802.27
293.709	28461.32
294.166	25543.36
294.623	28258.32
295.079	27125.5
295.536	27249.35
295.992	24788.2
296.449	24511.4
296.905	25486.21
297.362	24443.15
297.818	25735.05
298.274	26714.54
298.731	27268.41
299.187	27001.55
299.643	29005.89
300.099	35120.49
300.555	38558.26
301.011	32193.59
301.467	31025.55
301.923	36347.78
302.379	35548.22
302.835	34920.39
303.291	34981.72
303.746	39841.04
304.202	50369.02
304.658	50612.01
305.113	34054.6
305.569	33362
306.024	35613.21
306.479	33987.15
306.935	28660.72
307.39	31318.97
307.845	28955.77
308.301	29138.16
308.756	28394.12
309.211	27371.49
309.666	28033.59
310.121	34816.03
310.576	35399.77
311.031	35137.19
311.486	40245.92
311.94	40252.04
312.395	53909.47
312.85	101300.14
313.305	498084.71
313.759	2576394.9
314.214	186550.54
314.668	148043.57
315.123	124443.49
315.577	44599.21
316.032	39655.3
316.486	49711.59
316.94	39230.11
317.394	27252.63
317.849	21207.43
318.303	20101.33
318.757	18956.12
319.211	20974.46
319.665	18358.55
320.119	18588.47
320.572	26724.03
321.026	24974.23
321.48	20799.14
321.934	22698.55
322.387	22794.7
322.841	24624.83
323.295	22098.75
323.748	25515.44
324.202	25884.23
324.655	31104.53
325.108	43404.72
325.562	30605
326.015	36421.52
326.468	27539.73
326.921	30801.86
327.374	28703.93
327.827	29877.23
328.28	33889.71
328.733	22699.25
329.186	19980.3
329.639	19031.86
330.092	16069.25
330.545	15311.91
330.997	15434.46
331.45	16859.44
331.903	19755.12
332.355	34056.99
332.808	33106.06
333.26	27326.9
333.713	29679.36
334.165	29891.7
334.617	39945.78
335.069	32266.56
335.522	58356.08
335.974	64590.16
336.426	59070.21
336.878	40954.95
337.33	20727.35
337.782	20231.41
338.234	25287.43
338.686	30239.97
339.137	35852.9
339.589	33758.41
340.041	26492.27
340.493	22763.18
340.944	23336.15
341.396	25119.07
341.847	21098.18
342.299	24921
342.75	30447.21
343.201	26676.8
343.653	30698.81
344.104	37732.73
344.555	29704.56
345.006	46239.48
345.457	35390.05
345.908	28128.99
346.359	26492.87
346.81	21598.25
347.261	22756.58
347.712	22420.02
348.163	24035.99
348.613	24346.19
349.064	22728.15
349.515	19902.9
349.965	20413.47
350.416	24651.12
350.866	27060.98
351.317	30607.61
351.767	50747.57
352.217	64190.25
352.668	53289.63
353.118	48789.15
353.568	47066.79
354.018	37213.96
354.468	39261.55
354.918	28181.57
355.368	24607.09
355.818	34746.87
356.268	99879.56
356.718	417854.38
357.168	103969.3
357.617	52234.95
358.067	58142.97
358.517	54494.45
358.966	64021.53
359.416	71823.95
359.865	77635.12
360.315	92573.91
360.764	43282.31
361.213	24242.72
361.663	22964.21
362.112	28378.58
362.561	45761.9
363.01	34529.86
363.459	29061.42
363.908	31413.88
364.357	26658
364.806	45030.01
365.255	30939.9
365.703	28302.79
366.152	28351.82
366.601	23001.42
367.05	18645.77
367.498	16948.4
367.947	17714.98
368.395	18413.99
368.844	16291.7
369.292	19640.77
369.74	13556.62
370.189	20802.99
370.637	24394.18
371.085	21064.2
371.533	25649.24
371.981	24758.69
372.429	23612.52
372.877	24611.81
373.325	20591.29
373.773	20992.19
374.221	18724.98
374.669	23244.25
375.116	20080
375.564	20251.17
376.012	22657.38
376.459	18679.53
376.907	22275.22
377.354	26950.59
377.801	25101.55
378.249	28840.89
378.696	36881.12
379.143	44615.23
379.591	47589.49
380.038	80380.92
380.485	58073.91
380.932	62697.26
381.379	57236
381.826	42146.42
382.273	29944.56
382.72	26171.76
383.166	25535.41
383.613	16547.21
384.06	14902.89
384.506	17235.44
384.953	12654.87
385.4	12735.67
385.846	11139.65
386.292	10872.96
386.739	10653.74
387.185	10527.86
387.631	10535.35
388.078	10208.01
388.524	10926.91
388.97	10107.96
389.416	8415.46
389.862	8958.82
390.308	8483.07
390.754	8615.48
391.2	9339.53
391.645	9545.72
392.091	9108.21
392.537	8801.24
392.983	8812.09
393.428	8651.09
393.874	9259
394.319	9274.55
394.765	8772.39
395.21	9003.87
395.655	8430.06
396.101	7887.07
396.546	7115.37
396.991	7191.53
397.436	6660.53
397.881	6427.83
398.326	6087.71
398.771	5751.87
399.216	5025.59
399.661	4521.98
400.106	4500.5
400.551	4603.07
400.995	4120.75
401.44	4063.42
401.885	3806.83
402.329	3847.48
402.774	3684.79
403.218	3554.65
403.663	3419.49
404.107	3516.24
404.551	3535.19
404.995	3239.62
405.44	3117.5
405.884	3167.85
406.328	3066.85
406.772	3056.89
407.216	2780.52
407.66	2685.65
408.104	2549.6
408.547	2382.46
408.991	2299.81
409.435	2212.75
409.879	2180.92
410.322	2150.76
410.766	2073.58
411.209	1966.29
411.653	1883.33
412.096	1842.75
412.54	1840.39
412.983	1829.92
413.426	1835.88
413.869	1835.74
414.312	1801.06
414.756	1732.95
415.199	1652.66
415.642	1601.83
416.085	1605.96
416.527	1594.84
416.97	1615.94
417.413	1531.13
417.856	1511.52
418.298	1492.51
418.741	1480.5
419.184	1475.78
419.626	1536.02
420.069	1533.55
420.511	1540.27
420.953	1505.5
421.396	1489.98
421.838	1452.94
422.28	1488.18
422.722	1494.22
423.164	1511.77
423.606	1486.14
424.048	1480.15
424.49	1407.45
424.932	1401.15
425.374	1380.58
425.816	1405.12
426.258	1428.99
426.699	1445.48
427.141	1425.23
427.582	1450.68
428.024	1445.49
428.465	1438.35
428.907	1405.45
429.348	1387.91
429.789	1384.62
430.231	1357.87
430.672	1376.34
431.113	1344.11
431.554	1325.68
431.995	1291.86
432.436	1244.07
432.877	1219.16
433.318	1197.58
433.759	1192.26
434.2	1194.38
434.64	1185.53
435.081	1187.88
435.522	1125.97
435.962	1088.45
436.403	1065.49
436.843	1079.87
437.284	1056.2
437.724	1025.64
438.164	1027.08
438.604	1004.92
439.045	963.77
439.485	923.19
439.925	902.98
440.365	879.91
440.805	868.01
441.245	856.75
441.685	825.72
442.125	819.61
442.564	827.22
443.004	808.91
443.444	805.47
443.883	807.9
444.323	803.08
444.762	804.46
445.202	813.91
445.641	828.58
446.081	821.91
446.52	828.15
446.959	821.43
447.398	800.51
447.837	791.62
448.276	779.06
448.716	785.48
449.154	790.59
449.593	773.86
450.032	773.24
450.471	757.44
450.91	757.46
451.349	756.3
451.787	752.26
452.226	762.33
452.664	761.31
453.103	762.06
453.541	760.63
453.98	760.74
454.418	764.69
454.856	751.2
455.295	750.29
455.733	757.66
456.171	760.67
456.609	762.79
457.047	764.17
457.485	776.23
457.923	777.28
458.361	767.27
458.798	769.8
459.236	768.2
459.674	773.9
460.111	777.21
460.549	769.93
460.987	767.5
461.424	763.82
461.862	759.85
462.299	748.27
462.736	747.58
463.173	749.94
463.611	741.38
464.048	739.5
464.485	745.62
464.922	740.45
465.359	736.68
465.796	727.73
466.233	722.25
466.67	714.43
467.106	712.79
467.543	706.2
467.98	697.14
468.416	678.31
468.853	672.89
469.29	652.76
469.726	645.38
470.162	627.05
470.599	618.61
471.035	613.42
471.471	598.77
471.907	594.32
472.344	590.32
472.78	591.28
473.216	598.57
473.652	591.01
474.088	590.06
474.523	588.51
474.959	594.88
475.395	588.7
475.831	584.34
476.266	586.78
476.702	585.02
477.138	578.32
477.573	576.84
478.008	574.7
478.444	576.61
478.879	581.21
479.314	582.83
479.75	581.59
480.185	584.79
480.62	590.52
481.055	594.5
481.49	598.88
481.925	607.28
482.36	618.37
482.795	635.49
483.229	652.73
483.664	666
484.099	668.49
484.534	679.41
484.968	686.05
485.403	687.73
485.837	686.35
486.271	685.78
486.706	686.79
487.14	678.4
487.574	666.82
488.009	661.36
488.443	655.21
488.877	661.26
489.311	662.72
489.745	670.05
490.179	675.69
490.613	687.76
491.046	692.57
491.48	696.73
491.914	697.37
492.348	702.87
492.781	706.08
493.215	706.84
493.648	708.31
494.082	713.14
494.515	712.67
494.948	719.87
495.382	724.29
495.815	728.18
496.248	733.05
496.681	745.28
497.114	756.32
497.547	766.49
497.98	780.25
498.413	785.29
498.846	795.03
499.279	803.3
499.711	806.91
500.144	808.49
500.577	818.37
501.009	829.17
501.442	838.2
501.874	838.77
502.306	840.03
502.739	847.02
503.171	861.41
503.603	862.92
504.036	870.62
504.468	875.72
504.9	886.19
505.332	892.24
505.764	895.62
506.196	901.43
506.627	914.59
507.059	927.18
507.491	933.52
507.923	930.79
508.354	945.07
508.786	955.31
509.217	972.82
509.649	986.61
510.08	1003.95
510.512	1019.47
510.943	1033.18
511.374	1043.49
511.805	1061.83
512.237	1080.46
512.668	1110.88
513.099	1135.78
513.53	1161.83
513.961	1180.19
514.391	1210.39
514.822	1242.48
515.253	1277.39
515.684	1302.5
516.114	1329.74
516.545	1349.74
516.975	1374.28
517.406	1391.15
517.836	1394.14
518.267	1398.72
518.697	1416.08
519.127	1419.68
519.558	1425.75
519.988	1428.4
520.418	1437.74
520.848	1454.08
521.278	1460.64
521.708	1476.73
522.138	1488.29
522.567	1517.78
522.997	1542.25
523.427	1556.8
523.857	1573.01
524.286	1582.35
524.716	1595.09
525.145	1611.79
525.575	1621.64
526.004	1634.7
526.433	1627.49
526.863	1628.03
527.292	1617.48
527.721	1622.11
528.15	1626.71
528.579	1625.84
529.008	1635.87
529.437	1657.61
529.866	1670.43
530.295	1687.68
530.724	1701.07
531.152	1727.01
531.581	1739.5
532.01	1755.38
532.438	1763.49
532.867	1776.52
533.295	1794.63
533.723	1800.18
534.152	1798.44
534.58	1798.59
535.008	1782.72
535.436	1784.08
535.865	1790.88
536.293	1804.42
536.721	1821.01
537.149	1845.23
537.576	1849.12
538.004	1860.76
538.432	1868.32
538.86	1865.46
539.287	1871.46
539.715	1885.2
540.143	1887.21
540.57	1882.96
540.998	1878.83
541.425	1855.54
541.852	1834.76
542.28	1831.54
542.707	1815.24
543.134	1801.85
543.561	1798.23
543.988	1791.43
544.415	1790.4
544.842	1784.63
545.269	1778.75
545.696	1780.46
546.123	1792.3
546.549	1782.04
546.976	1769.28
547.403	1770.32
547.829	1772.17
548.256	1774.24
548.682	1770.6
549.108	1763.44
549.535	1763.7
549.961	1765.46
550.387	1753.08
550.813	1748.93
551.24	1755.94
551.666	1757.46
552.092	1748.1
552.518	1741.31
552.943	1735.76
553.369	1742.7
553.795	1746.44
554.221	1747.38
554.646	1743.83
555.072	1753.98
555.498	1757.82
555.923	1765.61
556.349	1779.83
556.774	1787.17
557.199	1787.82
557.625	1793.37
558.05	1786.5
558.475	1798.13
558.9	1796.95
559.325	1790.14
559.75	1784.23
560.175	1778.13
560.6	1771.68
561.025	1769.95
561.449	1771.23
561.874	1776.76
562.299	1780.25
562.723	1788.28
563.148	1777.77
563.572	1781.8
563.997	1790.42
564.421	1794.54
564.846	1795.71
565.27	1799.43
565.694	1797.15
566.118	1807.57
566.542	1814.52
566.966	1809.41
567.39	1804.26
567.814	1793.28
568.238	1792.73
568.662	1798.49
569.086	1801.7
569.509	1807.94
569.933	1793.11
570.357	1784.76
570.78	1764.73
571.204	1753.06
571.627	1741.85
572.05	1740.97
572.474	1741.37
572.897	1730.18
573.32	1722.62
573.743	1712.85
574.166	1695.38
574.589	1695.53
575.012	1689.52
575.435	1687.98
575.858	1677.85
576.281	1666.5
576.704	1649.76
577.126	1637.55
577.549	1624.95
577.972	1614.02
578.394	1604.37
578.817	1596.78
579.239	1578.2
579.661	1564.94
580.084	1550.03
580.506	1537.19
580.928	1533.13
581.35	1523.4
581.772	1519.43
582.194	1506.94
582.616	1494.35
583.038	1479.74
583.46	1470.11
583.882	1468.02
584.303	1470.61
584.725	1465.61
585.147	1468.93
585.568	1480.51
585.99	1493.15
586.411	1499.75
586.833	1515.07
587.254	1517.83
587.675	1532.56
588.096	1544.82
588.518	1539.31
588.939	1524.31
589.36	1523.67
589.781	1512.5
590.202	1486.3
590.623	1476.98
591.043	1474.13
591.464	1461.02
591.885	1456.28
592.305	1451.15
592.726	1437.21
593.147	1438.41
593.567	1433.75
593.987	1426.72
594.408	1421.51
594.828	1418.38
595.248	1412.43
595.669	1395.21
596.089	1389.64
596.509	1384.69
596.929	1370.86
597.349	1371.67
597.769	1361.34
598.189	1354.95
598.608	1356.2
599.028	1358.49
599.448	1359.3
599.867	1348.51
600.287	1344.16
600.706	1339.48
601.126	1330.96
601.545	1330.52
601.965	1330.04
602.384	1325.56
602.803	1329.1
603.222	1324.53
603.641	1318.56
604.061	1313.81
604.48	1308.35
604.898	1316.63
605.317	1320.97
605.736	1322.5
606.155	1320.14
606.574	1310.16
606.992	1314.96
607.411	1310.18
607.829	1301.94
608.248	1298.03
608.666	1295.32
609.085	1294.79
609.503	1285.6
609.921	1278.99
610.339	1279.86
610.758	1278.31
611.176	1274.39
611.594	1265.83
612.012	1261.2
612.43	1264.54
612.847	1270.67
613.265	1272.58
613.683	1276.75
614.101	1276.98
614.518	1272.44
614.936	1262.89
615.353	1248.81
615.771	1246.27
616.188	1244.97
616.606	1242.08
617.023	1233.99
617.44	1219.52
617.857	1211.99
618.274	1203.13
618.691	1198.55
619.108	1190.27
619.525	1183.82
619.942	1189.61
620.359	1190.27
620.776	1186.68
621.192	1182.23
621.609	1179.62
622.026	1186.14
622.442	1191.24
622.859	1194.73
623.275	1186.91
623.691	1191.78
624.108	1202.73
624.524	1215
624.94	1215.86
625.356	1224.38
625.772	1237.34
626.188	1249.14
626.604	1251.05
627.02	1247.19
627.436	1244.48
627.852	1250.98
628.268	1263.16
628.683	1254.73
629.099	1247.83
629.514	1242.58
629.93	1245.97
630.345	1249.63
630.761	1245.71
631.176	1248.82
631.591	1244.05
632.007	1239.54
632.422	1238.02
632.837	1227.01
633.252	1224.45
633.667	1215.59
634.082	1206.98
634.497	1194.96
634.911	1177.27
635.326	1173.94
635.741	1158.22
636.155	1148.97
636.57	1149.56
636.984	1149.82
637.399	1152.35
637.813	1152.72
638.228	1151.94
638.642	1157.74
639.056	1150.76
639.47	1152.63
639.884	1147.2
640.298	1142.13
640.712	1142.91
641.126	1133.43
641.54	1126.56
641.954	1121.69
642.368	1112.85
642.781	1107.52
643.195	1092.16
643.609	1093.81
644.022	1088.31
644.436	1085.22
644.849	1075.01
645.262	1063.62
645.676	1066.55
646.089	1063.71
646.502	1051.39
646.915	1046.38
647.328	1030.32
647.741	1027.99
648.154	1015.99
648.567	1015.23
648.98	1002.75
649.393	1004.11
649.805	1002.4
650.218	995.14
650.631	979.1
651.043	973.35
651.456	968.31
651.868	968.65
652.28	986.96
652.693	1000.09
653.105	1005.41
653.517	1014.02
653.929	1013.91
654.341	1019.08
654.753	1007.17
655.165	1013.85
655.577	1012.06
655.989	1007.11
656.401	998.87
656.813	963.08
657.224	942.73
657.636	913.87
658.047	895.51
658.459	876.78
658.87	867.07
659.282	855.28
659.693	835.84
660.104	821.73
660.515	808.15
660.926	807.73
661.338	805.37
661.749	800.29
662.159	792.02
662.57	789.88
662.981	786.8
663.392	780.67
663.803	785.38
664.213	783.09
664.624	779.93
665.035	784.41
665.445	771.49
665.855	765.06
666.266	758.51
666.676	757.94
667.086	749.48
667.497	748.95
667.907	743.33
668.317	734.44
668.727	733.17
669.137	734.34
669.547	732.48
669.956	735.58
670.366	737.62
670.776	739.12
671.186	743.09
671.595	746.62
672.005	750.01
672.414	749.07
672.824	748.86
673.233	750.72
673.642	751.27
674.052	753.42
674.461	754.07
674.87	757.86
675.279	755.17
675.688	756.15
676.097	756.67
676.506	752.43
676.915	765.36
677.323	767.56
677.732	764.83
678.141	764.07
678.549	753.1
678.958	750.96
679.366	749.31
679.775	752.87
680.183	762.28
680.592	766.79
681	770.88
681.408	764.02
681.816	769.62
682.224	778.15
682.632	786.16
683.04	813.21
683.448	835.76
683.856	863.17
684.264	894.06
684.671	920.96
685.079	954.52
685.487	993.09
685.894	1047.31
686.302	1089.56
686.709	1123.22
687.116	1165
687.524	1197.13
687.931	1222.69
688.338	1245.73
688.745	1263.19
689.152	1285.58
689.559	1318.7
689.966	1349.85
690.373	1361.99
690.78	1392.38
691.187	1443.9
691.593	1482.96
692	1515.5
692.407	1567.14
692.813	1631.7
693.22	1681.92
693.626	1733.57
694.032	1775.5
694.439	1841.69
694.845	1892.88
695.251	1959.77
695.657	2016.7
696.063	2103.4
696.469	2168.35
696.875	2229.82
697.281	2262.86
697.687	2305.75
698.093	2342.93
698.498	2414.07
698.904	2467.64
699.31	2549.88
699.715	2608.65
700.12	2693.95
700.526	2712.38
700.931	2779.91
701.337	2831.11
701.742	2866.15
702.147	2947.12
702.552	2980.16
702.957	3037.66
703.362	3060.61
703.767	3089.87
704.172	3130.82
704.577	3092.79
704.981	3141.21
705.386	3159.84
705.791	3156.02
706.195	3230.97
706.6	3241.41
707.004	3318.03
707.408	3291.32
707.813	3320.63
708.217	3313.74
708.621	3318.89
709.025	3412.27
709.43	3417.38
709.834	3475.94
710.237	3544.89
710.641	3532.85
711.045	3559.59
711.449	3557.66
711.853	3589.49
712.256	3631.59
712.66	3668.79
713.064	3743.79
713.467	3787.74
713.87	3895.81
714.274	3944.73
714.677	4052.96
715.08	4209.39
715.484	4371.47
715.887	4568.52
716.29	4761.84
716.693	4964.15
717.096	5198.94
717.499	5326.02
717.901	5352.56
718.304	5382.63
718.707	5408.65
719.109	5312.98
719.512	5283.68
719.915	5159.79
720.317	5107.3
720.719	5153.42
721.122	5127.95
721.524	5081.51
721.926	5045.88
722.328	5148.53
722.731	5141.23
723.133	5170.12
723.535	5360.74
723.937	5384.72
724.338	5437.36
724.74	5482.07
725.142	5426.89
725.544	5427.74
725.945	5460.33
726.347	5458.36
726.748	5450.5
727.15	5467.51
727.551	5432.93
727.952	5405.61
728.354	5380.06
728.755	5379.59
729.156	5337.87
729.557	5323.53
729.958	5206.03
730.359	5149.41
730.76	5133.61
731.161	5076.27
731.562	5053.04
731.962	5056.85
732.363	4995.72
732.763	4932.86
733.164	4968.71
733.564	4907.45
733.965	4815
734.365	4784.68
734.766	4812.96
735.166	4775.95
735.566	4722.92
735.966	4697.12
736.366	4693.9
736.766	4634.92
737.166	4667.53
737.566	4629.22
737.966	4602.69
738.365	4639.74
738.765	4633.97
739.165	4563.48
739.564	4536.41
739.964	4580.85
740.363	4537.92
740.763	4534.7
741.162	4524.39
741.561	4493.37
741.96	4449.01
742.36	4469.27
742.759	4476.83
743.158	4513.04
743.557	4528.26
743.955	4569.13
744.354	4527.09
744.753	4581.4
745.152	4541.87
745.55	4595.91
745.949	4590.76
746.348	4592.4
746.746	4608.27
747.144	4569.82
747.543	4549.77
747.941	4595.8
748.339	4525.93
748.737	4517.79
749.136	4508.67
749.534	4571.42
749.932	4542.58
750.33	4565.13
750.727	4618.93
751.125	4594.93
751.523	4579.06
751.921	4621.31
752.318	4590.53
752.716	4649.13
753.113	4661.99
753.511	4687.15
753.908	4685.88
754.305	4671.12
754.703	4729.59
755.1	4786.84
755.497	4847.97
755.894	5034.93
756.291	5207.7
756.688	5526.1
757.085	5952.42
757.482	6554.31
757.878	7211.3
758.275	7807.29
758.672	8622.46
759.068	9289.77
759.465	10240.46
759.861	11461.94
760.258	12878.12
760.654	13607.55
761.05	13499.65
761.447	12884.1
761.843	11991.1
762.239	11071.93
762.635	10658.49
763.031	10261.52
763.427	9686.45
763.822	9085.37
764.218	8484.56
764.614	7706.86
765.01	7192.98
765.405	6857.79
765.801	6601.7
766.196	6278.18
766.592	6097.22
766.987	5792.03
767.382	5582.26
767.778	5496.76
768.173	5367.13
768.568	5297.14
768.963	5176.7
769.358	5191.11
769.753	5145.23
770.148	5064.27
770.542	5062.61
770.937	5031.12
771.332	5117.7
771.726	5137.07
772.121	5075.16
772.515	5128.28
772.91	5114.81
773.304	5182.6
773.699	5120.79
774.093	5172.55
774.487	5226.72
774.881	5269.43
775.275	5263.9
775.669	5228.53
776.063	5268.92
776.457	5303.31
776.851	5234.1
777.245	5225.47
777.638	5259.06
778.032	5367.47
778.425	5331.4
778.819	5371.63
779.212	5328.01
779.606	5289.74
779.999	5301.16
780.392	5289.34
780.786	5368.85
781.179	5388.85
781.572	5431.61
781.965	5443.45
782.358	5390.64
782.751	5443.79
783.143	5398.04
783.536	5471.6
783.929	5514
784.322	5627.54
784.714	5656.53
785.107	5650.64
785.499	5719.49
785.891	5696.46
786.284	5677.36
786.676	5815.55
787.068	5800.5
787.46	5849.26
787.852	5866.86
788.245	5950.78
788.636	5978.06
789.028	6043.11
789.42	6084.02
789.812	6094.32
790.204	6189.37
790.595	6286.2
790.987	6096.97
791.378	6116.8
791.77	6241.51
792.161	6374.41
792.553	6425.65
792.944	6320.52
793.335	6252
793.726	6321.04
794.117	6403.56
794.508	6532.92
794.899	6504.68
795.29	6638.3
795.681	6695.25
796.072	6557.76
796.463	6381.23
796.853	6393.47
797.244	6544.55
797.634	6579.87
798.025	6576.49
798.415	6588.27
798.806	6673.03
799.196	6751.14
799.586	6798.61
799.976	6759.81
800.366	6985.32
800.756	7212.57
801.146	7171.66
801.536	7199.61
801.926	7268.65
802.316	7294.05
802.706	7367.38
803.095	7254.02
803.485	7355.64
803.874	7396.6
804.264	7649.08
804.653	7616.63
805.043	7759.59
805.432	7868.2
805.821	7870.09
806.21	7893.37
806.599	8011.49
806.988	8053.48
807.377	8155.91
807.766	8278.71
808.155	8550.4
808.544	8296.1
808.933	8315.17
809.321	8293
809.71	8574.79
810.098	8723.92
810.487	9173.35
810.875	9634.53
811.264	9654.02
811.652	9937.71
812.04	10080.98
812.428	10241.92
812.816	10978.94
813.204	11377.6
813.592	11907.71
813.98	12234.46
814.368	12149.99
814.756	12606.78
815.144	12527.87
815.531	12979.52
815.919	12899.28
816.306	13189.74
816.694	12890.33
817.081	12937.48
817.469	13282.04
817.856	13276.96
818.243	13532.5
818.63	13906.56
819.017	13503.79
819.404	13571.26
819.791	13933.31
820.178	14526.87
820.565	14777.19
820.952	15687.75
821.339	15216.38
821.725	15394.28
822.112	14674.94
822.498	14643.38
822.885	14779.76
823.271	14685.01
823.657	15085.01
824.044	15092.08
824.43	15172.03
824.816	15132.7
825.202	14708.85
825.588	15695.23
825.974	15703.64
826.36	16206.84
826.746	16238.51
827.132	16572.94
827.517	16547.11
827.903	15790.51
828.289	15835.68
828.674	15075.22
829.06	14974.39
829.445	15350.95
829.83	15689.93
830.216	16158.33
830.601	16516.84
830.986	16123.53
831.371	15995.43
831.756	16529.52
832.141	16111.52
832.526	16106.24
832.911	16384.29
833.295	16279.83
833.68	16738.1
834.065	16136.4
834.449	15249.7
834.834	15182.97
835.218	15181.84
835.603	15507.2
835.987	15306.59
836.371	16112.3
836.755	16006.54
837.139	16385.32
837.524	16616.65
837.908	16432.44
838.291	16495.6
838.675	16559.18
839.059	16752.33
839.443	16739.34
839.827	16521.42
840.21	16983.67
840.594	16847.68
840.977	17055.8
841.361	17042.56
841.744	17402.8
842.127	17260.19
842.511	17499.56
842.894	18070.8
843.277	18438.11
843.66	18953.35
844.043	19034.93
844.426	18262.01
844.809	17958.05
845.191	17984.21
845.574	17536.21
845.957	17182.93
846.339	17077.6
846.722	16576.01
847.104	16644.65
847.487	16476.94
847.869	16495.61
848.252	16750.41
848.634	17064.69
849.016	17313.23
849.398	17428.46
849.78	18253.78
850.162	18257.34
850.544	18651.26
850.926	19241.38
851.307	19154.72
851.689	19429.84
852.071	19861.5
852.452	20180.27
852.834	20164.42
853.215	20547.66
853.597	20688.7
853.978	20964.79
854.359	21408.33
854.741	20462.05
855.122	20375.87
855.503	20097.69
855.884	20212.12
856.265	20147.52
856.646	20264.85
857.026	19891.32
857.407	19829.55
857.788	19996.14
858.169	20272.67
858.549	19451.39
858.93	20040.14
859.31	20078.36
859.69	20275.98
860.071	19890.6
860.451	19686.1
860.831	18960.45
861.211	20065.75
861.591	20599.13
861.971	20557.34
862.351	20742.05
862.731	21115.5
863.111	21376.96
863.491	21705.64
863.87	22560.07
864.25	22898.87
864.629	22511.37
865.009	23015.98
865.388	23837.41
865.768	25541.8
866.147	25446.13
866.526	24028.97
866.905	24310.79
867.284	25657.37
867.663	24364.68
868.042	23350.09
868.421	23273.54
868.8	23668.17
869.179	23895.53
869.558	22501.27
869.936	20731.46
870.315	21098.92
870.693	21618.9
871.072	23322.42
871.45	22224.3
871.828	22502.17
872.207	23655.07
872.585	23297.35
872.963	23912.55
873.341	23094.29
873.719	22831.81
874.097	22566.08
874.475	23008.56
874.853	23535.62
875.23	22554.78
875.608	23502.87
875.986	25414.77
876.363	24303.87
876.741	25050.7
877.118	24438.39
877.495	25638.01
877.873	26049.21
878.25	27411.28
878.627	26294.86
879.004	26671
879.381	26542.26
879.758	25849.59
880.135	24073.82
880.512	25452.32
880.889	24783.88
881.265	24533.99
881.642	24332.55
882.019	24753.29
882.395	24253.63
882.772	25215.97
883.148	24113.46
883.524	24012.33
883.901	23868.34
884.277	24216.66
884.653	24062.02
885.029	24740.7
885.405	27399.13
885.781	27184.56
886.157	26053.78
886.532	26359.44
886.908	26336.42
887.284	29292.02
887.659	30251.47
888.035	31204.91
888.411	32022.91
888.786	32454.31
889.161	33588.39
889.537	32951.44
889.912	34008.49
890.287	33975.97
890.662	34869.33
891.037	34238.19
891.412	31920.02
891.787	31598.1
892.162	30492.11
892.536	31192.45
892.911	30022.2
893.286	29371.62
893.66	28188.43
894.035	28897.01
894.409	31476.51
894.784	30198.54
895.158	30696.05
895.532	32519.71
895.906	33415.93
896.281	34205.23
896.655	33671.41
897.029	38471.06
897.402	40079.3
897.776	44629.6
898.15	44490.75
898.524	44002.84
898.898	44582.53
899.271	49930.3
899.645	43238.54
900.018	41522.63
900.392	43045.8
900.765	43379.97
901.138	40136.55
901.511	39539.97
901.884	36294.85
902.258	33500.29
902.631	34621.7
903.003	39847.95
903.376	35928.99
903.749	40271.97
904.122	43092.34
904.495	47433.61
904.867	48047.6
905.24	41731.18
905.612	38840.58
905.985	39701.72
906.357	41478.61
906.729	39588.07
907.102	33815.82
907.474	32543.79
907.846	32774.56
908.218	32342.85
908.59	28585.38
908.962	27633.55
909.334	29737.48
909.705	31228.55
910.077	30331.15
910.449	31566.8
910.82	32445.3
911.192	35691.95
911.563	37081.03
911.935	39667.06
912.306	39736.77
912.677	41022.89
913.048	40616.39
913.419	44103.27
913.79	44371
914.161	47572.65
914.532	45492.27
914.903	41788.38
915.274	39718.8
915.645	39109.65
916.015	34414.37
916.386	32818.15
916.756	34923.76
917.127	36042.6
917.497	32177.7
917.868	35036.95
918.238	33302.4
918.608	34256.98
918.978	34976.85
919.348	37057.89
919.718	38319.15
920.088	36904.99
920.458	38334.21
920.828	40348.15
921.198	38250.94
921.567	40865.6
921.937	31631.01
922.306	31933.96
922.676	34438.58
923.045	28734.21
923.415	27284.36
923.784	24839.79
924.153	25562.74
924.522	25554.2
924.891	24036.42
925.26	25736.31
925.629	25133.21
925.998	28884.94
926.367	28205.7
926.736	26854.91
927.104	31978.94
927.473	34369.22
927.842	41524.95
928.21	41095.48
928.578	43182.97
928.947	40854.45
929.315	41111.4
929.683	48235.06
930.051	48639.42
930.42	56469.8
930.788	48265.63
931.156	47925.36
931.523	44931.49
931.891	41537.86
932.259	39933.34
932.627	46257.79
932.994	65429.21
933.362	54119.66
933.729	46999.75
934.097	44987.73
934.464	38068.68
934.831	43942.55
935.199	43296.96
935.566	41984.58
935.933	42492.28
936.3	51452.93
936.667	40081.88
937.034	36146.41
937.401	35735.56
937.767	30837.37
938.134	27465.39
938.501	38749.57
938.867	41303.32
939.234	69864.46
939.6	59586.37
939.967	65723.37
940.333	43988.11
940.699	37457.75
941.065	30067.95
941.431	39442.4
941.798	38025.71
942.163	49904.77
942.529	31182.16
942.895	28689.03
943.261	18567.41
943.627	24356.76
943.992	21322.67
944.358	21337.64
944.723	21400.7
945.089	20848.22
945.454	19233.33
945.82	20538.59
946.185	19742.69
946.55	22858.74
946.915	20509.23
947.28	24042.59
947.645	21187.42
948.01	19576.69
948.375	20440.81
948.74	24504.58
949.104	28593.16
949.469	41267.84
949.834	72968.75
950.198	69135.94
950.562	41461.5
950.927	34523.81
951.291	41570.09
951.655	35365.08
952.02	33185.86
952.384	25080.83
952.748	21842.36
953.112	21292.08
953.476	18529.17
953.839	17121.26
954.203	16963.19
954.567	21209.59
954.931	33393.64
955.294	28576.15
955.658	28778.82
956.021	48975.46
956.385	83155.97
956.748	122618.21
957.111	190179.93
957.474	213751.26
957.837	240774.73
958.2	182245.66
958.563	65615.35
958.926	44408.65
959.289	67388.68
959.652	75240.66
960.015	56479.91
960.377	81026.56
960.74	92594.95
961.102	159944.45
961.465	171626.31
961.827	91986.49
962.189	176501.55
962.552	122336.91
962.914	98153.75
963.276	63705.07
963.638	52671.52
964	52073.89
964.362	35214.63
964.724	34028.78
965.085	24262.62
965.447	19891.76
965.809	22648.08
966.17	22668.43
966.532	24495.21
966.893	22479.28
967.255	20462.05
967.616	24168.11
967.977	19380.15
968.338	21161.34
968.699	17378.7
969.061	17388.59
969.421	17511.65
969.782	19651.51
970.143	16593.59
970.504	17209.25
970.865	19568.21
971.225	20005.64
971.586	19560.96
971.946	27866.68
972.307	24171.63
972.667	31645.34
973.027	32611.44
973.388	39566.45
973.748	26939.15
974.108	29385.5
974.468	39729.83
974.828	30586.63
975.188	23537.63
975.548	21658.33
975.907	18194.9
976.267	20410.77
976.627	17152.51
976.986	17770.11
977.346	16939.34
977.705	16284.51
978.064	14800.92
978.424	12331.98
978.783	12761.11
979.142	14550.1
979.501	13902.66
979.86	14694.69
980.219	14177.45
980.578	18254.49
980.937	20449.28
981.296	18225.47
981.654	18747.27
982.013	29204.86
982.371	37905.86
982.73	35389.93
983.088	40149.05
983.447	42903.15
983.805	61383.2
984.163	128120.37
984.521	142196.47
984.879	208447.58
985.237	-339085.86
985.595	327100.37
985.953	81304.01
986.311	46940.99
986.669	27268.7
987.026	23530.62
987.384	31713.1
987.741	32784.51
988.099	23456.03
988.456	18719.68
988.814	17524.93
989.171	15233.51
989.528	15043.19
989.885	15900.95
990.242	12602.36
990.599	15727.36
990.956	12870.45
991.313	8981.48
991.67	7379.01
992.027	7830.65
992.383	6974.24
992.74	6122.7
993.096	6432.5
993.453	6666.42
993.809	6907.94
994.165	9196.91
994.522	8405.03
994.878	9262.54
995.234	11647.13
995.59	11476.85
995.946	10865.55
996.302	12369.76
996.658	14301.98
997.013	15744.88
997.369	18708.6
997.725	23944.57
998.08	15524.85
998.436	23959.22
998.791	33076.3
999.147	32967.71
999.502	36052.02
999.857	26191.8
1000.212	42778.18
1000.567	60974.39
1000.922	35122.53
1001.277	22284.7
1001.632	16514.64
1001.987	21244.16
1002.342	15263.29
1002.696	12204.86
1003.051	9742.81
1003.406	11790.91
1003.76	11739.92
1004.114	11552.75
1004.469	9701.9
1004.823	8058.05
1005.177	8694.52
1005.531	6909.21
1005.885	6132.09
1006.239	6926.74
1006.593	8674.28
1006.947	11611.05
1007.301	8698.84
1007.655	9473
1008.008	6961.34
1008.362	7814.1
1008.715	11131.32
1009.069	10104.9
1009.422	15219.94
1009.776	30608.44
1010.129	20277.72
1010.482	16922.23
1010.835	14317.15
1011.188	29850.18
1011.541	28110.66
1011.894	-171646.12
1012.247	506881.37
1012.6	34346.99
1012.952	21674.45
1013.305	11154.12
1013.657	8027.15
1014.01	7605.75
1014.362	6281.01
1014.715	5586.05
1015.067	4860.56
1015.419	4746.7
1015.771	4222.18
1016.123	3758.33
1016.475	3881.57
1016.827	4138.99
1017.179	4458.09
1017.531	4498.02
1017.883	4585.19
1018.234	4429.77
1018.586	5585.31
1018.938	5910.96
1019.289	8182.01
1019.64	9331.24
1019.992	8664.07
1020.343	7907.07
1020.694	6267.74
1021.045	5539.29
1021.396	6312.38
1021.747	6793.39
1022.098	8177.24
1022.449	5905.61
1022.8	5486.09
1023.151	3803.97
1023.501	3389.5
1023.852	3693.49
1024.202	3846.32
1024.553	4200.49
1024.903	4104.58
1025.253	3519.37
1025.604	3161.97
1025.954	3916.95
1026.304	4793.59
1026.654	5591.12
1027.004	8236.24
1027.354	13310.29
1027.703	12535.87
1028.053	16519.59
1028.403	24385.36
1028.753	35312.36
1029.102	48140.29
1029.452	248594.24
1029.801	10770.26
1030.15	6976.89
1030.499	5931.22
897.758	2865.79
901.051	2841.39
904.343	2877.27
907.636	2873.14
910.928	2939.31
914.22	2842.8
917.511	2853.13
920.803	2924.51
924.094	2951.77
927.384	2921.13
930.675	2888.77
933.965	2838.35
937.255	2837.28
940.544	2804.97
943.834	2718.17
947.123	2667.42
950.411	2767.41
953.7	2736.07
956.988	2696.88
960.276	2642.39
963.563	2738.98
966.851	2727.32
970.138	2791.86
973.424	2778.21
976.711	2725.64
979.997	2898.37
983.283	2926.22
986.568	2821.84
989.853	2850.36
993.138	2875.77
996.423	2955.3
999.708	2883.17
1002.992	2967.84
1006.275	2768.57
1009.559	2834.91
1012.842	2958.29
1016.125	2882.8
1019.408	2860.54
1022.69	2958.98
1025.972	2968.27
1029.254	2944.99
1032.536	2863.76
1035.817	2897.05
1039.098	2824.52
1042.379	3013.24
1045.659	2994.38
1048.939	2920.86
1052.219	2948.31
1055.498	2968.96
1058.778	2950.16
1062.057	2939.75
1065.335	2959.34
1068.614	2981.65
1071.892	2957.72
1075.17	3043.91
1078.447	3026.53
1081.724	3014.61
1085.001	3056.33
1088.278	3028.72
1091.554	3044.81
1094.83	3041.93
1098.106	3066.51
1101.382	3119.7
1104.657	3120.9
1107.932	3114.76
1111.206	3072.58
1114.481	3032.05
1117.755	3039.82
1121.029	3012.67
1124.302	3060.48
1127.575	3005.4
1130.848	2988.13
1134.121	2944.47
1137.393	2885.83
1140.665	2958.39
1143.937	2931.05
1147.208	2897.28
1150.48	2928
1153.75	2914.06
1157.021	2960.81
1160.291	2925.77
1163.561	2965.57
1166.831	2966.77
1170.101	3002.79
1173.37	2985.4
1176.639	2921.54
1179.907	2989.98
1183.176	2989.12
1186.444	2999.38
1189.711	3026.8
1192.979	3030.16
1196.246	2989.82
1199.513	3013.02
1202.78	3007.51
1206.046	3014.87
1209.312	3040.16
1212.578	3068.52
1215.843	3013.1
1219.108	2991.66
1222.373	3013.72
1225.638	2972.31
1228.902	2954.33
1232.166	2924.2
1235.43	2900.35
1238.693	2924.91
1241.956	2924.82
1245.219	2957.68
1248.482	2957.05
1251.744	2949.42
1255.006	3110.65
1258.268	3067.93
1261.529	3007.77
1264.79	3018.92
1268.051	3126.8
1271.312	3148.11
1274.572	3104.78
1277.832	3095.94
1281.092	3090.95
1284.351	3052.08
1287.61	3028.48
1290.869	2934.01
1294.128	2900.82
1297.386	3007.35
1300.644	2992.71
1303.902	3004.04
1307.159	2858.48
1310.416	2915.62
1313.673	2937.03
1316.93	2918.01
1320.186	2973.17
1323.442	3019.93
1326.697	3003.67
1329.953	3004.77
1333.208	3022.39
1336.463	3008.33
1339.717	2935.73
1342.972	3086.64
1346.226	3063.16
1349.479	2987.68
1352.733	2952.24
1355.986	2984.41
1359.238	2958.03
1362.491	2956.23
1365.743	2964
1368.995	2960.52
1372.247	2970.35
1375.498	2998.26
1378.749	2994.42
1382	2955.02
1385.251	3019.14
1388.501	2983.93
1391.751	2957.61
1395	2934.41
1398.25	2969.21
1401.499	2966.09
1404.748	2882.15
1407.996	2875.71
1411.244	2857.96
1414.492	2839.34
1417.74	2813.26
1420.987	2823.55
1424.234	2880.45
1427.481	2868.72
1430.728	2926.9
1433.974	2901.65
1437.22	2922.67
1440.465	2931.17
1443.711	2879.89
1446.956	2919.01
1450.201	2916.6
1453.445	2963.91
1456.689	2936.28
1459.933	2952.28
1463.177	2978.6
1466.42	2950.44
1469.663	2931.31
1472.906	2915.22
1476.148	3013.26
1479.391	2949.44
1482.633	2928.2
1485.874	2931.24
1489.115	2906.77
1492.356	2924.18
1495.597	2894.62
1498.838	2905.47
1502.078	2864.42
1505.318	2804.21
1508.557	2850.94
1511.797	2803.91
1515.036	2906.38
1518.274	2895.22
1521.513	2875.95
1524.751	2904.6
1527.989	2913.32
1531.227	2923.58
1534.464	2906.65
1537.701	2941.29
1540.938	2963.17
1544.174	2919.65
1547.41	2923.35
1550.646	2965.23
1553.882	2995.46
1557.117	3048.2
1560.352	3067.86
1563.587	3020.91
1566.821	2976.75
1570.055	3024.04
1573.289	2987
1576.523	3073.2
1579.756	3077.93
1582.989	3095.61
1586.222	3054.79
1589.454	3098.41
1592.686	3063.15
1595.918	3086.56
1599.15	3072.81
1602.381	3164.35
1605.612	3103.27
1608.843	3206.38
1612.073	3112.39
1615.303	3093.38
1618.533	3080.02
1621.762	3086.07
1624.992	3079.52
1628.221	3060.05
1631.449	3042.58
1634.678	3114.6
1637.906	3062.11
1641.134	3107.97
1644.361	3057.28
1647.588	3046.35
1650.815	3060.37
1654.042	3046.83
1657.269	3076.94
1660.495	3020.6
1663.72	3018.38
1666.946	2987.12
1670.171	2911.09
1673.396	2886.54
1676.621	2882.98
1679.845	2916.19
1683.069	2940.47
1686.293	2990.08
1689.517	2952.04
1692.74	2871.19
1695.963	2901.11
1699.185	2943.56
1702.408	2912.5
1705.63	2960.83
1708.852	2968.49
1712.073	2941.61
1715.294	2913.48
1718.515	2984.47
1721.736	2925.13
1724.956	2925.56
1728.176	2953.52
1731.396	2973.12
1734.616	2964.31
1737.835	2986.01
1741.054	2970.64
1744.272	2968.85
1747.491	2988.68
1750.709	3058.12
1753.927	2940.73
1757.144	2996.42
1760.361	3029.3
1763.578	3033.79
1766.795	2970.55
1770.011	2980.56
1773.227	3034.76
1776.443	3062.74
1779.658	3106.52
1782.874	3054.29
1786.089	3024.19
1789.303	3027.39
1792.518	3036.31
1795.732	3022.33
1798.945	3028.09
1802.159	3086.84
1805.372	2970.34
1808.585	2946.07
1811.797	2951.74
1815.01	3013.21
1818.222	3010.12
1821.434	2951.18
1824.645	3025.98
1827.856	2994.41
1831.067	3033.82
1834.278	3000.48
1837.488	2981.16
1840.698	3146.77
1843.908	3061.22
1847.117	3022.49
1850.326	2881.69
1853.535	3001.96
1856.744	3060.04
1859.952	2961.18
1863.16	2965.39
1866.368	2990.61
1869.575	3088.34
1872.782	2974.5
1875.989	2914.53
1879.196	3016.16
1882.402	3008.36
1885.608	3054.58
1888.814	2939.56
1892.019	2828.29
1895.224	2880.87
1898.429	2868.77
1901.634	2844.38
1904.838	2825.64
1908.042	2869.72
1911.246	2875.99
1914.449	2791.6
1917.652	2796.78
1920.855	2779.14
1924.058	2839.59
1927.26	2873.6
1930.462	2904.51
1933.664	2925.63
1936.865	2861.61
1940.066	2860.5
1943.267	2811.69
1946.467	2829.26
1949.668	2860.28
1952.868	2926.95
1956.067	2898.08
1959.267	2825.22
1962.466	2854.13
1965.665	2838.71
1968.863	2837.71
1972.061	2857.55
1975.259	2860.13
1978.457	2942.95
1981.654	2897.34
1984.852	2896.54
1988.048	2818.47
1991.245	2829.36
1994.441	2913.75
1997.637	2913.75
2000.833	2897.83
2004.028	2935.17
2007.223	2988.8
2010.418	2958.81
2013.613	2920.37
2016.807	2880.4
2020.001	2897.24
2023.194	2950.65
2026.388	2923.19
2029.581	2870.39
2032.774	2909.57
2035.966	2912.01
2039.158	2837.11
2042.35	2866.53
2045.542	2794.51
2048.733	2906
2051.924	2949.55
2055.115	2980.04
2058.306	2912.51
2061.496	2973.92
2064.686	3047.04
2067.875	2962.11
2071.065	2985.15
2074.254	3015.62
2077.442	2963
2080.631	3060.99
2083.819	2933.3
2087.007	2905
2090.195	2869.9
2093.382	2915.21
2096.569	2893.28
2099.756	2839.63
2102.942	2856.52
2106.128	2853.09
2109.314	2849
2112.5	2804.04
2115.685	2781.27
2118.87	2792.9
2122.055	2860.77
2125.239	2821.17
2128.424	2786.7
2131.608	2911.42
2134.791	2894.29
2137.974	2963.57
2141.157	2946.82
2144.34	2887.12
2147.523	2917.03
2150.705	2925.11
2153.887	2908.45
2157.068	2846.62
2160.25	2862.39
2163.431	2908.54
2166.611	2841.45
2169.792	2853.07
2172.972	2736.99
2176.152	2833.45
2179.331	2871.67
2182.511	2839.01
2185.69	2871.43
2188.868	2862.35
2192.047	2928.1
2195.225	2900.35
2198.403	2849.95
2201.58	2846.47
2204.758	2847.88
2207.935	2935.29
2211.111	2805.23
2214.288	2788.77
2217.464	2832.52
2220.64	2813.37
2223.815	2872.36
2226.991	2786.99
2230.166	2809.24
2233.34	2832.12
2236.515	2864.71
2239.689	2939.79
2242.863	2879.78
2246.036	2940.82
2249.209	2948.83
2252.382	2990.53
2255.555	2966.49
2258.727	2896.57
2261.9	2941.67
2265.071	2932.81
2268.243	2938.83
2271.414	2862.1
2274.585	2813.21
2277.756	2883.99
2280.926	2840.27
2284.096	2887.04
2287.266	2783.1
2290.436	2843.6
2293.605	2875.81
2296.774	2902.44
2299.942	2934.21
2303.111	2949.16
2306.279	2995.47
2309.447	2984.36
2312.614	2962.89
2315.781	2977.82
2318.948	2946.88
2322.115	2984.79
2325.281	2888.12
2328.447	2917.15
2331.613	2894
2334.779	2856.03
2337.944	2867.83
2341.109	2860.17
2344.274	2839.61
2347.438	2799.89
2350.602	2831.04
2353.766	2848.7
2356.929	2833.4
2360.092	2873.75
2363.255	2814.65
2366.418	2731.54
2369.58	2866.99
2372.742	2610.7
2375.904	2635.08
2379.066	2605.53
2382.227	2651.71
2385.388	2612.04
2388.548	2523.45
2391.709	2587
2394.869	2561.55
2398.029	2683.31
2401.188	2705
2404.347	2626.05
2407.506	2794.11
2410.665	2824.21
2413.823	2839.04
2416.981	2784.06
2420.139	2822.42
2423.296	2878.73
2426.453	2851.04
2429.61	2881.46
2432.767	2795.41
2435.923	2833.16
2439.079	2774.73
2442.235	2832.09
2445.391	2748.53
2448.546	2769.99
2451.701	2828.23
2454.855	2786.52
2458.009	2850.94
2461.163	2862.02
2464.317	2813.56
2467.471	2850.43
2470.624	2895.84
2473.777	2887.23
2476.929	2899.2
2480.082	2925.76
2483.234	2883.88
2486.385	2826.28
2489.537	2819.62
2492.688	2766.9
2495.839	2782.69
2498.989	2788.6
2502.14	2769.2
2505.29	2748.8
2508.439	2776.83
2511.589	2691.25
2514.738	2710.15
2517.887	2745.7
2521.035	2824.88
2524.183	2819.44
2527.331	2792.81
2530.479	2757.64
2533.627	2772.66
