Data from N_2_HIR_WI_4N_Splice17_12-32-28-798.txt Node
Date: Sat Mar 14 12:32:28 EDT 2020
User: sa697716
Spectrometer: FLMS03696
Trigger mode: 0
Integration Time (sec): 3.180400E-1
Scans to average: 20
Electric dark correction enabled: true
Nonlinearity correction enabled: true
Boxcar width: 5
XAxis mode: Wavelengths
Number of Pixels in Spectrum: 2048
>>>>>Begin Spectral Data<<<<<
187.83	-316087.38
188.298	2304.68
188.766	1279.05
189.233	1110.92
189.701	1561.48
190.169	2202.11
190.636	837.41
191.104	700.8
191.571	112.04
192.039	-55.23
192.506	-36.92
192.974	471.08
193.441	-679.55
193.908	-112.54
194.375	-72.34
194.842	11.72
195.31	180.79
195.777	197.06
196.244	428.11
196.711	501.99
197.177	639.28
197.644	925.67
198.111	1560.56
198.578	2199.47
199.045	1764.85
199.511	2912.53
199.978	3395.56
200.445	2897.02
200.911	3218.67
201.378	3592.83
201.844	3251.86
202.31	5565.36
202.777	5805.04
203.243	3239.73
203.709	3067.33
204.176	3663.04
204.642	3011.47
205.108	2818.23
205.574	2280.48
206.04	2081.39
206.506	1953.64
206.972	1855.71
207.438	1799.35
207.903	2031.51
208.369	1785.83
208.835	1790.17
209.301	1868.09
209.766	1908.03
210.232	1892.29
210.697	2334.39
211.163	2890.03
211.628	4377.7
212.094	3671.78
212.559	4493.75
213.024	2811.06
213.49	3446.01
213.955	3365.75
214.42	3319.59
214.885	3112.1
215.35	2972.92
215.815	2877.14
216.28	3056.51
216.745	2496.91
217.21	2719.1
217.675	2517.45
218.14	2856
218.604	3205.91
219.069	3715.97
219.534	3927.15
219.998	4616.94
220.463	5658.17
220.927	7025.81
221.392	6662.76
221.856	6790.73
222.32	8610.91
222.785	10670.35
223.249	13505.75
223.713	15158.17
224.177	15184.12
224.642	19557.44
225.106	24109.68
225.57	26416.07
226.034	19629.92
226.497	29884.26
226.961	27059.57
227.425	31539.59
227.889	35101.28
228.353	35120.62
228.816	72586.9
229.28	69502.7
229.744	58672.52
230.207	35691.11
230.671	35133.6
231.134	58300.38
231.597	67307.41
232.061	67390.01
232.524	65780.27
232.987	45358.3
233.45	40875.32
233.914	36675.86
234.377	37666.35
234.84	34509.44
235.303	40715.5
235.766	45485.47
236.229	47080.74
236.691	29699.77
237.154	33341.69
237.617	25123.28
238.08	25733.54
238.542	30130.41
239.005	21560.6
239.468	21379.29
239.93	20157.06
240.393	18313.16
240.855	16080.23
241.317	16457.22
241.78	20025.12
242.242	20702.79
242.704	22310.92
243.166	19420.22
243.629	17626.75
244.091	20295.38
244.553	22244.72
245.015	23922.92
245.477	30975.19
245.939	45375.22
246.4	48143.97
246.862	46778.58
247.324	44096.91
247.786	49406.87
248.247	64778.98
248.709	66907.23
249.17	50066.2
249.632	47171.76
250.093	54607.68
250.555	47176.64
251.016	28779.37
251.477	27287.65
251.939	29449.43
252.4	30901.81
252.861	36766.68
253.322	34185.06
253.783	40729.3
254.244	52810.37
254.705	41625.5
255.166	37004.1
255.627	36389.57
256.088	51289.84
256.549	54462.09
257.009	46850.2
257.47	56777.73
257.931	46170.04
258.391	34549.37
258.852	35554.34
259.312	37250.95
259.773	45977.14
260.233	38818.04
260.694	32730.23
261.154	37079.77
261.614	29729.93
262.074	26601.76
262.534	27621.02
262.994	26012.99
263.455	34647.99
263.915	29168.06
264.374	27477.74
264.834	29972.13
265.294	33220.38
265.754	34368.7
266.214	32547.24
266.673	30471
267.133	38435.46
267.593	38125.86
268.052	46670.13
268.512	40602.98
268.971	48952.41
269.431	53678.48
269.89	48076.82
270.349	72060.61
270.809	80407.12
271.268	72274.69
271.727	162237.65
272.186	104955.63
272.645	78719.85
273.104	56725.18
273.563	82048.96
274.022	64511.72
274.481	54819.06
274.94	42196.92
275.399	31356.12
275.857	36497.62
276.316	49324.26
276.775	43880.16
277.233	43244.53
277.692	40487.26
278.15	45808.56
278.609	47120.37
279.067	43611.61
279.525	40459.84
279.984	52281.09
280.442	62789.12
280.9	61801.46
281.358	40652.58
281.816	37863.26
282.274	37043.47
282.732	38265.22
283.19	38434.19
283.648	33200.23
284.106	35341.8
284.564	35968.15
285.021	33335
285.479	24834.71
285.937	22617.26
286.394	19820.38
286.852	20386.09
287.309	21406.48
287.767	20655.31
288.224	19633.22
288.682	21512.37
289.139	23577.34
289.596	21554.82
290.053	22385.85
290.511	28244.47
290.968	34229.53
291.425	46466.03
291.882	38630.24
292.339	33629.32
292.796	33345.95
293.252	31427.26
293.709	24969.48
294.166	22393.99
294.623	24762.78
295.079	23762.86
295.536	23858.98
295.992	21633.21
296.449	21401.6
296.905	22262.42
297.362	21351.78
297.818	22475.66
298.274	23306.82
298.731	23729.29
299.187	23471.21
299.643	25201.37
300.099	30459.42
300.555	33407.96
301.011	27946.36
301.467	26914.47
301.923	31495.32
302.379	30736.45
302.835	30205.42
303.291	30255.59
303.746	34449.27
304.202	43526.36
304.658	43737.83
305.113	29448.8
305.569	28856.82
306.024	30756.21
306.479	29323.95
306.935	24731.48
307.39	27041.59
307.845	24961.63
308.301	25120.9
308.756	24485.89
309.211	23612.48
309.666	24179.96
310.121	30007.38
310.576	30479.42
311.031	30296.43
311.486	34672.77
311.94	34669.74
312.395	46388.36
312.85	87234.71
313.305	428568.86
313.759	2218361.35
314.214	160710.16
314.668	127272.73
315.123	107079.64
315.577	38378.58
316.032	34071.17
316.486	42696.74
316.94	33668.57
317.394	23428.59
317.849	18201.27
318.303	17244.88
318.757	16264.05
319.211	17971.83
319.665	15737.39
320.119	15915.81
320.572	22846.27
321.026	21356.19
321.48	17783.94
321.934	19390.89
322.387	19429.15
322.841	20993.69
323.295	18856.17
323.748	21739.14
324.202	22084.29
324.655	26521.36
325.108	37078.02
325.562	26167.51
326.015	31090.61
326.468	23488.71
326.921	26277.41
327.374	24505.8
327.827	25534.92
328.28	28934.03
328.733	19429.33
329.186	17082.83
329.639	16280.7
330.092	13729.85
330.545	13089.47
330.997	13207.66
331.45	14452.76
331.903	16941.74
332.355	29186.36
332.808	28373.4
333.26	23427.57
333.713	25393.96
334.165	25589.57
334.617	34189.77
335.069	27624.44
335.522	49975.54
335.974	55409.89
336.426	50631.87
336.878	35077.21
337.33	17779.68
337.782	17354.29
338.234	21713.58
338.686	25990.8
339.137	30790.85
339.589	28977.66
340.041	22740.81
340.493	19555.94
340.944	20030.43
341.396	21574.5
341.847	18142.13
342.299	21387.02
342.75	26120.51
343.201	22812.49
343.653	26239.56
344.104	32255.4
344.555	25435.43
345.006	39563.1
345.457	30276.51
345.908	24065.18
346.359	22640.97
346.81	18444.11
347.261	19453.82
347.712	19160.55
348.163	20584.84
348.613	20848.15
349.064	19451.79
349.515	17022.5
349.965	17485.74
350.416	21073.01
350.866	23131.54
351.317	26144.99
351.767	43309.65
352.217	54709.43
352.668	45360.22
353.118	41555.35
353.568	40053.04
354.018	31704.4
354.468	33471.36
354.918	23991.67
355.368	21013.28
355.818	29656.67
356.268	85378.49
356.718	357819.22
357.168	89168.43
357.617	44825.83
358.067	49839.45
358.517	46776.61
358.966	54917.04
359.416	61547.81
359.865	66588.26
360.315	79313.49
360.764	37097.86
361.213	20803.89
361.663	19715.75
362.112	24338
362.561	39356.73
363.01	29713.06
363.459	24990.54
363.908	27015.27
364.357	22941.69
364.806	38757.54
365.255	26633.24
365.703	24385.23
366.152	24432.96
366.601	19829.51
367.05	16112.47
367.498	14644.75
367.947	15300.75
368.395	15926.07
368.844	14128.81
369.292	17053.63
369.74	11799.14
370.189	18102.67
370.637	21267.41
371.085	18373.05
371.533	22391.33
371.981	21601.86
372.429	20587.9
372.877	21478.3
373.325	17994.55
373.773	18351.6
374.221	16372.9
374.669	20301.73
375.116	17593.68
375.564	17767.05
376.012	19913.99
376.459	16457.9
376.907	19697.65
377.354	23880.43
377.801	22307.28
378.249	25736.13
378.696	32983.65
379.143	40015.42
379.591	42777.65
380.038	72461.24
380.485	52415.39
380.932	56687.6
381.379	51959.82
381.826	38317.52
382.273	27317.95
382.72	23957.58
383.166	23367.82
383.613	15199.1
384.06	13757.23
384.506	15968.36
384.953	11757.8
385.4	11901.32
385.846	10456.26
386.292	10232
386.739	10061.31
387.185	9983.19
387.631	10026.14
388.078	9772.8
388.524	10495.43
388.97	9718.96
389.416	8138.76
389.862	8696.69
390.308	8259.61
390.754	8420.45
391.2	9174.35
391.645	9419.42
392.091	9030.23
392.537	8762.74
392.983	8815.6
393.428	8697.19
393.874	9350.47
394.319	9403.9
394.765	8930.58
395.21	9205.37
395.655	8663.31
396.101	8130.49
396.546	7366.97
396.991	7463.21
397.436	6942.63
397.881	6717.34
398.326	6377.34
398.771	6051.48
399.216	5300.65
399.661	4788.8
400.106	4784.56
400.551	4902.08
400.995	4401.7
401.44	4358
401.885	4102.14
402.329	4154.95
402.774	3989.99
403.218	3864.58
403.663	3725.77
404.107	3840.02
404.551	3865.08
404.995	3546.07
405.44	3427.47
405.884	3486.51
406.328	3377.89
406.772	3368.23
407.216	3068.45
407.66	2968.98
408.104	2822.48
408.547	2647.16
408.991	2563.33
409.435	2472.29
409.879	2441.11
410.322	2410.2
410.766	2329.4
411.209	2216.1
411.653	2130.62
412.096	2087.93
412.54	2091.43
412.983	2082.69
413.426	2089.04
413.869	2088.77
414.312	2052.26
414.756	1979.85
415.199	1889.3
415.642	1833.42
416.085	1835.32
416.527	1821.52
416.97	1851.12
417.413	1755.31
417.856	1736.04
418.298	1716.07
418.741	1706.16
419.184	1702.69
419.626	1773.11
420.069	1771.15
420.511	1782.86
420.953	1743.39
421.396	1728.66
421.838	1686.97
422.28	1725.27
422.722	1735.07
423.164	1763.91
423.606	1735.79
424.048	1733.52
424.49	1645.21
424.932	1638.75
425.374	1616.14
425.816	1647.29
426.258	1677.89
426.699	1695.45
427.141	1670.55
427.582	1697.23
428.024	1687.7
428.465	1678.92
428.907	1635.66
429.348	1616.87
429.789	1614.23
430.231	1578.39
430.672	1599.81
431.113	1563.35
431.554	1540.23
431.995	1502.38
432.436	1446.77
432.877	1412.26
433.318	1384.15
433.759	1381.12
434.2	1382.42
434.64	1369.99
435.081	1376
435.522	1303.27
435.962	1254.37
436.403	1228.22
436.843	1246.45
437.284	1219.89
437.724	1188.63
438.164	1194.2
438.604	1165.99
439.045	1122.17
439.485	1076.72
439.925	1052.58
440.365	1025.93
440.805	1014.44
441.245	1001.07
441.685	963.94
442.125	958.29
442.564	965.68
443.004	945.46
443.444	945.33
443.883	948.64
444.323	943.41
444.762	949.16
445.202	965.05
445.641	984
446.081	981.53
446.52	992.61
446.959	984.68
447.398	963.32
447.837	951.24
448.276	937.54
448.716	947.23
449.154	956.65
449.593	934.91
450.032	933.46
450.471	918.58
450.91	920.82
451.349	919.48
451.787	916.84
452.226	932.76
452.664	936.29
453.103	939.05
453.541	939.87
453.98	939.98
454.418	947.55
454.856	931.38
455.295	931.91
455.733	939.96
456.171	945.87
456.609	948.15
457.047	948.55
457.485	962.47
457.923	963.63
458.361	951.88
458.798	953.56
459.236	950.3
459.674	959.92
460.111	961.88
460.549	951.35
460.987	948.48
461.424	945.84
461.862	940.51
462.299	925.06
462.736	923.2
463.173	923.93
463.611	914.54
464.048	912.49
464.485	919.97
464.922	912.98
465.359	909.15
465.796	894.94
466.233	887.1
466.67	878.76
467.106	877.66
467.543	870.4
467.98	859.92
468.416	838.63
468.853	832.76
469.29	805.89
469.726	796.53
470.162	775.86
470.599	767.9
471.035	761.26
471.471	741.78
471.907	737.28
472.344	733.44
472.78	735.89
473.216	744.74
473.652	736.27
474.088	735.8
474.523	734.02
474.959	741.18
475.395	735
475.831	730.2
476.266	734.78
476.702	733.02
477.138	723.98
477.573	721
478.008	717.75
478.444	721.2
478.879	727.69
479.314	731.02
479.75	729.54
480.185	733.38
480.62	741.92
481.055	746.37
481.49	752
481.925	764.05
482.36	778.27
482.795	800.86
483.229	822.09
483.664	840.22
484.099	843.84
484.534	858.82
484.968	867.21
485.403	869.33
485.837	869.08
486.271	868.39
486.706	869.3
487.14	859.7
487.574	846.96
488.009	840.07
488.443	833.81
488.877	842.36
489.311	844.7
489.745	854.87
490.179	862.95
490.613	879.28
491.046	886.94
491.48	894.25
491.914	896.67
492.348	903.79
492.781	910.29
493.215	911.7
493.648	913.9
494.082	922.04
494.515	922.67
494.948	933.84
495.382	941.12
495.815	948.35
496.248	956.01
496.681	972.68
497.114	988.38
497.547	1002.4
497.98	1020.63
498.413	1028.89
498.846	1042.31
499.279	1055.52
499.711	1061.05
500.144	1065.1
500.577	1078.6
501.009	1093.15
501.442	1107.07
501.874	1108.84
502.306	1111.39
502.739	1121.36
503.171	1142.77
503.603	1147.87
504.036	1160.44
504.468	1169.54
504.9	1185.01
505.332	1194.85
505.764	1200.86
506.196	1209.62
506.627	1229.28
507.059	1247.49
507.491	1259.09
507.923	1255.09
508.354	1273.61
508.786	1287.07
509.217	1309.78
509.649	1327.23
510.08	1351.65
510.512	1372.85
510.943	1391.58
511.374	1405.35
511.805	1430.13
512.237	1453.87
512.668	1494.28
513.099	1526.87
513.53	1559.69
513.961	1583.49
514.391	1622.26
514.822	1660.32
515.253	1702.75
515.684	1732.81
516.114	1767.49
516.545	1791.69
516.975	1822.68
517.406	1842.06
517.836	1842.42
518.267	1847.46
518.697	1866.56
519.127	1868.18
519.558	1874.64
519.988	1876.05
520.418	1885.97
520.848	1905.55
521.278	1912.4
521.708	1922.95
522.138	1935.96
522.567	1972.27
522.997	2000.31
523.427	2016.36
523.857	2035.06
524.286	2044.15
524.716	2060.4
525.145	2080.37
525.575	2089.47
526.004	2105.31
526.433	2100.58
526.863	2098.6
527.292	2083.3
527.721	2088.59
528.15	2094.21
528.579	2093.13
529.008	2104.9
529.437	2132.11
529.866	2146.99
530.295	2168.95
530.724	2183.15
531.152	2215.93
531.581	2232.09
532.01	2252.2
532.438	2261.12
532.867	2278.55
533.295	2301.71
533.723	2309.16
534.152	2305.52
534.58	2305.34
535.008	2284.11
535.436	2285.92
535.865	2295.12
536.293	2312.85
536.721	2332.34
537.149	2363.24
537.576	2365.23
538.004	2379.02
538.432	2386.68
538.86	2382.76
539.287	2392.44
539.715	2408.51
540.143	2411.21
540.57	2405.6
540.998	2400.17
541.425	2371.71
541.852	2346.02
542.28	2344
542.707	2323.03
543.134	2306.97
543.561	2302.57
543.988	2291.04
544.415	2289.11
544.842	2280.94
545.269	2271.35
545.696	2272.22
546.123	2287.86
546.549	2273.64
546.976	2255.93
547.403	2255.52
547.829	2256.93
548.256	2258.25
548.682	2253.55
549.108	2243.02
549.535	2241.59
549.961	2243.47
550.387	2227.91
550.813	2219.14
551.24	2227.11
551.666	2227.59
552.092	2214.79
552.518	2206.44
552.943	2198.99
553.369	2207.41
553.795	2215.44
554.221	2217.03
554.646	2214.3
555.072	2226.98
555.498	2235.33
555.923	2247.22
556.349	2267.86
556.774	2279.04
557.199	2281.13
557.625	2289.28
558.05	2283.39
558.475	2296.93
558.9	2296.96
559.325	2286.5
559.75	2279.31
560.175	2270.96
560.6	2262.55
561.025	2260.65
561.449	2261.93
561.874	2270.07
562.299	2276.4
562.723	2286.54
563.148	2275.91
563.572	2282.15
563.997	2295.14
564.421	2303.89
564.846	2306.96
565.27	2313.57
565.694	2312.45
566.118	2330.33
566.542	2340.72
566.966	2333.95
567.39	2330.27
567.814	2317.59
568.238	2319.1
568.662	2329.07
569.086	2334.06
569.509	2345.02
569.933	2326.39
570.357	2318.85
570.78	2293.1
571.204	2278.8
571.627	2266.86
572.05	2265.38
572.474	2266.04
572.897	2250.45
573.32	2241.43
573.743	2229.64
574.166	2208.03
574.589	2210.35
575.012	2202.62
575.435	2202.72
575.858	2192.18
576.281	2179.29
576.704	2159.92
577.126	2146.01
577.549	2134.4
577.972	2124.06
578.394	2112.94
578.817	2103.77
579.239	2081.01
579.661	2062.87
580.084	2043.97
580.506	2028.2
580.928	2024.13
581.35	2011.71
581.772	2007.25
582.194	1990.8
582.616	1974.11
583.038	1956.14
583.46	1944.43
583.882	1941.87
584.303	1949.53
584.725	1944.43
585.147	1946.5
585.568	1961.53
585.99	1978.63
586.411	1987.35
586.833	2007.51
587.254	2010.41
587.675	2031.35
588.096	2048.48
588.518	2041.39
588.939	2019.88
589.36	2018.44
589.781	2007.09
590.202	1969.95
590.623	1958.38
591.043	1955.93
591.464	1939.84
591.885	1934.77
592.305	1926.62
592.726	1908.21
593.147	1911.37
593.567	1906.36
593.987	1898.08
594.408	1892.53
594.828	1892.12
595.248	1885.3
595.669	1862.24
596.089	1854.11
596.509	1846.98
596.929	1830.08
597.349	1831.14
597.769	1817.66
598.189	1809.22
598.608	1810.99
599.028	1813.39
599.448	1813.3
599.867	1797.24
600.287	1792.78
600.706	1787.38
601.126	1776.03
601.545	1774.22
601.965	1773.32
602.384	1767.26
602.803	1771.13
603.222	1764.25
603.641	1755.54
604.061	1751.03
604.48	1746.54
604.898	1757.27
605.317	1764.17
605.736	1766.72
606.155	1763.41
606.574	1753.76
606.992	1761.06
607.411	1755.93
607.829	1745.79
608.248	1742.51
608.666	1740.22
609.085	1739.44
609.503	1728.52
609.921	1719.61
610.339	1722.3
610.758	1722.67
611.176	1715.79
611.594	1704.88
612.012	1700.6
612.43	1706.03
612.847	1714.93
613.265	1715.74
613.683	1722.79
614.101	1725.5
614.518	1722.83
614.936	1710.43
615.353	1691.36
615.771	1688.43
616.188	1689.49
616.606	1685.57
617.023	1676.13
617.44	1658.2
617.857	1650.16
618.274	1639.41
618.691	1631.74
619.108	1619.31
619.525	1611.81
619.942	1621.56
620.359	1625.16
620.776	1618.49
621.192	1613.34
621.609	1611.47
622.026	1620.23
622.442	1627.57
622.859	1631.68
623.275	1622.17
623.691	1629.13
624.108	1644.14
624.524	1662.35
624.94	1662.2
625.356	1675.31
625.772	1693.5
626.188	1709.82
626.604	1711.63
627.02	1707.28
627.436	1706.09
627.852	1715.49
628.268	1731.1
628.683	1719.58
629.099	1708.03
629.514	1702.83
629.93	1708.2
630.345	1712.84
630.761	1707.37
631.176	1713.11
631.591	1706.56
632.007	1697.71
632.422	1696.09
632.837	1682.4
633.252	1678.94
633.667	1665.97
634.082	1653.44
634.497	1637.62
634.911	1613.03
635.326	1608.93
635.741	1587.03
636.155	1575.15
636.57	1577.22
636.984	1577.11
637.399	1580.6
637.813	1581.67
638.228	1582.69
638.642	1590.48
639.056	1578.31
639.47	1580.88
639.884	1571.66
640.298	1565.69
640.712	1564.65
641.126	1550.91
641.54	1541.32
641.954	1536.03
642.368	1522.32
642.781	1512.67
643.195	1490.33
643.609	1491.97
644.022	1486.11
644.436	1482.41
644.849	1468.43
645.262	1454.93
645.676	1458.31
646.089	1452.82
646.502	1433.98
646.915	1428.58
647.328	1407.54
647.741	1406.36
648.154	1389.63
648.567	1384.59
648.98	1366.44
649.393	1365.7
649.805	1360.92
650.218	1349.69
650.631	1328.38
651.043	1319.27
651.456	1310.37
651.868	1311
652.28	1332.36
652.693	1349.63
653.105	1357.27
653.517	1369.44
653.929	1368.95
654.341	1374.98
654.753	1358.42
655.165	1364.53
655.577	1360.62
655.989	1353.19
656.401	1340.92
656.813	1293.12
657.224	1265.06
657.636	1227.09
658.047	1202.83
658.459	1176.15
658.87	1164.04
659.282	1148.19
659.693	1119.86
660.104	1100.04
660.515	1082.64
660.926	1080.49
661.338	1074.87
661.749	1066.65
662.159	1053.25
662.57	1044.67
662.981	1038.2
663.392	1027.62
663.803	1031.48
664.213	1029.23
664.624	1022.2
665.035	1023.5
665.445	1004.56
665.855	994.58
666.266	982.06
666.676	978.16
667.086	966.43
667.497	965.07
667.907	955.41
668.317	942.13
668.727	935.94
669.137	935.22
669.547	930.82
669.956	932.25
670.366	933.27
670.776	935.44
671.186	940.27
671.595	944.42
672.005	946.63
672.414	944.46
672.824	942.35
673.233	947.15
673.642	949.88
674.052	953.18
674.461	955.36
674.87	960.8
675.279	956.15
675.688	955.61
676.097	955.84
676.506	951.39
676.915	968.38
677.323	971.03
677.732	968.67
678.141	968.74
678.549	956.06
678.958	955.02
679.366	954.58
679.775	961.38
680.183	975.44
680.592	984.53
681	992.32
681.408	985.34
681.816	995.84
682.224	1008.38
682.632	1020.73
683.04	1058.6
683.448	1089.29
683.856	1127.39
684.264	1172.6
684.671	1212.66
685.079	1261.79
685.487	1316.78
685.894	1394.43
686.302	1459.01
686.709	1509.54
687.116	1569.57
687.524	1617.67
687.931	1659.23
688.338	1693.71
688.745	1720.23
689.152	1752.73
689.559	1799.5
689.966	1843.82
690.373	1859.39
690.78	1897.54
691.187	1964.91
691.593	2011.46
692	2051.9
692.407	2116.29
692.813	2195.33
693.22	2257.71
693.626	2323.24
694.032	2370.69
694.439	2449.67
694.845	2510.32
695.251	2590.71
695.657	2660.22
696.063	2768.81
696.469	2846.52
696.875	2918.92
697.281	2956.37
697.687	3003.9
698.093	3039.29
698.498	3121
698.904	3182.45
699.31	3278.47
699.715	3342.94
700.12	3440
700.526	3453.57
700.931	3526.15
701.337	3579.89
701.742	3611.73
702.147	3703.71
702.552	3734.96
702.957	3796.34
703.362	3815.67
703.767	3842.98
704.172	3884.81
704.577	3828.88
704.981	3880.93
705.386	3896.95
705.791	3883.34
706.195	3967.16
706.6	3974.2
707.004	4060.94
707.408	4023.33
707.813	4049.69
708.217	4034.03
708.621	4033.99
709.025	4142.9
709.43	4140.34
709.834	4206.79
710.237	4283.59
710.641	4262.15
711.045	4283.29
711.449	4275.49
711.853	4306.17
712.256	4350.31
712.66	4391.75
713.064	4473.26
713.467	4516.21
713.87	4641.52
714.274	4690.88
714.677	4811.53
715.08	4993.38
715.484	5183.47
715.887	5411.92
716.29	5638.05
716.693	5874.42
717.096	6140.44
717.499	6289.13
717.901	6316.36
718.304	6346.07
718.707	6370.83
719.109	6254.45
719.512	6216.28
719.915	6059.74
720.317	5994.6
720.719	6040.64
721.122	6004.55
721.524	5947.08
721.926	5898.76
722.328	6010.04
722.731	5997.2
723.133	6027.79
723.535	6242.03
723.937	6260.73
724.338	6318.32
724.74	6357.53
725.142	6274.27
725.544	6272.59
725.945	6301.1
726.347	6295.13
726.748	6285.11
727.15	6301.71
727.551	6257.16
727.952	6226.43
728.354	6194.65
728.755	6194.9
729.156	6150.23
729.557	6143.82
729.958	6004.01
730.359	5943.47
730.76	5918.47
731.161	5850.12
731.562	5818.33
731.962	5822.71
732.363	5749.93
732.763	5677.86
733.164	5715.41
733.564	5640.19
733.965	5534.07
734.365	5493.83
734.766	5523.1
735.166	5481.04
735.566	5418.49
735.966	5388.43
736.366	5382.43
736.766	5315.63
737.166	5349.36
737.566	5302.02
737.966	5271.67
738.365	5314.47
738.765	5310.71
739.165	5226.17
739.564	5193.89
739.964	5245.89
740.363	5193.91
740.763	5189.06
741.162	5174.7
741.561	5140.86
741.96	5091.3
742.36	5112.67
742.759	5119.12
743.158	5159.78
743.557	5177.9
743.955	5224.05
744.354	5172.9
744.753	5238.43
745.152	5193.52
745.55	5253.43
745.949	5243.51
746.348	5244.25
746.746	5263.38
747.144	5217.84
747.543	5193.72
747.941	5247.02
748.339	5170.99
748.737	5161.97
749.136	5150.74
749.534	5224.36
749.932	5191.27
750.33	5219.1
750.727	5281.21
751.125	5257.81
751.523	5241.64
751.921	5289.51
752.318	5250.19
752.716	5314.38
753.113	5330.73
753.511	5358.55
753.908	5358.63
754.305	5340.72
754.703	5409.9
755.1	5476.6
755.497	5539.54
755.894	5749.2
756.291	5947.6
756.688	6312.44
757.085	6795.93
757.482	7477.8
757.878	8224.34
758.275	8899.26
758.672	9827.96
759.068	10582.22
759.465	11664.72
759.861	13061.93
760.258	14673.94
760.654	15501.36
761.05	15378.64
761.447	14682.38
761.843	13666.44
762.239	12620.86
762.635	12143.64
763.031	11691.84
763.427	11036.97
763.822	10346.83
764.218	9662.97
764.614	8779.99
765.01	8191.66
765.405	7809.4
765.801	7519.96
766.196	7152.2
766.592	6946.5
766.987	6598.34
767.382	6362.97
767.778	6266.32
768.173	6123.24
768.568	6043.93
768.963	5905.64
769.358	5928.59
769.753	5878.35
770.148	5784.71
770.542	5784.3
770.937	5747.5
771.332	5848.91
771.726	5872.19
772.121	5801.82
772.515	5862.29
772.91	5846.36
773.304	5926.39
773.699	5850.51
774.093	5909.12
774.487	5969.35
774.881	6018.8
775.275	6013.61
775.669	5967.76
776.063	6014.77
776.457	6054.23
776.851	5969.9
777.245	5964.14
777.638	6000.94
778.032	6131.73
778.425	6092.64
778.819	6142.41
779.212	6095.04
779.606	6053.61
779.999	6074.88
780.392	6058.04
780.786	6150.11
781.179	6174.21
781.572	6217.22
781.965	6233.44
782.358	6167.74
782.751	6231.98
783.143	6177.76
783.536	6257.62
783.929	6305.63
784.322	6430.8
784.714	6461.71
785.107	6458.17
785.499	6539.11
785.891	6517.4
786.284	6494.74
786.676	6653.48
787.068	6629.3
787.46	6686.31
787.852	6711.09
788.245	6803.57
788.636	6840.03
789.028	6917.25
789.42	6961.51
789.812	6969.92
790.204	7078.5
790.595	7187.58
790.987	6968.35
791.378	6996.64
791.77	7141.07
792.161	7288.2
792.553	7349.96
792.944	7223.67
793.335	7148.27
793.726	7229.45
794.117	7327.92
794.508	7476.21
794.899	7443.53
795.29	7599.03
795.681	7660.74
796.072	7501.8
796.463	7294.12
796.853	7306.84
797.244	7480.78
797.634	7520.42
798.025	7514.57
798.415	7531.02
798.806	7631.45
799.196	7726.84
799.586	7784.74
799.976	7741.72
800.366	8001.75
800.756	8271.22
801.146	8222.61
801.536	8252.75
801.926	8329.75
802.316	8362.85
802.706	8438.83
803.095	8303.45
803.485	8414.84
803.874	8461.36
804.264	8750.96
804.653	8723.64
805.043	8886.99
805.432	9017.67
805.821	9023.97
806.21	9056.32
806.599	9185.31
806.988	9239.58
807.377	9359.08
807.766	9502.67
808.155	9824.13
808.544	9535.4
808.933	9547.86
809.321	9523.42
809.71	9848.6
810.098	10025.15
810.487	10527.9
810.875	11061.46
811.264	11088.42
811.652	11409.5
812.04	11576.54
812.428	11747.58
812.816	12592.96
813.204	13058.13
813.592	13676.2
813.98	14046.69
814.368	13944.36
814.756	14482.25
815.144	14397.21
815.531	14911.14
815.919	14830.27
816.306	15166.43
816.694	14824.83
817.081	14876.51
817.469	15262.52
817.856	15258.99
818.243	15564.09
818.63	16002.67
819.017	15536.38
819.404	15604.54
819.791	16032.85
820.178	16718.57
820.565	17003.65
820.952	18048.17
821.339	17513.78
821.725	17721.12
822.112	16896.76
822.498	16854.44
822.885	16997.6
823.271	16892.9
823.657	17355.13
824.044	17356.41
824.43	17440.69
824.816	17408.52
825.202	16921.47
825.588	18043.69
825.974	18060.21
826.36	18622.35
826.746	18651.69
827.132	19049.16
827.517	19025.58
827.903	18150.49
828.289	18193.84
828.674	17332.88
829.06	17216.19
829.445	17655.12
829.83	18048.45
830.216	18574.2
830.601	18989.78
830.986	18543.39
831.371	18388.66
831.756	18999.85
832.141	18528.67
832.526	18532.45
832.911	18843.98
833.295	18706.78
833.68	19220.42
834.065	18539.41
834.449	17527.72
834.834	17436.5
835.218	17429.46
835.603	17804.22
835.987	17572.59
836.371	18497.69
836.755	18372.88
837.139	18803.79
837.524	19070.32
837.908	18876.67
838.291	18940.81
838.675	19009.03
839.059	19246.78
839.443	19230.93
839.827	18979.09
840.21	19511.39
840.594	19347.82
840.977	19577.03
841.361	19563.8
841.744	19986.83
842.127	19813.25
842.511	20081.07
842.894	20742.12
843.277	21165.29
843.66	21763.87
844.043	21856.89
844.426	20962.99
844.809	20616.34
845.191	20655.59
845.574	20152.03
845.957	19750.51
846.339	19632.63
846.722	19057.39
847.104	19140.9
847.487	18936.4
847.869	18951.1
848.252	19255.87
848.634	19623.73
849.016	19922.52
849.398	20056.54
849.78	20988.48
850.162	20982.99
850.544	21444.19
850.926	22136.92
851.307	22047.94
851.689	22371.17
852.071	22874.54
852.452	23237.71
852.834	23215.53
853.215	23656
853.597	23829.81
853.978	24160.48
854.359	24664.03
854.741	23555.53
855.122	23443.1
855.503	23105.28
855.884	23256.3
856.265	23189.81
856.646	23319.63
857.026	22880.34
857.407	22809.43
857.788	22982.4
858.169	23286.42
858.549	22358.03
858.93	23044.98
859.31	23102.17
859.69	23340.96
860.071	22887.83
860.451	22649.84
860.831	21829.64
861.211	23117.66
861.591	23717.67
861.971	23689.44
862.351	23910.32
862.731	24338.72
863.111	24642.97
863.491	25009.11
863.87	25988.02
864.25	26377.07
864.629	25936.28
865.009	26502.38
865.388	27444.45
865.768	29414.61
866.147	29302.02
866.526	27679.99
866.905	28008.35
867.284	29574.22
867.663	28080.05
868.042	26919.46
868.421	26829.34
868.8	27270.18
869.179	27534.85
869.558	25930.94
869.936	23906.5
870.315	24334
870.693	24926.13
871.072	26873.85
871.45	25597.64
871.828	25923.42
872.207	27242.12
872.585	26829.07
872.963	27544.43
873.341	26588.46
873.719	26267.76
874.097	25940.06
874.475	26418.17
874.853	27036.62
875.23	25919.48
875.608	27001.55
875.986	29207.46
876.363	27929.59
876.741	28787.75
877.118	28082.07
877.495	29468.83
877.873	29962.02
878.25	31541.64
878.627	30258.2
879.004	30670.88
879.381	30521.56
879.758	29712.7
880.135	27667.09
880.512	29243.89
880.889	28458.02
881.265	28157.32
881.642	27930.97
882.019	28398.26
882.395	27811.16
882.772	28907.31
883.148	27644.31
883.524	27533.68
883.901	27383.67
884.277	27791.92
884.653	27613.87
885.029	28398.61
885.405	31442.45
885.781	31203.42
886.157	29921.44
886.532	30296.54
886.908	30296.71
887.284	33700.68
887.659	34804.65
888.035	35881.19
888.411	36805.44
888.786	37293.21
889.161	38599.12
889.537	37906.62
889.912	39102.23
890.287	39068.45
890.662	40068.03
891.037	39337.49
891.412	36688.23
891.787	36317.22
892.162	35048.72
892.536	35861.09
892.911	34527.05
893.286	33804.68
893.66	32433.53
894.035	33267.58
894.409	36230.05
894.784	34773.27
895.158	35349.65
895.532	37433.33
895.906	38459.24
896.281	39374.09
896.655	38751.37
897.029	44250.9
897.402	46088.57
897.776	51301.78
898.15	51117.71
898.524	50558.19
898.898	51218.84
899.271	57351.5
899.645	49670.45
900.018	47713.48
900.392	49488.12
900.765	49894.57
901.138	46193.23
901.511	45515.09
901.884	41791.87
902.258	38563.73
902.631	39840.55
903.003	45854.94
903.376	41371.28
903.749	46416.8
904.122	49682.56
904.495	54689.38
904.867	55374.58
905.24	48081.86
905.612	44721.95
905.985	45740.02
906.357	47798.74
906.729	45627.61
907.102	38968.09
907.474	37462.83
907.846	37669.17
908.218	37161.1
908.59	32839.53
908.962	31763.65
909.334	34203.85
909.705	35938.28
910.077	34891.98
910.449	36348.2
910.82	37363.21
911.192	41111.12
911.563	42712.74
911.935	45699.48
912.306	45772.3
912.677	47250.3
913.048	46749.74
913.419	50702.87
913.79	50966.82
914.161	54628.98
914.532	52162.81
914.903	47892.67
915.274	45472.83
915.645	44802.33
916.015	39429.86
916.386	37566.16
916.756	39970.48
917.127	41228.93
917.497	36838.17
917.868	40093.56
918.238	38106.67
918.608	39201.62
918.978	40042.57
919.348	42410.95
919.718	43820.38
920.088	42221.61
920.458	43875.59
920.828	46173.36
921.198	43743.66
921.567	46705.35
921.937	36162.72
922.306	36485.97
922.676	39345.29
923.045	32827.64
923.415	31177.19
923.784	28392.25
924.153	29189.22
924.522	29136.21
924.891	27377.57
925.26	29348.52
925.629	28657.88
925.998	32950.09
926.367	32166.99
926.736	30625.43
927.104	36448.63
927.473	39185.89
927.842	47339.14
928.21	46861.16
928.578	49273.22
928.947	46619.8
929.315	46890.56
929.683	54999.14
930.051	55446.63
930.42	64382.09
930.788	55025.79
931.156	54635.16
931.523	51207.38
931.891	47296.12
932.259	45422.32
932.627	52640.83
932.994	74510.24
933.362	61552.44
933.729	53454.41
934.097	51173.91
934.464	43309.77
934.831	49990.82
935.199	49306.81
935.566	47828.02
935.933	48559.47
936.3	58855.33
936.667	45838.06
937.034	41319.4
937.401	40904.4
937.767	35297.8
938.134	31396.14
938.501	44285.49
938.867	47184.79
939.234	79727.95
939.6	68053.76
939.967	74776.63
940.333	50096.79
940.699	42681.11
941.065	34264.69
941.431	44924.09
941.798	43320.52
942.163	56897.22
942.529	35582.24
942.895	32794.12
943.261	21223.82
943.627	27819.37
943.992	24361.22
944.358	24363.6
944.723	24441.49
945.089	23808.51
945.454	21995.4
945.82	23500.32
946.185	22599.11
946.55	26140.93
946.915	23430.65
947.28	27483.28
947.645	24224.01
948.01	22364.91
948.375	23328.72
948.74	27944.98
949.104	32641.75
949.469	47186.8
949.834	83412.19
950.198	78973.26
950.562	47391.51
950.927	39510.65
951.291	47564.71
951.655	40505.68
952.02	38053.02
952.384	28754.54
952.748	25034.4
953.112	24382.82
953.476	21180.85
953.839	19559.62
954.203	19363.23
954.567	24214.79
954.931	38125.69
955.294	32602.45
955.658	32773
956.021	55706.03
956.385	94507.59
956.748	139426.86
957.111	216136.75
957.474	242707.61
957.837	273631.35
958.2	207160.09
958.563	74504.5
958.926	50331.65
959.289	76348.53
959.652	85267.45
960.015	64008.72
960.377	91826.53
960.74	104936.33
961.102	181325
961.465	194624.3
961.827	104122.03
962.189	199778.36
962.552	138524.99
962.914	111150.79
963.276	72109.08
963.638	59653.34
964	59066.23
964.362	39954
964.724	38572.82
965.085	27508.04
965.447	22569.01
965.809	25741.96
966.17	25773.42
966.532	27867.6
966.893	25530.37
967.255	23232.64
967.616	27398.16
967.977	21924.65
968.338	23925.47
968.699	19654.56
969.061	19650.08
969.421	19768.64
969.782	22157.56
970.143	18699
970.504	19372.81
970.865	22041.52
971.225	22519.82
971.586	22032.14
971.946	31405.53
972.307	27255.69
972.667	35637.22
973.027	36679.62
973.388	44468
973.748	30260.32
974.108	32976.37
974.468	44570.9
974.828	34352.78
975.188	26440.49
975.548	24294.98
975.907	20388.6
976.267	22877.7
976.627	19208.29
976.986	19922.88
977.346	18983.18
977.705	18260.1
978.064	16631.37
978.424	13849.02
978.783	14314.51
979.142	16322.78
979.501	15603.21
979.86	16483.44
980.219	15856.95
980.578	20447.28
980.937	22894.54
981.296	20403.34
981.654	20968.83
982.013	32643.95
982.371	42326.22
982.73	39552.25
983.088	44836.55
983.447	47879.68
983.805	68504.73
984.163	143434.4
984.521	159373.86
984.879	233573.96
985.237	-379976.15
985.595	366483.99
985.953	90982.52
986.311	52545.53
986.669	30528.81
987.026	26361.21
987.384	35434.04
987.741	36649.45
988.099	26182.36
988.456	20835.04
988.814	19512.35
989.171	16948.58
989.528	16724.72
989.885	17668.45
990.242	14003.93
990.599	17414.26
990.956	14241.42
991.313	9979.11
991.67	8188.79
992.027	8655.44
992.383	7701.24
992.74	6752.21
993.096	7089.68
993.453	7356.9
993.809	7604.13
994.165	10104.78
994.522	9269.76
994.878	10228.06
995.234	12829.13
995.59	12639.54
995.946	12001.38
996.302	13673.51
996.658	15793.19
997.013	17374.65
997.369	20599.09
997.725	26431.72
998.08	17159.83
998.436	26474.39
998.791	36435.29
999.147	36328.96
999.502	39715.43
999.857	28871.23
1000.212	47101.32
1000.567	67105.54
1000.922	38722.67
1001.277	24581.42
1001.632	18237.94
1001.987	23511.18
1002.342	16818.69
1002.696	13447.15
1003.051	10744.18
1003.406	12994.09
1003.76	12929.55
1004.114	12730.59
1004.469	10695.29
1004.823	8876.12
1005.177	9585.87
1005.531	7599.57
1005.885	6724.27
1006.239	7586.02
1006.593	9514.75
1006.947	12700.52
1007.301	9529.08
1007.655	10379.38
1008.008	7622.7
1008.362	8559.88
1008.715	12196.5
1009.069	11080.96
1009.422	16655.48
1009.776	33436.07
1010.129	22257.64
1010.482	18624.03
1010.835	15766.88
1011.188	32746.49
1011.541	30851.9
1011.894	-188790.98
1012.247	556985.52
1012.6	37949.11
1012.952	23980.18
1013.305	12401.68
1013.657	8936.18
1014.01	8456
1014.362	6972.45
1014.715	6193
1015.067	5408.46
1015.419	5288.23
1015.771	4692.78
1016.123	4169.23
1016.475	4274.57
1016.827	4540.82
1017.179	4887.2
1017.531	4925.99
1017.883	5028.91
1018.234	4841.98
1018.586	6115.54
1018.938	6486.95
1019.289	8945.79
1019.64	10235.68
1019.992	9535.64
1020.343	8712.45
1020.694	6878.68
1021.045	6037.81
1021.396	6915.12
1021.747	7437.69
1022.098	8963.61
1022.449	6503.51
1022.8	6037.68
1023.151	4210.17
1023.501	3735.85
1023.852	4056.07
1024.202	4218.85
1024.553	4650.96
1024.903	4552.57
1025.253	3887.55
1025.604	3495.96
1025.954	4340.73
1026.304	5320.85
1026.654	6182.03
1027.004	9068.42
1027.354	14694.24
1027.703	13857.7
1028.053	18266.44
1028.403	26508.54
1028.753	38469.5
1029.102	52552.89
1029.452	270816.45
1029.801	11713.44
1030.15	7536.37
1030.499	6406.93
897.758	2749.94
901.051	2710.75
904.343	2744.26
907.636	2745.59
910.928	2809.79
914.22	2716.02
917.511	2724.03
920.803	2791.89
924.094	2812.53
927.384	2787.88
930.675	2752.08
933.965	2703.18
937.255	2712.78
940.544	2681.37
943.834	2609.48
947.123	2556.67
950.411	2654.65
953.7	2625.49
956.988	2588.72
960.276	2532.17
963.563	2616.77
966.851	2612.37
970.138	2673.93
973.424	2661.64
976.711	2612.64
979.997	2758.81
983.283	2790.18
986.568	2692.55
989.853	2713.93
993.138	2742.5
996.423	2824.08
999.708	2758.73
1002.992	2829.83
1006.275	2651.31
1009.559	2704.45
1012.842	2820.6
1016.125	2751.03
1019.408	2731.08
1022.69	2822.35
1025.972	2840.13
1029.254	2812.46
1032.536	2740.08
1035.817	2771.24
1039.098	2706.13
1042.379	2868.95
1045.659	2861.06
1048.939	2790.9
1052.219	2813.77
1055.498	2828.92
1058.778	2812.12
1062.057	2796.79
1065.335	2819.13
1068.614	2839.49
1071.892	2818.24
1075.17	2899.17
1078.447	2885.19
1081.724	2875.59
1085.001	2913.82
1088.278	2885.96
1091.554	2901.85
1094.83	2898.18
1098.106	2924.64
1101.382	2971.93
1104.657	2972.3
1107.932	2968.17
1111.206	2930.61
1114.481	2886.39
1117.755	2891.32
1121.029	2870.64
1124.302	2925.98
1127.575	2870.58
1130.848	2857.11
1134.121	2814.85
1137.393	2764.34
1140.665	2832.83
1143.937	2807.63
1147.208	2770.96
1150.48	2807.85
1153.75	2792.56
1157.021	2829.4
1160.291	2796.82
1163.561	2840.69
1166.831	2834.11
1170.101	2869.8
1173.37	2844.79
1176.639	2786.21
1179.907	2850.43
1183.176	2852.04
1186.444	2860.98
1189.711	2889.11
1192.979	2899.7
1196.246	2856.11
1199.513	2875.72
1202.78	2872.07
1206.046	2881.28
1209.312	2904.79
1212.578	2933.33
1215.843	2877.33
1219.108	2857.77
1222.373	2881.08
1225.638	2844.08
1228.902	2824.02
1232.166	2789.63
1235.43	2770.84
1238.693	2796.03
1241.956	2791.93
1245.219	2832.32
1248.482	2823.09
1251.744	2820.54
1255.006	2971.47
1258.268	2927.32
1261.529	2868.55
1264.79	2877.58
1268.051	2986.14
1271.312	3004.46
1274.572	2961.77
1277.832	2952.88
1281.092	2947.41
1284.351	2918.28
1287.61	2895.62
1290.869	2805.21
1294.128	2778.85
1297.386	2875.61
1300.644	2863.43
1303.902	2873.26
1307.159	2728.37
1310.416	2787.55
1313.673	2809.86
1316.93	2791.07
1320.186	2840.75
1323.442	2885.45
1326.697	2872.71
1329.953	2867.36
1333.208	2889.05
1336.463	2870.06
1339.717	2804.85
1342.972	2946.08
1346.226	2923.51
1349.479	2853.39
1352.733	2820.79
1355.986	2849.29
1359.238	2822.77
1362.491	2823.15
1365.743	2827.83
1368.995	2821.86
1372.247	2834.81
1375.498	2863.04
1378.749	2870.73
1382	2825.77
1385.251	2883.7
1388.501	2846.21
1391.751	2824.57
1395	2797.18
1398.25	2834
1401.499	2837.35
1404.748	2758.85
1407.996	2752.8
1411.244	2733.93
1414.492	2715.7
1417.74	2691.48
1420.987	2701.39
1424.234	2758.18
1427.481	2740.05
1430.728	2801.04
1433.974	2772.4
1437.22	2790.15
1440.465	2796.18
1443.711	2750.96
1446.956	2787.42
1450.201	2779.59
1453.445	2825.56
1456.689	2802.92
1459.933	2816.96
1463.177	2849.72
1466.42	2819.7
1469.663	2799.13
1472.906	2789.39
1476.148	2873.27
1479.391	2826.2
1482.633	2800.34
1485.874	2808.48
1489.115	2791.37
1492.356	2803.57
1495.597	2776.48
1498.838	2779.79
1502.078	2746.07
1505.318	2693.88
1508.557	2739.21
1511.797	2706.7
1515.036	2788.62
1518.274	2779.47
1521.513	2751.83
1524.751	2776.24
1527.989	2786.28
1531.227	2798.67
1534.464	2790.39
1537.701	2817.36
1540.938	2836.79
1544.174	2790.66
1547.41	2790.43
1550.646	2830.87
1553.882	2865.18
1557.117	2920.23
1560.352	2937.3
1563.587	2890.79
1566.821	2850.5
1570.055	2887.2
1573.289	2856.11
1576.523	2936.04
1579.756	2939.81
1582.989	2959.46
1586.222	2920.76
1589.454	2958.29
1592.686	2930.26
1595.918	2954.85
1599.15	2942.25
1602.381	3025.04
1605.612	2974.98
1608.843	3073.78
1612.073	2983.2
1615.303	2966.17
1618.533	2955.44
1621.762	2955.83
1624.992	2945.55
1628.221	2930.64
1631.449	2914.61
1634.678	2980.62
1637.906	2926.73
1641.134	2972.24
1644.361	2924.03
1647.588	2912.05
1650.815	2929.39
1654.042	2912.47
1657.269	2944.03
1660.495	2893.23
1663.72	2904.79
1666.946	2867.72
1670.171	2801.21
1673.396	2780.06
1676.621	2770.87
1679.845	2793.71
1683.069	2820.34
1686.293	2864.51
1689.517	2830.05
1692.74	2756.8
1695.963	2787.62
1699.185	2812.32
1702.408	2788.73
1705.63	2832.9
1708.852	2844.91
1712.073	2814.79
1715.294	2797.41
1718.515	2858.83
1721.736	2804.86
1724.956	2799.25
1728.176	2826.07
1731.396	2848.93
1734.616	2838.02
1737.835	2863.23
1741.054	2846.98
1744.272	2839.05
1747.491	2867.66
1750.709	2926.29
1753.927	2823.43
1757.144	2870.37
1760.361	2911.82
1763.578	2907.17
1766.795	2845.03
1770.011	2856.02
1773.227	2901.15
1776.443	2931.82
1779.658	2975.92
1782.874	2918.82
1786.089	2893.81
1789.303	2896.21
1792.518	2904.58
1795.732	2891.12
1798.945	2899.43
1802.159	2954.74
1805.372	2845.38
1808.585	2827.65
1811.797	2832.11
1815.01	2885.3
1818.222	2884.11
1821.434	2846.36
1824.645	2909.08
1827.856	2887.78
1831.067	2921.94
1834.278	2884.53
1837.488	2863.53
1840.698	3021.04
1843.908	2940.91
1847.117	2902.09
1850.326	2778.58
1853.535	2888.02
1856.744	2924.53
1859.952	2836.1
1863.16	2838.97
1866.368	2862.79
1869.575	2963.71
1872.782	2850.06
1875.989	2788.51
1879.196	2877.58
1882.402	2870.48
1885.608	2911.93
1888.814	2810.9
1892.019	2704.14
1895.224	2756.1
1898.429	2738.06
1901.634	2716.52
1904.838	2695.85
1908.042	2743.98
1911.246	2750.94
1914.449	2677.5
1917.652	2676.88
1920.855	2659.18
1924.058	2711.75
1927.26	2745.74
1930.462	2777.16
1933.664	2802.36
1936.865	2739.19
1940.066	2743.02
1943.267	2692.67
1946.467	2707.71
1949.668	2736.39
1952.868	2803.25
1956.067	2780.27
1959.267	2711.11
1962.466	2740.39
1965.665	2722.14
1968.863	2716.9
1972.061	2734.36
1975.259	2734.39
1978.457	2810.85
1981.654	2771.79
1984.852	2771.21
1988.048	2698.73
1991.245	2704.9
1994.441	2791.74
1997.637	2780.38
2000.833	2765.2
2004.028	2804.06
2007.223	2860.77
2010.418	2835.37
2013.613	2799.22
2016.807	2763.13
2020.001	2776.52
2023.194	2822.17
2026.388	2794.87
2029.581	2738.04
2032.774	2785.82
2035.966	2788.76
2039.158	2720.72
2042.35	2744.02
2045.542	2672.65
2048.733	2776.55
2051.924	2806.94
2055.115	2834.39
2058.306	2775.21
2061.496	2839.97
2064.686	2904.74
2067.875	2818.03
2071.065	2838.01
2074.254	2864.99
2077.442	2814.69
2080.631	2907.49
2083.819	2791.89
2087.007	2769.96
2090.195	2737.86
2093.382	2776.9
2096.569	2753.65
2099.756	2704.97
2102.942	2727.38
2106.128	2726.38
2109.314	2721.05
2112.5	2682.61
2115.685	2658.04
2118.87	2668.12
2122.055	2736.31
2125.239	2702.22
2128.424	2673.17
2131.608	2781.86
2134.791	2769.32
2137.974	2831.6
2141.157	2815.36
2144.34	2761.88
2147.523	2783.85
2150.705	2796.89
2153.887	2779.18
2157.068	2722.96
2160.25	2726.73
2163.431	2768.2
2166.611	2712.79
2169.792	2722.56
2172.972	2611.82
2176.152	2696.92
2179.331	2734.59
2182.511	2709.17
2185.69	2739.69
2188.868	2730.03
2192.047	2792.37
2195.225	2777.26
2198.403	2726.79
2201.58	2718.71
2204.758	2719.39
2207.935	2803.03
2211.111	2686.31
2214.288	2668.59
2217.464	2709.75
2220.64	2685.3
2223.815	2743.67
2226.991	2657.47
2230.166	2679.5
2233.34	2708.28
2236.515	2735.18
2239.689	2807.46
2242.863	2751.08
2246.036	2809.53
2249.209	2812.29
2252.382	2851.38
2255.555	2832.53
2258.727	2766.8
2261.9	2812.33
2265.071	2801.5
2268.243	2801.98
2271.414	2732.57
2274.585	2691.18
2277.756	2759.09
2280.926	2715.2
2284.096	2759.75
2287.266	2661.69
2290.436	2719.01
2293.605	2749.16
2296.774	2776.37
2299.942	2802.85
2303.111	2820.69
2306.279	2867.86
2309.447	2855.46
2312.614	2834.4
2315.781	2849.03
2318.948	2818.67
2322.115	2856.72
2325.281	2759.21
2328.447	2781.19
2331.613	2757.84
2334.779	2727.32
2337.944	2732.31
2341.109	2728.95
2344.274	2708.8
2347.438	2672.43
2350.602	2702.11
2353.766	2717.06
2356.929	2703.17
2360.092	2747.24
2363.255	2696.06
2366.418	2622.5
2369.58	2742.96
2372.742	2513.06
2375.904	2531.11
2379.066	2505.13
2382.227	2542.22
2385.388	2505.15
2388.548	2427.42
2391.709	2484.25
2394.869	2458.82
2398.029	2566.61
2401.188	2585.29
2404.347	2511.86
2407.506	2665.22
2410.665	2693.81
2413.823	2703.85
2416.981	2657.04
2420.139	2692.88
2423.296	2744.68
2426.453	2716.81
2429.61	2744.34
2432.767	2671.82
2435.923	2707.54
2439.079	2672.76
2442.235	2725.57
2445.391	2647.18
2448.546	2674.22
2451.701	2725.77
2454.855	2692.47
2458.009	2747.39
2461.163	2753.57
2464.317	2707.75
2467.471	2741.56
2470.624	2783.65
2473.777	2753.86
2476.929	2765.64
2480.082	2791.02
2483.234	2754.49
2486.385	2711.61
2489.537	2702.07
2492.688	2659.32
2495.839	2676.31
2498.989	2688.01
2502.14	2670.63
2505.29	2652.31
2508.439	2678.79
2511.589	2597.52
2514.738	2614.08
2517.887	2647.31
2521.035	2708.17
2524.183	2696.03
2527.331	2674.49
2530.479	2645.25
2533.627	2656.53
