Data from N_2_DEC_NC_4N_Splice17_12-25-00-594.txt Node
Date: Sat Mar 14 12:25:00 EDT 2020
User: sa697716
Spectrometer: FLMS03696
Trigger mode: 0
Integration Time (sec): 3.180400E-1
Scans to average: 20
Electric dark correction enabled: true
Nonlinearity correction enabled: true
Boxcar width: 5
XAxis mode: Wavelengths
Number of Pixels in Spectrum: 2048
>>>>>Begin Spectral Data<<<<<
187.83	-329490
188.298	2437.66
188.766	1304.47
189.233	1183.37
189.701	1723.32
190.169	2227.83
190.636	853.63
191.104	667.44
191.571	60.51
192.039	-80.29
192.506	-163.54
192.974	319.54
193.441	-407.54
193.908	-16.01
194.375	12.21
194.842	74.24
195.31	61.27
195.777	144.42
196.244	412.64
196.711	665.13
197.177	918.05
197.644	1375.28
198.111	2408.6
198.578	3378.2
199.045	2735.95
199.511	4491.71
199.978	5302.74
200.445	4444.81
200.911	4901.06
201.378	5480.28
201.844	4856.79
202.31	8240.91
202.777	8470.46
203.243	4659.36
203.709	4408.39
204.176	5188.13
204.642	4247.72
205.108	3927.04
205.574	3204.6
206.04	2944.15
206.506	2760.65
206.972	2612.26
207.438	2504.98
207.903	2852.9
208.369	2475.8
208.835	2442.66
209.301	2545.25
209.766	2595.52
210.232	2557.86
210.697	3135.47
211.163	3832.27
211.628	5726.23
212.094	4763.23
212.559	5757.09
213.024	3508.35
213.49	4235.62
213.955	4106.04
214.42	4001.43
214.885	3674.35
215.35	3485.05
215.815	3294.17
216.28	3443.8
216.745	2757.74
217.21	2880.2
217.675	2553.96
218.14	2774.94
218.604	2978.84
219.069	3233.74
219.534	3229.24
219.998	3584.51
220.463	4146.73
220.927	4898.78
221.392	4450.98
221.856	4369.04
222.32	5354.78
222.785	6452.4
223.249	7925.92
223.713	8637.77
224.177	8477.49
224.642	10676.06
225.106	12939.14
225.57	13941.62
226.034	10255.23
226.497	15422.97
226.961	13775.61
227.425	15888.18
227.889	17462.43
228.353	17269.08
228.816	35317.19
229.28	33596.37
229.744	28099.37
230.207	17034.18
230.671	16645.39
231.134	27297.82
231.597	31331.41
232.061	31101.13
232.524	30154.84
232.987	20651.62
233.45	18567.29
233.914	16579.43
234.377	16874.76
234.84	15400.43
235.303	18052.9
235.766	20118.72
236.229	20694.93
236.691	12973.34
237.154	14544.59
237.617	10922.99
238.08	11177.21
238.542	13044.27
239.005	9343.45
239.468	9278.7
239.93	8733
240.393	7933.53
240.855	6948.46
241.317	7094.56
241.78	8606.65
242.242	8895.2
242.704	9609.64
243.166	8358.62
243.629	7589.88
244.091	8716.65
244.553	9533.42
245.015	10224.52
245.477	13189.78
245.939	19298.05
246.4	20507.57
246.862	19884.45
247.324	18738.1
247.786	20903.16
248.247	27352.4
248.709	28137.29
249.17	21020.82
249.632	19863.29
250.093	23053.8
250.555	19896.88
251.016	12148.26
251.477	11497.76
251.939	12422.78
252.4	12991.64
252.861	15419.27
253.322	14347.82
253.783	17044.96
254.244	22124.89
254.705	17399.06
255.166	15448.58
255.627	15212.17
256.088	21427.07
256.549	22769.61
257.009	19591.66
257.47	23779.55
257.931	19374.93
258.391	14514.59
258.852	14991.99
259.312	15657.32
259.773	19263.48
260.233	16299.18
260.694	13744.4
261.154	15543.32
261.614	12485.59
262.074	11144.53
262.534	11565.9
262.994	10876.35
263.455	14432.09
263.915	12124.73
264.374	11407.38
264.834	12463.26
265.294	13766.8
265.754	14224.48
266.214	13441.06
266.673	12556.28
267.133	15813.37
267.593	15654.36
268.052	19126.01
268.512	16613.24
268.971	20028.93
269.431	21924.46
269.89	19556.83
270.349	29313.68
270.809	32661.71
271.268	29380.97
271.727	65797.94
272.186	42599.07
272.645	31940.71
273.104	23041.71
273.563	33361.43
274.022	26153.28
274.481	22313.17
274.94	17231.41
275.399	12780.64
275.857	14868.68
276.316	20096.4
276.775	17886.29
277.233	17642.74
277.692	16532.97
278.15	18756.59
278.609	19330.25
279.067	17924.12
279.525	16665.54
279.984	21528.87
280.442	25922.63
280.9	25653.55
281.358	16916.08
281.816	15821.82
282.274	15486.26
282.732	16010.7
283.19	16080.92
283.648	13887.13
284.106	14822.93
284.564	15090.27
285.021	14048.48
285.479	10495.12
285.937	9544.56
286.394	8398.55
286.852	8653.62
287.309	9140.09
287.767	8846.22
288.224	8422.72
288.682	9253.29
289.139	10180.92
289.596	9321.35
290.053	9666.67
290.511	12179.88
290.968	14753.6
291.425	19972.16
291.882	16614.57
292.339	14416.37
292.796	14284.55
293.252	13417.43
293.709	10652.21
294.166	9538.62
294.623	10526.57
295.079	10106.31
295.536	10158.44
295.992	9218
296.449	9114.77
296.905	9486.95
297.362	9101.06
297.818	9575.15
298.274	9940.71
298.731	10119.51
299.187	10012.22
299.643	10735.94
300.099	12967.38
300.555	14220.21
301.011	11892.71
301.467	11499.93
301.923	13393.8
302.379	13110.32
302.835	12880.97
303.291	12942.96
303.746	14741.62
304.202	18602.59
304.658	18721.62
305.113	12599.67
305.569	12365.52
306.024	13194.06
306.479	12556.38
306.935	10647.34
307.39	11618.22
307.845	10758.09
308.301	10862.36
308.756	10606.07
309.211	10247.92
309.666	10519.42
310.121	13118.27
310.576	13347.84
311.031	13258.12
311.486	15193.66
311.94	15176.4
312.395	20396.74
312.85	38372.88
313.305	187886.44
313.759	979732.73
314.214	70980.4
314.668	56306
315.123	47538.49
315.577	17083.65
316.032	15265.72
316.486	19109.28
316.94	15084.33
317.394	10508.39
317.849	8168.35
318.303	7751.37
318.757	7300.19
319.211	8095.73
319.665	7090.82
320.119	7157.38
320.572	10221.93
321.026	9538.97
321.48	7931.73
321.934	8656
322.387	8650.83
322.841	9352.91
323.295	8432.12
323.748	9664.9
324.202	9823.96
324.655	11811.71
325.108	16572.27
325.562	11732.34
326.015	13940.06
326.468	10587.85
326.921	11827.89
327.374	11059.18
327.827	11543.72
328.28	13058.98
328.733	8827.3
329.186	7752.26
329.639	7383.09
330.092	6207.96
330.545	5923.01
330.997	5987.33
331.45	6552.37
331.903	7710.12
332.355	13258.15
332.808	12868.54
333.26	10606.75
333.713	11527.57
334.165	11657.73
334.617	15616.57
335.069	12608.24
335.522	22794.34
335.974	25314.51
336.426	23206.99
336.878	16090.62
337.33	8179.19
337.782	8014.69
338.234	10114.27
338.686	12060.28
339.137	14313.5
339.589	13470.49
340.041	10620.34
340.493	9128.12
340.944	9351.4
341.396	10059.43
341.847	8473.07
342.299	10037.21
342.75	12279.63
343.201	10695.74
343.653	12271.33
344.104	14998.58
344.555	11789.19
345.006	18214.89
345.457	14017.65
345.908	11117.53
346.359	10456.68
346.81	8502.01
347.261	8918.5
347.712	8749.14
348.163	9362.14
348.613	9538.36
349.064	8919.13
349.515	7819.1
349.965	8054.93
350.416	9672.68
350.866	10639.28
351.317	12017.79
351.767	19978.54
352.217	25282.38
352.668	21039.3
353.118	19361.32
353.568	18621.03
354.018	14796.88
354.468	15683.04
354.918	11294.97
355.368	9919.93
355.818	14011.23
356.268	40385.3
356.718	169154.84
357.168	42274.55
357.617	21274.1
358.067	23640.54
358.517	22234.94
358.966	26083.3
359.416	29258.77
359.865	31588.07
360.315	37631.02
360.764	17597.52
361.213	9872.1
361.663	9363.18
362.112	11552.25
362.561	18677.36
363.01	14088.84
363.459	11853.43
363.908	12844.15
364.357	10952.33
364.806	18497.8
365.255	12780.2
365.703	11774.26
366.152	11871.4
366.601	9661.04
367.05	7891.99
367.498	7203.07
367.947	7555.08
368.395	7876.57
368.844	7009.22
369.292	8437.21
369.74	5859.74
370.189	8976.51
370.637	10521.61
371.085	9096.2
371.533	11080.01
371.981	10684.34
372.429	10203.05
372.877	10632.26
373.325	8925.27
373.773	9104.15
374.221	8144.61
374.669	10135.63
375.116	8776.56
375.564	8856.05
376.012	9875.71
376.459	8180.9
376.907	9792.89
377.354	11881.77
377.801	11159.81
378.249	12912.07
378.696	16597.15
379.143	20145.78
379.591	21551.63
380.038	36824.39
380.485	26921.55
380.932	29495.84
381.379	27396.14
381.826	20508.18
382.273	14857.32
382.72	13268.61
383.166	13253.75
383.613	8848.88
384.06	8271.64
384.506	9963.72
384.953	7633.59
385.4	8069.7
385.846	7501
386.292	7834.91
386.739	8309.93
387.185	8934.12
387.631	9809.32
388.078	10508.68
388.524	12378.81
388.97	12446.21
389.416	11136.47
389.862	12517.84
390.308	12499.38
390.754	13516.39
391.2	15902.03
391.645	17893.25
392.091	18849.41
392.537	19886.66
392.983	21447.65
393.428	22183.62
393.874	25204.69
394.319	27329.35
394.765	28728.94
395.21	33231.18
395.655	34948.66
396.101	36243.52
396.546	35863.08
396.991	39578.45
397.436	39979.26
397.881	42065.41
398.326	43681.23
398.771	44740.23
399.216	42215.24
399.661	40481.46
400.106	42291.99
400.551	45034.15
400.995	41794.18
401.44	42476.89
401.885	40760.98
402.329	41855.75
402.774	40609.57
403.218	39496.33
403.663	38540.2
404.107	40012.32
404.551	40739.11
404.995	37913.08
405.44	37080.23
405.884	38153.71
406.328	37407.95
406.772	37715.63
407.216	34778.93
407.66	34137.52
408.104	33043.01
408.547	31267.73
408.991	30529.17
409.435	29574.42
409.879	29220.37
410.322	28964.23
410.766	28046.96
411.209	26811.77
411.653	25966.36
412.096	25589.71
412.54	25827.7
412.983	25854.94
413.426	26063.4
413.869	26280.7
414.312	26003.68
414.756	25385.79
415.199	24506.03
415.642	24044.42
416.085	24318.1
416.527	24378.97
416.97	25017.36
417.413	23828.87
417.856	23654.05
418.298	23430.43
418.741	23271.79
419.184	23213.95
419.626	24213.99
420.069	24137.57
420.511	24251.78
420.953	23670.72
421.396	23471.31
421.838	22944.02
422.28	23519.65
422.722	23764.19
423.164	24392.27
423.606	24237.92
424.048	24464.07
424.49	23356.72
424.932	23462.59
425.374	23333.27
425.816	23940.26
426.258	24421.55
426.699	24550.88
427.141	23933.94
427.582	24160.28
428.024	23912.82
428.465	23774.45
428.907	23225.04
429.348	23073.26
429.789	23108.85
430.231	22645.5
430.672	22956.77
431.113	22553.09
431.554	22463.08
431.995	22367.99
432.436	21806.64
432.877	21579.99
433.318	21334.17
433.759	21452.94
434.2	21608.83
434.64	21575.61
435.081	21809.79
435.522	20916.61
435.962	20382.32
436.403	20188.6
436.843	20732.13
437.284	20564.54
437.724	20263.4
438.164	20584.05
438.604	20273.68
439.045	19531.07
439.485	18714.54
439.925	18420.44
440.365	18026.13
440.805	17856.62
441.245	17553.53
441.685	16899.77
442.125	16779.7
442.564	16869.61
443.004	16413.2
443.444	16356.98
443.883	16371.17
444.323	16345.13
444.762	16481.76
445.202	16719.11
445.641	16950.22
446.081	16975.65
446.52	17024.95
446.959	16815.65
447.398	16357.91
447.837	16141.27
448.276	15829.63
448.716	15943.99
449.154	16072.23
449.593	15578.67
450.032	15422.78
450.471	15100.92
450.91	14998.98
451.349	14821.57
451.787	14667.76
452.226	14752.79
452.664	14627.03
453.103	14509.49
453.541	14335.62
453.98	14033.43
454.418	13918.95
454.856	13467.88
455.295	13283.27
455.733	13160.77
456.171	13080.08
456.609	12910.55
457.047	12696.49
457.485	12693.57
457.923	12563.41
458.361	12306.23
458.798	12305.21
459.236	12218.86
459.674	12324.45
460.111	12323.52
460.549	12218.36
460.987	12214.86
461.424	12184.19
461.862	12179.13
462.299	12018.95
462.736	11994.32
463.173	12078.36
463.611	11917.12
464.048	11922.95
464.485	12038.31
464.922	11983.32
465.359	11978.2
465.796	11649.85
466.233	11621.83
466.67	11521.25
467.106	11522.8
467.543	11498.45
467.98	11393.91
468.416	11196.16
468.853	11155.32
469.29	10849.43
469.726	10751.82
470.162	10473.26
470.599	10486.15
471.035	10388.95
471.471	10136.03
471.907	10091.73
472.344	9999.91
472.78	9955.49
473.216	10024.09
473.652	9825.63
474.088	9733.4
474.523	9579.91
474.959	9570.79
475.395	9382.28
475.831	9201.33
476.266	9143.23
476.702	9006.07
477.138	8774.84
477.573	8626.63
478.008	8455.34
478.444	8335.98
478.879	8249.02
479.314	8158.89
479.75	8020.57
480.185	7942.41
480.62	7888.8
481.055	7810.64
481.49	7727.55
481.925	7710.79
482.36	7685.14
482.795	7785.9
483.229	7899.39
483.664	7948.97
484.099	7862.96
484.534	7853.53
484.968	7809.88
485.403	7725.01
485.837	7624.47
486.271	7513.76
486.706	7421.54
487.14	7277.92
487.574	7070.81
488.009	6921.95
488.443	6788.27
488.877	6770.81
489.311	6729.33
489.745	6734.01
490.179	6725.48
490.613	6752.7
491.046	6749.25
491.48	6742.8
491.914	6687.72
492.348	6682.5
492.781	6666.03
493.215	6635.76
493.648	6614.34
494.082	6618.15
494.515	6577.51
494.948	6598.05
495.382	6616.15
495.815	6607.24
496.248	6607.25
496.681	6679.68
497.114	6740.28
497.547	6775.9
497.98	6825.71
498.413	6807
498.846	6828.54
499.279	6844.71
499.711	6826.23
500.144	6782.89
500.577	6800.51
501.009	6832.35
501.442	6836.99
501.874	6765.89
502.306	6722.99
502.739	6690.63
503.171	6752.85
503.603	6706.25
504.036	6705.99
504.468	6675.2
504.9	6686.65
505.332	6664.12
505.764	6613.81
506.196	6589.62
506.627	6617.02
507.059	6627.73
507.491	6632.57
507.923	6519.31
508.354	6533.66
508.786	6518.43
509.217	6545.92
509.649	6555.47
510.08	6592.81
510.512	6608.16
510.943	6619.02
511.374	6605.83
511.805	6641.3
512.237	6673.68
512.668	6791.97
513.099	6872.76
513.53	6944.84
513.961	6972.1
514.391	7058.99
514.822	7133.39
515.253	7232.45
515.684	7265.67
516.114	7318.91
516.545	7318.18
516.975	7341.92
517.406	7317.41
517.836	7218.67
518.267	7138.16
518.697	7113.24
519.127	7025.43
519.558	6961.47
519.988	6879.08
520.418	6833.05
520.848	6819.09
521.278	6770.74
521.708	6595.9
522.138	6575.19
522.567	6634.33
522.997	6668.66
523.427	6667.66
523.857	6669.15
524.286	6650.3
524.716	6650.2
525.145	6662.06
525.575	6649.89
526.004	6656.65
526.433	6725.44
526.863	6678.83
527.292	6587.02
527.721	6562.96
528.15	6545.84
528.579	6509.35
529.008	6516.34
529.437	6572.39
529.866	6595.45
530.295	6631.33
530.724	6644
531.152	6714.58
531.581	6735.18
532.01	6776.71
532.438	6783.48
532.867	6814.97
533.295	6861.14
533.723	6861.97
534.152	6833.28
534.58	6811.6
535.008	6735.72
535.436	6726.47
535.865	6742.67
536.293	6786.61
536.721	6834.81
537.149	6917.64
537.576	6921.05
538.004	6966.79
538.432	6993.9
538.86	6984.15
539.287	7011.15
539.715	7061.23
540.143	7080.31
540.57	7073.56
540.998	7069.71
541.425	6984.56
541.852	6920.82
542.28	6923.54
542.707	6876.37
543.134	6834.33
543.561	6829.12
543.988	6812.37
544.415	6825.64
544.842	6818.27
545.269	6801.62
545.696	6816.49
546.123	6886.15
546.549	6858.22
546.976	6819.44
547.403	6825.68
547.829	6846.73
548.256	6870.19
548.682	6867.41
549.108	6847.71
549.535	6859.18
549.961	6878.19
550.387	6839.38
550.813	6823.76
551.24	6859.48
551.666	6874.39
552.092	6846.57
552.518	6834.49
552.943	6816.88
553.369	6861.1
553.795	6895.88
554.221	6905.22
554.646	6904.03
555.072	6943.9
555.498	6974.65
555.923	7018.68
556.349	7084.28
556.774	7126.74
557.199	7137.06
557.625	7175.57
558.05	7154.02
558.475	7199.94
558.9	7202.22
559.325	7171.6
559.75	7157.88
560.175	7138.69
560.6	7121.43
561.025	7115.85
561.449	7123.85
561.874	7146.73
562.299	7158.3
562.723	7192.18
563.148	7150.34
563.572	7164.16
563.997	7203.61
564.421	7223.19
564.846	7221.67
565.27	7226.25
565.694	7215.39
566.118	7247.7
566.542	7266.26
566.966	7233.09
567.39	7199.11
567.814	7147.66
568.238	7141.51
568.662	7158.57
569.086	7165.59
569.509	7200.47
569.933	7143.03
570.357	7128.28
570.78	7064.9
571.204	7030.72
571.627	7016.91
572.05	7045.6
572.474	7079.13
572.897	7074.37
573.32	7086.59
573.743	7102.95
574.166	7074.63
574.589	7134.15
575.012	7157.76
575.435	7218.11
575.858	7243.48
576.281	7261.37
576.704	7258.58
577.126	7273.6
577.549	7284.98
577.972	7309.84
578.394	7322.43
578.817	7342.19
579.239	7319.81
579.661	7314.62
580.084	7287.11
580.506	7284.56
580.928	7324.38
581.35	7329.96
581.772	7361.82
582.194	7351.96
582.616	7339.99
583.038	7330.99
583.46	7340.67
583.882	7372.25
584.303	7446.03
584.725	7485.38
585.147	7515.26
585.568	7607.23
585.99	7703.19
586.411	7777.49
586.833	7890.46
587.254	7935.62
587.675	8042.86
588.096	8144.88
588.518	8153.28
588.939	8097.91
589.36	8114.38
589.781	8119.75
590.202	7975.27
590.623	7954.88
591.043	7960.26
591.464	7905.28
591.885	7894.15
592.305	7872.32
592.726	7802.66
593.147	7802.93
593.567	7768.43
593.987	7716.41
594.408	7675.3
594.828	7668.58
595.248	7607.81
595.669	7475.91
596.089	7408.44
596.509	7347.8
596.929	7236.57
597.349	7201.22
597.769	7113.45
598.189	7039.2
598.608	7009.96
599.028	6979.65
599.448	6943.96
599.867	6851.29
600.287	6808.01
600.706	6754.28
601.126	6673.52
601.545	6642.07
601.965	6618.35
602.384	6578.94
602.803	6584
603.222	6548.4
603.641	6513.8
604.061	6491.92
604.48	6478.98
604.898	6526.97
605.317	6568.48
605.736	6598.55
606.155	6604.18
606.574	6583.11
606.992	6635.96
607.411	6638.28
607.829	6636.31
608.248	6657.24
608.666	6684.37
609.085	6715.66
609.503	6705.99
609.921	6708.89
610.339	6757.27
610.758	6798.12
611.176	6815.45
611.594	6806.74
612.012	6831.28
612.43	6880.36
612.847	6954.49
613.265	6991.3
613.683	7056.49
614.101	7107.36
614.518	7134.25
614.936	7120.75
615.353	7077.45
615.771	7095.54
616.188	7134.48
616.606	7150.95
617.023	7152.18
617.44	7104.99
617.857	7108.27
618.274	7095.26
618.691	7087.43
619.108	7065.88
619.525	7062.73
619.942	7124.98
620.359	7165.01
620.776	7162.15
621.192	7157.48
621.609	7165.03
622.026	7220.43
622.442	7274.92
622.859	7313.6
623.275	7293.47
623.691	7340.82
624.108	7423.26
624.524	7527.8
624.94	7546.76
625.356	7621.01
625.772	7720.56
626.188	7809.44
626.604	7835.16
627.02	7826.37
627.436	7825.47
627.852	7875.5
628.268	7957.9
628.683	7926.35
629.099	7893.52
629.514	7886.47
629.93	7928.01
630.345	7977.15
630.761	7978.01
631.176	8025.78
631.591	8002.54
632.007	7993.02
632.422	8021.83
632.837	7989.82
633.252	7999.7
633.667	7973.31
634.082	7951.39
634.497	7911.66
634.911	7821.81
635.326	7843.16
635.741	7782.62
636.155	7781.15
636.57	7839.62
636.984	7895.59
637.399	7959.27
637.813	8029.08
638.228	8086.81
638.642	8194.83
639.056	8203.01
639.47	8292.18
639.884	8315.36
640.298	8355.16
640.712	8427.12
641.126	8426.69
641.54	8455.85
641.954	8521.47
642.368	8516.15
642.781	8527.91
643.195	8482.36
643.609	8572.41
644.022	8617.4
644.436	8673.9
644.849	8674.78
645.262	8670.75
645.676	8776.47
646.089	8815.6
646.502	8758.53
646.915	8792.45
647.328	8746.01
647.741	8793.25
648.154	8750.39
648.567	8758.92
648.98	8697.41
649.393	8751.36
649.805	8772.35
650.218	8758.43
650.631	8655.57
651.043	8651.98
651.456	8637.93
651.868	8685.06
652.28	8878.98
652.693	9033.68
653.105	9130.99
653.517	9241.07
653.929	9259.71
654.341	9334.85
654.753	9246.8
655.165	9353.87
655.577	9380.15
655.989	9401.74
656.401	9399.62
656.813	9115.39
657.224	9002.54
657.636	8838.52
658.047	8753.34
658.459	8664.14
658.87	8683.26
659.282	8671.51
659.693	8546.33
660.104	8482.86
660.515	8431.62
660.926	8497.47
661.338	8565.56
661.749	8590.87
662.159	8563.62
662.57	8614.94
662.981	8650.52
663.392	8645.35
663.803	8759.67
664.213	8822.25
664.624	8859.62
665.035	8970.62
665.445	8889.88
665.855	8863.18
666.266	8821.36
666.676	8858.59
667.086	8809.02
667.497	8838.43
667.907	8813.54
668.317	8751.82
668.727	8703.53
669.137	8748.27
669.547	8742.74
669.956	8799.51
670.366	8844.22
670.776	8881.38
671.186	8945
671.595	8987.08
672.005	9047.19
672.414	9031.05
672.824	9000.06
673.233	9093.64
673.642	9109.7
674.052	9128.69
674.461	9129.49
674.87	9179.58
675.279	9126
675.688	9144.47
676.097	9132.27
676.506	9074.58
676.915	9235.77
677.323	9256.13
677.732	9220.06
678.141	9201.18
678.549	9070.69
678.958	9052.26
679.366	9027.09
679.775	9077.98
680.183	9122.56
680.592	9159.73
681	9180.68
681.408	9045.91
681.816	9076.15
682.224	9113.57
682.632	9119.7
683.04	9344.93
683.448	9481.27
683.856	9618.99
684.264	9757.18
684.671	9874.67
685.079	10028.78
685.487	10194.01
685.894	10505.9
686.302	10677.62
686.709	10716.88
687.116	10814.37
687.524	10797.32
687.931	10738.05
688.338	10673.31
688.745	10603
689.152	10544.38
689.559	10545.03
689.966	10509.45
690.373	10303.72
690.78	10221
691.187	10282.11
691.593	10221.84
692	10126.59
692.407	10140.37
692.813	10209.11
693.22	10196.55
693.626	10212.32
694.032	10156.63
694.439	10243.03
694.845	10257.78
695.251	10348.15
695.657	10390.89
696.063	10591.47
696.469	10658.54
696.875	10697.55
697.281	10614.33
697.687	10560.27
698.093	10463.99
698.498	10516.81
698.904	10505.16
699.31	10604.91
699.715	10600.72
700.12	10725.29
700.526	10593.1
700.931	10662.26
701.337	10676.34
701.742	10636.17
702.147	10777.86
702.552	10738.11
702.957	10808.57
703.362	10747.67
703.767	10726.29
704.172	10751.45
704.577	10496.15
704.981	10541.54
705.386	10482.96
705.791	10355.54
706.195	10484.43
706.6	10411.09
707.004	10563.4
707.408	10381.31
707.813	10372.4
708.217	10246.74
708.621	10171.21
709.025	10368.33
709.43	10283.29
709.834	10372.82
710.237	10490.88
710.641	10370.81
711.045	10358.3
711.449	10261.93
711.853	10253.75
712.256	10292.42
712.66	10315.39
713.064	10426.13
713.467	10421.91
713.87	10577.99
714.274	10530.45
714.677	10610.67
715.08	10788.98
715.484	10949.73
715.887	11161.8
716.29	11357.65
716.693	11534.1
717.096	11766.66
717.499	11778.72
717.901	11635.5
718.304	11579
718.707	11603.01
719.109	11419.74
719.512	11421.76
719.915	11205.11
720.317	11155.95
720.719	11294.96
721.122	11274.62
721.524	11204.05
721.926	11117.45
722.328	11303.2
722.731	11215.57
723.133	11167.69
723.535	11448.76
723.937	11363.06
724.338	11356.95
724.74	11342.36
725.142	11074.36
725.544	11029.21
725.945	11027.76
726.347	10999.07
726.748	10957.06
727.15	10963.63
727.551	10862.57
727.952	10784.64
728.354	10705.2
728.755	10705.46
729.156	10644.14
729.557	10729.17
729.958	10539.25
730.359	10508.33
730.76	10542.02
731.161	10500.39
731.562	10529.88
731.962	10620.7
732.363	10565.43
732.763	10504.62
733.164	10632.4
733.564	10527.91
733.965	10346.24
734.365	10285.13
734.766	10349.66
735.166	10263.11
735.566	10135.81
735.966	10056.72
736.366	10024.33
736.766	9882.75
737.166	9942.33
737.566	9857.91
737.966	9802.67
738.365	9880.6
738.765	9857.9
739.165	9690.72
739.564	9632.77
739.964	9731.07
740.363	9648.98
740.763	9654.24
741.162	9635.16
741.561	9567.65
741.96	9468.91
742.36	9515.17
742.759	9532.88
743.158	9619.69
743.557	9655.86
743.955	9738.19
744.354	9634.13
744.753	9743
745.152	9646.22
745.55	9750.21
745.949	9725.56
746.348	9712.82
746.746	9725.38
747.144	9615
747.543	9546.89
747.941	9621.29
748.339	9450.26
748.737	9408.26
749.136	9364.19
749.534	9468.88
749.932	9382.62
750.33	9403.3
750.727	9491.38
751.125	9422.25
751.523	9375.92
751.921	9437.62
752.318	9351.69
752.716	9447.91
753.113	9458.59
753.511	9482.79
753.908	9458.81
754.305	9398.16
754.703	9495.45
755.1	9587.7
755.497	9669.08
755.894	9974.19
756.291	10191.3
756.688	10573.7
757.085	11003.46
757.482	11573.26
757.878	12092.84
758.275	12419.5
758.672	13047.6
759.068	13381.5
759.465	14023.09
759.861	14883.94
760.258	15856.08
760.654	16025.25
761.05	15472.74
761.447	14698.31
761.843	13882.98
762.239	13143.13
762.635	12997.47
763.031	12821.54
763.427	12397.24
763.822	11931.28
764.218	11502.18
764.614	10822.95
765.01	10462.06
765.405	10322.41
765.801	10260.7
766.196	10043.38
766.592	10005.49
766.987	9719.62
767.382	9559.02
767.778	9565.37
768.173	9470.97
768.568	9441.9
768.963	9293.53
769.358	9372.16
769.753	9323.25
770.148	9201.27
770.542	9216.93
770.937	9172.56
771.332	9335.79
771.726	9363.67
772.121	9235.41
772.515	9318.44
772.91	9282.31
773.304	9396.23
773.699	9272.77
774.093	9355.61
774.487	9436.95
774.881	9492.36
775.275	9461.89
775.669	9367.37
776.063	9425.45
776.457	9473.43
776.851	9325.45
777.245	9284.13
777.638	9314.16
778.032	9481.68
778.425	9392.71
778.819	9435.77
779.212	9335.7
779.606	9243.91
779.999	9258.18
780.392	9203.37
780.786	9310.91
781.179	9315.26
781.572	9361.47
781.965	9354.78
782.358	9232.42
782.751	9294.88
783.143	9185.63
783.536	9275.74
783.929	9314.59
784.322	9457.01
784.714	9467.05
785.107	9422.93
785.499	9495.81
785.891	9411.85
786.284	9329.01
786.676	9494.9
787.068	9406.86
787.46	9433.42
787.852	9409.15
788.245	9486.37
788.636	9479.91
789.028	9531.89
789.42	9540.87
789.812	9504.97
790.204	9609.37
790.595	9715.66
790.987	9393.59
791.378	9398.57
791.77	9559.84
792.161	9728.06
792.553	9772.91
792.944	9574.41
793.335	9436.66
793.726	9502.65
794.117	9598.21
794.508	9767.2
794.899	9698.99
795.29	9868.25
795.681	9913.68
796.072	9673.24
796.463	9360.29
796.853	9339.29
797.244	9523.56
797.634	9536.13
798.025	9499.4
798.415	9475.77
798.806	9546.11
799.196	9611.99
799.586	9626.5
799.976	9518.53
800.366	9782.23
800.756	10065.21
801.146	9958.6
801.536	9951.64
801.926	10003.86
802.316	9993.13
802.706	10046.1
803.095	9852.76
803.485	9951.27
803.874	9975
804.264	10281.67
804.653	10214.26
805.043	10368.34
805.432	10470.33
805.821	10431.44
806.21	10409.9
806.599	10513.36
806.988	10507.18
807.377	10571.27
807.766	10660.76
808.155	10927.36
808.544	10517.99
808.933	10443.37
809.321	10324.94
809.71	10578.09
810.098	10649.43
810.487	11058.74
810.875	11463.39
811.264	11336.18
811.652	11494.69
812.04	11478.06
812.428	11470.19
812.816	12102.62
813.204	12329.07
813.592	12689.8
813.98	12828
814.368	12546.35
814.756	12861.32
815.144	12638.33
815.531	12961.81
815.919	12784.82
816.306	12987.43
816.694	12624.73
817.081	12630.13
817.469	12956.59
817.856	12975.97
818.243	13265.08
818.63	13664.34
819.017	13269.96
819.404	13308.28
819.791	13598.72
820.178	14074.49
820.565	14216.57
820.952	15018.37
821.339	14512.08
821.725	14621.22
822.112	13874.28
822.498	13761.37
822.885	13811.12
823.271	13681.91
823.657	14054.39
824.044	14102.79
824.43	14206.34
824.816	14194.61
825.202	13788.86
825.588	14659.86
825.974	14609
826.36	14981.45
826.746	14927.26
827.132	15168.87
827.517	15076.79
827.903	14304.35
828.289	14253.68
828.674	13526.2
829.06	13389.15
829.445	13677.54
829.83	13939.91
830.216	14308.47
830.601	14591.07
830.986	14216.95
831.371	14076.51
831.756	14516.58
832.141	14134.99
832.526	14117.22
832.911	14336.45
833.295	14226.09
833.68	14622.66
834.065	14104.29
834.449	13331.72
834.834	13270.97
835.218	13264.74
835.603	13539.77
835.987	13357.67
836.371	14052.66
836.755	13954.72
837.139	14275.11
837.524	14461.39
837.908	14293.7
838.291	14319.54
838.675	14353.48
839.059	14502.88
839.443	14470.48
839.827	14255.12
840.21	14616.09
840.594	14456.94
840.977	14585.98
841.361	14541.09
841.744	14813.96
842.127	14652.4
842.511	14821.45
842.894	15283.68
843.277	15559.93
843.66	15970.33
844.043	16003.81
844.426	15331.69
844.809	15047.45
845.191	15051.43
845.574	14653.42
845.957	14334.86
846.339	14209.89
846.722	13747.8
847.104	13744.21
847.487	13556.55
847.869	13517.9
848.252	13694.21
848.634	13898.82
849.016	14063.3
849.398	14115.72
849.78	14732.56
850.162	14687.71
850.544	14952.27
850.926	15369.89
851.307	15239.5
851.689	15381.17
852.071	15650.65
852.452	15837.62
852.834	15775.64
853.215	16020.98
853.597	16094.41
853.978	16274.76
854.359	16584.55
854.741	15832.71
855.122	15769.38
855.503	15570.65
855.884	15693.23
856.265	15664.43
856.646	15747.91
857.026	15447.62
857.407	15401.45
857.788	15501.02
858.169	15697.12
858.549	15045.25
858.93	15488.5
859.31	15496.08
859.69	15624.88
860.071	15298.45
860.451	15112.02
860.831	14544.66
861.211	15367.33
861.591	15726.34
861.971	15670.11
862.351	15771.26
862.731	16000.9
863.111	16127.52
863.491	16299.33
863.87	16856.15
864.25	17038.93
864.629	16692.29
865.009	16996.15
865.388	17546.87
865.768	18751.19
866.147	18630.74
866.526	17550.62
866.905	17735.67
867.284	18716.82
867.663	17767.44
868.042	17045.66
868.421	16988.16
868.8	17268.08
869.179	17422.62
869.558	16399.43
869.936	15101.62
870.315	15364.43
870.693	15741.68
871.072	16955.99
871.45	16139.71
871.828	16335.16
872.207	17135.29
872.585	16860.18
872.963	17292.14
873.341	16689.07
873.719	16477.41
874.097	16261.76
874.475	16543.29
874.853	16890.5
875.23	16172.88
875.608	16830.86
875.986	18168.06
876.363	17366.53
876.741	17881.41
877.118	17427.77
877.495	18242.77
877.873	18525.88
878.25	19482.27
878.627	18666.59
879.004	18908.98
879.381	18784.23
879.758	18266.31
880.135	16994.01
880.512	17951.91
880.889	17454.95
881.265	17239.06
881.642	17098.9
882.019	17362.35
882.395	16996.62
882.772	17654.86
883.148	16867.08
883.524	16788.3
883.901	16669.28
884.277	16896.55
884.653	16749.64
885.029	17200.46
885.405	19033.03
885.781	18859.46
886.157	18054.66
886.532	18250.87
886.908	18218.6
887.284	20235.27
887.659	20871.24
888.035	21514.5
888.411	22045.3
888.786	22323.26
889.161	23065.64
889.537	22597.18
889.912	23269.2
890.287	23203.04
890.662	23746.11
891.037	23264.43
891.412	21636.28
891.787	21366.55
892.162	20553.67
892.536	20966.42
892.911	20102.38
893.286	19609.44
893.66	18737.95
894.035	19134.57
894.409	20737.75
894.784	19820.04
895.158	20062.32
895.532	21157.65
895.906	21627.27
896.281	22030.01
896.655	21576
897.029	24546.19
897.402	25454.31
897.776	28251.77
898.15	28075.16
898.524	27713.02
898.898	27997.77
899.271	31278.34
899.645	27039.09
900.018	25947.2
900.392	26897.72
900.765	27131.67
901.138	25147.39
901.511	24808.17
901.884	22826.97
902.258	21095.17
902.631	21845.04
903.003	25201.97
903.376	22779.48
903.749	25602.86
904.122	27441.52
904.495	30215.98
904.867	30580.26
905.24	26522.84
905.612	24651.78
905.985	25127.49
906.357	26202.14
906.729	24917.22
907.102	21220.98
907.474	20347.9
907.846	20423.07
908.218	20097.16
908.59	17731.42
908.962	17119.84
909.334	18416.95
909.705	19340.84
910.077	18780.12
910.449	19532.14
910.82	20094.41
911.192	22079.68
911.563	22925.69
911.935	24515.93
912.306	24539.14
912.677	25322.91
913.048	25057.71
913.419	27151.7
913.79	27240.01
914.161	29175.29
914.532	27889.3
914.903	25604.39
915.274	24329.24
915.645	23986.65
916.015	21104.39
916.386	20134.27
916.756	21435.3
917.127	22125.39
917.497	19787.14
917.868	21581.38
918.238	20539.09
918.608	21162.12
918.978	21623.9
919.348	22926.7
919.718	23721.47
920.088	22878.02
920.458	23804.56
920.828	25066.45
921.198	23788.84
921.567	25423.95
921.937	19699.34
922.306	19848.3
922.676	21390.82
923.045	17852.53
923.415	16961.01
923.784	15434.33
924.153	15861.35
924.522	15837.5
924.891	14879.58
925.26	15909.6
925.629	15515.21
925.998	17791.23
926.367	17365.28
926.736	16519.69
927.104	19617.17
927.473	21011.5
927.842	25259.57
928.21	24900.38
928.578	26039.01
928.947	24493.34
929.315	24532.36
929.683	28627.16
930.051	28725.04
930.42	33139.08
930.788	28139.22
931.156	27784.29
931.523	25951.6
931.891	23903.37
932.259	22868.97
932.627	26405.28
932.994	37252.74
933.362	30715.26
933.729	26598.26
934.097	25372.25
934.464	21466.99
934.831	24753.07
935.199	24389.9
935.566	23632.7
935.933	24010.43
936.3	29147.01
936.667	22728.5
937.034	20575.97
937.401	20395.56
937.767	17640.92
938.134	15753.71
938.501	22278.94
938.867	23817.53
939.234	40412.33
939.6	34554.01
939.967	38094.94
940.333	25568.65
940.699	21807.92
941.065	17509.72
941.431	22992.71
941.798	22218.14
942.163	29262.92
942.529	18338.2
942.895	16883.45
943.261	10936.11
943.627	14391.95
943.992	12591.95
944.358	12610.72
944.723	12685.52
945.089	12353.73
945.454	11399.08
945.82	12159.92
946.185	11687.02
946.55	13507.43
946.915	12105.85
947.28	14173.37
947.645	12461.43
948.01	11490.66
948.375	11974.92
948.74	14307.31
949.104	16670.59
949.469	24065.88
949.834	42574.2
950.198	40372.89
950.562	24212.8
950.927	20196.12
951.291	24310.66
951.655	20685.25
952.02	19412.89
952.384	14684.1
952.748	12787.18
953.112	12487.72
953.476	10858.57
953.839	10026.79
954.203	9926.34
954.567	12414.26
954.931	19504.82
955.294	16692.53
955.658	16754.48
956.021	28509.41
956.385	48252.91
956.748	71092.42
957.111	110186.74
957.474	123713.35
957.837	139171.27
958.2	105130.11
958.563	37793.15
958.926	25573.8
959.289	38818.25
959.652	43528.53
960.015	32646.13
960.377	46904.53
960.74	53603.18
961.102	92480.77
961.465	99605.83
961.827	53722.94
962.189	103078.97
962.552	71561.94
962.914	57477.01
963.276	37226.29
963.638	30744.88
964	30480.18
964.362	20660.63
964.724	19999.27
965.085	14302.36
965.447	11732.42
965.809	13330.24
966.17	13369.07
966.532	14493.41
966.893	13338.59
967.255	12165.57
967.616	14377.76
967.977	11541.55
968.338	12616.24
968.699	10396.55
969.061	10414.12
969.421	10501.31
969.782	11789.85
970.143	9996.75
970.504	10405.1
970.865	11836.28
971.225	12164.49
971.586	11918.35
971.946	16993.51
972.307	14760.72
972.667	19280.5
973.027	19821.6
973.388	23995.28
973.748	16348.67
974.108	17792.77
974.468	23965.49
974.828	18487.99
975.188	14164.54
975.548	12984.38
975.907	10904.83
976.267	12217.8
976.627	10287.88
976.986	10680.95
977.346	10196.62
977.705	9810.48
978.064	8945.78
978.424	7460.76
978.783	7676.7
979.142	8789.18
979.501	8435.14
979.86	8929.84
980.219	8601.74
980.578	11080.99
980.937	12408.94
981.296	11070.69
981.654	11407.71
982.013	17718.04
982.371	22938.09
982.73	21510.84
983.088	24404.72
983.447	26121.66
983.805	37385.6
984.163	78294.64
984.521	87020.7
984.879	127794.02
985.237	-208317.11
985.595	201099.44
985.953	50011.51
986.311	28975.17
986.669	16874.33
987.026	14548.93
987.384	19568.57
987.741	20217.46
988.099	14495.95
988.456	11576.55
988.814	10862.51
989.171	9453.02
989.528	9318.37
989.885	9840.79
990.242	7803.04
990.599	9716.29
990.956	7955.89
991.313	5564.02
991.67	4579.7
992.027	4887.64
992.383	4351.5
992.74	3825.5
993.096	4008.39
993.453	4164.16
993.809	4337.59
994.165	5781.45
994.522	5328.34
994.878	5871.95
995.234	7396.08
995.59	7303.24
995.946	6860.37
996.302	7824.69
996.658	9034.92
997.013	9995.29
997.369	11875.27
997.725	15231.36
998.08	9878.24
998.436	15145.12
998.791	20937.21
999.147	20890.77
999.502	22735.87
999.857	16566.98
1000.212	27043.95
1000.567	38507.5
1000.922	22212.78
1001.277	14112.3
1001.632	10468.14
1001.987	13464.02
1002.342	9681.1
1002.696	7770.29
1003.051	6214.91
1003.406	7546.33
1003.76	7517.48
1004.114	7413.78
1004.469	6265.91
1004.823	5175.29
1005.177	5588.53
1005.531	4417.26
1005.885	3944.98
1006.239	4457.83
1006.593	5599.88
1006.947	7502.2
1007.301	5647.95
1007.655	6160.77
1008.008	4532.41
1008.362	5086.51
1008.715	7262.36
1009.069	6585.19
1009.422	9988.69
1009.776	19945.25
1010.129	13253
1010.482	11066.04
1010.835	9367.76
1011.188	19556.08
1011.541	18403.03
1011.894	-112604.46
1012.247	331384.9
1012.6	22610.75
1012.952	14335.83
1013.305	7340.04
1013.657	5329.58
1014.01	5057.43
1014.362	4172.98
1014.715	3733.21
1015.067	3249.95
1015.419	3195.06
1015.771	2846.6
1016.123	2550.26
1016.475	2632.89
1016.827	2806
1017.179	3050.7
1017.531	3069.38
1017.883	3134.94
1018.234	3048.02
1018.586	3843.73
1018.938	4103.27
1019.289	5633.32
1019.64	6418.41
1019.992	5967.58
1020.343	5471.02
1020.694	4382.26
1021.045	3856.5
1021.396	4407.81
1021.747	4743.13
1022.098	5685.33
1022.449	4145.99
1022.8	3838.73
1023.151	2699.34
1023.501	2417.98
1023.852	2631.81
1024.202	2754.56
1024.553	2999.04
1024.903	2951.7
1025.253	2547.86
1025.604	2310.16
1025.954	2876.08
1026.304	3488.99
1026.654	4057.89
1027.004	5932.16
1027.354	9517.65
1027.703	8967.5
1028.053	11724.15
1028.403	17454.36
1028.753	25258.3
1029.102	33988.57
1029.452	172805.63
1029.801	7403.42
1030.15	4775.33
1030.499	4052.94
897.758	2572.99
901.051	2532.68
904.343	2565.94
907.636	2568.39
910.928	2631.07
914.22	2541.58
917.511	2551.13
920.803	2613.45
924.094	2630.1
927.384	2615.53
930.675	2578.6
933.965	2534.63
937.255	2546.83
940.544	2514.73
943.834	2467.64
947.123	2409.04
950.411	2506.13
953.7	2479.73
956.988	2448.57
960.276	2388.27
963.563	2462.86
966.851	2463.07
970.138	2517.55
973.424	2509.65
976.711	2462.91
979.997	2575.67
983.283	2614.24
986.568	2522.99
989.853	2538.28
993.138	2564.64
996.423	2645.91
999.708	2587.51
1002.992	2642.39
1006.275	2494.77
1009.559	2529.97
1012.842	2637.68
1016.125	2574.5
1019.408	2556.83
1022.69	2639.32
1025.972	2657.93
1029.254	2633.89
1032.536	2571.27
1035.817	2593.96
1039.098	2544.17
1042.379	2669.62
1045.659	2677.88
1048.939	2613.97
1052.219	2630.75
1055.498	2638.99
1058.778	2626.64
1062.057	2607.85
1065.335	2630.7
1068.614	2647.98
1071.892	2634.85
1075.17	2707.36
1078.447	2698.69
1081.724	2687.06
1085.001	2723.73
1088.278	2701.33
1091.554	2711.79
1094.83	2706.23
1098.106	2736.59
1101.382	2777.47
1104.657	2780.34
1107.932	2772.77
1111.206	2740.58
1114.481	2697.82
1117.755	2702.49
1121.029	2685.35
1124.302	2738.22
1127.575	2692.39
1130.848	2681.79
1134.121	2642.47
1137.393	2595.96
1140.665	2661.17
1143.937	2639.2
1147.208	2596.13
1150.48	2638.96
1153.75	2626.2
1157.021	2650.61
1160.291	2623.06
1163.561	2670.36
1166.831	2656.16
1170.101	2690.59
1173.37	2662.46
1176.639	2608.07
1179.907	2663.21
1183.176	2671.88
1186.444	2679.28
1189.711	2705.96
1192.979	2721.79
1196.246	2675.08
1199.513	2691.66
1202.78	2690.75
1206.046	2698.11
1209.312	2722.62
1212.578	2746.47
1215.843	2703.21
1219.108	2677.24
1222.373	2702.11
1225.638	2664.44
1228.902	2648.92
1232.166	2615.46
1235.43	2596.55
1238.693	2624.19
1241.956	2619.68
1245.219	2661.87
1248.482	2650.39
1251.744	2644.12
1255.006	2789.64
1258.268	2739.97
1261.529	2688.8
1264.79	2693.64
1268.051	2800.11
1271.312	2815.52
1274.572	2774.36
1277.832	2765.02
1281.092	2756.18
1284.351	2732.36
1287.61	2713.24
1290.869	2629.7
1294.128	2610.36
1297.386	2692.88
1300.644	2682.63
1303.902	2691.04
1307.159	2554.32
1310.416	2609.77
1313.673	2633.38
1316.93	2619.08
1320.186	2664.5
1323.442	2706.16
1326.697	2699.09
1329.953	2687.6
1333.208	2710.76
1336.463	2689.79
1339.717	2632.64
1342.972	2761.71
1346.226	2737.96
1349.479	2674.78
1352.733	2645.48
1355.986	2665.42
1359.238	2642.76
1362.491	2643.16
1365.743	2646.95
1368.995	2643.09
1372.247	2657.01
1375.498	2680.88
1378.749	2698.2
1382	2652.94
1385.251	2704.27
1388.501	2665.3
1391.751	2652.2
1395	2619.64
1398.25	2654.01
1401.499	2661.53
1404.748	2592.58
1407.996	2579.98
1411.244	2565.54
1414.492	2549.51
1417.74	2529.58
1420.987	2536.71
1424.234	2591.63
1427.481	2569.65
1430.728	2631.39
1433.974	2602.85
1437.22	2616.19
1440.465	2617.96
1443.711	2588.3
1446.956	2621.16
1450.201	2602.69
1453.445	2649.44
1456.689	2629.19
1459.933	2642.65
1463.177	2674.41
1466.42	2644.68
1469.663	2627.71
1472.906	2623.52
1476.148	2689.49
1479.391	2663.97
1482.633	2630.43
1485.874	2644.84
1489.115	2630.06
1492.356	2636.09
1495.597	2612.66
1498.838	2613.98
1502.078	2586.5
1505.318	2538.73
1508.557	2579.39
1511.797	2560.93
1515.036	2616.29
1518.274	2609.91
1521.513	2577.78
1524.751	2600.61
1527.989	2611.76
1531.227	2624.65
1534.464	2620.45
1537.701	2636.1
1540.938	2653.47
1544.174	2607.07
1547.41	2605.43
1550.646	2644.44
1553.882	2682.72
1557.117	2737.73
1560.352	2750.1
1563.587	2709.05
1566.821	2670.8
1570.055	2703.06
1573.289	2675.7
1576.523	2747.88
1579.756	2757.27
1582.989	2775.95
1586.222	2736.02
1589.454	2770.02
1592.686	2743.66
1595.918	2768.66
1599.15	2759.72
1602.381	2830.24
1605.612	2790.47
1608.843	2886.39
1612.073	2803.22
1615.303	2788.02
1618.533	2778.62
1621.762	2777.59
1624.992	2766.03
1628.221	2757.81
1631.449	2742.48
1634.678	2793.35
1637.906	2751.08
1641.134	2789.99
1644.361	2747.83
1647.588	2733.78
1650.815	2750.46
1654.042	2727.44
1657.269	2759.52
1660.495	2713.95
1663.72	2732.67
1666.946	2698.02
1670.171	2646.29
1673.396	2620.59
1676.621	2605.13
1679.845	2622.33
1683.069	2642.21
1686.293	2681.31
1689.517	2656.56
1692.74	2590.04
1695.963	2619.95
1699.185	2637.91
1702.408	2610.92
1705.63	2651.52
1708.852	2661.77
1712.073	2636.97
1715.294	2624.93
1718.515	2682.12
1721.736	2632.84
1724.956	2624.59
1728.176	2649.53
1731.396	2668.53
1734.616	2656.56
1737.835	2687.63
1741.054	2667.26
1744.272	2660.43
1747.491	2689.49
1750.709	2738.75
1753.927	2651.45
1757.144	2693.12
1760.361	2737.54
1763.578	2729.89
1766.795	2673.71
1770.011	2673.61
1773.227	2712.54
1776.443	2747.29
1779.658	2791.13
1782.874	2734.37
1786.089	2714.25
1789.303	2715.85
1792.518	2720.87
1795.732	2709.4
1798.945	2715.86
1802.159	2766.12
1805.372	2678.46
1808.585	2661.35
1811.797	2664.67
1815.01	2708.09
1818.222	2714.54
1821.434	2695.34
1824.645	2752.18
1827.856	2739.63
1831.067	2773.55
1834.278	2727.87
1837.488	2711.55
1840.698	2855.38
1843.908	2784.69
1847.117	2748.24
1850.326	2641.7
1853.535	2736.9
1856.744	2752.87
1859.952	2670.12
1863.16	2670.85
1866.368	2690.85
1869.575	2797.12
1872.782	2683.05
1875.989	2621.16
1879.196	2700.79
1882.402	2690.1
1885.608	2730.45
1888.814	2638.48
1892.019	2537.59
1895.224	2587.94
1898.429	2569.3
1901.634	2547.89
1904.838	2525.22
1908.042	2572.15
1911.246	2581.74
1914.449	2517.15
1917.652	2511.49
1920.855	2493.9
1924.058	2539.99
1927.26	2578.47
1930.462	2605.55
1933.664	2632.94
1936.865	2571.4
1940.066	2580.53
1943.267	2528.97
1946.467	2541.74
1949.668	2565.68
1952.868	2633.35
1956.067	2612.74
1959.267	2546.48
1962.466	2572.47
1965.665	2557.5
1968.863	2550.81
1972.061	2566.6
1975.259	2563.69
1978.457	2642.59
1981.654	2600.96
1984.852	2605.19
1988.048	2542.73
1991.245	2543.6
1994.441	2629.85
1997.637	2609.52
2000.833	2589.24
2004.028	2628.79
2007.223	2685.88
2010.418	2660.52
2013.613	2619.65
2016.807	2594.02
2020.001	2600.83
2023.194	2637.16
2026.388	2617.06
2029.581	2560.78
2032.774	2610.89
2035.966	2618.94
2039.158	2553.27
2042.35	2575.27
2045.542	2509.09
2048.733	2605.84
2051.924	2626.32
2055.115	2649.21
2058.306	2598.78
2061.496	2654.81
2064.686	2718.36
2067.875	2631.96
2071.065	2644.26
2074.254	2669.5
2077.442	2622.02
2080.631	2707.76
2083.819	2607.37
2087.007	2591.12
2090.195	2565.12
2093.382	2595.86
2096.569	2576.31
2099.756	2529.84
2102.942	2559.35
2106.128	2566.48
2109.314	2557.39
2112.5	2525.02
2115.685	2501.07
2118.87	2509.67
2122.055	2572.5
2125.239	2541.15
2128.424	2519.19
2131.608	2612.96
2134.791	2597.31
2137.974	2651.46
2141.157	2637.66
2144.34	2593.3
2147.523	2604.85
2150.705	2620.37
2153.887	2599.22
2157.068	2552.71
2160.25	2550.09
2163.431	2585.11
2166.611	2536.65
2169.792	2552.21
2172.972	2449
2176.152	2524.11
2179.331	2558.11
2182.511	2541.48
2185.69	2570.62
2188.868	2565.64
2192.047	2616.75
2195.225	2611.12
2198.403	2562.22
2201.58	2552.64
2204.758	2548.04
2207.935	2631.58
2211.111	2519.84
2214.288	2504.67
2217.464	2545.16
2220.64	2512.17
2223.815	2565.95
2226.991	2490.94
2230.166	2511.01
2233.34	2540.94
2236.515	2564
2239.689	2634.07
2242.863	2579.87
2246.036	2638.19
2249.209	2635.6
2252.382	2667.51
2255.555	2660.37
2258.727	2599.6
2261.9	2635.85
2265.071	2627.99
2268.243	2631.85
2271.414	2566.62
2274.585	2531.52
2277.756	2594.91
2280.926	2550.43
2284.096	2588.06
2287.266	2497.73
2290.436	2551.46
2293.605	2579.68
2296.774	2610.68
2299.942	2626.88
2303.111	2642.49
2306.279	2691.73
2309.447	2679.25
2312.614	2656.32
2315.781	2677.78
2318.948	2652.2
2322.115	2690.91
2325.281	2590.05
2328.447	2610.26
2331.613	2582.04
2334.779	2559.86
2337.944	2560.82
2341.109	2559.39
2344.274	2540.19
2347.438	2506.78
2350.602	2531.9
2353.766	2546.36
2356.929	2533.9
2360.092	2576.28
2363.255	2528.74
2366.418	2470.28
2369.58	2575.79
2372.742	2377.42
2375.904	2388.25
2379.066	2369.03
2382.227	2401.37
2385.388	2364.95
2388.548	2293.56
2391.709	2346.2
2394.869	2325.95
2398.029	2416.63
2401.188	2428.68
2404.347	2366.75
2407.506	2499.12
2410.665	2528.42
2413.823	2530.27
2416.981	2489.4
2420.139	2518.27
2423.296	2567.52
2426.453	2540.7
2429.61	2564.65
2432.767	2504.7
2435.923	2540.5
2439.079	2504.04
2442.235	2549.15
2445.391	2479.4
2448.546	2511.35
2451.701	2557.75
2454.855	2532.48
2458.009	2581.32
2461.163	2578.31
2464.317	2540.34
2467.471	2572.64
2470.624	2610.37
2473.777	2582.16
2476.929	2594.31
2480.082	2621.22
2483.234	2586.23
2486.385	2537.15
2489.537	2530.73
2492.688	2496.91
2495.839	2516.4
2498.989	2527.51
2502.14	2512.57
2505.29	2498.06
2508.439	2521.06
2511.589	2449.8
2514.738	2459.68
2517.887	2489.58
2521.035	2558.9
2524.183	2537.19
2527.331	2517.72
2530.479	2495.25
2533.627	2504.74
