Data from N_2_HIR_WI_4N_Splice17_12-32-34-735.txt Node
Date: Sat Mar 14 12:32:34 EDT 2020
User: sa697716
Spectrometer: FLMS03696
Trigger mode: 0
Integration Time (sec): 3.180400E-1
Scans to average: 20
Electric dark correction enabled: true
Nonlinearity correction enabled: true
Boxcar width: 5
XAxis mode: Wavelengths
Number of Pixels in Spectrum: 2048
>>>>>Begin Spectral Data<<<<<
187.83	-347287.69
188.298	2587.48
188.766	1368.93
189.233	1186.42
189.701	1641.46
190.169	2354.07
190.636	901.06
191.104	702.02
191.571	94
192.039	-86.55
192.506	-70.16
192.974	426.97
193.441	-459.17
193.908	-40.36
194.375	-12.98
194.842	18.86
195.31	124.53
195.777	183.64
196.244	397.77
196.711	473.17
197.177	617.8
197.644	895.86
198.111	1568
198.578	2207.38
199.045	1782.05
199.511	2921.42
199.978	3456.21
200.445	2944.32
200.911	3263.09
201.378	3652.17
201.844	3322.02
202.31	5645.49
202.777	5891.9
203.243	3296.41
203.709	3111.67
204.176	3712.17
204.642	3050.09
205.108	2834.7
205.574	2298.81
206.04	2097.11
206.506	1965.43
206.972	1868.24
207.438	1810.23
207.903	2051.84
208.369	1789.37
208.835	1807.55
209.301	1879.43
209.766	1922.47
210.232	1903.63
210.697	2379.43
211.163	2928.39
211.628	4424.51
212.094	3736.41
212.559	4581.79
213.024	2869.46
213.49	3492.22
213.955	3392.53
214.42	3335.33
214.885	3119.13
215.35	3000.47
215.815	2870.61
216.28	3054.35
216.745	2492.96
217.21	2682.56
217.675	2473.48
218.14	2794.04
218.604	3151.19
219.069	3630.72
219.534	3851.73
219.998	4525.57
220.463	5539.57
220.927	6905.62
221.392	6554.11
221.856	6686.23
222.32	8506.27
222.785	10564.76
223.249	13362.07
223.713	14974.46
224.177	15028.77
224.642	19377.75
225.106	23902.15
225.57	26193.5
226.034	19489.77
226.497	29768.67
226.961	26921.4
227.425	31343.66
227.889	34850.79
228.353	34936.37
228.816	72282.01
229.28	69199.13
229.744	58386.98
230.207	35526
230.671	34970.84
231.134	57993.8
231.597	66863
232.061	66899.65
232.524	65315.87
232.987	45028.14
233.45	40499.39
233.914	36351.82
234.377	37325.3
234.84	34207.39
235.303	40371.82
235.766	45109.85
236.229	46634.8
236.691	29380.12
237.154	33041.35
237.617	24884.91
238.08	25524.74
238.542	29918.37
239.005	21407.66
239.468	21230.97
239.93	20007.78
240.393	18197.55
240.855	15957.78
241.317	16342.49
241.78	19904.8
242.242	20588.71
242.704	22209.84
243.166	19321.12
243.629	17525.24
244.091	20174.7
244.553	22096.7
245.015	23729.26
245.477	30652.14
245.939	44952.47
246.4	47744.4
246.862	46412.54
247.324	43737.54
247.786	48974.73
248.247	64241.3
248.709	66453.73
249.17	49729.87
249.632	46923.44
250.093	54402.37
250.555	47027.04
251.016	28683.59
251.477	27178.61
251.939	29328.34
252.4	30772.13
252.861	36598.87
253.322	34029.86
253.783	40449.86
254.244	52419.33
254.705	41303.82
255.166	36731.82
255.627	36163.34
256.088	50978.1
256.549	54114.09
257.009	46539.42
257.47	56442.62
257.931	45916.13
258.391	34349.19
258.852	35410.49
259.312	37088.36
259.773	45775.36
260.233	38616.41
260.694	32518.83
261.154	36852.72
261.614	29572.65
262.074	26443.58
262.534	27451.75
262.994	25846.5
263.455	34440.08
263.915	28958.17
264.374	27275.25
264.834	29743.55
265.294	32975.52
265.754	34145.76
266.214	32311.63
266.673	30270.53
267.133	38195.61
267.593	37874.13
268.052	46335.2
268.512	40292.96
268.971	48622.73
269.431	53329.13
269.89	47761.48
270.349	71571.93
270.809	79788.79
271.268	71689.84
271.727	160701.51
272.186	103984.1
272.645	77998.27
273.104	56241.73
273.563	81352.57
274.022	63950.7
274.481	54357.31
274.94	41872.4
275.399	31112.66
275.857	36188.6
276.316	48929.53
276.775	43537.72
277.233	42895.38
277.692	40156.42
278.15	45438.05
278.609	46732.55
279.067	43252.55
279.525	40188.31
279.984	51883.68
280.442	62329.82
280.9	61453.94
281.358	40433.06
281.816	37660.35
282.274	36865.7
282.732	38072.1
283.19	38281.79
283.648	33074.19
284.106	35190.41
284.564	35777.79
285.021	33167.51
285.479	24712.15
285.937	22496.27
286.394	19732.27
286.852	20294.98
287.309	21329.57
287.767	20581.61
288.224	19545.52
288.682	21429.36
289.139	23516.5
289.596	21488.05
290.053	22317.21
290.511	28141.24
290.968	34066.98
291.425	46225.19
291.882	38468.21
292.339	33451.85
292.796	33211.71
293.252	31277.53
293.709	24828.63
294.166	22260.3
294.623	24622.07
295.079	23607.81
295.536	23706.82
295.992	21532.12
296.449	21291.16
296.905	22147.5
297.362	21246.5
297.818	22346.46
298.274	23199.1
298.731	23630.26
299.187	23397.14
299.643	25100.13
300.099	30402.74
300.555	33365.22
301.011	27892.54
301.467	26862.87
301.923	31399.21
302.379	30672.35
302.835	30122.56
303.291	30140.36
303.746	34356.94
304.202	43370.47
304.658	43583.66
305.113	29319.59
305.569	28734.69
306.024	30646.96
306.479	29195.91
306.935	24643.39
307.39	26895.97
307.845	24831.99
308.301	25012.91
308.756	24344.9
309.211	23447.4
309.666	24027.9
310.121	29814.17
310.576	30280.48
311.031	30017.64
311.486	34419.54
311.94	34371.7
312.395	45992.01
312.85	86468.04
313.305	424612.13
313.759	2200718.27
314.214	159466.4
314.668	126303.15
315.123	106120.32
315.577	38030.99
316.032	33847.71
316.486	42421.79
316.94	33465.05
317.394	23308.54
317.849	18086
318.303	17127.83
318.757	16126.54
319.211	17830.39
319.665	15604.19
320.119	15797.08
320.572	22650.36
321.026	21155.21
321.48	17615.76
321.934	19234.3
322.387	19262.04
322.841	20838.39
323.295	18732.57
323.748	21589.42
324.202	21908.97
324.655	26337.02
325.108	36828.05
325.562	26054.28
326.015	30995.04
326.468	23416.62
326.921	26177.02
327.374	24401.39
327.827	25416.98
328.28	28784.32
328.733	19323.07
329.186	17010.96
329.639	16194.18
330.092	13673.89
330.545	13009.19
330.997	13128.24
331.45	14337.54
331.903	16806.97
332.355	28932.19
332.808	28120.83
333.26	23188.55
333.713	25168.47
334.165	25380.94
334.617	33968.4
335.069	27414.78
335.522	49657.84
335.974	54941.71
336.426	50261.63
336.878	34787.97
337.33	17652.37
337.782	17232.24
338.234	21602.49
338.686	25863.78
339.137	30629.79
339.589	28791.02
340.041	22590.55
340.493	19394.05
340.944	19874.55
341.396	21405.88
341.847	18029.15
342.299	21251.86
342.75	25957.73
343.201	22689
343.653	26069.63
344.104	32044.6
344.555	25241.27
345.006	39302.36
345.457	30109.05
345.908	23948.2
346.359	22545.62
346.81	18349.78
347.261	19354.79
347.712	19035.65
348.163	20435.15
348.613	20670.8
349.064	19296.39
349.515	16896.73
349.965	17320.17
350.416	20855.12
350.866	22874.8
351.317	25865.29
351.767	42854.66
352.217	54146.22
352.668	45056.2
353.118	41211.95
353.568	39844.49
354.018	31506.66
354.468	33239.31
354.918	23847
355.368	20885.58
355.818	29537.96
356.268	84970.83
356.718	355972.97
357.168	88702.12
357.617	44554.83
358.067	49636.25
358.517	46462.26
358.966	54563.93
359.416	61235.15
359.865	66247.76
360.315	78932.2
360.764	36829.22
361.213	20629.3
361.663	19526.45
362.112	24086.1
362.561	38862.88
363.01	29335.01
363.459	24693.74
363.908	26727.53
364.357	22711.81
364.806	38406.16
365.255	26399.86
365.703	24200.74
366.152	24267.49
366.601	19680.81
367.05	15981.39
367.498	14538.05
367.947	15209.66
368.395	15842.75
368.844	14029.53
369.292	16924.73
369.74	11687.12
370.189	17918.95
370.637	21031.01
371.085	18144.27
371.533	22128.27
371.981	21390.76
372.429	20408.67
372.877	21268.33
373.325	17810.18
373.773	18188.29
374.221	16221.48
374.669	20139.22
375.116	17454.75
375.564	17631.15
376.012	19799.92
376.459	16356.07
376.907	19547.22
377.354	23699.65
377.801	22117.59
378.249	25480.75
378.696	32588.89
379.143	39559.18
379.591	42297.1
380.038	71806.62
380.485	52028.79
380.932	56228.94
381.379	51575.48
381.826	38120.03
382.273	27125.08
382.72	23768.63
383.166	23270.09
383.613	15165.48
384.06	13731
384.506	15939.21
384.953	11723.72
385.4	11839.7
385.846	10408.86
386.292	10189.74
386.739	10012.5
387.185	9954.03
387.631	10022.03
388.078	9741.03
388.524	10454.01
388.97	9676.72
389.416	8099.84
389.862	8644.32
390.308	8220.87
390.754	8380.11
391.2	9123.47
391.645	9367.64
392.091	8981.11
392.537	8693.33
392.983	8745.49
393.428	8613.63
393.874	9265.7
394.319	9339.24
394.765	8882.44
395.21	9155.46
395.655	8602.36
396.101	8088.2
396.546	7312.29
396.991	7398.59
397.436	6891.07
397.881	6680.7
398.326	6356.98
398.771	6020.71
399.216	5270.54
399.661	4752.6
400.106	4745.09
400.551	4870.65
400.995	4370.64
401.44	4332.84
401.885	4076.89
402.329	4128.51
402.774	3958.11
403.218	3828.13
403.663	3696.63
404.107	3802.67
404.551	3838.74
404.995	3526.41
405.44	3403.64
405.884	3462.11
406.328	3356.85
406.772	3353.74
407.216	3060.02
407.66	2963.63
408.104	2820.84
408.547	2639.48
408.991	2558.28
409.435	2466.49
409.879	2432.51
410.322	2405.14
410.766	2324.35
411.209	2212.23
411.653	2128.56
412.096	2086.1
412.54	2090.28
412.983	2077.26
413.426	2087.08
413.869	2086.81
414.312	2046.39
414.756	1973.51
415.199	1878.26
415.642	1823.73
416.085	1824.14
416.527	1810.48
416.97	1835.85
417.413	1739.12
417.856	1724.07
418.298	1708.27
418.741	1697.2
419.184	1694.42
419.626	1766.56
420.069	1771.57
420.511	1783.34
420.953	1744.89
421.396	1725.33
421.838	1685.19
422.28	1722.58
422.722	1729.81
423.164	1753.18
423.606	1723.57
424.048	1722.56
424.49	1635.43
424.932	1626.87
425.374	1601.88
425.816	1631.39
426.258	1662.93
426.699	1678.3
427.141	1656.27
427.582	1679.54
428.024	1671.86
428.465	1663.08
428.907	1623.29
429.348	1603.79
429.789	1604.24
430.231	1571.79
430.672	1593.24
431.113	1557.44
431.554	1534.9
431.995	1497.31
432.436	1443.61
432.877	1410.47
433.318	1384.88
433.759	1376.98
434.2	1378.9
434.64	1365.02
435.081	1368.84
435.522	1296.77
435.962	1249.5
436.403	1222.34
436.843	1239.42
437.284	1215.26
437.724	1184.24
438.164	1190.24
438.604	1163.34
439.045	1118.19
439.485	1070.55
439.925	1049.33
440.365	1024
440.805	1010.61
441.245	998.74
441.685	963.26
442.125	958.87
442.564	965.9
443.004	944.65
443.444	944.53
443.883	948.25
444.323	943.73
444.762	947.41
445.202	963.09
445.641	982.45
446.081	978.38
446.52	988.19
446.959	980
447.398	956.38
447.837	946.17
448.276	930.64
448.716	939.81
449.154	949.93
449.593	928.52
450.032	926.77
450.471	912.07
450.91	916.72
451.349	916.2
451.787	912.69
452.226	929.86
452.664	932.52
453.103	937.81
453.541	939.09
453.98	938.68
454.418	946.93
454.856	934.46
455.295	934.27
455.733	941.09
456.171	947.12
456.609	950.5
457.047	949.85
457.485	962.88
457.923	962.68
458.361	950.68
458.798	953.23
459.236	950.98
459.674	956.18
460.111	960.45
460.549	950.83
460.987	948.23
461.424	943.53
461.862	940.06
462.299	924.92
462.736	924.89
463.173	928.46
463.611	918.48
464.048	916.33
464.485	923.49
464.922	915.66
465.359	911.79
465.796	896.05
466.233	889.07
466.67	878.7
467.106	877.26
467.543	868.82
467.98	856.13
468.416	834.03
468.853	827.5
469.29	802.24
469.726	792.98
470.162	771.45
470.599	763.83
471.035	757.71
471.471	740.56
471.907	737.23
472.344	732.49
472.78	734.26
473.216	744.41
473.652	735.32
474.088	733.94
474.523	731.86
474.959	739.59
475.395	733.06
475.831	728.84
476.266	732.12
476.702	729.37
477.138	721.23
477.573	719.49
478.008	716.46
478.444	720.04
478.879	727.33
479.314	730.4
479.75	729.77
480.185	734.09
480.62	741.37
481.055	746.33
481.49	753.34
481.925	765.14
482.36	778.56
482.795	801.68
483.229	823.64
483.664	840.48
484.099	845.87
484.534	860.8
484.968	869.44
485.403	871.79
485.837	871.86
486.271	870.17
486.706	872.07
487.14	863.09
487.574	848.76
488.009	841.33
488.443	834.8
488.877	841.72
489.311	844
489.745	853.78
490.179	861.63
490.613	877.11
491.046	884.25
491.48	890.54
491.914	891.83
492.348	898.99
492.781	905.01
493.215	908.79
493.648	911.69
494.082	919.48
494.515	920.64
494.948	931.5
495.382	938.24
495.815	944.42
496.248	951.8
496.681	970.56
497.114	986.38
497.547	1000.15
497.98	1016.49
498.413	1024.25
498.846	1037.15
499.279	1048.9
499.711	1055.19
500.144	1059.22
500.577	1073.86
501.009	1089.86
501.442	1102.63
501.874	1105.01
502.306	1107.61
502.739	1118.25
503.171	1139.73
503.603	1143.71
504.036	1157.52
504.468	1165.56
504.9	1181.43
505.332	1191.53
505.764	1197.08
506.196	1206.35
506.627	1225.06
507.059	1244.25
507.491	1255.72
507.923	1251.73
508.354	1271.4
508.786	1284.04
509.217	1307.23
509.649	1325.18
510.08	1349.79
510.512	1370.22
510.943	1389.13
511.374	1403.07
511.805	1427.46
512.237	1450.96
512.668	1492.41
513.099	1524.75
513.53	1558.03
513.961	1582.05
514.391	1621.55
514.822	1659.05
515.253	1701.48
515.684	1730.56
516.114	1764.9
516.545	1787.57
516.975	1817.01
517.406	1836.33
517.836	1837.32
518.267	1841.79
518.697	1861.08
519.127	1862.54
519.558	1868.88
519.988	1870.47
520.418	1879.89
520.848	1899.28
521.278	1908.09
521.708	1919.63
522.138	1931.76
522.567	1967.85
522.997	1995.92
523.427	2013.17
523.857	2030.92
524.286	2041.56
524.716	2057.3
525.145	2077.05
525.575	2087.99
526.004	2103.5
526.433	2098.67
526.863	2096.18
527.292	2081.14
527.721	2087.08
528.15	2091.4
528.579	2090.52
529.008	2102.31
529.437	2129.16
529.866	2144.96
530.295	2164.37
530.724	2177.57
531.152	2209.26
531.581	2225.66
532.01	2246.42
532.438	2255.29
532.867	2272.41
533.295	2294.83
533.723	2300.95
534.152	2298.08
534.58	2298.02
535.008	2277.68
535.436	2279.16
535.865	2289.29
536.293	2306.92
536.721	2326.16
537.149	2358.21
537.576	2360.83
538.004	2374.49
538.432	2384.82
538.86	2382.88
539.287	2391.23
539.715	2407.74
540.143	2411.72
540.57	2406.07
540.998	2401.11
541.425	2371.55
541.852	2343.4
542.28	2340.53
542.707	2320.62
543.134	2301.78
543.561	2295.19
543.988	2283.9
544.415	2282.86
544.842	2274.66
545.269	2265.37
545.696	2266.25
546.123	2281.07
546.549	2267.37
546.976	2251
547.403	2249.73
547.829	2251.38
548.256	2253.44
548.682	2248.11
549.108	2236.2
549.535	2235.74
549.961	2238.21
550.387	2221.86
550.813	2214.83
551.24	2222.59
551.666	2223.53
552.092	2211.18
552.518	2203.04
552.943	2194.52
553.369	2204.63
553.795	2212.23
554.221	2212.85
554.646	2209.06
555.072	2222.12
555.498	2228.3
555.923	2239.24
556.349	2258.21
556.774	2270.36
557.199	2271.81
557.625	2279.82
558.05	2273.39
558.475	2288.05
558.9	2287.5
559.325	2277.44
559.75	2270.69
560.175	2263.88
560.6	2257.64
561.025	2256.31
561.449	2257.86
561.874	2265.83
562.299	2273.13
562.723	2282.09
563.148	2270.1
563.572	2277.33
563.997	2291.9
564.421	2300.67
564.846	2302.77
565.27	2308.36
565.694	2306.08
566.118	2322.1
566.542	2333.33
566.966	2327.13
567.39	2323.65
567.814	2311.94
568.238	2312.84
568.662	2321.17
569.086	2326.02
569.509	2337.42
569.933	2320.45
570.357	2312.85
570.78	2287.9
571.204	2273.57
571.627	2261.49
572.05	2260.62
572.474	2261.12
572.897	2246.05
573.32	2236.74
573.743	2225.77
574.166	2204.01
574.589	2204.8
575.012	2197.77
575.435	2198.06
575.858	2187.7
576.281	2174.98
576.704	2156.91
577.126	2143.6
577.549	2130.95
577.972	2120.91
578.394	2108.16
578.817	2099.21
579.239	2076.91
579.661	2060.34
580.084	2041
580.506	2023.64
580.928	2019.57
581.35	2006.77
581.772	2002.63
582.194	1986.23
582.616	1970.11
583.038	1952.38
583.46	1940.42
583.882	1938.02
584.303	1944.2
584.725	1938.29
585.147	1941.76
585.568	1955.82
585.99	1971.06
586.411	1980.05
586.833	2000.27
587.254	2003.3
587.675	2022.82
588.096	2039.99
588.518	2032.35
588.939	2010.62
589.36	2010.15
589.781	2000.42
590.202	1963.87
590.623	1953.68
591.043	1951.56
591.464	1936.01
591.885	1932.53
592.305	1925.68
592.726	1907.51
593.147	1911.43
593.567	1905.24
593.987	1895.81
594.408	1888.55
594.828	1888.34
595.248	1881.71
595.669	1857.8
596.089	1848.45
596.509	1839.8
596.929	1823.07
597.349	1824.51
597.769	1811.66
598.189	1805.64
598.608	1808.24
599.028	1811.89
599.448	1812.34
599.867	1796.8
600.287	1790.66
600.706	1786.15
601.126	1774.53
601.545	1774.08
601.965	1773.24
602.384	1765.84
602.803	1768.64
603.222	1762.38
603.641	1754.15
604.061	1749.19
604.48	1743.78
604.898	1754.83
605.317	1761.9
605.736	1764.29
606.155	1760.42
606.574	1749.02
606.992	1756.96
607.411	1751.27
607.829	1741.34
608.248	1736.84
608.666	1733.98
609.085	1733.31
609.503	1723.29
609.921	1715.19
610.339	1718.15
610.758	1717.86
611.176	1712.3
611.594	1699.93
612.012	1695.9
612.43	1700.84
612.847	1709.55
613.265	1711.79
613.683	1718.46
614.101	1720.4
614.518	1716.11
614.936	1704.03
615.353	1684.62
615.771	1680.7
616.188	1682
616.606	1677.85
617.023	1668.37
617.44	1650.53
617.857	1641.07
618.274	1629.73
618.691	1622.6
619.108	1611.42
619.525	1604.09
619.942	1613.07
620.359	1616.39
620.776	1611.19
621.192	1607.07
621.609	1604.85
622.026	1614.06
622.442	1621.67
622.859	1626.66
623.275	1617.8
623.691	1624.38
624.108	1639.46
624.524	1657.96
624.94	1659.3
625.356	1671.16
625.772	1688.4
626.188	1704.12
626.604	1704.47
627.02	1700.08
627.436	1697.77
627.852	1706.92
628.268	1722.93
628.683	1711.58
629.099	1701.16
629.514	1695.63
629.93	1701.59
630.345	1707.37
630.761	1702.56
631.176	1707.92
631.591	1699.76
632.007	1692.81
632.422	1690.65
632.837	1677.15
633.252	1673.72
633.667	1661.6
634.082	1649.5
634.497	1632.71
634.911	1607.47
635.326	1604.13
635.741	1582.91
636.155	1571.5
636.57	1573.88
636.984	1574.72
637.399	1576.08
637.813	1576.96
638.228	1576.89
638.642	1584.45
639.056	1573.32
639.47	1575.37
639.884	1565.27
640.298	1558.86
640.712	1558.94
641.126	1542.61
641.54	1531.92
641.954	1528.81
642.368	1514.93
642.781	1505.89
643.195	1483.52
643.609	1486.46
644.022	1480.39
644.436	1476.65
644.849	1463.06
645.262	1449.67
645.676	1454.79
646.089	1449.15
646.502	1429.83
646.915	1423.27
647.328	1400.92
647.741	1399.54
648.154	1382.48
648.567	1376.99
648.98	1359.66
649.393	1360.35
649.805	1355.38
650.218	1343.97
650.631	1323.75
651.043	1313.41
651.456	1304.75
651.868	1304.33
652.28	1326.37
652.693	1341.96
653.105	1352.12
653.517	1363.39
653.929	1361.22
654.341	1366.25
654.753	1349.09
655.165	1357.02
655.577	1355.3
655.989	1348.14
656.401	1338.12
656.813	1289.92
657.224	1262.79
657.636	1223.67
658.047	1198.83
658.459	1173.43
658.87	1161.8
659.282	1146.87
659.693	1119.01
660.104	1098.1
660.515	1080.26
660.926	1077
661.338	1072.25
661.749	1063.19
662.159	1050.17
662.57	1044.06
662.981	1037.44
663.392	1026.37
663.803	1030.38
664.213	1025.86
664.624	1018.5
665.035	1020.99
665.445	1003.31
665.855	992.73
666.266	982.29
666.676	978.12
667.086	965.41
667.497	961.86
667.907	953.06
668.317	939.63
668.727	932.33
669.137	932.51
669.547	927.41
669.956	928.6
670.366	930.15
670.776	930.57
671.186	935.78
671.595	940.12
672.005	944.2
672.414	943.25
672.824	941.14
673.233	947.73
673.642	949.2
674.052	953.14
674.461	954.23
674.87	958.97
675.279	954.61
675.688	954.78
676.097	953.84
676.506	949.16
676.915	966.69
677.323	968.82
677.732	965.98
678.141	965.87
678.549	953.41
678.958	953.01
679.366	951.91
679.775	959.62
680.183	972.83
680.592	982.48
681	989.66
681.408	981.08
681.816	990.93
682.224	1002.36
682.632	1015.07
683.04	1053.03
683.448	1083.86
683.856	1122.89
684.264	1167.58
684.671	1209.14
685.079	1257.61
685.487	1312.86
685.894	1391.68
686.302	1455.71
686.709	1505.99
687.116	1566.04
687.524	1611.68
687.931	1653.15
688.338	1685.54
688.745	1711.25
689.152	1742.83
689.559	1788.03
689.966	1833.78
690.373	1849.04
690.78	1890.16
691.187	1958.67
691.593	2007.61
692	2049.36
692.407	2113.74
692.813	2196.49
693.22	2258.07
693.626	2323.16
694.032	2373.35
694.439	2451.84
694.845	2512.35
695.251	2589.91
695.657	2659.01
696.063	2764.5
696.469	2841.16
696.875	2912.08
697.281	2946.2
697.687	2993.28
698.093	3029.82
698.498	3107.16
698.904	3166.79
699.31	3262.42
699.715	3326.9
700.12	3424.35
700.526	3439.56
700.931	3512.8
701.337	3565.77
701.742	3596.85
702.147	3688.73
702.552	3717.49
702.957	3783.6
703.362	3802.77
703.767	3830.69
704.172	3873.48
704.577	3815.3
704.981	3866.1
705.386	3882.29
705.791	3870.24
706.195	3953.15
706.6	3960.01
707.004	4047.9
707.408	4009.29
707.813	4036.43
708.217	4019.8
708.621	4019.37
709.025	4129.27
709.43	4127.8
709.834	4194.04
710.237	4269.34
710.641	4250.95
711.045	4274.64
711.449	4268.47
711.853	4299.86
712.256	4345.66
712.66	4385.13
713.064	4469.14
713.467	4514.35
713.87	4638.94
714.274	4689.63
714.677	4812.8
715.08	4993.67
715.484	5181.77
715.887	5406.3
716.29	5628.71
716.693	5862.99
717.096	6130.82
717.499	6276.01
717.901	6300.1
718.304	6329.12
718.707	6357.09
719.109	6240.24
719.512	6201.61
719.915	6046.95
720.317	5982.09
720.719	6030.62
721.122	5996.34
721.524	5938.56
721.926	5889.39
722.328	6000.25
722.731	5986
723.133	6010.82
723.535	6227.31
723.937	6250.12
724.338	6306.98
724.74	6349.65
725.142	6267.15
725.544	6262.54
725.945	6290.35
726.347	6286.96
726.748	6278.15
727.15	6292.76
727.551	6250.23
727.952	6218.55
728.354	6183.71
728.755	6181.55
729.156	6134.99
729.557	6131.15
729.958	5992.99
730.359	5933.56
730.76	5910.78
731.161	5842.63
731.562	5813.26
731.962	5816.7
732.363	5742.9
732.763	5672.34
733.164	5711.08
733.564	5634.47
733.965	5522.08
734.365	5482.57
734.766	5511.91
735.166	5467.19
735.566	5406.34
735.966	5379.36
736.366	5372.38
736.766	5300.69
737.166	5332.99
737.566	5288.26
737.966	5260.04
738.365	5306.33
738.765	5300.65
739.165	5215.97
739.564	5186.11
739.964	5236.55
740.363	5181.25
740.763	5177.93
741.162	5168.04
741.561	5133.82
741.96	5080.72
742.36	5101.87
742.759	5107.27
743.158	5151.26
743.557	5168.65
743.955	5215.98
744.354	5164.85
744.753	5232.75
745.152	5186
745.55	5245.74
745.949	5239.57
746.348	5242.78
746.746	5263.1
747.144	5218.55
747.543	5192.42
747.941	5246.41
748.339	5166.08
748.737	5156.11
749.136	5145.38
749.534	5218.32
749.932	5188.04
750.33	5210.88
750.727	5271.56
751.125	5243.27
751.523	5224.92
751.921	5273.91
752.318	5237.61
752.716	5302.88
753.113	5320.41
753.511	5348.24
753.908	5347.84
754.305	5329.04
754.703	5399.46
755.1	5466.41
755.497	5534.67
755.894	5744.69
756.291	5942.37
756.688	6305.63
757.085	6790.45
757.482	7469.3
757.878	8217.51
758.275	8893.66
758.672	9818.02
759.068	10576.3
759.465	11657.62
759.861	13050.06
760.258	14665.62
760.654	15496.74
761.05	15364.17
761.447	14662.96
761.843	13656.49
762.239	12602.58
762.635	12123.23
763.031	11674.53
763.427	11022.01
763.822	10332.17
764.218	9651.26
764.614	8769.74
765.01	8178.08
765.405	7802.16
765.801	7510.35
766.196	7139.34
766.592	6934.44
766.987	6589.08
767.382	6352.48
767.778	6251.48
768.173	6108.99
768.568	6027.88
768.963	5891.69
769.358	5912.67
769.753	5860.2
770.148	5768.12
770.542	5769.45
770.937	5733.88
771.332	5836.46
771.726	5859.7
772.121	5790.64
772.515	5850.55
772.91	5833.55
773.304	5911.09
773.699	5839.4
774.093	5897.22
774.487	5958.9
774.881	6004.13
775.275	6001.74
775.669	5956.04
776.063	6004.55
776.457	6045.02
776.851	5964.42
777.245	5956.74
777.638	5995.73
778.032	6123.92
778.425	6086.54
778.819	6134.04
779.212	6088.37
779.606	6044.23
779.999	6065.79
780.392	6050.2
780.786	6142.5
781.179	6167.03
781.572	6216.95
781.965	6229.54
782.358	6163.97
782.751	6226.7
783.143	6173.45
783.536	6255.52
783.929	6303.43
784.322	6431.17
784.714	6463.21
785.107	6456.19
785.499	6534.17
785.891	6505.41
786.284	6485.05
786.676	6645.17
787.068	6622.46
787.46	6680.54
787.852	6699.68
788.245	6794.28
788.636	6827.35
789.028	6898.71
789.42	6942.02
789.812	6950.33
790.204	7061.78
790.595	7170.34
790.987	6951.1
791.378	6976.59
791.77	7122.25
792.161	7272.54
792.553	7331.64
792.944	7208.52
793.335	7133.66
793.726	7214.69
794.117	7313.34
794.508	7459.86
794.899	7426.76
795.29	7579.87
795.681	7644.61
796.072	7484.25
796.463	7284.09
796.853	7294.14
797.244	7465.15
797.634	7501.37
798.025	7501.2
798.415	7518.56
798.806	7621.45
799.196	7714.78
799.586	7777.37
799.976	7733.97
800.366	7990.76
800.756	8256.91
801.146	8218.42
801.536	8254.16
801.926	8336.5
802.316	8368.53
802.706	8444.33
803.095	8307.98
803.485	8425.68
803.874	8467.53
804.264	8754.35
804.653	8724.3
805.043	8883.85
805.432	9001.58
805.821	9004.62
806.21	9035.36
806.599	9162.96
806.988	9220.4
807.377	9338.56
807.766	9480.39
808.155	9792.7
808.544	9503.92
808.933	9517.43
809.321	9494.44
809.71	9820.91
810.098	9992.33
810.487	10497.39
810.875	11031.56
811.264	11048.8
811.652	11368.8
812.04	11526.79
812.428	11704.7
812.816	12554.68
813.204	13019.4
813.592	13629.31
813.98	14005.29
814.368	13903.17
814.756	14432.48
815.144	14347.31
815.531	14860.18
815.919	14782.8
816.306	15128.23
816.694	14794.69
817.081	14845.17
817.469	15228.92
817.856	15222.06
818.243	15519.73
818.63	15961.4
819.017	15501.73
819.404	15570.84
819.791	15999.94
820.178	16681.36
820.565	16955.89
820.952	17987.35
821.339	17444.96
821.725	17648.21
822.112	16833.32
822.498	16793.81
822.885	16935.92
823.271	16829.87
823.657	17292.7
824.044	17293.56
824.43	17369.76
824.816	17327.24
825.202	16846.61
825.588	17968.1
825.974	17994.22
826.36	18565.02
826.746	18596.79
827.132	18981.52
827.517	18954.05
827.903	18085.95
828.289	18132.36
828.674	17277.09
829.06	17168.47
829.445	17601.15
829.83	18000.61
830.216	18526.84
830.601	18933.1
830.986	18476.33
831.371	18340.79
831.756	18965.57
832.141	18488.85
832.526	18482.3
832.911	18796.68
833.295	18667.01
833.68	19187.38
834.065	18498.44
834.449	17488.99
834.834	17408.83
835.218	17414.39
835.603	17776.3
835.987	17532.41
836.371	18448.54
836.755	18333.87
837.139	18776.87
837.524	19048.91
837.908	18854.63
838.291	18923.4
838.675	18998.67
839.059	19220.94
839.443	19205.99
839.827	18952.8
840.21	19484.46
840.594	19325.23
840.977	19553.32
841.361	19522.01
841.744	19930.65
842.127	19753.96
842.511	20021.22
842.894	20676.2
843.277	21100.61
843.66	21691.17
844.043	21794.19
844.426	20910.35
844.809	20569.84
845.191	20609.16
845.574	20104.23
845.957	19703.88
846.339	19596.19
846.722	19019.51
847.104	19100.1
847.487	18903.62
847.869	18928.3
848.252	19218.7
848.634	19580.81
849.016	19879.87
849.398	20020.17
849.78	20973.12
850.162	20977.53
850.544	21426.99
850.926	22120.1
851.307	22018.33
851.689	22340.68
852.071	22834.34
852.452	23218.43
852.834	23196.99
853.215	23616.3
853.597	23787.39
853.978	24100.52
854.359	24613.45
854.741	23526.35
855.122	23425.88
855.503	23102.37
855.884	23238.71
856.265	23170.95
856.646	23292.94
857.026	22857.84
857.407	22798.15
857.788	22965.54
858.169	23283.06
858.549	22332.21
858.93	23005.84
859.31	23051.6
859.69	23290.92
860.071	22857.89
860.451	22611.07
860.831	21786.17
861.211	23075.05
861.591	23682.74
861.971	23658.86
862.351	23872.33
862.731	24300.69
863.111	24603
863.491	24975.33
863.87	25933.59
864.25	26319.43
864.629	25890.24
865.009	26460.41
865.388	27394.28
865.768	29351.1
866.147	29232.94
866.526	27612.06
866.905	27950.31
867.284	29513.64
867.663	28028.4
868.042	26862.63
868.421	26762.06
868.8	27198.79
869.179	27471.13
869.558	25870.29
869.936	23833.42
870.315	24256.94
870.693	24846.41
871.072	26793.33
871.45	25528.06
871.828	25842.73
872.207	27167.08
872.585	26772.93
872.963	27511.51
873.341	26551.74
873.719	26240.53
874.097	25939.65
874.475	26436.9
874.853	27046.59
875.23	25925.01
875.608	27004.4
875.986	29205.95
876.363	27943.55
876.741	28790.33
877.118	28064.59
877.495	29457.47
877.873	29934.95
878.25	31492.5
878.627	30202.07
879.004	30626.53
879.381	30469.05
879.758	29655.83
880.135	27607.83
880.512	29196.12
880.889	28402.64
881.265	28102.32
881.642	27857.31
882.019	28339.68
882.395	27760.29
882.772	28859.97
883.148	27611.56
883.524	27512.79
883.901	27357.64
884.277	27764.49
884.653	27564.08
885.029	28370.29
885.405	31413.05
885.781	31172.25
886.157	29876.46
886.532	30238.24
886.908	30224.31
887.284	33599.93
887.659	34681.3
888.035	35764.38
888.411	36696.45
888.786	37199.39
889.161	38493.06
889.537	37791.15
889.912	39001.39
890.287	38975.28
890.662	39999.28
891.037	39280.6
891.412	36627.37
891.787	36264.34
892.162	35014.63
892.536	35852.37
892.911	34510.11
893.286	33784.23
893.66	32407.18
894.035	33238.8
894.409	36199.66
894.784	34726.77
895.158	35303.33
895.532	37394.03
895.906	38416.14
896.281	39304.27
896.655	38645.21
897.029	44147.15
897.402	45962.1
897.776	51184.11
898.15	50998.44
898.524	50438.27
898.898	51122.06
899.271	57246.33
899.645	49583.81
900.018	47633.59
900.392	49396.08
900.765	49802.33
901.138	46096.12
901.511	45405.54
901.884	41701.37
902.258	38468.61
902.631	39742.3
903.003	45751.38
903.376	41253.29
903.749	46259.8
904.122	49528.71
904.495	54539.68
904.867	55239.67
905.24	47967.51
905.612	44649.78
905.985	45657.83
906.357	47748.6
906.729	45582.2
907.102	38928.47
907.474	37454.89
907.846	37681.2
908.218	37171.69
908.59	32848.72
908.962	31767.95
909.334	34197.88
909.705	35926.74
910.077	34857.32
910.449	36265.24
910.82	37266.26
911.192	40985.02
911.563	42583.08
911.935	45575.67
912.306	45610.22
912.677	47091.35
913.048	46616.15
913.419	50577.65
913.79	50842.85
914.161	54560.85
914.532	52141.84
914.903	47911.64
915.274	45525.25
915.645	44849.44
916.015	39458.37
916.386	37631.58
916.756	40028.35
917.127	41274.04
917.497	36863.44
917.868	40122.11
918.238	38090.92
918.608	39190.19
918.978	40018.26
919.348	42358.25
919.718	43767.13
920.088	42164.35
920.458	43800.29
920.828	46117.36
921.198	43708.08
921.567	46715.67
921.937	36163.35
922.306	36517.2
922.676	39386.66
923.045	32833.39
923.415	31179.96
923.784	28384.4
924.153	29179.88
924.522	29152.47
924.891	27397.08
925.26	29357.01
925.629	28657.01
925.998	32947.15
926.367	32167.36
926.736	30620.96
927.104	36473.75
927.473	39216.07
927.842	47367.11
928.21	46911.46
928.578	49286.4
928.947	46619.77
929.315	46906.22
929.683	55016.16
930.051	55440.52
930.42	64365.43
930.788	54986.69
931.156	54571.13
931.523	51151.57
931.891	47237.67
932.259	45384.47
932.627	52607.98
932.994	74440.04
933.362	61519.71
933.729	53400.69
934.097	51123.73
934.464	43266.63
934.831	49975.49
935.199	49283.31
935.566	47794.77
935.933	48502.95
936.3	58712.12
936.667	45713.92
937.034	41226.26
937.401	40773.9
937.767	35197.68
938.134	31344.95
938.501	44157.38
938.867	47052.37
939.234	79569.65
939.6	67907.37
939.967	74722.74
940.333	50018.17
940.699	42609.24
941.065	34180.51
941.431	44798.15
941.798	43201.91
942.163	56736.83
942.529	35503.63
942.895	32679.52
943.261	21126.99
943.627	27720.97
943.992	24280.96
944.358	24357.88
944.723	24447.79
945.089	23816.37
945.454	21996.29
945.82	23470.55
946.185	22551.23
946.55	26148.24
946.915	23475.97
947.28	27572.59
947.645	24295
948.01	22426.34
948.375	23365.19
948.74	27981.25
949.104	32663.01
949.469	47204.69
949.834	83379.77
950.198	79049.66
950.562	47351.36
950.927	39434.77
951.291	47407.82
951.655	40333.81
952.02	37851.57
952.384	28615.9
952.748	24915.59
953.112	24280.43
953.476	21113.02
953.839	19520.7
954.203	19312.88
954.567	24154.42
954.931	37996.43
955.294	32510.07
955.658	32692.37
956.021	55592.76
956.385	94267.59
956.748	139013.68
957.111	215508
957.474	241917.19
957.837	272509.71
958.2	206155.81
958.563	74079.44
958.926	50074.04
959.289	75871.5
959.652	84741.22
960.015	63617.56
960.377	91250.71
960.74	104218.39
961.102	179791.26
961.465	193017.03
961.827	103348.78
962.189	198300.91
962.552	137427.74
962.914	110207.08
963.276	71665.15
963.638	59275.35
964	58699.78
964.362	39696.24
964.724	38375.91
965.085	27422.8
965.447	22497.69
965.809	25656.22
966.17	25683.87
966.532	27805.32
966.893	25515.51
967.255	23211.07
967.616	27404.56
967.977	21931.99
968.338	23961.23
968.699	19678.78
969.061	19657.28
969.421	19774.9
969.782	22176.28
970.143	18728.42
970.504	19403.23
970.865	22055.34
971.225	22504.81
971.586	22009.8
971.946	31348.25
972.307	27209.47
972.667	35551
973.027	36589.28
973.388	44345.71
973.748	30159.3
974.108	32868.72
974.468	44435.04
974.828	34236.19
975.188	26380.16
975.548	24236.06
975.907	20345.67
976.267	22785.38
976.627	19161.66
976.986	19857.11
977.346	18928.37
977.705	18204.36
978.064	16554.89
978.424	13781.36
978.783	14265.77
979.142	16280.76
979.501	15572.71
979.86	16469.45
980.219	15878.16
980.578	20469.53
980.937	22959.46
981.296	20465.64
981.654	21055.49
982.013	32785.05
982.371	42507.66
982.73	39700.68
983.088	44954.77
983.447	47974.59
983.805	68574.34
984.163	143246.33
984.521	158847.22
984.879	232574.24
985.237	-378366.41
985.595	364687.64
985.953	90622.21
986.311	52413.85
986.669	30396.79
987.026	26235.68
987.384	35253.58
987.741	36460.26
988.099	26058.05
988.456	20754.77
988.814	19445.47
989.171	16904.61
989.528	16689.05
989.885	17623.25
990.242	13928.11
990.599	17353.41
990.956	14185.1
991.313	9928.56
991.67	8145.54
992.027	8631.4
992.383	7681.61
992.74	6730.79
993.096	7067.11
993.453	7334.38
993.809	7602.53
994.165	10142.26
994.522	9288.75
994.878	10242.88
995.234	12860.24
995.59	12663.23
995.946	12014.04
996.302	13699.58
996.658	15861.17
997.013	17442.24
997.369	20640.48
997.725	26467.3
998.08	17153.65
998.436	26491.15
998.791	36566.42
999.147	36529.71
999.502	39943.05
999.857	28971.2
1000.212	47267.58
1000.567	67285.76
1000.922	38851.87
1001.277	24739.1
1001.632	18316
1001.987	23568.96
1002.342	16899.46
1002.696	13513.09
1003.051	10758.67
1003.406	13029.88
1003.76	12998.41
1004.114	12800.95
1004.469	10763.89
1004.823	8916.42
1005.177	9614.54
1005.531	7627.8
1005.885	6752.94
1006.239	7610.37
1006.593	9531.97
1006.947	12778.82
1007.301	9592.87
1007.655	10433.27
1008.008	7659.75
1008.362	8600.27
1008.715	12290.53
1009.069	11156.14
1009.422	16772.97
1009.776	33725.34
1010.129	22418.92
1010.482	18746.31
1010.835	15824.35
1011.188	32973.02
1011.541	31115.93
1011.894	-190718.42
1012.247	561276.35
1012.6	38047.92
1012.952	23988.52
1013.305	12367.43
1013.657	8924.89
1014.01	8455.94
1014.362	6978.24
1014.715	6196.93
1015.067	5386.93
1015.419	5268.92
1015.771	4661.19
1016.123	4143.64
1016.475	4262.32
1016.827	4553.92
1017.179	4897.8
1017.531	4941.24
1017.883	5036
1018.234	4855.81
1018.586	6148.58
1018.938	6512.17
1019.289	8962.22
1019.64	10271.13
1019.992	9550.61
1020.343	8756.87
1020.694	6886.8
1021.045	6068.59
1021.396	6925.05
1021.747	7438.27
1022.098	8929.83
1022.449	6476.23
1022.8	6013.86
1023.151	4191.05
1023.501	3697.36
1023.852	4031.41
1024.202	4180.31
1024.553	4614.81
1024.903	4518.4
1025.253	3865.43
1025.604	3477.54
1025.954	4303.7
1026.304	5220.44
1026.654	6067.36
1027.004	8893.74
1027.354	14472.4
1027.703	13702.42
1028.053	18014.18
1028.403	26087.4
1028.753	37789.21
1029.102	51116.92
1029.452	262135.07
1029.801	11318.46
1030.15	7334.06
1030.499	6224.19
897.758	2745.12
901.051	2706.59
904.343	2742.63
907.636	2742.45
910.928	2807.6
914.22	2713.77
917.511	2721.06
920.803	2790.62
924.094	2811.3
927.384	2787.37
930.675	2751.86
933.965	2703
937.255	2713.15
940.544	2680.46
943.834	2609.9
947.123	2555.68
950.411	2654.76
953.7	2627.11
956.988	2590.11
960.276	2532.36
963.563	2618.95
966.851	2612.17
970.138	2674.78
973.424	2661.46
976.711	2612.13
979.997	2758.8
983.283	2790.77
986.568	2692.23
989.853	2713.88
993.138	2740.5
996.423	2822.16
999.708	2755.99
1002.992	2830.48
1006.275	2650.84
1009.559	2704.05
1012.842	2818.78
1016.125	2750.99
1019.408	2731.04
1022.69	2823.01
1025.972	2838.65
1029.254	2814.63
1032.536	2741.85
1035.817	2772.73
1039.098	2706.36
1042.379	2868.73
1045.659	2862.32
1048.939	2794.01
1052.219	2814.8
1055.498	2830.09
1058.778	2812.22
1062.057	2798.1
1065.335	2818.97
1068.614	2838.73
1071.892	2817.82
1075.17	2899.21
1078.447	2886.74
1081.724	2876.44
1085.001	2914.82
1088.278	2887.07
1091.554	2902.71
1094.83	2899.29
1098.106	2926.55
1101.382	2974.4
1104.657	2977
1107.932	2970.15
1111.206	2934.35
1114.481	2889.38
1117.755	2895.08
1121.029	2874.1
1124.302	2928.55
1127.575	2873.49
1130.848	2860.64
1134.121	2818.44
1137.393	2766.56
1140.665	2834.13
1143.937	2810.85
1147.208	2770.53
1150.48	2807.11
1153.75	2791.47
1157.021	2827.38
1160.291	2796.14
1163.561	2839.18
1166.831	2832.47
1170.101	2867.31
1173.37	2842.66
1176.639	2785.38
1179.907	2848.05
1183.176	2852.6
1186.444	2862.55
1189.711	2890.95
1192.979	2902.08
1196.246	2857.59
1199.513	2878.38
1202.78	2874.9
1206.046	2884.37
1209.312	2906.72
1212.578	2933.63
1215.843	2879.57
1219.108	2859.12
1222.373	2882.21
1225.638	2843.69
1228.902	2824.73
1232.166	2789.5
1235.43	2770.47
1238.693	2795.29
1241.956	2792.33
1245.219	2832.85
1248.482	2825.61
1251.744	2822.14
1255.006	2973.48
1258.268	2925.86
1261.529	2867.4
1264.79	2877.27
1268.051	2983.44
1271.312	3002.38
1274.572	2961.35
1277.832	2951.94
1281.092	2946.03
1284.351	2915.41
1287.61	2893.77
1290.869	2801.71
1294.128	2777.61
1297.386	2874.98
1300.644	2861.77
1303.902	2873.7
1307.159	2728.3
1310.416	2786.31
1313.673	2807.94
1316.93	2791.06
1320.186	2839.72
1323.442	2884.22
1326.697	2873.54
1329.953	2866.45
1333.208	2885.46
1336.463	2868.48
1339.717	2803.92
1342.972	2945.01
1346.226	2922.31
1349.479	2851.92
1352.733	2819.84
1355.986	2848.97
1359.238	2823.45
1362.491	2822.57
1365.743	2829.5
1368.995	2824.22
1372.247	2834.04
1375.498	2862.21
1378.749	2871.55
1382	2827.19
1385.251	2885.66
1388.501	2845.12
1391.751	2824.13
1395	2794.89
1398.25	2832.47
1401.499	2835.66
1404.748	2759.16
1407.996	2754.38
1411.244	2736.32
1414.492	2715.75
1417.74	2692.25
1420.987	2700.71
1424.234	2759.63
1427.481	2740.68
1430.728	2801.82
1433.974	2773.16
1437.22	2789.73
1440.465	2795.71
1443.711	2750.77
1446.956	2788.75
1450.201	2780.02
1453.445	2824.02
1456.689	2801.39
1459.933	2815.8
1463.177	2848.83
1466.42	2820.33
1469.663	2798.51
1472.906	2789.75
1476.148	2871.3
1479.391	2823.82
1482.633	2796.15
1485.874	2806.16
1489.115	2789.63
1492.356	2801.31
1495.597	2775.12
1498.838	2777.86
1502.078	2742.31
1505.318	2690.3
1508.557	2735.56
1511.797	2705.29
1515.036	2787.04
1518.274	2778.11
1521.513	2749.42
1524.751	2774.32
1527.989	2784.71
1531.227	2797.17
1534.464	2788.54
1537.701	2816.31
1540.938	2836.53
1544.174	2789.01
1547.41	2788.36
1550.646	2830.38
1553.882	2863.86
1557.117	2921.59
1560.352	2938.19
1563.587	2891.94
1566.821	2850.51
1570.055	2889.68
1573.289	2857.7
1576.523	2937.45
1579.756	2943.8
1582.989	2963.41
1586.222	2922.41
1589.454	2961.28
1592.686	2931.67
1595.918	2954.86
1599.15	2944.39
1602.381	3026.89
1605.612	2975.66
1608.843	3076.41
1612.073	2986.18
1615.303	2968.76
1618.533	2956.67
1621.762	2959.45
1624.992	2947.9
1628.221	2932.11
1631.449	2918.7
1634.678	2983.05
1637.906	2930.22
1641.134	2974.86
1644.361	2925.34
1647.588	2914.66
1650.815	2931.3
1654.042	2914.76
1657.269	2944.63
1660.495	2895.14
1663.72	2906.91
1666.946	2868.85
1670.171	2802.5
1673.396	2781.08
1676.621	2770.75
1679.845	2795.17
1683.069	2817.74
1686.293	2864.03
1689.517	2829.94
1692.74	2756.96
1695.963	2786.79
1699.185	2809.89
1702.408	2788.12
1705.63	2831.45
1708.852	2842.52
1712.073	2814.03
1715.294	2795.25
1718.515	2858.41
1721.736	2801.63
1724.956	2795.88
1728.176	2822.34
1731.396	2846.15
1734.616	2836.86
1737.835	2859.02
1741.054	2844.88
1744.272	2835.97
1747.491	2865.12
1750.709	2925.56
1753.927	2821.9
1757.144	2868.95
1760.361	2911.36
1763.578	2906.65
1766.795	2842.83
1770.011	2853.15
1773.227	2899.6
1776.443	2930.35
1779.658	2975
1782.874	2916.88
1786.089	2893.66
1789.303	2896.75
1792.518	2905.57
1795.732	2892.44
1798.945	2898.74
1802.159	2955.3
1805.372	2846.9
1808.585	2828.47
1811.797	2830.88
1815.01	2885.84
1818.222	2885.01
1821.434	2844.14
1824.645	2906.69
1827.856	2885.99
1831.067	2920.65
1834.278	2884.69
1837.488	2863.54
1840.698	3021.43
1843.908	2941.7
1847.117	2903.72
1850.326	2778.81
1853.535	2888.33
1856.744	2926.15
1859.952	2837.87
1863.16	2840.01
1866.368	2861.8
1869.575	2965.56
1872.782	2850.37
1875.989	2788.73
1879.196	2878.14
1882.402	2870.11
1885.608	2912.65
1888.814	2810.92
1892.019	2701.99
1895.224	2755.1
1898.429	2736.9
1901.634	2715.59
1904.838	2692.51
1908.042	2742.75
1911.246	2748.68
1914.449	2675.37
1917.652	2675.97
1920.855	2658.15
1924.058	2710.82
1927.26	2745.84
1930.462	2777
1933.664	2803.1
1936.865	2739.96
1940.066	2745.83
1943.267	2693.49
1946.467	2710.6
1949.668	2738.13
1952.868	2804.74
1956.067	2780.67
1959.267	2711.95
1962.466	2741.23
1965.665	2724.26
1968.863	2718.18
1972.061	2735.87
1975.259	2734.68
1978.457	2812.73
1981.654	2769.92
1984.852	2770.49
1988.048	2697.91
1991.245	2705
1994.441	2791.31
1997.637	2779.6
2000.833	2763.79
2004.028	2802.12
2007.223	2858.56
2010.418	2832.24
2013.613	2795.58
2016.807	2761.92
2020.001	2774.39
2023.194	2820.69
2026.388	2795.02
2029.581	2738.38
2032.774	2787.15
2035.966	2788.84
2039.158	2720.97
2042.35	2745.42
2045.542	2674.92
2048.733	2778.77
2051.924	2808.23
2055.115	2836.3
2058.306	2777.26
2061.496	2840.37
2064.686	2905.18
2067.875	2818.29
2071.065	2838.44
2074.254	2865.63
2077.442	2814.75
2080.631	2907.89
2083.819	2792.07
2087.007	2770.53
2090.195	2739.62
2093.382	2777.27
2096.569	2753.43
2099.756	2706.49
2102.942	2727.71
2106.128	2725.67
2109.314	2721.82
2112.5	2683.83
2115.685	2659.94
2118.87	2670.27
2122.055	2737.91
2125.239	2701.93
2128.424	2674.39
2131.608	2783.83
2134.791	2768.11
2137.974	2831.27
2141.157	2816.84
2144.34	2762.15
2147.523	2784.69
2150.705	2796.03
2153.887	2778.46
2157.068	2722.72
2160.25	2727.04
2163.431	2769.54
2166.611	2713.76
2169.792	2723.41
2172.972	2613.43
2176.152	2698.55
2179.331	2736.37
2182.511	2711.11
2185.69	2742.25
2188.868	2731.74
2192.047	2793.88
2195.225	2779.03
2198.403	2727.19
2201.58	2717.4
2204.758	2720.23
2207.935	2803.86
2211.111	2686.69
2214.288	2667.57
2217.464	2706.14
2220.64	2684.13
2223.815	2742.86
2226.991	2656.19
2230.166	2677.98
2233.34	2704.98
2236.515	2735.54
2239.689	2808.93
2242.863	2750.76
2246.036	2808.48
2249.209	2812.49
2252.382	2852.91
2255.555	2831.78
2258.727	2767.24
2261.9	2813.44
2265.071	2803.52
2268.243	2807.03
2271.414	2734.26
2274.585	2691.71
2277.756	2761.76
2280.926	2717.96
2284.096	2762
2287.266	2663.59
2290.436	2722.57
2293.605	2751.8
2296.774	2778.57
2299.942	2803.47
2303.111	2819.18
2306.279	2867.01
2309.447	2854.97
2312.614	2831.38
2315.781	2846.47
2318.948	2817.23
2322.115	2855.56
2325.281	2757.01
2328.447	2778.99
2331.613	2756.09
2334.779	2725.72
2337.944	2732.94
2341.109	2729.1
2344.274	2709.18
2347.438	2674.26
2350.602	2704.38
2353.766	2717.3
2356.929	2703.49
2360.092	2748.22
2363.255	2697.73
2366.418	2625.17
2369.58	2746.33
2372.742	2514.5
2375.904	2532.55
2379.066	2506.12
2382.227	2543.21
2385.388	2506.07
2388.548	2427.82
2391.709	2486.22
2394.869	2460.36
2398.029	2566.24
2401.188	2586.11
2404.347	2512.2
2407.506	2666.07
2410.665	2697.06
2413.823	2705.51
2416.981	2658.47
2420.139	2693.26
2423.296	2747.13
2426.453	2718.05
2429.61	2744.99
2432.767	2673.45
2435.923	2706.75
2439.079	2672.18
2442.235	2725.23
2445.391	2646.79
2448.546	2675.1
2451.701	2728.53
2454.855	2693.43
2458.009	2749.82
2461.163	2754.39
2464.317	2709.61
2467.471	2743.18
2470.624	2787.31
2473.777	2755.27
2476.929	2766.86
2480.082	2791.06
2483.234	2753.86
2486.385	2708.39
2489.537	2701.02
2492.688	2655.89
2495.839	2675.17
2498.989	2685.07
2502.14	2667.42
2505.29	2647.2
2508.439	2677.15
2511.589	2595.33
2514.738	2611.45
2517.887	2644.69
2521.035	2706.35
2524.183	2694.74
2527.331	2674.12
2530.479	2643.45
2533.627	2655.43
