Data from N_2_DEC_ON_6N_Splice17_12-14-55-092.txt Node
Date: Sat Mar 14 12:14:55 EDT 2020
User: sa697716
Spectrometer: FLMS03696
Trigger mode: 0
Integration Time (sec): 3.180400E-1
Scans to average: 20
Electric dark correction enabled: true
Nonlinearity correction enabled: true
Boxcar width: 5
XAxis mode: Wavelengths
Number of Pixels in Spectrum: 2048
>>>>>Begin Spectral Data<<<<<
187.83	-282520.44
188.298	2113.56
188.766	1211.52
189.233	1001.97
189.701	1425.94
190.169	1834.03
190.636	635.85
191.104	479.6
191.571	63.1
192.039	-80.83
192.506	-111.22
192.974	342.77
193.441	-477.97
193.908	35.83
194.375	-26.72
194.842	39.36
195.31	67.59
195.777	136.1
196.244	317.8
196.711	420.86
197.177	517.55
197.644	706.43
198.111	1241.42
198.578	1722.96
199.045	1384.84
199.511	2238.6
199.978	2598.76
200.445	2195.78
200.911	2420.18
201.378	2721.35
201.844	2466.87
202.31	4236.01
202.777	4440.73
203.243	2468.75
203.709	2367.34
204.176	2825.19
204.642	2350.97
205.108	2217.88
205.574	1821.72
206.04	1663.14
206.506	1555.27
206.972	1454.57
207.438	1417.95
207.903	1629.03
208.369	1445.44
208.835	1453.28
209.301	1538.24
209.766	1584.55
210.232	1570.11
210.697	1951.49
211.163	2425.85
211.628	3689.57
212.094	3145.48
212.559	3859.85
213.024	2427.91
213.49	2966.75
213.955	2924.2
214.42	2883.56
214.885	2714.63
215.35	2654.29
215.815	2598.4
216.28	2804.7
216.745	2350.17
217.21	2620.21
217.675	2500.31
218.14	2916.49
218.604	3411.32
219.069	4057.86
219.534	4388.45
219.998	5267.87
220.463	6562.99
220.927	8335.26
221.392	8033.3
221.856	8276.06
222.32	10637.85
222.785	13299.85
223.249	16956.32
223.713	19072.5
224.177	19185.8
224.642	24837.41
225.106	30783.88
225.57	33850.14
226.034	25242.65
226.497	38543.22
226.961	34857.52
227.425	40621.56
227.889	45225.31
228.353	45294.05
228.816	93864.86
229.28	89981.82
229.744	76127.47
230.207	46281.12
230.671	45584.45
231.134	75607.18
231.597	87329.43
232.061	87587.01
232.524	85649.06
232.987	59140.31
233.45	53344.57
233.914	47927.93
234.377	49300.72
234.84	45152.28
235.303	53422.78
235.766	59695.78
236.229	61840.91
236.691	39036.67
237.154	43994.22
237.617	33138.06
238.08	33987.51
238.542	39887.86
239.005	28553.32
239.468	28375.43
239.93	26799.93
240.393	24365.52
240.855	21429.36
241.317	21994.94
241.78	26839.08
242.242	27762.55
242.704	29992.89
243.166	26145.69
243.629	23727.39
244.091	27390.35
244.553	30051.04
245.015	32346.34
245.477	41953.79
245.939	61636.03
246.4	65522.44
246.862	63715.21
247.324	60108.05
247.786	67442.12
248.247	88645.72
248.709	91842.62
249.17	68767.64
249.632	64790.05
250.093	75135.55
250.555	64947.21
251.016	39611.59
251.477	37595.87
251.939	40631.82
252.4	42727.71
252.861	50830.17
253.322	47265.86
253.783	56245.68
254.244	72955.34
254.705	57578.52
255.166	51254.23
255.627	50482.84
256.088	71152.81
256.549	75530.87
257.009	65028.6
257.47	78841.74
257.931	64247.58
258.391	48125.18
258.852	49646.72
259.312	52120.82
259.773	64422.82
260.233	54417.48
260.694	45893.52
261.154	52126.6
261.614	41830.3
262.074	37431.54
262.534	38880.55
262.994	36646.15
263.455	48839.98
263.915	41123.21
264.374	38758
264.834	42347.22
265.294	47000.62
265.754	48719.37
266.214	46136.7
266.673	43263.27
267.133	54621.36
267.593	54257.72
268.052	66378.73
268.512	57773.73
268.971	69643.71
269.431	76348.29
269.89	68325.89
270.349	102375.63
270.809	114055.63
271.268	102548.22
271.727	229972.57
272.186	148901.76
272.645	111659.62
273.104	80669.11
273.563	116881.65
274.022	92082.15
274.481	78300.17
274.94	60340.4
275.399	44871.74
275.857	52317.37
276.316	70762.97
276.775	62996.19
277.233	62077.38
277.692	58086.27
278.15	65705.81
278.609	67497.8
279.067	62417.32
279.525	57956.8
279.984	74852.54
280.442	89961.16
280.9	88549.95
281.358	58311.24
281.816	54341.23
282.274	53214.67
282.732	55053.37
283.19	55287.55
283.648	47785.31
284.106	50934.62
284.564	51840.54
285.021	48096.72
285.479	35852.72
285.937	32668.47
286.394	28632.77
286.852	29524.58
287.309	31050.37
287.767	29969.01
288.224	28550.28
288.682	31352.22
289.139	34442.26
289.596	31556.27
290.053	32877.87
290.511	41602.61
290.968	50545.01
291.425	68862.31
291.882	57334.33
292.339	49994.49
292.796	49778.08
293.252	46994.41
293.709	37352.02
294.166	33555
294.623	37168.58
295.079	35737.67
295.536	35909.13
295.992	32639.06
296.449	32307.46
296.905	33619.39
297.362	32246.81
297.818	33976.98
298.274	35277.67
298.731	36050.03
299.187	35727.62
299.643	38412.09
300.099	46496.19
300.555	51106.92
301.011	42811.12
301.467	41254.17
301.923	48424.79
302.379	47398.07
302.835	46621.86
303.291	46737.59
303.746	53275.63
304.202	67413.13
304.658	67781.55
305.113	45660.21
305.569	44761.63
306.024	47733.99
306.479	45576.05
306.935	38413.81
307.39	42012.79
307.845	38794.93
308.301	39048.95
308.756	38097.21
309.211	36720.88
309.666	37629.53
310.121	46692.94
310.576	47506.75
311.031	47227.82
311.486	54132.42
311.94	54212.8
312.395	72582.73
312.85	136745.06
313.305	673868.36
313.759	3484493.72
314.214	252639.26
314.668	200543.06
315.123	168733.7
315.577	60494.62
316.032	53852.78
316.486	67598.03
316.94	53335.11
317.394	37162.25
317.849	28911.44
318.303	27413.34
318.757	25906.73
319.211	28674.32
319.665	25162.04
320.119	25527.69
320.572	36711.72
321.026	34294.49
321.48	28586.31
321.934	31272.59
322.387	31374.79
322.841	33882.97
323.295	30403.82
323.748	35123.24
324.202	35657.14
324.655	42832.74
325.108	59820.66
325.562	42228.77
326.015	50260.3
326.468	37997.82
326.921	42457.25
327.374	39595.15
327.827	41237.71
328.28	46781.63
328.733	31322.07
329.186	27568.43
329.639	26250.45
330.092	22168.43
330.545	21102.3
330.997	21297.71
331.45	23221.89
331.903	27191.74
332.355	46844.91
332.808	45551.51
333.26	37585.64
333.713	40789.04
334.165	41079.38
334.617	54916.9
335.069	44367.53
335.522	80348.1
335.974	88867.14
336.426	81365.07
336.878	56485.78
337.33	28605.95
337.782	27943.93
338.234	34933.57
338.686	41863.73
339.137	49647.79
339.589	46751.57
340.041	36647.33
340.493	31541.62
340.944	32344.31
341.396	34880.66
341.847	29290.37
342.299	34552.61
342.75	42195.23
343.201	36995.62
343.653	42547.17
344.104	52375.36
344.555	41299.97
345.006	64492.12
345.457	49340.49
345.908	39335.43
346.359	37002.31
346.81	30225.96
347.261	31957.96
347.712	31551.86
348.163	33876.35
348.613	34308.06
349.064	32086.53
349.515	28118.71
349.965	28829.14
350.416	34777.54
350.866	38117.91
351.317	43227.88
351.767	71610.06
352.217	90595.74
352.668	75220.73
353.118	68991.62
353.568	66707.91
354.018	52734.05
354.468	55663.39
354.918	39936.42
355.368	34945.36
355.818	49480.2
356.268	142528.59
356.718	596990.13
357.168	148639.91
357.617	74773.34
358.067	83335.36
358.517	78194.11
358.966	91752.13
359.416	102864.94
359.865	111421.1
360.315	133254.2
360.764	62278.49
361.213	34884.32
361.663	33112.75
362.112	40927.58
362.561	66167.68
363.01	49966.25
363.459	42115.13
363.908	45628.13
364.357	38764.32
364.806	65637.85
365.255	45145.82
365.703	41364.11
366.152	41512.28
366.601	33688.98
367.05	27360.72
367.498	24849.61
367.947	25984.62
368.395	27059.03
368.844	23968.3
369.292	29006.97
369.74	20020.82
370.189	30677.83
370.637	35982.05
371.085	31103.78
371.533	37909.88
371.981	36663.62
372.429	34926.52
372.877	36455.87
373.325	30531.16
373.773	31217.49
374.221	27833.39
374.669	34594.59
375.116	29965.64
375.564	30297.74
376.012	33942.64
376.459	28051.76
376.907	33537.39
377.354	40725.49
377.801	37985.34
378.249	43652.44
378.696	55850.88
379.143	67653.74
379.591	72307.75
380.038	122344.39
380.485	88333.23
380.932	95274.44
381.379	87018.95
381.826	64025.86
382.273	45514.08
382.72	39860.53
383.166	38878.72
383.613	25224.06
384.06	22780.23
384.506	26361.86
384.953	19398.6
385.4	19567.83
385.846	17172.01
386.292	16784.43
386.739	16444.43
387.185	16276.51
387.631	16267.81
388.078	15754.48
388.524	16844.3
388.97	15547.73
389.416	12941.46
389.862	13757.22
390.308	13030.09
390.754	13227.8
391.2	14358
391.645	14712.31
392.091	14016.31
392.537	13531.1
392.983	13588.13
393.428	13339.56
393.874	14293.96
394.319	14355.85
394.765	13567.05
395.21	13947.07
395.655	13070.88
396.101	12227.21
396.546	11021.94
396.991	11147.68
397.436	10370.51
397.881	10012.7
398.326	9500.84
398.771	8970.38
399.216	7830.81
399.661	7059.07
400.106	7021.68
400.551	7169.73
400.995	6421.24
401.44	6343.93
401.885	5956.17
402.329	6007.78
402.774	5758.8
403.218	5550.23
403.663	5344.8
404.107	5487.77
404.551	5515.05
404.995	5052.21
405.44	4872.83
405.884	4949.79
406.328	4794.82
406.772	4779.7
407.216	4346.45
407.66	4198.19
408.104	3996.39
408.547	3741.93
408.991	3618.92
409.435	3485.25
409.879	3433.68
410.322	3385.61
410.766	3259.03
411.209	3092.09
411.653	2965.13
412.096	2897.66
412.54	2898.92
412.983	2875.88
413.426	2876.53
413.869	2873.6
414.312	2813.2
414.756	2708.3
415.199	2580.18
415.642	2505.05
416.085	2502.78
416.527	2484.02
416.97	2524.78
417.413	2389.98
417.856	2365.89
418.298	2344.3
418.741	2332.09
419.184	2331
419.626	2435.92
420.069	2437.25
420.511	2448.6
420.953	2395.73
421.396	2370.9
421.838	2309.81
422.28	2362.98
422.722	2369.29
423.164	2401.26
423.606	2355.47
424.048	2349.6
424.49	2225.41
424.932	2214.33
425.374	2184.8
425.816	2222.16
426.258	2263.49
426.699	2291.01
427.141	2254.64
427.582	2293.55
428.024	2282.26
428.465	2273.05
428.907	2215.71
429.348	2187.05
429.789	2180
430.231	2127.83
430.672	2152.54
431.113	2097.58
431.554	2059.26
431.995	2004.59
432.436	1921.7
432.877	1871.86
433.318	1829.35
433.759	1818.32
434.2	1816.35
434.64	1794.2
435.081	1796.15
435.522	1697.77
435.962	1634.74
436.403	1595.91
436.843	1615.92
437.284	1581.58
437.724	1537.74
438.164	1546.26
438.604	1509.14
439.045	1448.8
439.485	1386.58
439.925	1356.7
440.365	1322.24
440.805	1302.77
441.245	1284.56
441.685	1236.9
442.125	1227.74
442.564	1236.4
443.004	1203.96
443.444	1198.6
443.883	1196.89
444.323	1189.13
444.762	1191.35
445.202	1206.15
445.641	1223.3
446.081	1215.81
446.52	1221.19
446.959	1206.49
447.398	1171.31
447.837	1155.26
448.276	1133.95
448.716	1144.82
449.154	1154.12
449.593	1124.99
450.032	1120.66
450.471	1100.53
450.91	1100.94
451.349	1097.33
451.787	1092.96
452.226	1112.3
452.664	1112.98
453.103	1114.89
453.541	1113.4
453.98	1108.53
454.418	1117.52
454.856	1099.01
455.295	1098.45
455.733	1106.54
456.171	1113.64
456.609	1115.14
457.047	1114.26
457.485	1128.14
457.923	1129.89
458.361	1115.06
458.798	1119.44
459.236	1115.59
459.674	1124.65
460.111	1128.09
460.549	1116.02
460.987	1112.38
461.424	1109.46
461.862	1102.95
462.299	1086.93
462.736	1085.99
463.173	1089.4
463.611	1076.18
464.048	1072.69
464.485	1079.77
464.922	1071.46
465.359	1067.67
465.796	1047.84
466.233	1038.73
466.67	1028.15
467.106	1025.01
467.543	1015.84
467.98	1003.81
468.416	977.84
468.853	970.79
469.29	942.92
469.726	932.76
470.162	907.49
470.599	901.34
471.035	894.49
471.471	874.19
471.907	869.54
472.344	863.1
472.78	862.88
473.216	875.47
473.652	864.75
474.088	862.77
474.523	859.58
474.959	869.05
475.395	861.26
475.831	856.1
476.266	860.23
476.702	858.14
477.138	848.76
477.573	846.88
478.008	842.82
478.444	846.84
478.879	853.89
479.314	857.51
479.75	856.86
480.185	860.64
480.62	867.59
481.055	872.69
481.49	879.42
481.925	892.68
482.36	907.11
482.795	933.27
483.229	958.79
483.664	980.57
484.099	984.83
484.534	1000.74
484.968	1010.27
485.403	1014.43
485.837	1014.34
486.271	1012.43
486.706	1013.39
487.14	1002.98
487.574	987.1
488.009	978.65
488.443	969.56
488.877	978.44
489.311	980.25
489.745	991.67
490.179	999.25
490.613	1014.88
491.046	1022.53
491.48	1029.16
491.914	1029.3
492.348	1034.86
492.781	1038.28
493.215	1038.51
493.648	1039.23
494.082	1044.54
494.515	1042.6
494.948	1051.46
495.382	1056.81
495.815	1060.17
496.248	1065.93
496.681	1082.1
497.114	1097.26
497.547	1109.03
497.98	1123.49
498.413	1128.02
498.846	1139.2
499.279	1148.39
499.711	1151.87
500.144	1152.02
500.577	1163.21
501.009	1174.51
501.442	1183.25
501.874	1178.01
502.306	1176.14
502.739	1180.79
503.171	1195.7
503.603	1194.49
504.036	1201.21
504.468	1202.28
504.9	1212.37
505.332	1215.26
505.764	1213.42
506.196	1215.68
506.627	1229.33
507.059	1240.81
507.491	1246.98
507.923	1237.93
508.354	1249.44
508.786	1255.86
509.217	1271.28
509.649	1281.46
510.08	1298.11
510.512	1311.24
510.943	1323.68
511.374	1329.16
511.805	1344.49
512.237	1359.84
512.668	1390.76
513.099	1415.08
513.53	1438.7
513.961	1454.31
514.391	1483.02
514.822	1511.16
515.253	1543.57
515.684	1562.97
516.114	1588.35
516.545	1603.45
516.975	1623.2
517.406	1632.83
517.836	1626.37
518.267	1624.08
518.697	1634.54
519.127	1629.23
519.558	1628.22
519.988	1623.27
520.418	1625.98
520.848	1637
521.278	1638.02
521.708	1643.69
522.138	1650.5
522.567	1676
522.997	1696
523.427	1705.39
523.857	1717.16
524.286	1722.51
524.716	1731.83
525.145	1745.67
525.575	1750.92
526.004	1760.51
526.433	1751.41
526.863	1746.91
527.292	1731.81
527.721	1732.84
528.15	1733.73
528.579	1729.62
529.008	1736.03
529.437	1756.13
529.866	1766.17
530.295	1779.82
530.724	1788.99
531.152	1813.29
531.581	1823.84
532.01	1838.72
532.438	1844.97
532.867	1857.78
533.295	1874.59
533.723	1878.33
534.152	1873.67
534.58	1871.43
535.008	1852.93
535.436	1853.36
535.865	1858.99
536.293	1872.63
536.721	1887.18
537.149	1911.84
537.576	1913.56
538.004	1924.69
538.432	1932.05
538.86	1929.44
539.287	1935.22
539.715	1949.17
540.143	1951.54
540.57	1947.78
540.998	1943.62
541.425	1920.04
541.852	1897.43
542.28	1894.58
542.707	1878.34
543.134	1863.27
543.561	1859.09
543.988	1850.92
544.415	1849.21
544.842	1842.66
545.269	1834.38
545.696	1835.11
546.123	1845.78
546.549	1834.39
546.976	1820.86
547.403	1819.23
547.829	1820.7
548.256	1821.54
548.682	1817.91
549.108	1809.11
549.535	1807.91
549.961	1809.45
550.387	1794.63
550.813	1788.04
551.24	1793.97
551.666	1794.19
552.092	1784.14
552.518	1777.4
552.943	1771.65
553.369	1777.79
553.795	1784.24
554.221	1786.26
554.646	1783.43
555.072	1796.28
555.498	1804.02
555.923	1813.49
556.349	1829.48
556.774	1839.45
557.199	1841.99
557.625	1847.84
558.05	1843.93
558.475	1855.84
558.9	1855.05
559.325	1848.02
559.75	1841.28
560.175	1835.85
560.6	1830.54
561.025	1830.82
561.449	1833.69
561.874	1841.77
562.299	1848.88
562.723	1859.1
563.148	1851.46
563.572	1859.36
563.997	1872.13
564.421	1882.08
564.846	1886.18
565.27	1893.84
565.694	1894.57
566.118	1910.36
566.542	1921.19
566.966	1919.64
567.39	1917.7
567.814	1910.56
568.238	1914.15
568.662	1925.13
569.086	1932.96
569.509	1944.39
569.933	1932.44
570.357	1928.71
570.78	1910.53
571.204	1901.12
571.627	1892.36
572.05	1894.71
572.474	1897.24
572.897	1887.85
573.32	1882.45
573.743	1874.73
574.166	1858.71
574.589	1863.43
575.012	1859.71
575.435	1861.45
575.858	1854.91
576.281	1847.18
576.704	1833.29
577.126	1824.23
577.549	1815.15
577.972	1806.84
578.394	1798.5
578.817	1793.3
579.239	1775.05
579.661	1761.33
580.084	1745.72
580.506	1733.88
580.928	1731.41
581.35	1721.89
581.772	1718.46
582.194	1705.21
582.616	1693.46
583.038	1678.94
583.46	1669.26
583.882	1667.61
584.303	1675.93
584.725	1674.08
585.147	1676.88
585.568	1690.41
585.99	1706.52
586.411	1715.69
586.833	1734.85
587.254	1739.5
587.675	1758.01
588.096	1774.36
588.518	1770.69
588.939	1752.32
589.36	1751.37
589.781	1742.31
590.202	1711.02
590.623	1701.19
591.043	1700.53
591.464	1687.44
591.885	1684.81
592.305	1680.06
592.726	1666.55
593.147	1669.62
593.567	1665.7
593.987	1660.16
594.408	1654.95
594.828	1655.93
595.248	1651.05
595.669	1632.39
596.089	1626.23
596.509	1620.53
596.929	1605.34
597.349	1606.82
597.769	1595.93
598.189	1590.26
598.608	1591.64
599.028	1596.13
599.448	1597.06
599.867	1584.32
600.287	1579.63
600.706	1575.32
601.126	1564.57
601.545	1564.97
601.965	1565.27
602.384	1560.76
602.803	1565.73
603.222	1561.53
603.641	1555.81
604.061	1553.23
604.48	1549.91
604.898	1561.71
605.317	1569.29
605.736	1573.85
606.155	1573.15
606.574	1564.46
606.992	1571.99
607.411	1567.89
607.829	1560.72
608.248	1559.09
608.666	1559.3
609.085	1561.28
609.503	1553.47
609.921	1548.13
610.339	1552.76
610.758	1554.62
611.176	1552.11
611.594	1543.89
612.012	1542.25
612.43	1549.32
612.847	1558.97
613.265	1562.66
613.683	1571.5
614.101	1576.98
614.518	1576.21
614.936	1568.02
615.353	1552.99
615.771	1553.04
616.188	1556.62
616.606	1554.84
617.023	1548.66
617.44	1534.39
617.857	1527.81
618.274	1519.4
618.691	1512.84
619.108	1503.66
619.525	1497.39
619.942	1507.11
620.359	1510.88
620.776	1506.51
621.192	1505.27
621.609	1504.14
622.026	1512.49
622.442	1521.11
622.859	1526.31
623.275	1518.99
623.691	1526.69
624.108	1541.78
624.524	1560.04
624.94	1561.23
625.356	1575.69
625.772	1590.98
626.188	1607.9
626.604	1611.92
627.02	1607.79
627.436	1605.09
627.852	1614.01
628.268	1628.4
628.683	1618.25
629.099	1608.5
629.514	1603.12
629.93	1607.63
630.345	1613.15
630.761	1607.62
631.176	1612.04
631.591	1603.67
632.007	1596.79
632.422	1594.72
632.837	1582.58
633.252	1580.19
633.667	1569.8
634.082	1560.18
634.497	1545.24
634.911	1523.37
635.326	1521.79
635.741	1503.11
636.155	1494.59
636.57	1500.14
636.984	1503.47
637.399	1508.57
637.813	1511.39
638.228	1513.08
638.642	1522.53
639.056	1513.88
639.47	1520.3
639.884	1514.65
640.298	1511.5
640.712	1515.64
641.126	1504.53
641.54	1498.84
641.954	1498.19
642.368	1489.16
642.781	1484.26
643.195	1467.89
643.609	1474.57
644.022	1471.64
644.436	1469.76
644.849	1459.76
645.262	1451.27
645.676	1459.15
646.089	1458.07
646.502	1442.64
646.915	1440.89
647.328	1421.89
647.741	1422.16
648.154	1408.19
648.567	1406.75
648.98	1392.41
649.393	1395.86
649.805	1392.78
650.218	1384.21
650.631	1364.46
651.043	1358.53
651.456	1351.44
651.868	1355.72
652.28	1383.37
652.693	1404.58
653.105	1415.63
653.517	1432.41
653.929	1435.53
654.341	1444.32
654.753	1430.06
655.165	1442.13
655.577	1440
655.989	1436.68
656.401	1429.16
656.813	1379.08
657.224	1354.4
657.636	1318.54
658.047	1295.33
658.459	1270.87
658.87	1263.29
659.282	1250.15
659.693	1223.11
660.104	1206.89
660.515	1191.14
660.926	1190.77
661.338	1190.31
661.749	1184.43
662.159	1174.83
662.57	1173.46
662.981	1170.07
663.392	1162.21
663.803	1171.76
664.213	1171.4
664.624	1168.19
665.035	1176.1
665.445	1159.53
665.855	1151.17
666.266	1141.74
666.676	1139.85
667.086	1126.94
667.497	1126.52
667.907	1118.64
668.317	1105.22
668.727	1100.24
669.137	1103.49
669.547	1098.88
669.956	1103.28
670.366	1105.4
670.776	1107.8
671.186	1113.74
671.595	1119.29
672.005	1125.07
672.414	1123.56
672.824	1120.74
673.233	1127.56
673.642	1127.74
674.052	1131.1
674.461	1131.16
674.87	1137.13
675.279	1130
675.688	1130.1
676.097	1129.13
676.506	1122.82
676.915	1141.18
677.323	1142.65
677.732	1138.47
678.141	1136.75
678.549	1120.24
678.958	1118.26
679.366	1116.21
679.775	1122.5
680.183	1133.41
680.592	1139.67
681	1145.31
681.408	1133.13
681.816	1142.67
682.224	1152.45
682.632	1163.54
683.04	1201.7
683.448	1231.53
683.856	1268.72
684.264	1312.47
684.671	1352.28
685.079	1400.16
685.487	1451.58
685.894	1526.96
686.302	1582.71
686.709	1624.88
687.116	1673.95
687.524	1709.9
687.931	1737.65
688.338	1757.05
688.745	1768.83
689.152	1782.02
689.559	1810.92
689.966	1836.29
690.373	1832.89
690.78	1853.73
691.187	1900.49
691.593	1927.09
692	1945.79
692.407	1987.47
692.813	2043.27
693.22	2079.96
693.626	2124.06
694.032	2148.68
694.439	2202.44
694.845	2240.44
695.251	2295.04
695.657	2337.18
696.063	2414.36
696.469	2465.68
696.875	2511.08
697.281	2525.86
697.687	2552.46
698.093	2569.1
698.498	2622.78
698.904	2659.32
699.31	2723.86
699.715	2764.91
700.12	2836.56
700.526	2835.53
700.931	2885.32
701.337	2916.98
701.742	2932.35
702.147	2994.56
702.552	3007.05
702.957	3049.87
703.362	3055.91
703.767	3071.19
704.172	3093.97
704.577	3039.36
704.981	3072.29
705.386	3076.98
705.791	3061.35
706.195	3117.81
706.6	3117.77
707.004	3180.99
707.408	3142.51
707.813	3158.1
708.217	3137.21
708.621	3131.98
709.025	3209.84
709.43	3203.88
709.834	3247.95
710.237	3301.94
710.641	3282.07
711.045	3295.28
711.449	3283.84
711.853	3304.08
712.256	3334.38
712.66	3361.8
713.064	3420.6
713.467	3449.61
713.87	3540.6
714.274	3576.42
714.677	3664.56
715.08	3799.83
715.484	3936.77
715.887	4105.28
716.29	4269.5
716.693	4442.75
717.096	4640.95
717.499	4747.41
717.901	4764.59
718.304	4778.03
718.707	4789.45
719.109	4696.6
719.512	4664.08
719.915	4544.96
720.317	4490.43
720.719	4522.53
721.122	4490.33
721.524	4445.85
721.926	4408.46
722.328	4488.68
722.731	4479.94
723.133	4499.61
723.535	4656.8
723.937	4667.69
724.338	4708.19
724.74	4741.69
725.142	4693.56
725.544	4690.48
725.945	4708.95
726.347	4703.71
726.748	4694.58
727.15	4702.94
727.551	4670.83
727.952	4644.01
728.354	4619.76
728.755	4616.79
729.156	4576.1
729.557	4554.88
729.958	4450.87
730.359	4402.39
730.76	4382.5
731.161	4330.55
731.562	4306.09
731.962	4307.85
732.363	4255.32
732.763	4201.2
733.164	4229.28
733.564	4172.96
733.965	4092.77
734.365	4064.08
734.766	4084.56
735.166	4051.94
735.566	4004.97
735.966	3981.94
736.366	3975.77
736.766	3922.9
737.166	3945.26
737.566	3910.7
737.966	3890.57
738.365	3923.37
738.765	3917.17
739.165	3855.15
739.564	3830.79
739.964	3867.17
740.363	3829.66
740.763	3825.15
741.162	3814.03
741.561	3789.35
741.96	3749.67
742.36	3764.62
742.759	3767.23
743.158	3798.95
743.557	3811.89
743.955	3844.92
744.354	3807.7
744.753	3853.89
745.152	3819.31
745.55	3865.66
745.949	3857.73
746.348	3860.01
746.746	3871.85
747.144	3839.52
747.543	3818.68
747.941	3858.23
748.339	3801.85
748.737	3795.28
749.136	3789.83
749.534	3841.7
749.932	3818.23
750.33	3838.03
750.727	3881.47
751.125	3860.46
751.523	3846.78
751.921	3882.14
752.318	3851.29
752.716	3896.31
753.113	3905.98
753.511	3926.2
753.908	3926.66
754.305	3912.74
754.703	3962.92
755.1	4014.1
755.497	4062.52
755.894	4217.68
756.291	4363.83
756.688	4634.05
757.085	4993.08
757.482	5495.82
757.878	6040.35
758.275	6539.38
758.672	7220.53
759.068	7774.68
759.465	8561.41
759.861	9587.27
760.258	10768.22
760.654	11388.37
761.05	11296.5
761.447	10775.96
761.843	10033.83
762.239	9270.61
762.635	8919.85
763.031	8591.44
763.427	8116.29
763.822	7617.81
764.218	7118.74
764.614	6470.63
765.01	6030.34
765.405	5750.84
765.801	5539.77
766.196	5266.45
766.592	5114.63
766.987	4860.15
767.382	4683.67
767.778	4610.72
768.173	4502.91
768.568	4443.67
768.963	4343.35
769.358	4359
769.753	4321.41
770.148	4253.99
770.542	4253.83
770.937	4227.33
771.332	4302.13
771.726	4318.54
772.121	4266.33
772.515	4310.63
772.91	4300.2
773.304	4358.05
773.699	4304.66
774.093	4346.71
774.487	4389.67
774.881	4425.41
775.275	4420.73
775.669	4387.45
776.063	4424.71
776.457	4454.35
776.851	4394.67
777.245	4388.02
777.638	4414.12
778.032	4508.12
778.425	4479.26
778.819	4514.88
779.212	4482.71
779.606	4451.5
779.999	4468.77
780.392	4457.15
780.786	4520.91
781.179	4539.2
781.572	4573.52
781.965	4588.12
782.358	4540.19
782.751	4584.48
783.143	4543.25
783.536	4600.11
783.929	4636.68
784.322	4726.6
784.714	4749.17
785.107	4751.31
785.499	4807.73
785.891	4790.99
786.284	4771.08
786.676	4887.41
787.068	4871.47
787.46	4915.68
787.852	4933.08
788.245	5001.19
788.636	5028.38
789.028	5083.75
789.42	5112.54
789.812	5121.11
790.204	5200.73
790.595	5282.47
790.987	5122.28
791.378	5143.07
791.77	5247.27
792.161	5358.25
792.553	5404.27
792.944	5313.28
793.335	5259.89
793.726	5320.49
794.117	5394.72
794.508	5507.13
794.899	5483.23
795.29	5597.59
795.681	5643.39
796.072	5527.99
796.463	5381.76
796.853	5390.54
797.244	5519.77
797.634	5547.33
798.025	5547.54
798.415	5551.78
798.806	5619.69
799.196	5689.51
799.586	5731.88
799.976	5700.83
800.366	5889.63
800.756	6075.95
801.146	6043.8
801.536	6065.64
801.926	6123.13
802.316	6143.42
802.706	6205.35
803.095	6106.53
803.485	6189.87
803.874	6222.29
804.264	6437.04
804.653	6417.06
805.043	6538.8
805.432	6623.32
805.821	6622.15
806.21	6641.14
806.599	6730.26
806.988	6768.46
807.377	6855.75
807.766	6954.89
808.155	7185.55
808.544	6970.07
808.933	6981.58
809.321	6964.83
809.71	7209.27
810.098	7336.12
810.487	7706.94
810.875	8101.78
811.264	8118.63
811.652	8353.95
812.04	8475.57
812.428	8609.65
812.816	9227.98
813.204	9563.89
813.592	10009.07
813.98	10277.31
814.368	10205.41
814.756	10585.86
815.144	10520.8
815.531	10890.88
815.919	10827.97
816.306	11072.8
816.694	10811.4
817.081	10849.97
817.469	11125.14
817.856	11119.7
818.243	11328.96
818.63	11638.97
819.017	11308.44
819.404	11352.2
819.791	11667.37
820.178	12158.52
820.565	12355.53
820.952	13116.9
821.339	12717.46
821.725	12864.96
822.112	12268.3
822.498	12242.98
822.885	12349.36
823.271	12267
823.657	12599.74
824.044	12602.87
824.43	12666.9
824.816	12649.7
825.202	12294.63
825.588	13112.66
825.974	13128.33
826.36	13541.76
826.746	13559.65
827.132	13843.03
827.517	13830
827.903	13207.5
828.289	13230.9
828.674	12596.69
829.06	12506.26
829.445	12823.18
829.83	13111.22
830.216	13493.69
830.601	13788.77
830.986	13468.24
831.371	13363.21
831.756	13809.51
832.141	13460.94
832.526	13464.19
832.911	13696.43
833.295	13606.84
833.68	13983.82
834.065	13489.78
834.449	12756.42
834.834	12701.3
835.218	12697.95
835.603	12973.7
835.987	12802.8
836.371	13477.77
836.755	13393.51
837.139	13724.54
837.524	13912.02
837.908	13773.17
838.291	13818.34
838.675	13875.58
839.059	14042.26
839.443	14043.26
839.827	13856.69
840.21	14248.52
840.594	14125.97
840.977	14291.44
841.361	14273.1
841.744	14582.42
842.127	14459.21
842.511	14656.58
842.894	15137.85
843.277	15440.26
843.66	15870.05
844.043	15943.83
844.426	15293.8
844.809	15050.89
845.191	15084.44
845.574	14708.89
845.957	14415.61
846.339	14330.99
846.722	13911.85
847.104	13963.84
847.487	13832.66
847.869	13850.03
848.252	14063.24
848.634	14331.99
849.016	14545.46
849.398	14643.11
849.78	15335.06
850.162	15345.89
850.544	15679.35
850.926	16187.93
851.307	16123.31
851.689	16348.16
852.071	16706.58
852.452	16978.61
852.834	16959.6
853.215	17286.18
853.597	17409.14
853.978	17645.98
854.359	18006.58
854.741	17205.77
855.122	17123.72
855.503	16891.3
855.884	16998.14
856.265	16947.5
856.646	17031.62
857.026	16722.27
857.407	16656.7
857.788	16776.23
858.169	17000.07
858.549	16314.48
858.93	16808.74
859.31	16850.34
859.69	17010.95
860.071	16684.06
860.451	16512.92
860.831	15922.88
861.211	16848.29
861.591	17289.45
861.971	17275.2
862.351	17431.14
862.731	17740.82
863.111	17947.92
863.491	18216.17
863.87	18923.66
864.25	19202.94
864.629	18881.35
865.009	19295.57
865.388	19991.9
865.768	21418.99
866.147	21339.05
866.526	20161.06
866.905	20408.81
867.284	21560.6
867.663	20472.95
868.042	19620.92
868.421	19555.82
868.8	19875.22
869.179	20068.14
869.558	18892.95
869.936	17425.45
870.315	17724.53
870.693	18161.53
871.072	19586.13
871.45	18664.36
871.828	18902.45
872.207	19876.58
872.585	19572.9
872.963	20111.71
873.341	19425.95
873.719	19205.31
874.097	18986.15
874.475	19353.56
874.853	19784.81
875.23	18962.21
875.608	19756.64
875.986	21373.31
876.363	20434.45
876.741	21070.77
877.118	20544.69
877.495	21556.55
877.873	21908.58
878.25	23037.79
878.627	22101.7
879.004	22434.41
879.381	22332.25
879.758	21751.99
880.135	20250.66
880.512	21422.86
880.889	20860.38
881.265	20646.17
881.642	20483.17
882.019	20840.35
882.395	20437.38
882.772	21261.28
883.148	20340.06
883.524	20265.78
883.901	20157.38
884.277	20463.68
884.653	20350.04
885.029	20950.14
885.405	23204.47
885.781	23026.24
886.157	22073.17
886.532	22328.2
886.908	22318.44
887.284	24821.47
887.659	25641.07
888.035	26447.12
888.411	27139.93
888.786	27503.2
889.161	28453.64
889.537	27939
889.912	28839.56
890.287	28822.5
890.662	29592.89
891.037	29063.27
891.412	27095.29
891.787	26821.53
892.162	25887.05
892.536	26495.48
892.911	25496.12
893.286	24955.49
893.66	23937.26
894.035	24537.37
894.409	26713.43
894.784	25635.59
895.158	26060.25
895.532	27618.23
895.906	28382.08
896.281	29054.34
896.655	28592.35
897.029	32678.96
897.402	34049.14
897.776	37919.44
898.15	37792.27
898.524	37391.26
898.898	37868.81
899.271	42393.6
899.645	36715.72
900.018	35254.2
900.392	36535.65
900.765	36838.17
901.138	34090.99
901.511	33567.44
901.884	30822.27
902.258	28431.19
902.631	29373.37
903.003	33816.04
903.376	30524.2
903.749	34205.89
904.122	36614.75
904.495	40327.56
904.867	40824.23
905.24	35438.23
905.612	32993.31
905.985	33737.32
906.357	35284.11
906.729	33686.15
907.102	28768.59
907.474	27662.36
907.846	27859.88
908.218	27504.7
908.59	24311.71
908.962	23518.41
909.334	25334.89
909.705	26609.92
910.077	25848.12
910.449	26909.51
910.82	27666.58
911.192	30468.89
911.563	31659.71
911.935	33880.06
912.306	33915.62
912.677	35013.08
913.048	34671.76
913.419	37607.16
913.79	37805.03
914.161	40540.69
914.532	38756.87
914.903	35633.1
915.274	33837.9
915.645	33355.49
916.015	29360.32
916.386	27982.62
916.756	29786.59
917.127	30723.95
917.497	27454.81
917.868	29897.06
918.238	28396.34
918.608	29215.28
918.978	29800.21
919.348	31557.85
919.718	32609.16
920.088	31413.19
920.458	32645.97
920.828	34359.71
921.198	32566.3
921.567	34818.89
921.937	26967.91
922.306	27248.61
922.676	29401.18
923.045	24546.54
923.415	23328.47
923.784	21240.96
924.153	21839.12
924.522	21824.4
924.891	20519.84
925.26	21991.41
925.629	21466.63
925.998	24666.58
926.367	24064.8
926.736	22918.7
927.104	27295.44
927.473	29326.75
927.842	35434.36
928.21	35115.62
928.578	36937.11
928.947	34935.3
929.315	35151.81
929.683	41231.01
930.051	41590.37
930.42	48312.62
930.788	41299.43
931.156	40974.05
931.523	38433.61
931.891	35527.16
932.259	34097.12
932.627	39505.09
932.994	55890.58
933.362	46200.88
933.729	40099.41
934.097	38388.78
934.464	32461.36
934.831	37452.12
935.199	36947.4
935.566	35857.7
935.933	36281.83
936.3	43980.61
936.667	34232.31
937.034	30892.89
937.401	30566.65
937.767	26397.19
938.134	23497.06
938.501	33190.22
938.867	35340.58
939.234	59709.74
939.6	50883.75
939.967	56106.65
940.333	37562.31
940.699	31970.72
941.065	25646.87
941.431	33596.43
941.798	32371.65
942.163	42476.32
942.529	26542.28
942.895	24442.83
943.261	15806.57
943.627	20724.83
943.992	18158.48
944.358	18172.83
944.723	18226.84
945.089	17757.4
945.454	16376.26
945.82	17468.78
946.185	16790.49
946.55	19432.22
946.915	17444.65
947.28	20450.13
947.645	18048.37
948.01	16673.27
948.375	17389.71
948.74	20857.95
949.104	24344.51
949.469	35185.46
949.834	62253.23
950.198	59068.25
950.562	35401.88
950.927	29490.53
951.291	35544.03
951.655	30221.96
952.02	28368.22
952.384	21449.65
952.748	18675.94
953.112	18215.9
953.476	15845.94
953.839	14664.11
954.203	14519.18
954.567	18173.4
954.931	28608.08
955.294	24481.25
955.658	24632.65
956.021	41887.83
956.385	71103.6
956.748	105059.64
957.111	163157.54
957.474	183186.46
957.837	206196.61
958.2	155994.54
958.563	56127.34
958.926	38020.77
959.289	57773.41
959.652	64561.06
960.015	48502.46
960.377	69630.99
960.74	79457.9
961.102	137092.2
961.465	147423.52
961.827	79101.72
962.189	151803.95
962.552	105209
962.914	84306.79
963.276	54714.05
963.638	45306.56
964	44861.14
964.362	30306.35
964.724	29289.92
965.085	20893.97
965.447	17125.68
965.809	19484.19
966.17	19499.09
966.532	21102.83
966.893	19359.06
967.255	17601.42
967.616	20767.12
967.977	16617.82
968.338	18133.5
968.699	14908.51
969.061	14890.58
969.421	14989.22
969.782	16829.64
970.143	14212.68
970.504	14721.04
970.865	16735.51
971.225	17114.32
971.586	16751.51
971.946	23915.34
972.307	20775.07
972.667	27175
973.027	28025.39
973.388	34016.96
973.748	23144.12
974.108	25250.12
974.468	34168.11
974.828	26362.87
975.188	20291.23
975.548	18610.16
975.907	15611.6
976.267	17532.47
976.627	14731.13
976.986	15280.42
977.346	14533.78
977.705	13990.06
978.064	12750.46
978.424	10634.1
978.783	11002.59
979.142	12569.35
979.501	12041.76
979.86	12732.12
980.219	12271.21
980.578	15825.28
980.937	17719.85
981.296	15826.66
981.654	16268.18
982.013	25305.18
982.371	32832.87
982.73	30657.88
983.088	34679.25
983.447	37051.89
983.805	52962.83
984.163	110771
984.521	123203.83
984.879	180815.06
985.237	-294672.93
985.595	284352.57
985.953	70659.48
986.311	40823.55
986.669	23688.6
987.026	20476.53
987.384	27467.68
987.741	28417.74
988.099	20304.73
988.456	16139.82
988.814	15100.56
989.171	13115.33
989.528	12934.27
989.885	13648.36
990.242	10796.32
990.599	13491.79
990.956	11043.03
991.313	7743.04
991.67	6357.53
992.027	6747.35
992.383	6012.82
992.74	5276.79
993.096	5535.51
993.453	5748.15
993.809	5960.09
994.165	7934.16
994.522	7261.95
994.878	7996.24
995.234	10020.26
995.59	9879.44
995.946	9332.27
996.302	10636.25
996.658	12293.63
997.013	13547.07
997.369	16056.14
997.725	20559.3
998.08	13353.8
998.436	20559.48
998.791	28360.65
999.147	28403.14
999.502	31028.27
999.857	22560.27
1000.212	36793.1
1000.567	52397.88
1000.922	30232.42
1001.277	19227.6
1001.632	14302.65
1001.987	18445.99
1002.342	13266.6
1002.696	10637.15
1003.051	8486.74
1003.406	10261.7
1003.76	10203.3
1004.114	10042.38
1004.469	8430.12
1004.823	6986.34
1005.177	7528.38
1005.531	5967.52
1005.885	5279.23
1006.239	5940.28
1006.593	7436.11
1006.947	9943.54
1007.301	7474.58
1007.655	8157.18
1008.008	5996.79
1008.362	6757.94
1008.715	9635.47
1009.069	8752.89
1009.422	13173.17
1009.776	26370.83
1010.129	17553.48
1010.482	14641.11
1010.835	12386.09
1011.188	25747.12
1011.541	24341.41
1011.894	-148301.99
1012.247	435547.98
1012.6	29592.76
1012.952	18689.3
1013.305	9593.28
1013.657	6930.46
1014.01	6552.13
1014.362	5414.71
1014.715	4813.14
1015.067	4206.03
1015.419	4096.65
1015.771	3648.33
1016.123	3251.81
1016.475	3347.85
1016.827	3559.04
1017.179	3828.97
1017.531	3858.89
1017.883	3917.41
1018.234	3779.47
1018.586	4761.68
1018.938	5039.84
1019.289	6963.6
1019.64	7965.55
1019.992	7395.53
1020.343	6762.94
1020.694	5367.89
1021.045	4759.48
1021.396	5434.08
1021.747	5865.36
1022.098	7045.51
1022.449	5121.42
1022.8	4741.18
1023.151	3298.85
1023.501	2922.2
1023.852	3180.28
1024.202	3299.58
1024.553	3613.7
1024.903	3536.5
1025.253	3029.12
1025.604	2733.6
1025.954	3390.35
1026.304	4134.12
1026.654	4834.28
1027.004	7152.65
1027.354	11585.06
1027.703	10959.91
1028.053	14406.44
1028.403	20995.2
1028.753	30293.39
1029.102	41385.42
1029.452	212958.11
1029.801	9231.54
1030.15	5954.97
1030.499	5051.52
897.758	2410.58
901.051	2356.81
904.343	2389.97
907.636	2394.83
910.928	2457.72
914.22	2371.29
917.511	2377.33
920.803	2433.5
924.094	2441.85
927.384	2432.89
930.675	2398.06
933.965	2357.8
937.255	2375.69
940.544	2340.78
943.834	2317.96
947.123	2254.95
950.411	2348.53
953.7	2325.25
956.988	2301.77
960.276	2242.17
963.563	2305.66
966.851	2308.64
970.138	2357.91
973.424	2357.01
976.711	2312.55
979.997	2394.25
983.283	2440.4
986.568	2360.01
989.853	2363.95
993.138	2391.74
996.423	2474.81
999.708	2422.23
1002.992	2465.16
1006.275	2345.86
1009.559	2366.7
1012.842	2473.75
1016.125	2418.31
1019.408	2398.51
1022.69	2468.88
1025.972	2499.21
1029.254	2474.08
1032.536	2421.3
1035.817	2443.88
1039.098	2403.11
1042.379	2498.27
1045.659	2519.2
1048.939	2459.25
1052.219	2473.33
1055.498	2475.31
1058.778	2469.56
1062.057	2444.45
1065.335	2468.47
1068.614	2483.83
1071.892	2471.65
1075.17	2540.37
1078.447	2534.9
1081.724	2527.03
1085.001	2560.2
1088.278	2533.95
1091.554	2546.59
1094.83	2540.27
1098.106	2574.25
1101.382	2613.1
1104.657	2615.69
1107.932	2612.86
1111.206	2581.83
1114.481	2538.71
1117.755	2539.92
1121.029	2525.82
1124.302	2587.32
1127.575	2543.69
1130.848	2536.21
1134.121	2502.89
1137.393	2457.76
1140.665	2519.08
1143.937	2498.19
1147.208	2451.96
1150.48	2503.53
1153.75	2490.49
1157.021	2508.67
1160.291	2480.83
1163.561	2530.83
1166.831	2512.29
1170.101	2541.46
1173.37	2508.22
1176.639	2459.67
1179.907	2510.04
1183.176	2529.05
1186.444	2529.41
1189.711	2558.72
1192.979	2574.57
1196.246	2530.46
1199.513	2545.26
1202.78	2544.49
1206.046	2554.99
1209.312	2582.47
1212.578	2604.44
1215.843	2564.87
1219.108	2531.34
1222.373	2556.95
1225.638	2523.35
1228.902	2512.58
1232.166	2472.16
1235.43	2458.83
1238.693	2480.15
1241.956	2473.93
1245.219	2517.25
1248.482	2503.05
1251.744	2499.75
1255.006	2637.65
1258.268	2588.24
1261.529	2536.93
1264.79	2540.47
1268.051	2644.72
1271.312	2657.98
1274.572	2628.99
1277.832	2617.32
1281.092	2603.39
1284.351	2586.57
1287.61	2569.36
1290.869	2491.87
1294.128	2481.57
1297.386	2551.03
1300.644	2542.27
1303.902	2551.81
1307.159	2412
1310.416	2464.74
1313.673	2491.17
1316.93	2483.03
1320.186	2520.45
1323.442	2557
1326.697	2554.84
1329.953	2533.89
1333.208	2561.56
1336.463	2539.68
1339.717	2488.97
1342.972	2611.72
1346.226	2583.38
1349.479	2523.12
1352.733	2497
1355.986	2513.32
1359.238	2490.59
1362.491	2494.39
1365.743	2494.27
1368.995	2490
1372.247	2501.62
1375.498	2524.64
1378.749	2549.79
1382	2507.39
1385.251	2551.76
1388.501	2505.97
1391.751	2494.2
1395	2463.97
1398.25	2492.09
1401.499	2509.04
1404.748	2444.63
1407.996	2426.81
1411.244	2413.61
1414.492	2396.78
1417.74	2374.92
1420.987	2385.65
1424.234	2444.99
1427.481	2418.43
1430.728	2475.92
1433.974	2451.44
1437.22	2457.47
1440.465	2457.43
1443.711	2439.63
1446.956	2468.9
1450.201	2451.59
1453.445	2494.13
1456.689	2474.78
1459.933	2488.43
1463.177	2525.4
1466.42	2498.34
1469.663	2479.64
1472.906	2486.31
1476.148	2544.74
1479.391	2536.84
1482.633	2506.32
1485.874	2523.54
1489.115	2522.44
1492.356	2520.11
1495.597	2497.12
1498.838	2495.87
1502.078	2473.48
1505.318	2434.91
1508.557	2475.62
1511.797	2466.26
1515.036	2499
1518.274	2485.26
1521.513	2448.68
1524.751	2465.73
1527.989	2483.11
1531.227	2501.51
1534.464	2506.29
1537.701	2512.19
1540.938	2529.17
1544.174	2477.77
1547.41	2473.43
1550.646	2512.48
1553.882	2556.84
1557.117	2611.26
1560.352	2624.95
1563.587	2585.67
1566.821	2547.13
1570.055	2572.7
1573.289	2549.83
1576.523	2618.11
1579.756	2630.53
1582.989	2646.8
1586.222	2611.11
1589.454	2644.22
1592.686	2623.09
1595.918	2651.26
1599.15	2642.33
1602.381	2702.95
1605.612	2673.06
1608.843	2770.3
1612.073	2687.96
1615.303	2670.59
1618.533	2668.55
1621.762	2668.39
1624.992	2649.38
1628.221	2647.21
1631.449	2631.25
1634.678	2673.6
1637.906	2635.51
1641.134	2667.96
1644.361	2630.71
1647.588	2616.71
1650.815	2638.6
1654.042	2607.74
1657.269	2634.58
1660.495	2600.16
1663.72	2605.35
1666.946	2572.15
1670.171	2530.57
1673.396	2505.23
1676.621	2487.18
1679.845	2495.69
1683.069	2510.37
1686.293	2545.61
1689.517	2530.57
1692.74	2471.47
1695.963	2497.15
1699.185	2524.86
1702.408	2495.95
1705.63	2533.41
1708.852	2546.9
1712.073	2521.12
1715.294	2517.65
1718.515	2569.97
1721.736	2523.65
1724.956	2505.12
1728.176	2528.9
1731.396	2551.44
1734.616	2535.9
1737.835	2570.74
1741.054	2543.9
1744.272	2535.23
1747.491	2570.33
1750.709	2608.79
1753.927	2534.25
1757.144	2569.93
1760.361	2622.32
1763.578	2605.2
1766.795	2549.31
1770.011	2548.81
1773.227	2580.16
1776.443	2618.95
1779.658	2664.26
1782.874	2603.43
1786.089	2587.29
1789.303	2590.33
1792.518	2588.8
1795.732	2575.83
1798.945	2590.16
1802.159	2637.24
1805.372	2555.02
1808.585	2547.09
1811.797	2546.39
1815.01	2583.61
1818.222	2595.47
1821.434	2564.98
1824.645	2616.11
1827.856	2613.91
1831.067	2646.42
1834.278	2590.03
1837.488	2572.29
1840.698	2709.73
1843.908	2640.02
1847.117	2607.63
1850.326	2508.69
1853.535	2590.8
1856.744	2617.42
1859.952	2531.73
1863.16	2534.4
1866.368	2550.48
1869.575	2660.25
1872.782	2542.67
1875.989	2476.55
1879.196	2541.18
1882.402	2529.44
1885.608	2567.93
1888.814	2488.66
1892.019	2387.11
1895.224	2440.71
1898.429	2410.15
1901.634	2393.22
1904.838	2365.56
1908.042	2417.3
1911.246	2429.84
1914.449	2377.74
1917.652	2364.55
1920.855	2346.91
1924.058	2383.23
1927.26	2425.4
1930.462	2449.62
1933.664	2481.86
1936.865	2423.21
1940.066	2437.05
1943.267	2381.62
1946.467	2392.41
1949.668	2415.3
1952.868	2486.47
1956.067	2468.31
1959.267	2404.62
1962.466	2429.74
1965.665	2413.19
1968.863	2410.49
1972.061	2416.12
1975.259	2409.64
1978.457	2487.28
1981.654	2446.84
1984.852	2450.74
1988.048	2392.65
1991.245	2389.05
1994.441	2473.96
1997.637	2444.13
2000.833	2426.63
2004.028	2463.15
2007.223	2522.08
2010.418	2506.69
2013.613	2461.05
2016.807	2443.11
2020.001	2441.84
2023.194	2477.14
2026.388	2454.5
2029.581	2401.48
2032.774	2460.27
2035.966	2467.8
2039.158	2407.81
2042.35	2431.84
2045.542	2355.36
2048.733	2450.63
2051.924	2457.94
2055.115	2479.98
2058.306	2431.85
2061.496	2491.18
2064.686	2548.1
2067.875	2455.86
2071.065	2463.13
2074.254	2486.1
2077.442	2438.01
2080.631	2528.26
2083.819	2436.25
2087.007	2421.46
2090.195	2401.71
2093.382	2426.68
2096.569	2408.38
2099.756	2365.74
2102.942	2403.11
2106.128	2414.45
2109.314	2403.07
2112.5	2378.07
2115.685	2348.44
2118.87	2357.52
2122.055	2425.41
2125.239	2395.51
2128.424	2378.24
2131.608	2458.47
2134.791	2440.54
2137.974	2488.46
2141.157	2475.28
2144.34	2436.06
2147.523	2441.12
2150.705	2461.58
2153.887	2434.93
2157.068	2393.54
2160.25	2385.95
2163.431	2414.28
2166.611	2374.32
2169.792	2391.7
2172.972	2295.76
2176.152	2358.2
2179.331	2390.76
2182.511	2379.49
2185.69	2406.92
2188.868	2405.22
2192.047	2450.04
2195.225	2452.74
2198.403	2405.33
2201.58	2391.29
2204.758	2383.95
2207.935	2461.45
2211.111	2362.48
2214.288	2349.18
2217.464	2386.27
2220.64	2348.41
2223.815	2401.89
2226.991	2328.71
2230.166	2345.5
2233.34	2380.47
2236.515	2399.26
2239.689	2467.99
2242.863	2414.34
2246.036	2472.17
2249.209	2461.55
2252.382	2486.38
2255.555	2486.17
2258.727	2429.99
2261.9	2465.35
2265.071	2458.65
2268.243	2456.27
2271.414	2397.22
2274.585	2368.72
2277.756	2433
2280.926	2387.37
2284.096	2424.01
2287.266	2344.09
2290.436	2392.54
2293.605	2416.62
2296.774	2448.21
2299.942	2459
2303.111	2479.14
2306.279	2527.09
2309.447	2512.67
2312.614	2486.16
2315.781	2507.77
2318.948	2481.77
2322.115	2518.71
2325.281	2419.73
2328.447	2431.99
2331.613	2405.87
2334.779	2389.1
2337.944	2385.5
2341.109	2388.03
2344.274	2375.81
2347.438	2339.95
2350.602	2363.78
2353.766	2376.95
2356.929	2365.09
2360.092	2405.03
2363.255	2367.14
2366.418	2317.25
2369.58	2405.26
2372.742	2238.25
2375.904	2242.11
2379.066	2220.92
2382.227	2250.89
2385.388	2214.78
2388.548	2150.9
2391.709	2198.27
2394.869	2181.47
2398.029	2259.63
2401.188	2262.92
2404.347	2212.71
2407.506	2320.73
2410.665	2352.71
2413.823	2350.5
2416.981	2321.15
2420.139	2342.85
2423.296	2388.53
2426.453	2361.61
2429.61	2387.27
2432.767	2338.2
2435.923	2376.79
2439.079	2333.09
2442.235	2373.08
2445.391	2309.04
2448.546	2343.78
2451.701	2382.9
2454.855	2368
2458.009	2408.74
2461.163	2403.46
2464.317	2365.45
2467.471	2394.12
2470.624	2429.55
2473.777	2408.7
2476.929	2424.44
2480.082	2447.09
2483.234	2415.28
2486.385	2365.84
2489.537	2358.15
2492.688	2335.43
2495.839	2351.48
2498.989	2365.37
2502.14	2351.18
2505.29	2336.55
2508.439	2361.87
2511.589	2294.4
2514.738	2302.36
2517.887	2328.74
2521.035	2397.81
2524.183	2372.19
2527.331	2353.2
2530.479	2339.74
2533.627	2345.58
