Data from N_2_DEC_VA_2N_Splice17_12-07-00-763.txt Node
Date: Sat Mar 14 12:07:00 EDT 2020
User: sa697716
Spectrometer: FLMS03696
Trigger mode: 0
Integration Time (sec): 3.180400E-1
Scans to average: 20
Electric dark correction enabled: true
Nonlinearity correction enabled: true
Boxcar width: 5
XAxis mode: Wavelengths
Number of Pixels in Spectrum: 2048
>>>>>Begin Spectral Data<<<<<
187.83	-283619.84
188.298	2071.3
188.766	1138.5
189.233	955.63
189.701	1354.6
190.169	1907.95
190.636	695.23
191.104	533.86
191.571	33.59
192.039	-57.25
192.506	-98.91
192.974	474.68
193.441	-893.68
193.908	-238.58
194.375	-81.43
194.842	-18.48
195.31	33.04
195.777	128.8
196.244	371.08
196.711	561.03
197.177	758.46
197.644	1107.69
198.111	1976.19
198.578	2781.54
199.045	2231.85
199.511	3609.19
199.978	4239.75
200.445	3588.18
200.911	3972.26
201.378	4474.69
201.844	4019.07
202.31	6867.49
202.777	7138.78
203.243	3953.51
203.709	3792.45
204.176	4542.1
204.642	3749.49
205.108	3491.83
205.574	2869.43
206.04	2645.95
206.506	2474.94
206.972	2351.44
207.438	2280.97
207.903	2598.86
208.369	2265.03
208.835	2238.06
209.301	2332.7
209.766	2415.08
210.232	2401.77
210.697	2999.66
211.163	3695.53
211.628	5655.78
212.094	4729.86
212.559	5759.9
213.024	3577.06
213.49	4375.08
213.955	4309.98
214.42	4258.76
214.885	3949.92
215.35	3789.52
215.815	3592.13
216.28	3819.39
216.745	3102.86
217.21	3366.25
217.675	3117.73
218.14	3525.93
218.604	3969.45
219.069	4551.44
219.534	4761.57
219.998	5572.21
220.463	6786.77
220.927	8446.2
221.392	7998.24
221.856	8127.56
222.32	10298.35
222.785	12751.11
223.249	16069.31
223.713	17967.67
224.177	17959.53
224.642	23105.63
225.106	28435.87
225.57	31078
226.034	23080.85
226.497	35085.92
226.961	31588.88
227.425	36696.51
227.889	40708.84
228.353	40704.95
228.816	84013.25
229.28	80345.87
229.744	67697.81
230.207	41139.03
230.671	40422.34
231.134	66938.72
231.597	77048.08
232.061	77054.63
232.524	75125.28
232.987	51716.24
233.45	46508.06
233.914	41643.45
234.377	42619.08
234.84	38977.34
235.303	45867.61
235.766	51171.03
236.229	52785.44
236.691	33215.81
237.154	37274.44
237.617	28014.53
238.08	28650.74
238.542	33509.14
239.005	23909.06
239.468	23701.76
239.93	22308.58
240.393	20284.06
240.855	17785.65
241.317	18211
241.78	22158.12
242.242	22888.25
242.704	24646.2
243.166	21435.29
243.629	19414.91
244.091	22353.13
244.553	24469.89
245.015	26258.29
245.477	33906.41
245.939	49670.88
246.4	52582.7
246.862	51014.12
247.324	48022.17
247.786	53743.75
248.247	70376.16
248.709	72666.66
249.17	54275.84
249.632	51075.11
250.093	59148.13
250.555	50983.25
251.016	31029.25
251.477	29402.31
251.939	31682.16
252.4	33215.95
252.861	39452.5
253.322	36638.49
253.783	43564.56
254.244	56467.47
254.705	44480.81
255.166	39547.07
255.627	38956.05
256.088	54888.36
256.549	58297.24
257.009	50254.51
257.47	60955.66
257.931	49620.16
258.391	37203.37
258.852	38367.21
259.312	40239.28
259.773	49745.61
260.233	41985.24
260.694	35405.93
261.154	40156.99
261.614	32202.3
262.074	28783.2
262.534	29882.73
262.994	28163.27
263.455	37502.1
263.915	31541.31
264.374	29698.76
264.834	32378.53
265.294	35910
265.754	37157.23
266.214	35197.23
266.673	32937.7
267.133	41538.09
267.593	41215.9
268.052	50423.2
268.512	43837.71
268.971	52832.74
269.431	57901.67
269.89	51849.33
270.349	77664.33
270.809	86561.36
271.268	77747.3
271.727	174471.61
272.186	113052.78
272.645	84799
273.104	61175.15
273.563	88586
274.022	69690.41
274.481	59294.36
274.94	45673.94
275.399	33946.8
275.857	39540.23
276.316	53498.83
276.775	47604.86
277.233	46835.03
277.692	43781.17
278.15	49486.97
278.609	50859.51
279.067	47085.26
279.525	43695.72
279.984	56447.99
280.442	67811.85
280.9	66745.85
281.358	43880.01
281.816	40879.59
282.274	40058.45
282.732	41426.15
283.19	41630.01
283.648	35949.83
284.106	38291.38
284.564	38964.86
285.021	36122.3
285.479	26928.8
285.937	24534.83
286.394	21524.56
286.852	22178.01
287.309	23305.89
287.767	22491.59
288.224	21375.87
288.682	23452.16
289.139	25714.57
289.596	23491.82
290.053	24416.62
290.511	30810.7
290.968	37288.66
291.425	50547.64
291.882	41941.92
292.339	36432.85
292.796	36151.97
293.252	34072.46
293.709	27015.59
294.166	24194.98
294.623	26750.57
295.079	25642.97
295.536	25708.5
295.992	23345.51
296.449	23086.31
296.905	24006.26
297.362	23003.43
297.818	24183.49
298.274	25068.62
298.731	25549.88
299.187	25274.69
299.643	27107.87
300.099	32750.44
300.555	35906.08
301.011	29976.7
301.467	28845.41
301.923	33778.89
302.379	32983.55
302.835	32390.37
303.291	32421.83
303.746	36886.06
304.202	46604.82
304.658	46852.09
305.113	31531.15
305.569	30909.48
306.024	32979.22
306.479	31429.29
306.935	26461.93
307.39	28940.63
307.845	26730.2
308.301	26892.65
308.756	26227.78
309.211	25282.93
309.666	25896.32
310.121	32127.59
310.576	32630.79
311.031	32416.23
311.486	37178.1
311.94	37210.54
312.395	49745.58
312.85	93475.75
313.305	459900.08
313.759	2379298.4
314.214	172377.3
314.668	136560.48
315.123	114791.14
315.577	41137.91
316.032	36570.77
316.486	45810.39
316.94	36136.93
317.394	25139.6
317.849	19537.41
318.303	18496.74
318.757	17441.28
319.211	19266.76
319.665	16859
320.119	17063.52
320.572	24452.23
321.026	22823.65
321.48	18968.02
321.934	20661.06
322.387	20699.38
322.841	22342.02
323.295	20038.48
323.748	23079.72
324.202	23409.67
324.655	28106.86
325.108	39225.2
325.562	27730.74
326.015	32926.7
326.468	24913.42
326.921	27850.76
327.374	25986.45
327.827	27034.42
328.28	30620.19
328.733	20506.62
329.186	18048.3
329.639	17189.62
330.092	14499.69
330.545	13806.35
330.997	13938.92
331.45	15197.79
331.903	17828.32
332.355	30691.13
332.808	29893.97
333.26	24671.33
333.713	26812.06
334.165	26996.92
334.617	36043.09
335.069	29164.53
335.522	52768.67
335.974	58411.09
336.426	53483.56
336.878	37053.23
337.33	18778.08
337.782	18334.61
338.234	22933.78
338.686	27464.03
339.137	32545.61
339.589	30686.57
340.041	24023.63
340.493	20637.57
340.944	21138.32
341.396	22762.84
341.847	19107.08
342.299	22508.73
342.75	27451
343.201	23983.26
343.653	27539.41
344.104	33845.8
344.555	26591.88
345.006	41398.44
345.457	31675.53
345.908	25142.15
346.359	23628.34
346.81	19235
347.261	20259.46
347.712	19916.28
348.163	21362.17
348.613	21639.7
349.064	20186.54
349.515	17704.85
349.965	18139.2
350.416	21854.75
350.866	23989.81
351.317	27125.76
351.767	44948.35
352.217	56790.15
352.668	47151.74
353.118	43258.16
353.568	41729.18
354.018	33009.72
354.468	34761.89
354.918	24961.26
355.368	21820.96
355.818	30852.65
356.268	88861.59
356.718	371710.12
357.168	92653.55
357.617	46618.02
358.067	51822.49
358.517	48524.27
358.966	56841.62
359.416	63901.76
359.865	69024.59
360.315	82374.46
360.764	38530.14
361.213	21594.28
361.663	20476.7
362.112	25272.69
362.561	40721.38
363.01	30725.68
363.459	25848.75
363.908	27986.79
364.357	23704.81
364.806	40121.64
365.255	27574.67
365.703	25212.33
366.152	25255.84
366.601	20498.62
367.05	16652.15
367.498	15145.64
367.947	15844.46
368.395	16510.6
368.844	14624.38
369.292	17661.27
369.74	12204.27
370.189	18710.66
370.637	21920.81
371.085	18904.09
371.533	23049.74
371.981	22255.2
372.429	21242.92
372.877	22170.05
373.325	18592.77
373.773	19011.91
374.221	16952.3
374.669	21096.42
375.116	18259.61
375.564	18479.45
376.012	20744.81
376.459	17155
376.907	20548.47
377.354	24944.06
377.801	23309.05
378.249	26869.36
378.696	34459.45
379.143	41954.96
379.591	44901.27
380.038	76292.16
380.485	55370.57
380.932	60169.87
381.379	55248.69
381.826	40916.86
382.273	29277.54
382.72	25786.82
383.166	25294.26
383.613	16516.12
384.06	14971.92
384.506	17450.99
384.953	12928.37
385.4	13123.26
385.846	11574.56
386.292	11391.28
386.739	11236.86
387.185	11194.02
387.631	11268.24
388.078	11008.62
388.524	11872.03
388.97	11062.8
389.416	9296.03
389.862	9954.42
390.308	9510.4
390.754	9724.73
391.2	10622.64
391.645	10964.83
392.091	10544.2
392.537	10260.46
392.983	10363.6
393.428	10242.22
393.874	11050.33
394.319	11134.94
394.765	10615.45
395.21	10981.88
395.655	10351.07
396.101	9752.53
396.546	8839.05
396.991	8980.32
397.436	8381.05
397.881	8124.74
398.326	7741.06
398.771	7329.17
399.216	6440.46
399.661	5826.03
400.106	5812.02
400.551	5958.73
400.995	5350.48
401.44	5299.03
401.885	4981.01
402.329	5033.95
402.774	4824.4
403.218	4655.41
403.663	4495.6
404.107	4615.16
404.551	4642.75
404.995	4257.41
405.44	4105.2
405.884	4165.52
406.328	4027.09
406.772	4010.21
407.216	3644.18
407.66	3522.1
408.104	3348.8
408.547	3128.63
408.991	3025.93
409.435	2907.98
409.879	2860.77
410.322	2821
410.766	2717.03
411.209	2580.21
411.653	2474.12
412.096	2422.82
412.54	2421.5
412.983	2401.68
413.426	2403.88
413.869	2402.02
414.312	2353.94
414.756	2268.31
415.199	2159.35
415.642	2093.25
416.085	2090.59
416.527	2073.88
416.97	2104.27
417.413	1993.36
417.856	1972.63
418.298	1951.56
418.741	1935.85
419.184	1929.5
419.626	2008.25
420.069	2006.88
420.511	2016.61
420.953	1970.57
421.396	1946.25
421.838	1894.95
422.28	1935.19
422.722	1937.39
423.164	1961.02
423.606	1923.33
424.048	1917.4
424.49	1816.57
424.932	1803.65
425.374	1775.84
425.816	1803.95
426.258	1834.57
426.699	1848.85
427.141	1813.73
427.582	1840.15
428.024	1828
428.465	1816.18
428.907	1765.18
429.348	1741.35
429.789	1736.54
430.231	1697.32
430.672	1716.71
431.113	1674.87
431.554	1649.65
431.995	1612.55
432.436	1550.44
432.877	1513.09
433.318	1482.48
433.759	1477.88
434.2	1476.91
434.64	1461.4
435.081	1465.47
435.522	1388.58
435.962	1340.35
436.403	1311.31
436.843	1330.23
437.284	1306.43
437.724	1276.92
438.164	1286.37
438.604	1261.27
439.045	1215.41
439.485	1169.45
439.925	1148.67
440.365	1125.81
440.805	1114.82
441.245	1105.06
441.685	1070.76
442.125	1068.93
442.564	1082.02
443.004	1063.25
443.444	1067.09
443.883	1077.22
444.323	1078.13
444.762	1089.66
445.202	1113.3
445.641	1141.55
446.081	1145.74
446.52	1162.14
446.959	1157.43
447.398	1134.81
447.837	1129.37
448.276	1118.87
448.716	1139.04
449.154	1157.96
449.593	1136.97
450.032	1139.33
450.471	1125.88
450.91	1134.03
451.349	1137.57
451.787	1142.48
452.226	1165.59
452.664	1171.8
453.103	1178.48
453.541	1180.93
453.98	1180.87
454.418	1194.49
454.856	1178.42
455.295	1181.82
455.733	1193.61
456.171	1203.87
456.609	1206.6
457.047	1208.55
457.485	1227.88
457.923	1230.67
458.361	1216.22
458.798	1223.08
459.236	1221.6
459.674	1232.7
460.111	1237.33
460.549	1226.13
460.987	1222.67
461.424	1219.61
461.862	1217.05
462.299	1198.04
462.736	1196.53
463.173	1201.77
463.611	1185.2
464.048	1180.5
464.485	1189.05
464.922	1178.99
465.359	1174.57
465.796	1150.07
466.233	1140.41
466.67	1125.64
467.106	1122.58
467.543	1112.93
467.98	1100.94
468.416	1075.8
468.853	1069.38
469.29	1039.52
469.726	1029.12
470.162	1001.39
470.599	996.8
471.035	989.87
471.471	969.02
471.907	966.32
472.344	961.69
472.78	963.84
473.216	977.64
473.652	967.33
474.088	966.37
474.523	964.48
474.959	974.64
475.395	966.6
475.831	960.74
476.266	966.85
476.702	964.55
477.138	954.64
477.573	951.75
478.008	948.64
478.444	953.39
478.879	961.05
479.314	965.66
479.75	966.8
480.185	974.1
480.62	985.8
481.055	992.38
481.49	1000.09
481.925	1017.15
482.36	1035.34
482.795	1066.54
483.229	1097.78
483.664	1125.31
484.099	1133.05
484.534	1152.08
484.968	1165.35
485.403	1173.11
485.837	1176.59
486.271	1178.87
486.706	1183.76
487.14	1175.63
487.574	1160.93
488.009	1154.76
488.443	1149.17
488.877	1165.37
489.311	1174.9
489.745	1194.98
490.179	1209.89
490.613	1236.31
491.046	1252.37
491.48	1268.05
491.914	1276.16
492.348	1292.63
492.781	1307.22
493.215	1317.7
493.648	1327.23
494.082	1345.88
494.515	1352.37
494.948	1374.33
495.382	1393.27
495.815	1411.11
496.248	1430.76
496.681	1466.77
497.114	1500.59
497.547	1530.11
497.98	1564.8
498.413	1586.62
498.846	1615.4
499.279	1645.32
499.711	1665.52
500.144	1681.08
500.577	1711.62
501.009	1744.02
501.442	1771.81
501.874	1782.86
502.306	1798
502.739	1819.11
503.171	1860.53
503.603	1876.76
504.036	1903.96
504.468	1923.19
504.9	1955.32
505.332	1979.02
505.764	1994.86
506.196	2017.08
506.627	2054.59
507.059	2088.24
507.491	2117.07
507.923	2116.51
508.354	2152.76
508.786	2179.52
509.217	2222.37
509.649	2255.04
510.08	2298.43
510.512	2335.01
510.943	2368.05
511.374	2392.39
511.805	2436.09
512.237	2477.25
512.668	2548.21
513.099	2605.59
513.53	2662.24
513.961	2702.32
514.391	2767.29
514.822	2831.11
515.253	2903.01
515.684	2950.89
516.114	3005.45
516.545	3041.11
516.975	3087.41
517.406	3114.5
517.836	3108.66
518.267	3109.69
518.697	3134.33
519.127	3131.21
519.558	3135.61
519.988	3131.36
520.418	3143.27
520.848	3169.12
521.278	3175.54
521.708	3153.07
522.138	3166.1
522.567	3219.91
522.997	3260.74
523.427	3281.54
523.857	3303.78
524.286	3313.42
524.716	3332.16
525.145	3356.6
525.575	3366.72
526.004	3387.08
526.433	3406.07
526.863	3395.53
527.292	3362.81
527.721	3364.17
528.15	3368.32
528.579	3360.72
529.008	3372.88
529.437	3412.39
529.866	3433.57
530.295	3461.2
530.724	3475.49
531.152	3523.34
531.581	3546.19
532.01	3574.74
532.438	3587.85
532.867	3611.45
533.295	3644.92
533.723	3652.89
534.152	3642.84
534.58	3636.67
535.008	3601.46
535.436	3602.38
535.865	3614.87
536.293	3642.4
536.721	3673.37
537.149	3718.46
537.576	3721.11
538.004	3743.21
538.432	3757.97
538.86	3752.73
539.287	3767.58
539.715	3795.13
540.143	3801.87
540.57	3793.88
540.998	3785.69
541.425	3736.8
541.852	3696.98
542.28	3693.34
542.707	3661.2
543.134	3632.81
543.561	3623.77
543.988	3606.95
544.415	3604.53
544.842	3592.25
545.269	3575.25
545.696	3576.51
546.123	3601.42
546.549	3579.88
546.976	3552.64
547.403	3550.69
547.829	3552.78
548.256	3555.88
548.682	3547.14
549.108	3528.98
549.535	3527.07
549.961	3530.89
550.387	3503.3
550.813	3490.83
551.24	3500.9
551.666	3503.3
552.092	3483.88
552.518	3471.38
552.943	3459.77
553.369	3474.45
553.795	3485.99
554.221	3487.58
554.646	3481.83
555.072	3502.19
555.498	3516.99
555.923	3537.6
556.349	3567.73
556.774	3586.55
557.199	3592.18
557.625	3605.71
558.05	3595.87
558.475	3620.43
558.9	3620.39
559.325	3607.77
559.75	3598.83
560.175	3588.43
560.6	3580.63
561.025	3582.28
561.449	3589.21
561.874	3605.7
562.299	3618.79
562.723	3640.42
563.148	3627.82
563.572	3643.69
563.997	3670.61
564.421	3691.65
564.846	3699.15
565.27	3712.59
565.694	3715.15
566.118	3747.35
566.542	3770.2
566.966	3766.42
567.39	3766.06
567.814	3751.91
568.238	3760.74
568.662	3782.11
569.086	3797.07
569.509	3823.15
569.933	3800.48
570.357	3794.43
570.78	3760.8
571.204	3741.63
571.627	3730.51
572.05	3735.81
572.474	3743.35
572.897	3725.18
573.32	3715.59
573.743	3704.61
574.166	3673.56
574.589	3683.44
575.012	3676.03
575.435	3681.45
575.858	3669.61
576.281	3654.05
576.704	3627.73
577.126	3610.03
577.549	3594.73
577.972	3582.26
578.394	3564.58
578.817	3553.13
579.239	3518.75
579.661	3494.98
580.084	3465.24
580.506	3442.66
580.928	3439.71
581.35	3421.21
581.772	3417.49
582.194	3392.45
582.616	3366.52
583.038	3341.25
583.46	3325.38
583.882	3322.23
584.303	3336.98
584.725	3334.13
585.147	3335.99
585.568	3362.94
585.99	3392.85
586.411	3409.32
586.833	3446.29
587.254	3455.89
587.675	3491.96
588.096	3523.39
588.518	3515.46
588.939	3481.29
589.36	3478.02
589.781	3466.39
590.202	3399.57
590.623	3383.79
591.043	3383.53
591.464	3355.65
591.885	3348.17
592.305	3336.3
592.726	3306.89
593.147	3311.62
593.567	3300.4
593.987	3285.17
594.408	3275.38
594.828	3278.63
595.248	3265.78
595.669	3223.37
596.089	3210.34
596.509	3197.79
596.929	3168.33
597.349	3170.78
597.769	3148.65
598.189	3137.33
598.608	3142.19
599.028	3148.38
599.448	3149.42
599.867	3123.93
600.287	3117.63
600.706	3109.79
601.126	3090.29
601.545	3088.51
601.965	3087.83
602.384	3079.32
602.803	3088.4
603.222	3078.94
603.641	3065.66
604.061	3058.9
604.48	3052.29
604.898	3073.74
605.317	3087.35
605.736	3095.4
606.155	3090.75
606.574	3073.6
606.992	3089.63
607.411	3081.27
607.829	3068.03
608.248	3064.61
608.666	3064.21
609.085	3065.91
609.503	3049.42
609.921	3039.03
610.339	3047.55
610.758	3053.39
611.176	3047.73
611.594	3029.15
612.012	3026.38
612.43	3035.9
612.847	3055.93
613.265	3062.03
613.683	3078.64
614.101	3086.53
614.518	3083.46
614.936	3064.64
615.353	3033.79
615.771	3031.25
616.188	3037.22
616.606	3033.14
617.023	3021.78
617.44	2992.66
617.857	2983.43
618.274	2966.98
618.691	2955.29
619.108	2937.18
619.525	2927.22
619.942	2946.22
620.359	2953.66
620.776	2943.81
621.192	2935.89
621.609	2933.01
622.026	2949.35
622.442	2963.06
622.859	2973.29
623.275	2960.16
623.691	2974.17
624.108	3001.27
624.524	3037.11
624.94	3040.68
625.356	3067.37
625.772	3103.02
626.188	3132.96
626.604	3137.98
627.02	3130.48
627.436	3125.5
627.852	3140.37
628.268	3169.47
628.683	3149.37
629.099	3129.43
629.514	3120.14
629.93	3130.2
630.345	3138.92
630.761	3131.64
631.176	3142.31
631.591	3125.84
632.007	3111.2
632.422	3110.46
632.837	3086.59
633.252	3081.6
633.667	3058.88
634.082	3036.56
634.497	3004.74
634.911	2955.86
635.326	2946.28
635.741	2904.06
636.155	2883.5
636.57	2884.76
636.984	2882.61
637.399	2883.93
637.813	2883.23
638.228	2879.38
638.642	2888.46
639.056	2865.07
639.47	2867.28
639.884	2845.49
640.298	2831.14
640.712	2823.97
641.126	2795.45
641.54	2773.77
641.954	2762.38
642.368	2730.46
642.781	2704.74
643.195	2660.49
643.609	2658.18
644.022	2640.95
644.436	2630.46
644.849	2598.35
645.262	2569.35
645.676	2568.17
646.089	2553.55
646.502	2511.81
646.915	2495.74
647.328	2454.95
647.741	2445.23
648.154	2409.95
648.567	2397.3
648.98	2361.4
649.393	2360.37
649.805	2348.93
650.218	2329.72
650.631	2289.84
651.043	2275.11
651.456	2260.11
651.868	2260.77
652.28	2300.93
652.693	2331.58
653.105	2345.33
653.517	2368.11
653.929	2365.99
654.341	2376.2
654.753	2345.59
655.165	2359.3
655.577	2350.79
655.989	2337.27
656.401	2320.08
656.813	2233.58
657.224	2186.05
657.636	2121.47
658.047	2075.93
658.459	2029.02
658.87	2006.37
659.282	1977.18
659.693	1922.64
660.104	1884.06
660.515	1848.47
660.926	1835.24
661.338	1822.74
661.749	1801.29
662.159	1770.28
662.57	1752.6
662.981	1732.65
663.392	1706.1
663.803	1704.23
664.213	1690.26
664.624	1671.23
665.035	1666.25
665.445	1628.95
665.855	1602.2
666.266	1573.23
666.676	1559.99
667.086	1531.82
667.497	1519.09
667.907	1497.74
668.317	1469.83
668.727	1450.19
669.137	1443.42
669.547	1429.25
669.956	1426.29
670.366	1422.49
670.776	1417.85
671.186	1418.24
671.595	1417.59
672.005	1419.94
672.414	1412.18
672.824	1403.55
673.233	1410.37
673.642	1409.06
674.052	1411.56
674.461	1411.38
674.87	1417.16
675.279	1410.56
675.688	1411.47
676.097	1410.91
676.506	1404.4
676.915	1432.53
677.323	1438.78
677.732	1437.84
678.141	1440.93
678.549	1426.91
678.958	1430.73
679.366	1434.99
679.775	1453.61
680.183	1479.46
680.592	1502.58
681	1526.13
681.408	1527.09
681.816	1559.78
682.224	1595.54
682.632	1633.27
683.04	1714.85
683.448	1789.52
683.856	1878.11
684.264	1978.73
684.671	2081.47
685.079	2199.86
685.487	2328.75
685.894	2501.24
686.302	2648.06
686.709	2772.62
687.116	2918.01
687.524	3035.18
687.931	3136.92
688.338	3227.72
688.745	3303.44
689.152	3382.75
689.559	3482.65
689.966	3575.34
690.373	3611
690.78	3690.44
691.187	3820.79
691.593	3908.14
692	3981.76
692.407	4096.77
692.813	4232.27
693.22	4330.31
693.626	4433.11
694.032	4499.86
694.439	4625.23
694.845	4707.17
695.251	4823.49
695.657	4915.98
696.063	5079.6
696.469	5181.41
696.875	5268.4
697.281	5294.56
697.687	5338.02
698.093	5362.01
698.498	5462.31
698.904	5525.24
699.31	5652.11
699.715	5717.24
700.12	5847.32
700.526	5827.36
700.931	5912.05
701.337	5963.28
701.742	5978.11
702.147	6091.78
702.552	6099.73
702.957	6170.28
703.362	6162.14
703.767	6169.2
704.172	6204.24
704.577	6074.24
704.981	6122.54
705.386	6112.43
705.791	6058.27
706.195	6155.44
706.6	6133.74
707.004	6240.74
707.408	6148.65
707.813	6160.17
708.217	6104.23
708.621	6075.02
709.025	6210.05
709.43	6175.46
709.834	6245.24
710.237	6333.07
710.641	6276.83
711.045	6285
711.449	6244.44
711.853	6260.85
712.256	6307.24
712.66	6343.29
713.064	6439.46
713.467	6480.49
713.87	6638.31
714.274	6685.31
714.677	6834.55
715.08	7068.84
715.484	7310.57
715.887	7607.56
716.29	7901.52
716.693	8198.88
717.096	8553.63
717.499	8731.89
717.901	8745.23
718.304	8763.6
718.707	8775.67
719.109	8594.9
719.512	8520.58
719.915	8283.06
720.317	8172.71
720.719	8218.77
721.122	8157.38
721.524	8056.18
721.926	7970.98
722.328	8102.75
722.731	8070.04
723.133	8096.47
723.535	8370.41
723.937	8382.45
724.338	8443.84
724.74	8487.26
725.142	8332.2
725.544	8310.22
725.945	8326.25
726.347	8308.77
726.748	8286.01
727.15	8288.81
727.551	8217.03
727.952	8159.68
728.354	8105.57
728.755	8098.43
729.156	8027.03
729.557	8036.74
729.958	7848.35
730.359	7764.39
730.76	7728.85
731.161	7630.16
731.562	7590.05
731.962	7589.74
732.363	7490.75
732.763	7390.28
733.164	7434.56
733.564	7332
733.965	7186.63
734.365	7128.16
734.766	7165.56
735.166	7102.01
735.566	7018.2
735.966	6972.42
736.366	6958.99
736.766	6864.72
737.166	6905.32
737.566	6840.38
737.966	6797.97
738.365	6848.49
738.765	6838.05
739.165	6725.55
739.564	6685.22
739.964	6747.22
740.363	6676.27
740.763	6667.53
741.162	6646.64
741.561	6598.18
741.96	6531.33
742.36	6556.62
742.759	6562.22
743.158	6612.55
743.557	6630.25
743.955	6684.77
744.354	6617.09
744.753	6697.53
745.152	6635.01
745.55	6712.33
745.949	6701.81
746.348	6700.25
746.746	6724.06
747.144	6663.24
747.543	6632.1
747.941	6698.28
748.339	6595.1
748.737	6581.71
749.136	6566.98
749.534	6658.28
749.932	6612.32
750.33	6643.4
750.727	6721.27
751.125	6684.55
751.523	6662.74
751.921	6719.12
752.318	6671.71
752.716	6752.05
753.113	6772.5
753.511	6808.55
753.908	6807.97
754.305	6782.11
754.703	6869.73
755.1	6954.13
755.497	7035.79
755.894	7303.76
756.291	7556.05
756.688	8018.01
757.085	8636.46
757.482	9498.97
757.878	10442.92
758.275	11300.54
758.672	12484.49
759.068	13442.55
759.465	14810.63
759.861	16579.58
760.258	18628.31
760.654	19685.88
761.05	19524.07
761.447	18629.17
761.843	17348.58
762.239	16018.15
762.635	15418.25
763.031	14845.33
763.427	14011.36
763.822	13133.68
764.218	12272.61
764.614	11152.88
765.01	10400.33
765.405	9915.94
765.801	9548.02
766.196	9073.02
766.592	8808.13
766.987	8366.68
767.382	8063.31
767.778	7937.29
768.173	7755
768.568	7650.29
768.963	7470.51
769.358	7494.73
769.753	7427.3
770.148	7308.06
770.542	7310.68
770.937	7271.71
771.332	7395.96
771.726	7425.29
772.121	7330.23
772.515	7407.69
772.91	7390.45
773.304	7496.08
773.699	7405.87
774.093	7482.02
774.487	7558.64
774.881	7617.5
775.275	7612.71
775.669	7555.38
776.063	7619.46
776.457	7675.41
776.851	7568.28
777.245	7556.49
777.638	7600.38
778.032	7762.98
778.425	7710.7
778.819	7772.67
779.212	7717.6
779.606	7658.28
779.999	7686.86
780.392	7660.93
780.786	7777.87
781.179	7810.9
781.572	7867.29
781.965	7884
782.358	7802.54
782.751	7885.32
783.143	7818.72
783.536	7914.65
783.929	7976.51
784.322	8135.6
784.714	8183.94
785.107	8178.11
785.499	8277.25
785.891	8247.19
786.284	8223.34
786.676	8421.43
787.068	8391.76
787.46	8462.7
787.852	8494.03
788.245	8614.31
788.636	8659.24
789.028	8748.38
789.42	8800.51
789.812	8814.18
790.204	8951.69
790.595	9085.03
790.987	8811.14
791.378	8844.49
791.77	9023.11
792.161	9212.91
792.553	9287.14
792.944	9128.87
793.335	9036.34
793.726	9140.97
794.117	9264.26
794.508	9453.56
794.899	9414.7
795.29	9611.23
795.681	9690.38
796.072	9489.41
796.463	9213.13
796.853	9222.63
797.244	9440.1
797.634	9483.59
798.025	9476.09
798.415	9488.18
798.806	9608.41
799.196	9727.22
799.586	9792.99
799.976	9738.13
800.366	10064.86
800.756	10415.33
801.146	10362.37
801.536	10402.85
801.926	10506.42
802.316	10542.31
802.706	10644.65
803.095	10474.91
803.485	10616.31
803.874	10677.26
804.264	11041.83
804.653	11003.33
805.043	11199.09
805.432	11349.43
805.821	11349.15
806.21	11379.36
806.599	11547.17
806.988	11610.65
807.377	11764.35
807.766	11940.48
808.155	12333.29
808.544	11961.41
808.933	11984.75
809.321	11956.41
809.71	12368.24
810.098	12585.48
810.487	13226.18
810.875	13892.42
811.264	13921.83
811.652	14309.51
812.04	14513.97
812.428	14742.62
812.816	15809.21
813.204	16385.77
813.592	17160.06
813.98	17623.7
814.368	17492.94
814.756	18159.17
815.144	18054.97
815.531	18704.29
815.919	18603.26
816.306	19023.98
816.694	18592.22
817.081	18659.17
817.469	19130.9
817.856	19124.25
818.243	19497.91
818.63	20043.76
819.017	19456.28
819.404	19534.52
819.791	20062.2
820.178	20922.38
820.565	21277.69
820.952	22557.04
821.339	21868.01
821.725	22128.75
822.112	21093.78
822.498	21037.68
822.885	21219.94
823.271	21090.78
823.657	21676.45
824.044	21675.54
824.43	21787.19
824.816	21731.93
825.202	21134.27
825.588	22552.33
825.974	22568.38
826.36	23280.13
826.746	23324.82
827.132	23817.86
827.517	23781.49
827.903	22689.01
828.289	22753.77
828.674	21671.91
829.06	21532.72
829.445	22085.19
829.83	22581.69
830.216	23249.28
830.601	23767.96
830.986	23204.34
831.371	23010.75
831.756	23779.44
832.141	23182.84
832.526	23169.47
832.911	23551.28
833.295	23393.05
833.68	24048.81
834.065	23182.4
834.449	21915.52
834.834	21807.11
835.218	21805.29
835.603	22284.25
835.987	21996.28
836.371	23158.33
836.755	23020.38
837.139	23578.7
837.524	23915.99
837.908	23664.72
838.291	23749.55
838.675	23843.95
839.059	24136.64
839.443	24120.39
839.827	23804.33
840.21	24471.96
840.594	24258.03
840.977	24545.89
841.361	24518.75
841.744	25043.33
842.127	24833.21
842.511	25180.57
842.894	26018.42
843.277	26549.09
843.66	27313.15
844.043	27416.79
844.426	26292.77
844.809	25869.07
845.191	25911.86
845.574	25272.96
845.957	24767.77
846.339	24614.41
846.722	23890.46
847.104	23980.38
847.487	23743.73
847.869	23752.72
848.252	24152.26
848.634	24617.65
849.016	24984.42
849.398	25157.65
849.78	26346.21
850.162	26360.23
850.544	26947.15
850.926	27827.3
851.307	27704.75
851.689	28098.98
852.071	28730.84
852.452	29178.91
852.834	29145.4
853.215	29707.75
853.597	29921.76
853.978	30322.45
854.359	30946.28
854.741	29557.03
855.122	29409.11
855.503	29021.07
855.884	29208.51
856.265	29121.14
856.646	29283.81
857.026	28737.69
857.407	28637.02
857.788	28865.47
858.169	29276.29
858.549	28085.83
858.93	28950.98
859.31	29010.78
859.69	29286.88
860.071	28717.14
860.451	28424.75
860.831	27404.31
861.211	29016.27
861.591	29786.32
861.971	29733.81
862.351	29988.53
862.731	30529.67
863.111	30889.22
863.491	31344.74
863.87	32568.86
864.25	33050.43
864.629	32473.89
865.009	33172.73
865.388	34351.93
865.768	36799.77
866.147	36648.61
866.526	34618.94
866.905	35010.38
867.284	36973.58
867.663	35109.2
868.042	33629.43
868.421	33515.79
868.8	34084.24
869.179	34413.23
869.558	32409.26
869.936	29866.86
870.315	30415.12
870.693	31160.62
871.072	33632.84
871.45	32044.29
871.828	32452.16
872.207	34112.88
872.585	33612.31
872.963	34522.71
873.341	33314.21
873.719	32904.05
874.097	32511.18
874.475	33113.1
874.853	33871.72
875.23	32447.18
875.608	33795.92
875.986	36558.29
876.363	34976.23
876.741	36017.88
877.118	35112.79
877.495	36861.88
877.873	37486.85
878.25	39459.51
878.627	37864.47
879.004	38382.14
879.381	38202.21
879.758	37203.67
880.135	34640.89
880.512	36616.08
880.889	35650.02
881.265	35300.3
881.642	35008.71
882.019	35592.5
882.395	34853.08
882.772	36224.64
883.148	34656.81
883.524	34524.3
883.901	34319.39
884.277	34841.68
884.653	34630.52
885.029	35619.26
885.405	39428.32
885.781	39118.97
886.157	37522.59
886.532	37981.15
886.908	37959.8
887.284	42218.25
887.659	43601.19
888.035	44976.49
888.411	46141.7
888.786	46768.56
889.161	48423.48
889.537	47540.55
889.912	49061.63
890.287	49016.41
890.662	50292.21
891.037	49407.96
891.412	46090.2
891.787	45630.06
892.162	44042.42
892.536	45062.75
892.911	43364.64
893.286	42437.71
893.66	40719.13
894.035	41747.03
894.409	45454.79
894.784	43630.36
895.158	44353.17
895.532	46956.08
895.906	48224.35
896.281	49346.26
896.655	48559.56
897.029	55471.52
897.402	57773.53
897.776	64321.51
898.15	64118.22
898.524	63427.67
898.898	64265.82
899.271	71940.8
899.645	62307.37
900.018	59844.75
900.392	62056.11
900.765	62556.99
901.138	57915.38
901.511	57041.5
901.884	52372.29
902.258	48319.32
902.631	49937.29
903.003	57481.5
903.376	51873.75
903.749	58187.4
904.122	62295.24
904.495	68586.79
904.867	69457.67
905.24	60279.18
905.612	56114.44
905.985	57387.71
906.357	60000.47
906.729	57257.9
907.102	48894
907.474	47014.68
907.846	47316.66
908.218	46702.75
908.59	41268.47
908.962	39904.82
909.334	42957.91
909.705	45118.03
910.077	43803.63
910.449	45603.45
910.82	46875
911.192	51592.13
911.563	53591.58
911.935	57338.96
912.306	57414.04
912.677	59278.29
913.048	58674.83
913.419	63690.8
913.79	64060.54
914.161	68679.57
914.532	65609.6
914.903	60322.78
915.274	57296.31
915.645	56446.77
916.015	49671.76
916.386	47360.28
916.756	50414.52
917.127	52018.84
917.497	46492.12
917.868	50602.62
918.238	48083.18
918.608	49503.1
918.978	50506.7
919.348	53470.35
919.718	55254.23
920.088	53229.32
920.458	55275.85
920.828	58185.52
921.198	55174.91
921.567	58925.64
921.937	45625.12
922.306	46051.14
922.676	49626.58
923.045	41386.25
923.415	39289.5
923.784	35769.58
924.153	36767
924.522	36736.54
924.891	34522.85
925.26	36960.77
925.629	36073.51
925.998	41473.59
926.367	40491.24
926.736	38563.26
927.104	45953.68
927.473	49407.44
927.842	59661.34
928.21	59114.37
928.578	62121.74
928.947	58721.72
929.315	59069.25
929.683	69280.18
930.051	69833.64
930.42	81088.79
930.788	69313.31
931.156	68774.56
931.523	64461.21
931.891	59592.24
932.259	57221.27
932.627	66330.24
932.994	93970.4
933.362	77671.77
933.729	67465.13
934.097	64579.84
934.464	54668.47
934.831	63071.26
935.199	62182.37
935.566	60299.21
935.933	61174.59
936.3	74091.35
936.667	57676.78
937.034	51916.38
937.401	51364.72
937.767	44327.6
938.134	39448.86
938.501	55616.31
938.867	59238.18
939.234	100115.45
939.6	85492.67
939.967	94022.16
940.333	62849.35
940.699	53506.51
941.065	43001.65
941.431	56322.76
941.798	54269.36
942.163	71175
942.529	44449.14
942.895	40932.18
943.261	26469.67
943.627	34726.39
943.992	30392.17
944.358	30454.81
944.723	30565.29
945.089	29783.13
945.454	27528.67
945.82	29393.36
946.185	28293.37
946.55	32774.06
946.915	29416.05
947.28	34539.91
947.645	30411.81
948.01	28078.81
948.375	29313.36
948.74	35131.53
949.104	40979.23
949.469	59252.63
949.834	104801.73
950.198	99232.89
950.562	59472.98
950.927	49467.51
951.291	59537.47
951.655	50764.77
952.02	47707.97
952.384	36056.07
952.748	31384.07
953.112	30559.14
953.476	26569.92
953.839	24573.75
954.203	24344.84
954.567	30455.3
954.931	48065.65
955.294	41087.03
955.658	41300.17
956.021	70196.81
956.385	119153.87
956.748	175852.16
957.111	273449.92
957.474	307039.87
957.837	345959.31
958.2	261949.14
958.563	94279.78
958.926	63702.94
959.289	96719.26
959.652	108079.39
960.015	81161.36
960.377	116526.72
960.74	133003.75
961.102	229586.09
961.465	246248.42
961.827	131655.78
962.189	252438.6
962.552	175041.68
962.914	140266.23
963.276	91086.28
963.638	75314.23
964	74595.21
964.362	50431.73
964.724	48816.85
965.085	34801.31
965.447	28563.33
965.809	32586.03
966.17	32658.48
966.532	35343.7
966.893	32461.57
967.255	29530.39
967.616	34811
967.977	27873.01
968.338	30438.57
968.699	24975.78
969.061	24981.37
969.421	25139.7
969.782	28223.17
970.143	23816.54
970.504	24642.38
970.865	27991.28
971.225	28598.12
971.586	27996.49
971.946	39925.28
972.307	34645.87
972.667	45339.9
973.027	46670.8
973.388	56618.68
973.748	38487.07
974.108	41920.84
974.468	56780.56
974.828	43744.02
975.188	33659.88
975.548	30950.54
975.907	25956.51
976.267	29084.43
976.627	24434.12
976.986	25339.37
977.346	24154.65
977.705	23246.33
978.064	21186.44
978.424	17649.23
978.783	18290.14
979.142	20903.31
979.501	19988.85
979.86	21151.07
980.219	20407.06
980.578	26335.89
980.937	29504.65
981.296	26318.9
981.654	27079.19
982.013	42172.12
982.371	54658.98
982.73	51022.37
983.088	57757.97
983.447	61688.91
983.805	88211.34
984.163	184444.09
984.521	204704.71
984.879	300383.42
985.237	-488095.17
985.595	470372.73
985.953	116804.46
986.311	67533.46
986.669	39241.73
987.026	33887.34
987.384	45629.04
987.741	47177.07
988.099	33667.03
988.456	26805
988.814	25083.81
989.171	21816.43
989.528	21568.09
989.885	22762.79
990.242	18005.52
990.599	22414.58
990.956	18327.02
991.313	12797.97
991.67	10501.42
992.027	11106.56
992.383	9867.38
992.74	8640.31
993.096	9058.54
993.453	9387.54
993.809	9745.76
994.165	12978.62
994.522	11861.17
994.878	13070.02
995.234	16402.81
995.59	16175.24
995.946	15359.58
996.302	17537.57
996.658	20311.28
997.013	22396.66
997.369	26550.33
997.725	33931.89
998.08	21994.76
998.436	34017.81
998.791	46909.14
999.147	46874.68
999.502	51191.09
999.857	37238.86
1000.212	60639.36
1000.567	86273.51
1000.922	49688.59
1001.277	31550.19
1001.632	23463.38
1001.987	30238.43
1002.342	21713.86
1002.696	17387.28
1003.051	13848.08
1003.406	16757.07
1003.76	16662.24
1004.114	16443.82
1004.469	13807.75
1004.823	11448.32
1005.177	12365.39
1005.531	9781.74
1005.885	8663.46
1006.239	9769.34
1006.593	12208.25
1006.947	16353.94
1007.301	12287.68
1007.655	13395.51
1008.008	9840.86
1008.362	11076.47
1008.715	15819.42
1009.069	14365.16
1009.422	21548.93
1009.776	43320.04
1010.129	28719.82
1010.482	24052
1010.835	20384.05
1011.188	42382.01
1011.541	39961.15
1011.894	-244226.89
1012.247	717006.81
1012.6	48691.75
1012.952	30657.67
1013.305	15877.3
1013.657	11442.36
1014.01	10836.13
1014.362	8965.22
1014.715	7900.51
1015.067	6859.9
1015.419	6688.11
1015.771	5926.97
1016.123	5274.64
1016.475	5419.98
1016.827	5796.42
1017.179	6204.17
1017.531	6246.82
1017.883	6396.37
1018.234	6115.02
1018.586	7769.08
1018.938	8212.99
1019.289	11344.96
1019.64	13001.06
1019.992	12100.06
1020.343	11082.54
1020.694	8701.31
1021.045	7711.54
1021.396	8794.5
1021.747	9407.58
1022.098	11407.1
1022.449	8260.27
1022.8	7675.56
1023.151	5353.25
1023.501	4710.12
1023.852	5138.02
1024.202	5323.59
1024.553	5868.06
1024.903	5697.81
1025.253	4864.13
1025.604	4385.73
1025.954	5458.4
1026.304	6671.56
1026.654	7818.91
1027.004	11507.21
1027.354	18760.16
1027.703	17591.32
1028.053	23176.52
1028.403	33782.55
1028.753	49298.41
1029.102	67474.75
1029.452	347400.41
1029.801	14936.79
1030.15	9653.46
1030.499	8190.65
897.758	2242.77
901.051	2177.27
904.343	2212.33
907.636	2219.66
910.928	2281.5
914.22	2199.89
917.511	2201.97
920.803	2258.11
924.094	2255.44
927.384	2257.74
930.675	2221
933.965	2182.46
937.255	2214.32
940.544	2180.09
943.834	2180.51
947.123	2120.01
950.411	2210.99
953.7	2192.29
956.988	2174.33
960.276	2112.57
963.563	2163.94
966.851	2177.24
970.138	2220.66
973.424	2220.93
976.711	2174.38
979.997	2223.48
983.283	2268.54
986.568	2197.28
989.853	2187.96
993.138	2216.97
996.423	2302.6
999.708	2257.74
1002.992	2290.75
1006.275	2198.39
1009.559	2203.81
1012.842	2306.29
1016.125	2258.49
1019.408	2239.87
1022.69	2298.61
1025.972	2335.71
1029.254	2306.94
1032.536	2267.37
1035.817	2280.18
1039.098	2248.81
1042.379	2308.3
1045.659	2337.49
1048.939	2285.52
1052.219	2292.47
1055.498	2286.69
1058.778	2286.49
1062.057	2259.58
1065.335	2285.92
1068.614	2299.69
1071.892	2295.11
1075.17	2351.68
1078.447	2353.7
1081.724	2350.41
1085.001	2376.41
1088.278	2352.77
1091.554	2360.97
1094.83	2354.33
1098.106	2393.26
1101.382	2425.53
1104.657	2425.47
1107.932	2425.29
1111.206	2400.6
1114.481	2355.84
1117.755	2354.4
1121.029	2344.94
1124.302	2412.14
1127.575	2373.42
1130.848	2369.3
1134.121	2339.24
1137.393	2299.46
1140.665	2362.22
1143.937	2340.54
1147.208	2289.56
1150.48	2347.16
1153.75	2336.11
1157.021	2342.2
1160.291	2316.77
1163.561	2374.88
1166.831	2341.27
1170.101	2369.99
1173.37	2329.88
1176.639	2283.2
1179.907	2328.29
1183.176	2352.27
1186.444	2352.69
1189.711	2380.16
1192.979	2403.38
1196.246	2356.15
1199.513	2369.36
1202.78	2376.1
1206.046	2385.17
1209.312	2413.13
1212.578	2432.77
1215.843	2398.75
1219.108	2362.51
1222.373	2389.4
1225.638	2358.98
1228.902	2352.1
1232.166	2307.76
1235.43	2293.85
1238.693	2319.13
1241.956	2310.28
1245.219	2359.75
1248.482	2339.9
1251.744	2339.26
1255.006	2468.22
1258.268	2414.17
1261.529	2368.44
1264.79	2367.47
1268.051	2471.07
1271.312	2480.17
1274.572	2450.55
1277.832	2439.53
1281.092	2418.6
1284.351	2410.26
1287.61	2394.57
1290.869	2327.78
1294.128	2323.53
1297.386	2372.86
1300.644	2365.34
1303.902	2375.1
1307.159	2241.13
1310.416	2293.08
1313.673	2321.18
1316.93	2322.38
1320.186	2352.51
1323.442	2388.32
1326.697	2385.08
1329.953	2357.35
1333.208	2394.98
1336.463	2367.41
1339.717	2326.26
1342.972	2435.33
1346.226	2406.68
1349.479	2351.73
1352.733	2327.89
1355.986	2334.89
1359.238	2313.75
1362.491	2321.43
1365.743	2321.1
1368.995	2311.91
1372.247	2325.17
1375.498	2344.79
1378.749	2385.63
1382	2334.96
1385.251	2373.05
1388.501	2323.92
1391.751	2324.33
1395	2287.06
1398.25	2312.03
1401.499	2334.02
1404.748	2282.46
1407.996	2258.59
1411.244	2245.67
1414.492	2230.78
1417.74	2212.23
1420.987	2218.8
1424.234	2279.41
1427.481	2240.33
1430.728	2300.25
1433.974	2276.29
1437.22	2276.1
1440.465	2271.73
1443.711	2269.37
1446.956	2297.06
1450.201	2268.3
1453.445	2314.3
1456.689	2300.77
1459.933	2313.91
1463.177	2356.01
1466.42	2327.74
1469.663	2309.39
1472.906	2324.44
1476.148	2377.1
1479.391	2351.86
1482.633	2325.14
1485.874	2351.65
1489.115	2357.59
1492.356	2343.9
1495.597	2322.7
1498.838	2317.32
1502.078	2301.18
1505.318	2272.28
1508.557	2308.09
1511.797	2307.34
1515.036	2352.09
1518.274	2324.33
1521.513	2279.01
1524.751	2292.45
1527.989	2318.36
1531.227	2337.44
1534.464	2352.53
1537.701	2346.1
1540.938	2360.53
1544.174	2309.24
1547.41	2298.92
1550.646	2337.27
1553.882	2389.28
1557.117	2447.32
1560.352	2456.44
1563.587	2417.95
1566.821	2383.68
1570.055	2398.31
1573.289	2381.53
1576.523	2443.36
1579.756	2455.62
1582.989	2478.12
1586.222	2439.91
1589.454	2470.06
1592.686	2454.42
1595.918	2483.09
1599.15	2479.59
1602.381	2525.8
1605.612	2508.27
1608.843	2605.41
1612.073	2526.48
1615.303	2514.63
1618.533	2512.16
1621.762	2509.69
1624.992	2483.67
1628.221	2486.58
1631.449	2471.23
1634.678	2500.17
1637.906	2469.84
1641.134	2499.27
1644.361	2461.43
1647.588	2449.07
1650.815	2471.65
1654.042	2432.84
1657.269	2462.77
1660.495	2441.57
1663.72	2425.45
1666.946	2396
1670.171	2366.82
1673.396	2337.76
1676.621	2318.11
1679.845	2316.09
1683.069	2324.97
1686.293	2356.26
1689.517	2346.48
1692.74	2295.31
1695.963	2317.86
1699.185	2360.72
1702.408	2330.02
1705.63	2361.19
1708.852	2379.62
1712.073	2348.33
1715.294	2359.8
1718.515	2401.99
1721.736	2359.15
1724.956	2336.46
1728.176	2357.94
1731.396	2381.21
1734.616	2365.39
1737.835	2403.23
1741.054	2371.16
1744.272	2361.65
1747.491	2404.28
1750.709	2429.37
1753.927	2373.44
1757.144	2399.53
1760.361	2459.8
1763.578	2435.55
1766.795	2382.32
1770.011	2369.67
1773.227	2396
1776.443	2441.47
1779.658	2486.22
1782.874	2420.11
1786.089	2412.62
1789.303	2414.62
1792.518	2412.31
1795.732	2398.64
1798.945	2412.94
1802.159	2454.73
1805.372	2395.89
1808.585	2389.5
1811.797	2388.03
1815.01	2410.55
1818.222	2434.89
1821.434	2391.17
1824.645	2436.09
1827.856	2442.71
1831.067	2474.97
1834.278	2410.4
1837.488	2393.49
1840.698	2519.4
1843.908	2457.79
1847.117	2425.25
1850.326	2345.2
1853.535	2409.04
1856.744	2442.82
1859.952	2361.84
1863.16	2363.52
1866.368	2374.81
1869.575	2491
1872.782	2369.96
1875.989	2298.52
1879.196	2349.41
1882.402	2337.91
1885.608	2373.24
1888.814	2308.49
1892.019	2213.36
1895.224	2263.45
1898.429	2229.44
1901.634	2211.51
1904.838	2183.83
1908.042	2238.92
1911.246	2251.47
1914.449	2211.32
1917.652	2191.89
1920.855	2171
1924.058	2196.86
1927.26	2241.48
1930.462	2265.03
1933.664	2301.24
1936.865	2243.51
1940.066	2259.52
1943.267	2204.5
1946.467	2214.9
1949.668	2235.69
1952.868	2306.99
1956.067	2295.75
1959.267	2235.72
1962.466	2258.9
1965.665	2240.96
1968.863	2234.87
1972.061	2237.83
1975.259	2231.85
1978.457	2308.7
1981.654	2267.07
1984.852	2270.31
1988.048	2221.84
1991.245	2212.39
1994.441	2300.78
1997.637	2259.21
2000.833	2243.73
2004.028	2280.87
2007.223	2344.26
2010.418	2331.8
2013.613	2281.51
2016.807	2276.46
2020.001	2268.41
2023.194	2294.14
2026.388	2277.54
2029.581	2220.17
2032.774	2285.6
2035.966	2295.88
2039.158	2240.68
2042.35	2261.93
2045.542	2184.73
2048.733	2270.45
2051.924	2263.24
2055.115	2282.86
2058.306	2244.69
2061.496	2299.47
2064.686	2354.46
2067.875	2260.82
2071.065	2262.14
2074.254	2282.23
2077.442	2234.14
2080.631	2319.84
2083.819	2247.12
2087.007	2240.58
2090.195	2224.08
2093.382	2241.3
2096.569	2224.71
2099.756	2185.31
2102.942	2231.02
2106.128	2245.22
2109.314	2232.51
2112.5	2216.34
2115.685	2184.31
2118.87	2192.08
2122.055	2254.46
2125.239	2232.3
2128.424	2219.4
2131.608	2282.06
2134.791	2265.68
2137.974	2306.89
2141.157	2295.5
2144.34	2264.75
2147.523	2257.68
2150.705	2284.1
2153.887	2251.58
2157.068	2221.19
2160.25	2201.97
2163.431	2226.11
2166.611	2195.7
2169.792	2214.54
2172.972	2121.41
2176.152	2176.53
2179.331	2205.36
2182.511	2205.37
2185.69	2227.9
2188.868	2232.58
2192.047	2269.67
2195.225	2286.34
2198.403	2235.25
2201.58	2218.5
2204.758	2208.22
2207.935	2285.18
2211.111	2195.72
2214.288	2184.34
2217.464	2219.45
2220.64	2175.92
2223.815	2225.61
2226.991	2155.26
2230.166	2171.43
2233.34	2212.59
2236.515	2228.3
2239.689	2292.28
2242.863	2242.87
2246.036	2294.75
2249.209	2277.93
2252.382	2297.28
2255.555	2304.88
2258.727	2253.25
2261.9	2283.37
2265.071	2273.28
2268.243	2271.11
2271.414	2219.79
2274.585	2201.39
2277.756	2259.48
2280.926	2217.09
2284.096	2246.62
2287.266	2175.63
2290.436	2222.41
2293.605	2243
2296.774	2282.09
2299.942	2286.67
2303.111	2301.02
2306.279	2353.64
2309.447	2336.77
2312.614	2310.05
2315.781	2333.69
2318.948	2311.26
2322.115	2347.47
2325.281	2247.91
2328.447	2255.79
2331.613	2225.09
2334.779	2216.94
2337.944	2214.56
2341.109	2213.09
2344.274	2202.44
2347.438	2168.7
2350.602	2191.74
2353.766	2200.75
2356.929	2190.4
2360.092	2226.88
2363.255	2196.82
2366.418	2159.56
2369.58	2229.36
2372.742	2094.17
2375.904	2092.37
2379.066	2076.65
2382.227	2105.01
2385.388	2064.53
2388.548	2014.56
2391.709	2056.23
2394.869	2043.61
2398.029	2100.97
2401.188	2097.6
2404.347	2058.27
2407.506	2144.31
2410.665	2181.9
2413.823	2169.04
2416.981	2145.32
2420.139	2164.99
2423.296	2205.03
2426.453	2178.11
2429.61	2201.88
2432.767	2169.4
2435.923	2210.23
2439.079	2159.71
2442.235	2196.3
2445.391	2134.52
2448.546	2177.68
2451.701	2213.1
2454.855	2205.75
2458.009	2237.13
2461.163	2227.58
2464.317	2195.85
2467.471	2221.95
2470.624	2253.13
2473.777	2240.12
2476.929	2254.01
2480.082	2277.79
2483.234	2249.52
2486.385	2190.92
2489.537	2185.52
2492.688	2172.06
2495.839	2189.16
2498.989	2203.88
2502.14	2192.5
2505.29	2182.16
2508.439	2206.04
2511.589	2146.22
2514.738	2146.79
2517.887	2171.5
2521.035	2244.04
2524.183	2207.04
2527.331	2193.97
2530.479	2185.58
2533.627	2189.18
