Data from N_2_HIR_WI_4N_Splice17_12-32-14-574.txt Node
Date: Sat Mar 14 12:32:14 EDT 2020
User: sa697716
Spectrometer: FLMS03696
Trigger mode: 0
Integration Time (sec): 3.180400E-1
Scans to average: 20
Electric dark correction enabled: true
Nonlinearity correction enabled: true
Boxcar width: 5
XAxis mode: Wavelengths
Number of Pixels in Spectrum: 2048
>>>>>Begin Spectral Data<<<<<
187.83	-335801.74
188.298	2341.31
188.766	1264.93
189.233	1138.57
189.701	1681.95
190.169	2400.64
190.636	918.34
191.104	742.99
191.571	177.6
192.039	-14.94
192.506	-39.3
192.974	455.66
193.441	-799.44
193.908	-281.28
194.375	-55.47
194.842	69.31
195.31	191.85
195.777	222.44
196.244	421.96
196.711	528.53
197.177	652.91
197.644	917.93
198.111	1573.04
198.578	2211.97
199.045	1761.77
199.511	2856.67
199.978	3338.5
200.445	2842.7
200.911	3116.85
201.378	3474.9
201.844	3120.45
202.31	5283.39
202.777	5506.91
203.243	3074.89
203.709	2917.21
204.176	3522.1
204.642	2926.48
205.108	2708.46
205.574	2213.3
206.04	2012.04
206.506	1896.7
206.972	1789.25
207.438	1746.19
207.903	1969.84
208.369	1729.19
208.835	1731.84
209.301	1810.8
209.766	1844.6
210.232	1833.63
210.697	2270.28
211.163	2808.32
211.628	4241.06
212.094	3584.63
212.559	4384.77
213.024	2737.33
213.49	3327.96
213.955	3235.27
214.42	3136.99
214.885	2917.96
215.35	2799.45
215.815	2675.94
216.28	2844.87
216.745	2314.56
217.21	2494.02
217.675	2295.83
218.14	2590.86
218.604	2892.72
219.069	3294.58
219.534	3471.02
219.998	4041.38
220.463	4901.92
220.927	6068.73
221.392	5727.79
221.856	5808.7
222.32	7349.36
222.785	9085.74
223.249	11439.82
223.713	12779.38
224.177	12815.24
224.642	16466.15
225.106	20277.43
225.57	22209.71
226.034	16508.01
226.497	25137.57
226.961	22752.47
227.425	26488.85
227.889	29436.02
228.353	29472.25
228.816	60853.31
229.28	58260.71
229.744	49151.07
230.207	29904.81
230.671	29428.3
231.134	48827.96
231.597	56359.47
232.061	56379.69
232.524	55034.17
232.987	37920.45
233.45	34156.84
233.914	30673.2
234.377	31412.04
234.84	28757.98
235.303	33926.08
235.766	37883.65
236.229	39111.34
236.691	24654.67
237.154	27690.31
237.617	20841.62
238.08	21346.88
238.542	24984.43
239.005	17863.48
239.468	17755.21
239.93	16745.87
240.393	15221.83
240.855	13367.4
241.317	13679.55
241.78	16640.09
242.242	17213.3
242.704	18586.29
243.166	16177.64
243.629	14700.88
244.091	16955.01
244.553	18570.06
245.015	19967.66
245.477	25843.67
245.939	37878.95
246.4	40206.06
246.862	39063.78
247.324	36827.73
247.786	41201
248.247	53975.84
248.709	55673.94
249.17	41609.66
249.632	39261.01
250.093	45491.64
250.555	39287.6
251.016	23938.89
251.477	22709.1
251.939	24531.32
252.4	25730.55
252.861	30598.41
253.322	28489.25
253.783	33928.01
254.244	43965.25
254.705	34604.58
255.166	30747.29
255.627	30267.37
256.088	42665.79
256.549	45266.75
257.009	38889.57
257.47	47122.45
257.931	38357.49
258.391	28709.35
258.852	29557.47
259.312	30997.36
259.773	38272.23
260.233	32319.69
260.694	27207.14
261.154	30867.31
261.614	24773.07
262.074	22145.52
262.534	22997.93
262.994	21653.27
263.455	28804
263.915	24242.33
264.374	22814.78
264.834	24889.55
265.294	27555.73
265.754	28526.5
266.214	27001.66
266.673	25266.53
267.133	31887.69
267.593	31614.98
268.052	38651
268.512	33604.61
268.971	40534.12
269.431	44433.3
269.89	39772.95
270.349	59583.52
270.809	66418.11
271.268	59664.23
271.727	133922.03
272.186	86683.65
272.645	65018.65
273.104	46891.54
273.563	67899.71
274.022	53355.15
274.481	45357.92
274.94	34932.85
275.399	25988.75
275.857	30252.61
276.316	40904.54
276.775	36373.46
277.233	35826.15
277.692	33517.54
278.15	37932.2
278.609	39013.05
279.067	36096.98
279.525	33551.4
279.984	43331.84
280.442	52072.29
280.9	51336.45
281.358	33752.16
281.816	31457.34
282.274	30777.48
282.732	31776.22
283.19	31933.54
283.648	27585.76
284.106	29366
284.564	29846.75
285.021	27668.3
285.479	20608.73
285.937	18743.94
286.394	16450.15
286.852	16933.07
287.309	17787.7
287.767	17189.39
288.224	16350.05
288.682	17920.91
289.139	19671.59
289.596	17989.32
290.053	18691.39
290.511	23562.72
290.968	28563.65
291.425	38739.31
291.882	32189.64
292.339	28021.3
292.796	27821.48
293.252	26171.43
293.709	20764.66
294.166	18603.26
294.623	20572.68
295.079	19748.47
295.536	19845.41
295.992	18004.65
296.449	17812.18
296.905	18520.41
297.362	17755.48
297.818	18672.85
298.274	19387.04
298.731	19766.21
299.187	19560.6
299.643	20984.26
300.099	25375.53
300.555	27833.93
301.011	23293.45
301.467	22435.38
301.923	26253.54
302.379	25646.57
302.835	25191.41
303.291	25220.13
303.746	28724.74
304.202	36309.75
304.658	36424.12
305.113	24502.7
305.569	24015.9
306.024	25570.2
306.479	24342.21
306.935	20556.54
307.39	22463.79
307.845	20727.31
308.301	20863.44
308.756	20312.43
309.211	19583.98
309.666	20100.02
310.121	24964.55
310.576	25305.28
311.031	25118.23
311.486	28778.1
311.94	28737.22
312.395	38413.89
312.85	72290.58
313.305	355344.76
313.759	1843335.64
314.214	133616.37
314.668	105818.33
315.123	88964.28
315.577	31929.37
316.032	28427.71
316.486	35667.67
316.94	28161.63
317.394	19610.97
317.849	15231.4
318.303	14410.15
318.757	13574.61
319.211	14990.98
319.665	13144.01
320.119	13299.38
320.572	19088.22
321.026	17845.73
321.48	14842
321.934	16183.73
322.387	16217.56
322.841	17543.8
323.295	15776.27
323.748	18170.85
324.202	18443.39
324.655	22118.05
325.108	30952.51
325.562	21874.71
326.015	26003.68
326.468	19691.46
326.921	22011.89
327.374	20544.97
327.827	21417.07
328.28	24256.13
328.733	16288.45
329.186	14330.17
329.639	13685.46
330.092	11543.48
330.545	10996.56
330.997	11087.83
331.45	12113.38
331.903	14211.2
332.355	24457.59
332.808	23737.94
333.26	19585.86
333.713	21274.27
334.165	21436.28
334.617	28585.21
335.069	23067.04
335.522	41679.28
335.974	46222.37
336.426	42313.5
336.878	29281.29
337.33	14858.22
337.782	14511.7
338.234	18219.29
338.686	21790.37
339.137	25798.34
339.589	24337.11
340.041	19062.98
340.493	16403.46
340.944	16782.36
341.396	18041.38
341.847	15190.66
342.299	17932.61
342.75	21911.03
343.201	19154
343.653	22008.17
344.104	27059.31
344.555	21273.26
345.006	33187.26
345.457	25484.1
345.908	20258.14
346.359	19087
346.81	15557.53
347.261	16390.43
347.712	16118.31
348.163	17243.08
348.613	17458.01
349.064	16299.43
349.515	14282.02
349.965	14623.49
350.416	17576.24
350.866	19283.48
351.317	21791.29
351.767	36045.01
352.217	45523.73
352.668	37820.91
353.118	34673.57
353.568	33460.25
354.018	26535.2
354.468	27985.47
354.918	20054.09
355.368	17552.93
355.818	24782.54
356.268	71252.96
356.718	298668.83
357.168	74444.28
357.617	37382.47
358.067	41575.12
358.517	38971.33
358.966	45670.15
359.416	51278.49
359.865	55535.75
360.315	66190.41
360.764	30943.41
361.213	17374.94
361.663	16457.17
362.112	20311.69
362.561	32786.83
363.01	24795.53
363.459	20863.84
363.908	22580.42
364.357	19187.94
364.806	32412.23
365.255	22282.21
365.703	20410.81
366.152	20424.27
366.601	16563.63
367.05	13464.01
367.498	12267.6
367.947	12818.26
368.395	13356.88
368.844	11826.44
369.292	14259.53
369.74	9859.15
370.189	15106.68
370.637	17732.49
371.085	15338.6
371.533	18707.76
371.981	18021.08
372.429	17189.84
372.877	17902.28
373.325	15018.02
373.773	15353.13
374.221	13702.92
374.669	17045.17
375.116	14762.46
375.564	14890.46
376.012	16660.5
376.459	13760.06
376.907	16492.86
377.354	19972.71
377.801	18692.61
378.249	21513.72
378.696	27560.72
379.143	33475.42
379.591	35764.46
380.038	60703.23
380.485	44055.46
380.932	47678.77
381.379	43772.04
381.826	32405.68
382.273	23144.37
382.72	20265.56
383.166	19811.89
383.613	12881.13
384.06	11630.04
384.506	13513.04
384.953	9958.66
385.4	10082.5
385.846	8872.32
386.292	8680.86
386.739	8509.24
387.185	8435.01
387.631	8475.08
388.078	8265.65
388.524	8878.76
388.97	8225.26
389.416	6893.69
389.862	7353.33
390.308	6988.68
390.754	7132.51
391.2	7781.63
391.645	7998.6
392.091	7677.27
392.537	7469.83
392.983	7521.4
393.428	7431.05
393.874	8011.96
394.319	8065.17
394.765	7687.71
395.21	7932.32
395.655	7452.84
396.101	6995.96
396.546	6333.72
396.991	6420.22
397.436	5970.88
397.881	5783.34
398.326	5500.68
398.771	5218.31
399.216	4577.1
399.661	4132.8
400.106	4127.16
400.551	4243.21
400.995	3815.06
401.44	3784.3
401.885	3563.42
402.329	3607.87
402.774	3460.93
403.218	3346.99
403.663	3233.44
404.107	3329.37
404.551	3360.53
404.995	3090.75
405.44	2979.22
405.884	3031.99
406.328	2939.51
406.772	2936.64
407.216	2681.91
407.66	2598
408.104	2477.92
408.547	2320.41
408.991	2246.61
409.435	2167.6
409.879	2137.49
410.322	2113.38
410.766	2042.48
411.209	1941.68
411.653	1862.6
412.096	1825.81
412.54	1828.65
412.983	1817.28
413.426	1825.03
413.869	1825.95
414.312	1790.73
414.756	1727.93
415.199	1650.17
415.642	1602.77
416.085	1607.12
416.527	1597.69
416.97	1622.43
417.413	1539.45
417.856	1524.52
418.298	1508.27
418.741	1499
419.184	1497.17
419.626	1560.39
420.069	1561.74
420.511	1572.55
420.953	1539.12
421.396	1527.35
421.838	1490.72
422.28	1526.4
422.722	1533.74
423.164	1556.37
423.606	1530.79
424.048	1524.52
424.49	1446.96
424.932	1438.94
425.374	1417.92
425.816	1441.85
426.258	1469.73
426.699	1484.42
427.141	1459.92
427.582	1482.12
428.024	1476.72
428.465	1468.06
428.907	1434.27
429.348	1418.48
429.789	1417.98
430.231	1388.91
430.672	1408.52
431.113	1373.28
431.554	1352.1
431.995	1319.29
432.436	1269.5
432.877	1238.19
433.318	1218.47
433.759	1212.56
434.2	1213.75
434.64	1199.76
435.081	1203.53
435.522	1140.29
435.962	1099.3
436.403	1077.7
436.843	1094.38
437.284	1072.71
437.724	1046.12
438.164	1050.44
438.604	1028.91
439.045	990.83
439.485	950.86
439.925	929.1
440.365	909.09
440.805	900.14
441.245	890.2
441.685	859.08
442.125	854.33
442.564	862.63
443.004	842.11
443.444	841.75
443.883	842.02
444.323	839.23
444.762	844.35
445.202	856.06
445.641	873.48
446.081	869.74
446.52	878.2
446.959	871.08
447.398	849.88
447.837	842.52
448.276	828.94
448.716	839.38
449.154	848.09
449.593	829.4
450.032	827.9
450.471	813.46
450.91	816.25
451.349	816.6
451.787	815.18
452.226	829.16
452.664	829.81
453.103	832.68
453.541	833.35
453.98	832.67
454.418	840.12
454.856	829.04
455.295	828.93
455.733	836.15
456.171	841.96
456.609	845.19
457.047	845.72
457.485	859.34
457.923	861.87
458.361	850.51
458.798	852.97
459.236	851.74
459.674	858.31
460.111	862.58
460.549	853.64
460.987	849.2
461.424	845.57
461.862	842.02
462.299	828.26
462.736	826.01
463.173	828.85
463.611	821.53
464.048	818.81
464.485	825.11
464.922	816.41
465.359	812.53
465.796	802
466.233	796.84
466.67	788.52
467.106	786.63
467.543	778.92
467.98	769.59
468.416	749.24
468.853	743.03
469.29	720.86
469.726	713.14
470.162	695.72
470.599	686.93
471.035	679.97
471.471	663.27
471.907	660.26
472.344	657.71
472.78	658.31
473.216	667.37
473.652	659.22
474.088	656.86
474.523	654.93
474.959	659.26
475.395	653.74
475.831	649.37
476.266	654.02
476.702	651.88
477.138	643.95
477.573	642.94
478.008	639.88
478.444	643.02
478.879	649.54
479.314	652.14
479.75	652.02
480.185	654.8
480.62	661.04
481.055	663.78
481.49	669.68
481.925	680.38
482.36	692.07
482.795	711.23
483.229	730.9
483.664	746.41
484.099	750.53
484.534	762.26
484.968	770.33
485.403	773.28
485.837	774.15
486.271	773.35
486.706	774.96
487.14	767.24
487.574	756.48
488.009	750.17
488.443	743.89
488.877	752.59
489.311	756.56
489.745	766
490.179	774.1
490.613	788.1
491.046	795.01
491.48	802
491.914	803.72
492.348	810.24
492.781	815.64
493.215	819.14
493.648	820.9
494.082	827.71
494.515	829.29
494.948	839.11
495.382	846.48
495.815	853.01
496.248	859.52
496.681	876.02
497.114	891.1
497.547	905.19
497.98	921.82
498.413	930.72
498.846	943.96
499.279	956.24
499.711	962.5
500.144	966.45
500.577	980.34
501.009	995.89
501.442	1009.52
501.874	1011.78
502.306	1015.5
502.739	1025.57
503.171	1044.05
503.603	1049.13
504.036	1061.3
504.468	1069.85
504.9	1085.07
505.332	1094.69
505.764	1101.36
506.196	1109.07
506.627	1128.19
507.059	1145.43
507.491	1157.35
507.923	1155.89
508.354	1174.74
508.786	1188.53
509.217	1210.61
509.649	1228.79
510.08	1250.68
510.512	1270.24
510.943	1289.26
511.374	1303.09
511.805	1327.67
512.237	1350.4
512.668	1390.22
513.099	1423.27
513.53	1455.23
513.961	1480.04
514.391	1516.92
514.822	1556.53
515.253	1598.86
515.684	1628.91
516.114	1662.24
516.545	1685.05
516.975	1715.23
517.406	1733.07
517.836	1733.26
518.267	1739.87
518.697	1757.8
519.127	1761.93
519.558	1769.42
519.988	1771.67
520.418	1781.66
520.848	1800.72
521.278	1809.24
521.708	1822.91
522.138	1837.48
522.567	1872.91
522.997	1901.03
523.427	1919.32
523.857	1938.04
524.286	1947.95
524.716	1964.24
525.145	1985.36
525.575	1996.74
526.004	2013.76
526.433	2009.76
526.863	2007.15
527.292	1993.99
527.721	1999.25
528.15	2003.3
528.579	2003.06
529.008	2015
529.437	2040.76
529.866	2055.51
530.295	2075.72
530.724	2088.96
531.152	2118.65
531.581	2135.75
532.01	2155.77
532.438	2165.19
532.867	2183.87
533.295	2204.36
533.723	2210.71
534.152	2207.39
534.58	2207.94
535.008	2189.65
535.436	2190.86
535.865	2202.04
536.293	2218.78
536.721	2238.16
537.149	2267.24
537.576	2269.73
538.004	2284.51
538.432	2293.89
538.86	2291.21
539.287	2298.75
539.715	2313.59
540.143	2317.17
540.57	2310.53
540.998	2305.8
541.425	2277.8
541.852	2253.98
542.28	2250.54
542.707	2230.41
543.134	2213.74
543.561	2209.5
543.988	2200.43
544.415	2199.5
544.842	2192.68
545.269	2184.15
545.696	2186.59
546.123	2201.32
546.549	2187.2
546.976	2171.85
547.403	2171.35
547.829	2173.08
548.256	2174.86
548.682	2169.19
549.108	2159.91
549.535	2158.37
549.961	2160.48
550.387	2143.75
550.813	2136.23
551.24	2144.18
551.666	2144.73
552.092	2133.44
552.518	2126.05
552.943	2118.04
553.369	2127.14
553.795	2132.99
554.221	2135.04
554.646	2131.51
555.072	2144.76
555.498	2151.38
555.923	2162.74
556.349	2180.89
556.774	2190.83
557.199	2192.08
557.625	2199.73
558.05	2192.37
558.475	2206.4
558.9	2205.62
559.325	2197.2
559.75	2189.58
560.175	2181.81
560.6	2173.85
561.025	2172.77
561.449	2175.24
561.874	2183.16
562.299	2190.06
562.723	2202.21
563.148	2191
563.572	2197.21
563.997	2209.05
564.421	2216.48
564.846	2219.1
565.27	2224.69
565.694	2222.94
566.118	2238.03
566.542	2247.14
566.966	2239.87
567.39	2234.33
567.814	2222.19
568.238	2222.49
568.662	2230.92
569.086	2235.91
569.509	2245.56
569.933	2229.35
570.357	2221.89
570.78	2197.56
571.204	2183.72
571.627	2173.2
572.05	2171.87
572.474	2172.18
572.897	2158.3
573.32	2149.39
573.743	2139.39
574.166	2117.43
574.589	2117.5
575.012	2108.31
575.435	2108.55
575.858	2098.57
576.281	2085.3
576.704	2066.55
577.126	2053.04
577.549	2038.91
577.972	2027.71
578.394	2015.62
578.817	2008.05
579.239	1985.77
579.661	1970.57
580.084	1950.96
580.506	1934.43
580.928	1929.93
581.35	1916.74
581.772	1911.89
582.194	1896.9
582.616	1880.99
583.038	1863.78
583.46	1851.5
583.882	1848.02
584.303	1854.81
584.725	1850.28
585.147	1852.16
585.568	1865.49
585.99	1880.99
586.411	1889.43
586.833	1908.2
587.254	1911.81
587.675	1929.85
588.096	1946.31
588.518	1940.94
588.939	1920.64
589.36	1919.01
589.781	1908.7
590.202	1874.32
590.623	1864.8
591.043	1863.37
591.464	1848.49
591.885	1843.94
592.305	1836.54
592.726	1819.33
593.147	1820.99
593.567	1814.67
593.987	1806.35
594.408	1799.88
594.828	1798.92
595.248	1792.04
595.669	1769.73
596.089	1760.59
596.509	1753.15
596.929	1737.05
597.349	1738.58
597.769	1726.2
598.189	1718.46
598.608	1719.69
599.028	1723.31
599.448	1723.46
599.867	1707.33
600.287	1701.04
600.706	1696.43
601.126	1685.1
601.545	1683.85
601.965	1682.87
602.384	1676.97
602.803	1680.27
603.222	1674.12
603.641	1665.14
604.061	1659.66
604.48	1655.27
604.898	1665.97
605.317	1672.3
605.736	1673.89
606.155	1670.27
606.574	1658.32
606.992	1665.44
607.411	1659.94
607.829	1650.9
608.248	1647.6
608.666	1646.23
609.085	1644.89
609.503	1635.02
609.921	1627.52
610.339	1630.16
610.758	1628.96
611.176	1623.25
611.594	1611.73
612.012	1606.65
612.43	1609.94
612.847	1618.58
613.265	1618.75
613.683	1625.63
614.101	1625.39
614.518	1620.17
614.936	1608.15
615.353	1590.63
615.771	1589.15
616.188	1590.74
616.606	1586.79
617.023	1579.19
617.44	1560.7
617.857	1553.28
618.274	1541.33
618.691	1535
619.108	1524.31
619.525	1517.48
619.942	1526.36
620.359	1528.19
620.776	1521.11
621.192	1517.59
621.609	1513.78
622.026	1522.03
622.442	1528.85
622.859	1533.85
623.275	1524.77
623.691	1530.95
624.108	1544.8
624.524	1562.42
624.94	1562.15
625.356	1574.19
625.772	1588.98
626.188	1604.44
626.604	1606.96
627.02	1601.51
627.436	1598.34
627.852	1607.62
628.268	1622.12
628.683	1611.84
629.099	1601.21
629.514	1595.71
629.93	1600.03
630.345	1605.99
630.761	1601.21
631.176	1605.35
631.591	1598.06
632.007	1592.35
632.422	1589.26
632.837	1577.02
633.252	1573.09
633.667	1560.96
634.082	1550.43
634.497	1535.09
634.911	1511.26
635.326	1507.98
635.741	1488.1
636.155	1476.89
636.57	1477.88
636.984	1478.16
637.399	1480.91
637.813	1481.22
638.228	1481.21
638.642	1487.21
639.056	1476.29
639.47	1478.16
639.884	1467.33
640.298	1459.93
640.712	1459.27
641.126	1444.15
641.54	1434.84
641.954	1428.29
642.368	1414.01
642.781	1403.72
643.195	1382.23
643.609	1381.67
644.022	1374.47
644.436	1370.3
644.849	1357.01
645.262	1342.89
645.676	1346.22
646.089	1339.85
646.502	1322.01
646.915	1315.43
647.328	1294.45
647.741	1293.18
648.154	1278.67
648.567	1273.85
648.98	1256.48
649.393	1255.19
649.805	1248.96
650.218	1239.02
650.631	1218.97
651.043	1210.03
651.456	1202.09
651.868	1203.33
652.28	1222.99
652.693	1238.58
653.105	1245.95
653.517	1257.96
653.929	1256.96
654.341	1263.19
654.753	1246.63
655.165	1253.34
655.577	1249.39
655.989	1243.39
656.401	1231.46
656.813	1186.33
657.224	1159.97
657.636	1125.02
658.047	1101.48
658.459	1076.27
658.87	1064.28
659.282	1048.65
659.693	1022.81
660.104	1003.68
660.515	985.74
660.926	982.88
661.338	976.88
661.749	968.3
662.159	955.26
662.57	948.02
662.981	940.61
663.392	929.91
663.803	932.68
664.213	927.72
664.624	920.95
665.035	922.64
665.445	904.51
665.855	895.07
666.266	883.83
666.676	880.5
667.086	868.54
667.497	866.57
667.907	858.49
668.317	847.43
668.727	842.14
669.137	842.05
669.547	838.05
669.956	840.78
670.366	841.25
670.776	841.82
671.186	844.01
671.595	847.97
672.005	851.08
672.414	849.75
672.824	847.05
673.233	851.05
673.642	853.69
674.052	856.38
674.461	856.52
674.87	861.93
675.279	858.87
675.688	860.16
676.097	859.65
676.506	856.48
676.915	872.56
677.323	876.47
677.732	875.16
678.141	873.78
678.549	861.95
678.958	861.96
679.366	860.41
679.775	866.64
680.183	879.01
680.592	887.87
681	895.01
681.408	888.52
681.816	897.45
682.224	908.11
682.632	920.74
683.04	955.14
683.448	983.78
683.856	1021.53
684.264	1063.18
684.671	1102.22
685.079	1148.7
685.487	1201.29
685.894	1273.89
686.302	1335.14
686.709	1384.17
687.116	1442.27
687.524	1490.19
687.931	1531.17
688.338	1565.29
688.745	1595.39
689.152	1628.04
689.559	1674.57
689.966	1719.3
690.373	1737.77
690.78	1778.72
691.187	1845.94
691.593	1894.69
692	1936.78
692.407	1999.62
692.813	2077.96
693.22	2137.81
693.626	2202.59
694.032	2251.36
694.439	2331.1
694.845	2392.29
695.251	2469.53
695.657	2536.47
696.063	2641.58
696.469	2717.3
696.875	2789.02
697.281	2828.27
697.687	2877.68
698.093	2916.92
698.498	2997.72
698.904	3057.03
699.31	3150.18
699.715	3216.8
700.12	3316.04
700.526	3332.88
700.931	3408.55
701.337	3462.96
701.742	3494.62
702.147	3583.4
702.552	3612.43
702.957	3674.97
703.362	3694.65
703.767	3723.33
704.172	3767.39
704.577	3711.9
704.981	3760.88
705.386	3774.96
705.791	3762.79
706.195	3844.74
706.6	3851.84
707.004	3938.02
707.408	3900.71
707.813	3928.62
708.217	3913.56
708.621	3910.63
709.025	4017.45
709.43	4018.15
709.834	4082.67
710.237	4161.1
710.641	4143.24
711.045	4167.7
711.449	4161.83
711.853	4195.09
712.256	4240.49
712.66	4280.9
713.064	4364.21
713.467	4410.6
713.87	4532.97
714.274	4585.79
714.677	4705.29
715.08	4881.54
715.484	5066.6
715.887	5292.23
716.29	5509.98
716.693	5737.65
717.096	6000.77
717.499	6145.38
717.901	6171.83
718.304	6203.57
718.707	6227.78
719.109	6112.9
719.512	6078.84
719.915	5927.59
720.317	5859.78
720.719	5909.76
721.122	5877.35
721.524	5824.22
721.926	5777.69
722.328	5888.06
722.731	5873.85
723.133	5903.39
723.535	6116.58
723.937	6134.9
724.338	6193.08
724.74	6238.48
725.142	6158.24
725.544	6157.5
725.945	6184.65
726.347	6177.13
726.748	6166.94
727.15	6181.98
727.551	6140.95
727.952	6108.03
728.354	6077.72
728.755	6075.71
729.156	6027.31
729.557	6020.2
729.958	5885.21
730.359	5823.56
730.76	5804.23
731.161	5737.62
731.562	5709.85
731.962	5711.46
732.363	5641.56
732.763	5571.19
733.164	5610.88
733.564	5537.14
733.965	5432.27
734.365	5391.49
734.766	5422
735.166	5378.72
735.566	5317.96
735.966	5291.11
736.366	5284.07
736.766	5218.64
737.166	5254.96
737.566	5209.38
737.966	5182.01
738.365	5225.74
738.765	5222.02
739.165	5140.39
739.564	5108.94
739.964	5158.54
740.363	5105.05
740.763	5103.89
741.162	5090.57
741.561	5056.57
741.96	5007.5
742.36	5027.79
742.759	5032.51
743.158	5074.95
743.557	5092.74
743.955	5140.1
744.354	5090.66
744.753	5156.54
745.152	5111.76
745.55	5170.71
745.949	5161.56
746.348	5161.4
746.746	5183.47
747.144	5138
747.543	5111.72
747.941	5163.78
748.339	5085.92
748.737	5078.9
749.136	5064.12
749.534	5136.69
749.932	5105.4
750.33	5128.88
750.727	5189.65
751.125	5161.69
751.523	5144.58
751.921	5192.39
752.318	5155.62
752.716	5220
753.113	5235.18
753.511	5264.46
753.908	5262.36
754.305	5243.94
754.703	5312.76
755.1	5381.14
755.497	5447.3
755.894	5655.48
756.291	5850.38
756.688	6207.96
757.085	6686.73
757.482	7355.38
757.878	8093.2
758.275	8756.28
758.672	9665.01
759.068	10409.43
759.465	11469
759.861	12834.66
760.258	14417.52
760.654	15235.14
761.05	15108.06
761.447	14413.27
761.843	13422.82
762.239	12388.46
762.635	11928.04
763.031	11487.98
763.427	10845.58
763.822	10166.89
764.218	9500.24
764.614	8634.79
765.01	8055.27
765.405	7680.88
765.801	7395.25
766.196	7031.79
766.592	6830.24
766.987	6487.15
767.382	6257.3
767.778	6158.56
768.173	6019.62
768.568	5940.64
768.963	5806.64
769.358	5825.19
769.753	5777.5
770.148	5689.58
770.542	5687.6
770.937	5651.95
771.332	5750.49
771.726	5769.77
772.121	5701.86
772.515	5758.2
772.91	5741.75
773.304	5818.64
773.699	5748.56
774.093	5807.28
774.487	5866.24
774.881	5911.69
775.275	5908.85
775.669	5866.77
776.063	5915.93
776.457	5955.28
776.851	5876.66
777.245	5869.71
777.638	5905.69
778.032	6032.73
778.425	5991.99
778.819	6038.93
779.212	5994.9
779.606	5951.41
779.999	5969.16
780.392	5951.79
780.786	6043.59
781.179	6062.9
781.572	6106.94
781.965	6120.42
782.358	6056.24
782.751	6117.8
783.143	6061.71
783.536	6143.45
783.929	6193.37
784.322	6319.4
784.714	6352.81
785.107	6345.62
785.499	6425.83
785.891	6405.09
786.284	6386.26
786.676	6539.56
787.068	6520.45
787.46	6583.01
787.852	6602.1
788.245	6694.05
788.636	6723.35
789.028	6794.44
789.42	6837.11
789.812	6846.67
790.204	6951.88
790.595	7059.61
790.987	6844.63
791.378	6868.95
791.77	7004.99
792.161	7154.39
792.553	7215.02
792.944	7097.47
793.335	7026.33
793.726	7107.47
794.117	7206.06
794.508	7353.87
794.899	7318.78
795.29	7472.95
795.681	7536.93
796.072	7383.1
796.463	7181.18
796.853	7186.56
797.244	7356.2
797.634	7391.6
798.025	7390.45
798.415	7405.54
798.806	7501.33
799.196	7593.29
799.586	7651.46
799.976	7609.34
800.366	7862.18
800.756	8125.87
801.146	8087.48
801.536	8120.55
801.926	8202.63
802.316	8231.56
802.706	8312.93
803.095	8180.31
803.485	8294.41
803.874	8342.3
804.264	8623.27
804.653	8595.39
805.043	8748.43
805.432	8870.63
805.821	8871.32
806.21	8892.89
806.599	9024.36
806.988	9072.82
807.377	9190.11
807.766	9333.64
808.155	9638.01
808.544	9356.55
808.933	9372.11
809.321	9354.74
809.71	9676.88
810.098	9855.43
810.487	10362.2
810.875	10886.17
811.264	10911.1
811.652	11226.89
812.04	11381.76
812.428	11564.24
812.816	12396.95
813.204	12854.16
813.592	13455.69
813.98	13822.47
814.368	13712.6
814.756	14236.77
815.144	14146.66
815.531	14649.82
815.919	14575.57
816.306	14911.96
816.694	14577.21
817.081	14632.99
817.469	15005.76
817.856	14996.07
818.243	15291.12
818.63	15722.1
819.017	15263.57
819.404	15338.24
819.791	15750.46
820.178	16423.47
820.565	16706.6
820.952	17717.64
821.339	17182.71
821.725	17388.15
822.112	16580.9
822.498	16531.53
822.885	16678.05
823.271	16576.83
823.657	17028.74
824.044	17041.67
824.43	17116.21
824.816	17069.56
825.202	16592.97
825.588	17697.06
825.974	17718.53
826.36	18284.05
826.746	18315.92
827.132	18710.57
827.517	18672.47
827.903	17816.41
828.289	17862.73
828.674	17012.73
829.06	16905.43
829.445	17343.49
829.83	17729.68
830.216	18240.48
830.601	18641.97
830.986	18199.15
831.371	18043.65
831.756	18663.56
832.141	18202.21
832.526	18188.29
832.911	18492.84
833.295	18362.1
833.68	18869.46
834.065	18198.64
834.449	17213.58
834.834	17129.41
835.218	17129.31
835.603	17501.07
835.987	17268.96
836.371	18168.29
836.755	18057.9
837.139	18497.17
837.524	18759.28
837.908	18562.8
838.291	18634.52
838.675	18703.72
839.059	18930.29
839.443	18914.91
839.827	18660.69
840.21	19173.23
840.594	19015.38
840.977	19242.75
841.361	19227.22
841.744	19643.55
842.127	19477.95
842.511	19734.44
842.894	20385.37
843.277	20796.6
843.66	21385.59
844.043	21476.47
844.426	20609.4
844.809	20262.27
845.191	20294.18
845.574	19789.57
845.957	19384.97
846.339	19268.67
846.722	18702.3
847.104	18778.26
847.487	18599.56
847.869	18616.22
848.252	18914.44
848.634	19274.84
849.016	19568.57
849.398	19700.39
849.78	20618.4
850.162	20626.21
850.544	21073.84
850.926	21744.41
851.307	21648.99
851.689	21951.32
852.071	22446.94
852.452	22807.92
852.834	22781.43
853.215	23214.88
853.597	23385.12
853.978	23712.58
854.359	24214.52
854.741	23133.99
855.122	23035.04
855.503	22712.31
855.884	22853.63
856.265	22786.45
856.646	22902.44
857.026	22473.43
857.407	22407.57
857.788	22579.01
858.169	22893.97
858.549	21969.13
858.93	22643.16
859.31	22697.48
859.69	22923.49
860.071	22481.64
860.451	22243.17
860.831	21448.51
861.211	22722.31
861.591	23320.84
861.971	23304.62
862.351	23511.09
862.731	23933.7
863.111	24232.76
863.491	24593.04
863.87	25563.98
864.25	25961.91
864.629	25529.85
865.009	26088.92
865.388	27008.33
865.768	28946.27
866.147	28823.42
866.526	27227.11
866.905	27551.61
867.284	29088.96
867.663	27627.25
868.042	26470.18
868.421	26378.24
868.8	26816.29
869.179	27074.3
869.558	25492.84
869.936	23485.81
870.315	23902.59
870.693	24479.56
871.072	26401.14
871.45	25159.95
871.828	25490.25
872.207	26793.93
872.585	26382.44
872.963	27098.67
873.341	26166.03
873.719	25847.74
874.097	25548.26
874.475	26039.76
874.853	26640.68
875.23	25527.98
875.608	26589.8
875.986	28745.73
876.363	27488.97
876.741	28318.25
877.118	27607.29
877.495	28968.01
877.873	29466.56
878.25	31003.37
878.627	29724.55
879.004	30147.2
879.381	30001.83
879.758	29207.27
880.135	27188.85
880.512	28749.35
880.889	27992.32
881.265	27684.16
881.642	27448.16
882.019	27905.22
882.395	27332.64
882.772	28424.76
883.148	27181.32
883.524	27062.8
883.901	26908.85
884.277	27313.78
884.653	27133.57
885.029	27903.54
885.405	30915.52
885.781	30670.12
886.157	29408.11
886.532	29772.73
886.908	29749.73
887.284	33084.05
887.659	34170.64
888.035	35242.26
888.411	36157.1
888.786	36650.7
889.161	37939.38
889.537	37253.72
889.912	38451.12
890.287	38421.1
890.662	39408.49
891.037	38698.91
891.412	36089.12
891.787	35739.47
892.162	34484.5
892.536	35298.13
892.911	33977.34
893.286	33260.97
893.66	31907.34
894.035	32735.31
894.409	35645.77
894.784	34214.08
895.158	34792.52
895.532	36864.11
895.906	37842.06
896.281	38728.96
896.655	38098.46
897.029	43529.79
897.402	45332.59
897.776	50482.41
898.15	50287.58
898.524	49739.68
898.898	50393.21
899.271	56408.03
899.645	48853.81
900.018	46974.33
900.392	48699.42
900.765	49096.69
901.138	45436.23
901.511	44761.12
901.884	41106.82
902.258	37921.44
902.631	39182.53
903.003	45092.71
903.376	40699.36
903.749	45635.11
904.122	48832.12
904.495	53793.21
904.867	54481.49
905.24	47297.8
905.612	44025.32
905.985	44981.08
906.357	47043.81
906.729	44901.96
907.102	38351
907.474	36870.01
907.846	37107.14
908.218	36606.2
908.59	32342.14
908.962	31261.14
909.334	33663.31
909.705	35351.38
910.077	34336.91
910.449	35729.77
910.82	36720.17
911.192	40405.73
911.563	41967.05
911.935	44890.23
912.306	44943.47
912.677	46414.28
913.048	45954.61
913.419	49841.3
913.79	50087.26
914.161	53688.11
914.532	51309.13
914.903	47162.08
915.274	44772.27
915.645	44119.53
916.015	38831.1
916.386	37016.29
916.756	39383.66
917.127	40634.84
917.497	36314.02
917.868	39545.46
918.238	37567.56
918.608	38623.86
918.978	39418.42
919.348	41752.11
919.718	43123.44
920.088	41546.29
920.458	43167.76
920.828	45436
921.198	43074.32
921.567	45993.24
921.937	35622.25
922.306	35962.44
922.676	38799.12
923.045	32356.95
923.415	30738.28
923.784	28000.39
924.153	28776.8
924.522	28746.65
924.891	27018.11
925.26	28922.96
925.629	28232.84
925.998	32437.72
926.367	31662.8
926.736	30150.89
927.104	35905.2
927.473	38598.08
927.842	46612.92
928.21	46144.93
928.578	48509.31
928.947	45875.98
929.315	46182.39
929.683	54197.98
930.051	54659.41
930.42	63477.56
930.788	54256.42
931.156	53833.89
931.523	50451.39
931.891	46595
932.259	44787.96
932.627	51917.72
932.994	73434.6
933.362	60665.78
933.729	52672.31
934.097	50389.86
934.464	42653.91
934.831	49245.92
935.199	48571.49
935.566	47104.27
935.933	47851.99
936.3	57944.84
936.667	45104.99
937.034	40684.46
937.401	40233.14
937.767	34691.05
938.134	30890.84
938.501	43585.24
938.867	46451.72
939.234	78559.74
939.6	67039.15
939.967	73709.37
940.333	49335.72
940.699	42016.85
941.065	33770.09
941.431	44326.43
941.798	42801.45
942.163	56261.06
942.529	35124.81
942.895	32303.41
943.261	20899.54
943.627	27408.02
943.992	23992
944.358	24032.69
944.723	24112.07
945.089	23455.34
945.454	21655.39
945.82	23134.26
946.185	22204.78
946.55	25751.66
946.915	23106.84
947.28	27126.73
947.645	23909.88
948.01	22059.32
948.375	22991.14
948.74	27553.78
949.104	32165.86
949.469	46437.74
949.834	81951.98
950.198	77633.09
950.562	46486.33
950.927	38743.81
951.291	46611.21
951.655	39683.4
952.02	37275.68
952.384	28181.71
952.748	24548.89
953.112	23933.88
953.476	20831.08
953.839	19276.08
954.203	19096.44
954.567	23913.62
954.931	37663.03
955.294	32167.7
955.658	32368.96
956.021	55066.9
956.385	93426.32
956.748	137699.88
957.111	213640.62
957.474	239718.03
957.837	269924.57
958.2	204339.76
958.563	73414.4
958.926	49621.19
959.289	75331.32
959.652	84117.47
960.015	63112.22
960.377	90438.82
960.74	103352.22
961.102	178342.01
961.465	191478.74
961.827	102525.39
962.189	196768.82
962.552	136535.35
962.914	109387.12
963.276	70961.59
963.638	58617.26
964	58036.37
964.362	39289.85
964.724	37953.05
965.085	27063.09
965.447	22214.44
965.809	25312.39
966.17	25332.78
966.532	27392.27
966.893	25157.93
967.255	22890.01
967.616	27017.34
967.977	21621.1
968.338	23597.38
968.699	19380.84
969.061	19362.26
969.421	19463.6
969.782	21843.67
970.143	18440.29
970.504	19084.54
970.865	21675.74
971.225	22173.01
971.586	21698.48
971.946	30963.87
972.307	26864.57
972.667	35101.79
973.027	36158.81
973.388	43837.39
973.748	29806.78
974.108	32466.27
974.468	43937.42
974.828	33853.18
975.188	26067.34
975.548	23944.34
975.907	20062.68
976.267	22501.56
976.627	18921.31
976.986	19614.63
977.346	18703.22
977.705	17996.01
978.064	16379.11
978.424	13636.32
978.783	14114.65
979.142	16095.71
979.501	15397.22
979.86	16302.57
980.219	15717.4
980.578	20254.43
980.937	22701.58
981.296	20233.32
981.654	20833.63
982.013	32468.34
982.371	42119.45
982.73	39359.44
983.088	44528.77
983.447	47582.65
983.805	68010.4
984.163	142015.04
984.521	157733.14
984.879	230973.47
985.237	-375585.71
985.595	361503.66
985.953	89652.66
986.311	51763.79
986.669	30008.09
987.026	25916.22
987.384	34831.75
987.741	35936.09
988.099	25698.18
988.456	20481.83
988.814	19167.59
989.171	16643.52
989.528	16409.37
989.885	17337.55
990.242	13733.85
990.599	17118.99
990.956	13992.44
991.313	9786.13
991.67	8041.54
992.027	8519.41
992.383	7565.29
992.74	6641.15
993.096	6965.84
993.453	7224.81
993.809	7487.76
994.165	9960.92
994.522	9122.42
994.878	10071.05
995.234	12633.03
995.59	12481
995.946	11813.97
996.302	13461.61
996.658	15553.43
997.013	17146
997.369	20357.12
997.725	26039.92
998.08	16878.65
998.436	26051.35
998.791	35898.88
999.147	35827.22
999.502	39041.82
999.857	28410.22
1000.212	46364.52
1000.567	66121
1000.922	38195.05
1001.277	24223.83
1001.632	17982.75
1001.987	23162.45
1002.342	16622.01
1002.696	13303.38
1003.051	10634.29
1003.406	12879.91
1003.76	12793.61
1004.114	12631.06
1004.469	10595.16
1004.823	8766.07
1005.177	9469.49
1005.531	7516.16
1005.885	6660.46
1006.239	7497.16
1006.593	9383.52
1006.947	12559.52
1007.301	9416.44
1007.655	10281.92
1008.008	7545.68
1008.362	8508.39
1008.715	12169.76
1009.069	11065.27
1009.422	16605.79
1009.776	33324.52
1010.129	22114.12
1010.482	18493.1
1010.835	15632.62
1011.188	32569.55
1011.541	30695.22
1011.894	-187548.08
1012.247	551488.06
1012.6	37378.09
1012.952	23598.9
1013.305	12161.83
1013.657	8780.23
1014.01	8330.42
1014.362	6880.56
1014.715	6093.73
1015.067	5305.3
1015.419	5190.59
1015.771	4602.78
1016.123	4088.99
1016.475	4215.03
1016.827	4485.49
1017.179	4829.75
1017.531	4872.44
1017.883	4959.35
1018.234	4774.73
1018.586	6035.71
1018.938	6386.75
1019.289	8797.65
1019.64	10073.33
1019.992	9384.24
1020.343	8543.49
1020.694	6771.99
1021.045	5989.53
1021.396	6825.91
1021.747	7355.25
1022.098	8883.56
1022.449	6455.6
1022.8	5952.11
1023.151	4148.8
1023.501	3670.3
1023.852	4002.19
1024.202	4170.43
1024.553	4578.61
1024.903	4468.68
1025.253	3835.31
1025.604	3455.3
1025.954	4264.09
1026.304	5182.62
1026.654	6057.64
1027.004	8876.47
1027.354	14387.44
1027.703	13425.41
1028.053	17644.38
1028.403	25662.89
1028.753	37309.22
1029.102	50630.99
1029.452	259638.22
1029.801	11240.77
1030.15	7274.92
1030.499	6204.57
897.758	2746.95
901.051	2706.38
904.343	2743.41
907.636	2743.02
910.928	2807.78
914.22	2712.74
917.511	2722.96
920.803	2790.41
924.094	2812.45
927.384	2789.93
930.675	2751.99
933.965	2702.52
937.255	2711.63
940.544	2678.19
943.834	2607.93
947.123	2554.55
950.411	2654.56
953.7	2624.46
956.988	2589.26
960.276	2529.67
963.563	2617.56
966.851	2611.9
970.138	2672.14
973.424	2660.87
976.711	2611.64
979.997	2756.36
983.283	2788.48
986.568	2690.08
989.853	2712.4
993.138	2737.79
996.423	2820.22
999.708	2753.99
1002.992	2828.28
1006.275	2650.94
1009.559	2702.26
1012.842	2817.61
1016.125	2750.76
1019.408	2729.67
1022.69	2822.21
1025.972	2838.31
1029.254	2814.28
1032.536	2741.87
1035.817	2771.76
1039.098	2706.16
1042.379	2866.89
1045.659	2861.75
1048.939	2792.89
1052.219	2814.85
1055.498	2830.72
1058.778	2811.95
1062.057	2797.86
1065.335	2817.63
1068.614	2839.7
1071.892	2817.93
1075.17	2898.82
1078.447	2888.38
1081.724	2877.84
1085.001	2915.26
1088.278	2888.97
1091.554	2902.53
1094.83	2901.13
1098.106	2926.07
1101.382	2975.62
1104.657	2975.23
1107.932	2968.68
1111.206	2932.21
1114.481	2887.28
1117.755	2891.87
1121.029	2872.7
1124.302	2924.31
1127.575	2871.43
1130.848	2856.61
1134.121	2814.39
1137.393	2763.35
1140.665	2830.83
1143.937	2806.98
1147.208	2768.14
1150.48	2804.79
1153.75	2790.13
1157.021	2826.18
1160.291	2795.19
1163.561	2839.33
1166.831	2834.53
1170.101	2868.77
1173.37	2845.4
1176.639	2787.84
1179.907	2848.88
1183.176	2854.01
1186.444	2862.71
1189.711	2891.2
1192.979	2901.71
1196.246	2858.32
1199.513	2876.08
1202.78	2871.32
1206.046	2882.25
1209.312	2905.95
1212.578	2934.04
1215.843	2884.2
1219.108	2858.13
1222.373	2881.86
1225.638	2845.15
1228.902	2825.44
1232.166	2789.08
1235.43	2772.94
1238.693	2797.33
1241.956	2794.16
1245.219	2833.55
1248.482	2824.56
1251.744	2819.28
1255.006	2975.32
1258.268	2929.41
1261.529	2870.1
1264.79	2879.31
1268.051	2990.37
1271.312	3006.61
1274.572	2963.55
1277.832	2954.67
1281.092	2949.38
1284.351	2920.78
1287.61	2898.55
1290.869	2804.86
1294.128	2779.43
1297.386	2876.33
1300.644	2863.42
1303.902	2873.11
1307.159	2727.62
1310.416	2787.15
1313.673	2810.68
1316.93	2789.55
1320.186	2839.8
1323.442	2883.56
1326.697	2872.56
1329.953	2867.19
1333.208	2887.76
1336.463	2868.98
1339.717	2803.8
1342.972	2944.64
1346.226	2924.56
1349.479	2852.8
1352.733	2820.72
1355.986	2846.33
1359.238	2821.31
1362.491	2821.7
1365.743	2826.73
1368.995	2821.89
1372.247	2833.35
1375.498	2859.87
1378.749	2869.66
1382	2822.51
1385.251	2879.46
1388.501	2843.37
1391.751	2824.39
1395	2796.8
1398.25	2832.61
1401.499	2836.26
1404.748	2757.46
1407.996	2752.49
1411.244	2734.46
1414.492	2714.77
1417.74	2692.39
1420.987	2702.16
1424.234	2758.75
1427.481	2739.56
1430.728	2801.7
1433.974	2774.28
1437.22	2790.05
1440.465	2795.46
1443.711	2751.1
1446.956	2789.11
1450.201	2780.56
1453.445	2824.75
1456.689	2800.98
1459.933	2814.69
1463.177	2846.86
1466.42	2817.54
1469.663	2796.81
1472.906	2788.11
1476.148	2872.17
1479.391	2824.67
1482.633	2797.4
1485.874	2807.48
1489.115	2789.7
1492.356	2802.12
1495.597	2776.07
1498.838	2780.34
1502.078	2744.08
1505.318	2691.53
1508.557	2736.25
1511.797	2704.83
1515.036	2785.05
1518.274	2777.41
1521.513	2748.52
1524.751	2774.05
1527.989	2784.99
1531.227	2797.02
1534.464	2787.25
1537.701	2816.7
1540.938	2835.7
1544.174	2787.08
1547.41	2787.8
1550.646	2830.94
1553.882	2863.11
1557.117	2920.39
1560.352	2937.41
1563.587	2890.3
1566.821	2848.96
1570.055	2887.4
1573.289	2853.5
1576.523	2934.38
1579.756	2941.79
1582.989	2958.53
1586.222	2920.58
1589.454	2956.74
1592.686	2927.27
1595.918	2951.48
1599.15	2939.61
1602.381	3021.2
1605.612	2971.25
1608.843	3071.29
1612.073	2979.97
1615.303	2963.33
1618.533	2954.36
1621.762	2953.93
1624.992	2947.03
1628.221	2930.58
1631.449	2915.28
1634.678	2979.08
1637.906	2930.33
1641.134	2974.01
1644.361	2924.85
1647.588	2914.07
1650.815	2930.24
1654.042	2911.58
1657.269	2945.37
1660.495	2892.72
1663.72	2905.77
1666.946	2866.77
1670.171	2802.71
1673.396	2779.99
1676.621	2770.61
1679.845	2795.26
1683.069	2819.45
1686.293	2865.11
1689.517	2832.14
1692.74	2755.41
1695.963	2787.4
1699.185	2811.52
1702.408	2789.67
1705.63	2834.67
1708.852	2843.2
1712.073	2814.24
1715.294	2795.25
1718.515	2858.34
1721.736	2802.33
1724.956	2797.53
1728.176	2824.14
1731.396	2846.92
1734.616	2836.42
1737.835	2859.92
1741.054	2842.34
1744.272	2837.35
1747.491	2864.25
1750.709	2924.05
1753.927	2820.44
1757.144	2869.75
1760.361	2909.62
1763.578	2905.76
1766.795	2843.7
1770.011	2852.41
1773.227	2897.6
1776.443	2930.65
1779.658	2971.86
1782.874	2919.54
1786.089	2892.59
1789.303	2895.07
1792.518	2902.01
1795.732	2889.43
1798.945	2896.7
1802.159	2951.76
1805.372	2845.87
1808.585	2828.7
1811.797	2828.3
1815.01	2885.95
1818.222	2880.91
1821.434	2845.09
1824.645	2909.24
1827.856	2887.7
1831.067	2922.94
1834.278	2886.36
1837.488	2865.01
1840.698	3021.91
1843.908	2941.64
1847.117	2904
1850.326	2776.89
1853.535	2890.02
1856.744	2927.52
1859.952	2835.81
1863.16	2839.16
1866.368	2864.28
1869.575	2965.36
1872.782	2852.12
1875.989	2789.84
1879.196	2879.78
1882.402	2874.34
1885.608	2915.88
1888.814	2810.84
1892.019	2704.47
1895.224	2759.99
1898.429	2740.72
1901.634	2716.4
1904.838	2694.56
1908.042	2743.06
1911.246	2751.68
1914.449	2677.8
1917.652	2675.73
1920.855	2659.75
1924.058	2715.04
1927.26	2747.94
1930.462	2776.88
1933.664	2802.67
1936.865	2739.98
1940.066	2744.42
1943.267	2692.65
1946.467	2707.71
1949.668	2736.04
1952.868	2802.75
1956.067	2778.22
1959.267	2706.83
1962.466	2736.46
1965.665	2721.54
1968.863	2714.53
1972.061	2731.77
1975.259	2732.97
1978.457	2812.17
1981.654	2769.64
1984.852	2769.86
1988.048	2699.6
1991.245	2704.5
1994.441	2789.89
1997.637	2779.4
2000.833	2762.63
2004.028	2801.81
2007.223	2858.77
2010.418	2830.85
2013.613	2794.7
2016.807	2760.11
2020.001	2773.3
2023.194	2818.8
2026.388	2792.67
2029.581	2737.9
2032.774	2785.85
2035.966	2787.63
2039.158	2720.93
2042.35	2745.36
2045.542	2675.34
2048.733	2776.67
2051.924	2808.14
2055.115	2834.28
2058.306	2774.7
2061.496	2838.16
2064.686	2904.23
2067.875	2817.63
2071.065	2834.36
2074.254	2862.8
2077.442	2812.63
2080.631	2905.49
2083.819	2789.99
2087.007	2768.33
2090.195	2738.6
2093.382	2776.53
2096.569	2754.51
2099.756	2706.08
2102.942	2726.78
2106.128	2729.79
2109.314	2724.8
2112.5	2685.63
2115.685	2660.09
2118.87	2671.48
2122.055	2737.98
2125.239	2701.4
2128.424	2674.54
2131.608	2784.06
2134.791	2768.41
2137.974	2830.31
2141.157	2816.7
2144.34	2759.94
2147.523	2780.63
2150.705	2794.53
2153.887	2777.53
2157.068	2721.74
2160.25	2726.4
2163.431	2767.59
2166.611	2709.68
2169.792	2720.87
2172.972	2611.81
2176.152	2695.62
2179.331	2734.37
2182.511	2712.39
2185.69	2739.61
2188.868	2731.85
2192.047	2793.46
2195.225	2778.09
2198.403	2726.84
2201.58	2721.42
2204.758	2721.52
2207.935	2807.19
2211.111	2688.81
2214.288	2670.81
2217.464	2710.25
2220.64	2687.64
2223.815	2744.42
2226.991	2659.79
2230.166	2681.25
2233.34	2710.86
2236.515	2738.35
2239.689	2811.44
2242.863	2753.8
2246.036	2813.72
2249.209	2814.01
2252.382	2853.26
2255.555	2836.14
2258.727	2769.12
2261.9	2814
2265.071	2803.85
2268.243	2804.43
2271.414	2732.02
2274.585	2689.93
2277.756	2757.46
2280.926	2712.96
2284.096	2758.4
2287.266	2658.92
2290.436	2716.64
2293.605	2748.15
2296.774	2774.37
2299.942	2799.76
2303.111	2815.3
2306.279	2863.23
2309.447	2853.72
2312.614	2829.36
2315.781	2846.63
2318.948	2814.93
2322.115	2854.04
2325.281	2755.39
2328.447	2777.31
2331.613	2753.96
2334.779	2724.97
2337.944	2732.81
2341.109	2728.69
2344.274	2706.04
2347.438	2671.14
2350.602	2697.24
2353.766	2717.15
2356.929	2701.73
2360.092	2746.92
2363.255	2694.83
2366.418	2621.83
2369.58	2741.82
2372.742	2510.64
2375.904	2530.62
2379.066	2503.48
2382.227	2543.23
2385.388	2505.73
2388.548	2424.77
2391.709	2484.54
2394.869	2459.05
2398.029	2566.98
2401.188	2583.61
2404.347	2513.05
2407.506	2665.26
2410.665	2694.4
2413.823	2706.07
2416.981	2657.91
2420.139	2693.44
2423.296	2747.24
2426.453	2718.53
2429.61	2744.23
2432.767	2671.66
2435.923	2708.29
2439.079	2671.04
2442.235	2722.72
2445.391	2645.07
2448.546	2671.42
2451.701	2725.21
2454.855	2691.94
2458.009	2748.09
2461.163	2753.21
2464.317	2708.7
2467.471	2743.45
2470.624	2786.31
2473.777	2756.51
2476.929	2770.06
2480.082	2794.47
2483.234	2757.25
2486.385	2711.64
2489.537	2704.13
2492.688	2658.8
2495.839	2675.12
2498.989	2686.79
2502.14	2667.8
2505.29	2647.53
2508.439	2677.25
2511.589	2597.58
2514.738	2611.38
2517.887	2645.66
2521.035	2705.45
2524.183	2692.47
2527.331	2672
2530.479	2643.67
2533.627	2654.35
