Data from N_2_DEC_OH_4N_Splice17_12-04-15-389.txt Node
Date: Sat Mar 14 12:04:15 EDT 2020
User: sa697716
Spectrometer: FLMS03696
Trigger mode: 0
Integration Time (sec): 3.180400E-1
Scans to average: 20
Electric dark correction enabled: true
Nonlinearity correction enabled: true
Boxcar width: 5
XAxis mode: Wavelengths
Number of Pixels in Spectrum: 2048
>>>>>Begin Spectral Data<<<<<
187.83	-278883.54
188.298	2057.02
188.766	1062.89
189.233	903.66
189.701	1278.97
190.169	1768.42
190.636	636.19
191.104	591.2
191.571	78.35
192.039	-88.97
192.506	-72.49
192.974	310.32
193.441	-420.01
193.908	-154.85
194.375	-69.16
194.842	12.62
195.31	116.66
195.777	168.68
196.244	450.49
196.711	561.45
197.177	714.02
197.644	1040.15
198.111	1819.22
198.578	2539.31
199.045	2030.72
199.511	3350.33
199.978	3925.52
200.445	3292.76
200.911	3638.05
201.378	4078.51
201.844	3676.18
202.31	6285.89
202.777	6536.15
203.243	3616.36
203.709	3460.57
204.176	4161.38
204.642	3416.77
205.108	3187.13
205.574	2618.55
206.04	2415.32
206.506	2262.51
206.972	2155.69
207.438	2085.91
207.903	2391.78
208.369	2108.64
208.835	2097.82
209.301	2190.92
209.766	2258.69
210.232	2240.58
210.697	2790.77
211.163	3465.12
211.628	5248.5
212.094	4434.85
212.559	5434.9
213.024	3397.63
213.49	4170.47
213.955	4089.77
214.42	4043.1
214.885	3772.66
215.35	3645.74
215.815	3481.5
216.28	3701.32
216.745	3060.05
217.21	3318.38
217.675	3117.45
218.14	3564.58
218.604	4091.07
219.069	4779.36
219.534	5108.94
219.998	6072.4
220.463	7491.57
220.927	9436.88
221.392	9017.83
221.856	9219.21
222.32	11800.79
222.785	14688.9
223.249	18658.77
223.713	20901.35
224.177	21026.37
224.642	27139.68
225.106	33527.11
225.57	36814.02
226.034	27397.89
226.497	41767.17
226.961	37771.25
227.425	43937
227.889	48863.13
228.353	48885.33
228.816	101102.04
229.28	96720.31
229.744	81603.98
230.207	49532.19
230.671	48739.62
231.134	80842.68
231.597	93189.31
232.061	93243.12
232.524	91131.87
232.987	62726.37
233.45	56440.3
233.914	50635.47
234.377	51941.19
234.84	47512.68
235.303	56092.47
235.766	62556.86
236.229	64652.62
236.691	40722.11
237.154	45788.56
237.617	34423.42
238.08	35286.9
238.542	41353.62
239.005	29526.34
239.468	29290.78
239.93	27582.8
240.393	25052.94
240.855	21978.02
241.317	22514.05
241.78	27407.53
242.242	28302.66
242.704	30517.27
243.166	26545.88
243.629	24053.64
244.091	27712.88
244.553	30325.84
245.015	32608.11
245.477	42195.9
245.939	61880.75
246.4	65631.71
246.862	63759.51
247.324	60123.28
247.786	67360.13
248.247	88330.86
248.709	91297.61
249.17	68289.56
249.632	64292.86
250.093	74434.33
250.555	64216.29
251.016	39114.72
251.477	37030.16
251.939	39958.19
252.4	41898.37
252.861	49809.64
253.322	46257.43
253.783	55071.28
254.244	71353.82
254.705	56335.11
255.166	50129.12
255.627	49354.18
256.088	69584.56
256.549	73929.69
257.009	63670.41
257.47	77270.54
257.931	62854.94
258.391	47106.75
258.852	48523.94
259.312	50890.44
259.773	62768.41
260.233	52964.26
260.694	44647.43
261.154	50658.26
261.614	40586.2
262.074	36301.54
262.534	37686.24
262.994	35505.82
263.455	47300.76
263.915	39826.99
264.374	37528.16
264.834	41002.28
265.294	45506.34
265.754	47135.98
266.214	44615.17
266.673	41831.5
267.133	52801.37
267.593	52400.26
268.052	64124.34
268.512	55801.41
268.971	67270.95
269.431	73749.3
269.89	66078.48
270.349	99015.7
270.809	110335.69
271.268	99169.15
271.727	222704.34
272.186	144296.49
272.645	108240.02
273.104	78181.59
273.563	113186.68
274.022	89087.89
274.481	75752.71
274.94	58321.57
275.399	43352.76
275.857	50563.3
276.316	68444.75
276.775	60896.64
277.233	59927.36
277.692	56087.39
278.15	63417.72
278.609	65204.08
279.067	60377.52
279.525	56079.94
279.984	72443.2
280.442	87047.86
280.9	85662.32
281.358	56346.63
281.816	52501.7
282.274	51429.39
282.732	53161.56
283.19	53431.82
283.648	46160.28
284.106	49141.12
284.564	50016.25
285.021	46387.04
285.479	34582.56
285.937	31494.21
286.394	27622.12
286.852	28429.62
287.309	29878.29
287.767	28817.3
288.224	27398.21
288.682	30050.65
289.139	32945.46
289.596	30135.36
290.053	31289.93
290.511	39506.71
290.968	47914.05
291.425	65059.51
291.882	54084.47
292.339	47046.68
292.796	46720.11
293.252	44017.9
293.709	34942.7
294.166	31325.97
294.623	34638.3
295.079	33239.31
295.536	33380.32
295.992	30301.03
296.449	29945.28
296.905	31096.68
297.362	29777.29
297.818	31329.5
298.274	32498.23
298.731	33142.73
299.187	32825.2
299.643	35222.62
300.099	42633.19
300.555	46714.92
301.011	39026.37
301.467	37558.2
301.923	44054.63
302.379	43015.1
302.835	42205.68
303.291	42237.05
303.746	48074.37
304.202	60685.29
304.658	60890.37
305.113	40951.42
305.569	40153.93
306.024	42812.12
306.479	40789.91
306.935	34368.19
307.39	37584.18
307.845	34750.66
308.301	34943.3
308.756	34011.26
309.211	32735.97
309.666	33538.09
310.121	41564.51
310.576	42190.58
311.031	41840.91
311.486	47966.63
311.94	47895
312.395	63987.27
312.85	120141.37
313.305	590704.29
313.759	3051990.65
314.214	221234.55
314.668	175076.1
315.123	147183.62
315.577	52670.53
316.032	46799.7
316.486	58586
316.94	46171.62
317.394	32130.78
317.849	24949.38
318.303	23597.96
318.757	22289.64
319.211	24607.52
319.665	21536.84
320.119	21780.36
320.572	31267.78
321.026	29206.38
321.48	24303.88
321.934	26510.19
322.387	26551.19
322.841	28664.68
323.295	25703.46
323.748	29613.31
324.202	30044.09
324.655	36084.38
325.108	50355.35
325.562	35510.77
326.015	42183.5
326.468	31856.56
326.921	35597.18
327.374	33172.47
327.827	34520.86
328.28	39078.62
328.733	26131.05
329.186	22957.76
329.639	21861.51
330.092	18430.35
330.545	17534.44
330.997	17663.9
331.45	19265.15
331.903	22556.37
332.355	38830.25
332.808	37715.13
333.26	31132.7
333.713	33767.52
334.165	34020
334.617	45436.65
335.069	36732.39
335.522	66486.35
335.974	73685.27
336.426	67420.14
336.878	46772.11
337.33	23680.72
337.782	23108.58
338.234	28922.78
338.686	34617.24
339.137	41002.01
339.589	38605.17
340.041	30241.46
340.493	25967.65
340.944	26551.63
341.396	28533.39
341.847	23938.78
342.299	28210.52
342.75	34430.68
343.201	30126.44
343.653	34643.18
344.104	42619.52
344.555	33521.37
345.006	52226.29
345.457	39931.99
345.908	31772.2
346.359	29913.21
346.81	24362.39
347.261	25726
347.712	25337.55
348.163	27134.99
348.613	27440.16
349.064	25579.89
349.515	22421.61
349.965	22977.98
350.416	27699.59
350.866	30379.09
351.317	34334.63
351.767	56854.15
352.217	71717.77
352.668	59474.31
353.118	54502.34
353.568	52610.99
354.018	41573.16
354.468	43787.55
354.918	31394.01
355.368	27454.53
355.818	38752.48
356.268	111601.65
356.718	466961.44
357.168	116269.51
357.617	58361.48
358.067	64999.96
358.517	60869.89
358.966	71320.9
359.416	79888.33
359.865	86345.07
360.315	102839.38
360.764	47988.99
361.213	26841.48
361.663	25418.19
362.112	31355.74
362.561	50626.01
363.01	38107.71
363.459	32072.39
363.908	34731.89
364.357	29493.29
364.806	49756.06
365.255	34252.17
365.703	31355.32
366.152	31415.73
366.601	25485.87
367.05	20675.89
367.498	18763.37
367.947	19609.13
368.395	20411.8
368.844	18086.99
369.292	21824.31
369.74	15067.34
370.189	23028.96
370.637	27005.34
371.085	23299.85
371.533	28367.71
371.981	27375.49
372.429	26104.27
372.877	27207.51
373.325	22729.08
373.773	23143.16
374.221	20615.32
374.669	25618.59
375.116	22156.84
375.564	22314.64
376.012	24969.99
376.459	20592.1
376.907	24595.28
377.354	29739.95
377.801	27689.07
378.249	31831.56
378.696	40684.52
379.143	49151.7
379.591	52451.99
380.038	88789.86
380.485	64205.74
380.932	69305.29
381.379	63316.6
381.826	46583.37
382.273	33118.7
382.72	28955.71
383.166	28212.61
383.613	18292.12
384.06	16507.59
384.506	19034.32
384.953	13945.55
385.4	14031.4
385.846	12280.55
386.292	11952.6
386.739	11689.5
387.185	11559.74
387.631	11567.8
388.078	11202.14
388.524	11975.38
388.97	11046.84
389.416	9208.26
389.862	9785.65
390.308	9261.01
390.754	9386.06
391.2	10186.41
391.645	10419.21
392.091	9915.85
392.537	9543.55
392.983	9550.67
393.428	9352.94
393.874	9987.66
394.319	9985.73
394.765	9431.24
395.21	9670.99
395.655	9026.74
396.101	8422.98
396.546	7568.67
396.991	7632.7
397.436	7073.09
397.881	6814.74
398.326	6435.68
398.771	6072.78
399.216	5301.95
399.661	4766.39
400.106	4729.66
400.551	4835.91
400.995	4328.69
401.44	4272.93
401.885	4000.66
402.329	4030.3
402.774	3853.71
403.218	3715.52
403.663	3569.8
404.107	3658.27
404.551	3678.19
404.995	3367.48
405.44	3237.1
405.884	3278.71
406.328	3164
406.772	3150.37
407.216	2862.17
407.66	2763.73
408.104	2627.52
408.547	2457.99
408.991	2371.9
409.435	2274.92
409.879	2240.38
410.322	2207.15
410.766	2123.7
411.209	2015.24
411.653	1930.63
412.096	1889.25
412.54	1886.27
412.983	1869.9
413.426	1870.7
413.869	1869.51
414.312	1830.88
414.756	1761.03
415.199	1678.41
415.642	1631.3
416.085	1632.25
416.527	1618.31
416.97	1641.58
417.413	1553.99
417.856	1534.89
418.298	1516.22
418.741	1504.46
419.184	1501.34
419.626	1562.43
420.069	1561.61
420.511	1565.08
420.953	1529.77
421.396	1515.7
421.838	1475.46
422.28	1507.42
422.722	1511.12
423.164	1531.34
423.606	1506.3
424.048	1501.93
424.49	1425.77
424.932	1417.44
425.374	1401.43
425.816	1426.64
426.258	1451.2
426.699	1466.6
427.141	1443.87
427.582	1470.32
428.024	1463.02
428.465	1452.52
428.907	1417.68
429.348	1400.28
429.789	1397.98
430.231	1365.89
430.672	1382.86
431.113	1350.12
431.554	1330.87
431.995	1298.92
432.436	1251.9
432.877	1225.52
433.318	1203.83
433.759	1198.06
434.2	1198.14
434.64	1185.46
435.081	1189.64
435.522	1126.23
435.962	1085.74
436.403	1064.12
436.843	1081.5
437.284	1059.24
437.724	1032.8
438.164	1036.24
438.604	1013.7
439.045	976.21
439.485	936.47
439.925	916.13
440.365	893.75
440.805	883.57
441.245	869.87
441.685	836.36
442.125	829.57
442.564	834.55
443.004	812.47
443.444	810.36
443.883	810.89
444.323	805.18
444.762	807.06
445.202	815.92
445.641	827.43
446.081	822.88
446.52	827.12
446.959	816.69
447.398	791.94
447.837	783.06
448.276	767.68
448.716	773.25
449.154	778.46
449.593	757.86
450.032	754.89
450.471	740.89
450.91	740.91
451.349	739.23
451.787	735.19
452.226	746.7
452.664	744.64
453.103	745.43
453.541	743.13
453.98	739.65
454.418	744.45
454.856	731.9
455.295	728.8
455.733	731.57
456.171	734.72
456.609	735.12
457.047	732.54
457.485	742.67
457.923	742.98
458.361	731.85
458.798	733.44
459.236	730.07
459.674	734.42
460.111	737.8
460.549	731.7
460.987	727.87
461.424	725.2
461.862	722.9
462.299	711.81
462.736	711.1
463.173	713.46
463.611	705.48
464.048	704.09
464.485	711.07
464.922	704.72
465.359	699.83
465.796	690.5
466.233	686.19
466.67	680.1
467.106	679.71
467.543	673.05
467.98	665.65
468.416	650.59
468.853	645.52
469.29	625
469.726	618.49
470.162	603.27
470.599	595.84
471.035	589.63
471.471	574.76
471.907	570.26
472.344	565.41
472.78	565.84
473.216	571.92
473.652	563.39
474.088	561.63
474.523	558.54
474.959	562.44
475.395	556.97
475.831	552.68
476.266	553.93
476.702	551.64
477.138	545.04
477.573	541.4
478.008	538.2
478.444	540.11
478.879	543.89
479.314	545.95
479.75	544.46
480.185	545.5
480.62	549.02
481.055	551.44
481.49	554.94
481.925	562.13
482.36	571.45
482.795	586.43
483.229	601.61
483.664	612.97
484.099	614.91
484.534	624.11
484.968	629.3
485.403	630.67
485.837	629.66
486.271	627.36
486.706	627.29
487.14	620.13
487.574	608.76
488.009	602.87
488.443	596.93
488.877	601.18
489.311	601.12
489.745	606.75
490.179	610.94
490.613	619.96
491.046	623.05
491.48	625.51
491.914	624.26
492.348	626.96
492.781	628.05
493.215	627.33
493.648	626.41
494.082	629.47
494.515	627.73
494.948	631.76
495.382	633.63
495.815	635.32
496.248	637.77
496.681	646.55
497.114	654.14
497.547	660.08
497.98	669.04
498.413	671.18
498.846	676.84
499.279	680.57
499.711	681.11
500.144	681.04
500.577	686.75
501.009	692.88
501.442	696.89
501.874	694.17
502.306	692.94
502.739	696.26
503.171	705.73
503.603	705.3
504.036	711.24
504.468	713.77
504.9	719.78
505.332	723.21
505.764	724.33
506.196	728.48
506.627	738.84
507.059	748.28
507.491	752.96
507.923	749.88
508.354	760.46
508.786	767.41
509.217	781.37
509.649	791.67
510.08	806.02
510.512	818.97
510.943	830.68
511.374	839.94
511.805	855.88
512.237	872.05
512.668	898.43
513.099	921.08
513.53	943.96
513.961	960.86
514.391	989.27
514.822	1017.88
515.253	1048.36
515.684	1071.81
516.114	1098.25
516.545	1118.76
516.975	1142.99
517.406	1160.85
517.836	1166.76
518.267	1175.77
518.697	1195.28
519.127	1202.18
519.558	1212.17
519.988	1219.51
520.418	1232.14
520.848	1250.94
521.278	1262.27
521.708	1286.48
522.138	1301.27
522.567	1331.68
522.997	1357.9
523.427	1375.11
523.857	1395.02
524.286	1408.94
524.716	1427.75
525.145	1447.75
525.575	1461.66
526.004	1478.7
526.433	1473.44
526.863	1477.78
527.292	1473.15
527.721	1481.33
528.15	1490.09
528.579	1494.21
529.008	1506.93
529.437	1529.75
529.866	1545.35
530.295	1564.39
530.724	1578.23
531.152	1605.58
531.581	1621.2
532.01	1640.13
532.438	1651.03
532.867	1666.22
533.295	1684.49
533.723	1691.84
534.152	1692.04
534.58	1693.63
535.008	1679.43
535.436	1682.53
535.865	1690.81
536.293	1705.46
536.721	1721.22
537.149	1745.9
537.576	1749.12
538.004	1761.96
538.432	1770.98
538.86	1770.61
539.287	1778.05
539.715	1793.46
540.143	1796.61
540.57	1793.93
540.998	1790.78
541.425	1768.77
541.852	1749.39
542.28	1748.69
542.707	1733.97
543.134	1720.82
543.561	1716.23
543.988	1709.58
544.415	1708.15
544.842	1703.19
545.269	1695.7
545.696	1698.13
546.123	1710.63
546.549	1700.44
546.976	1687.73
547.403	1686.98
547.829	1688.57
548.256	1690.82
548.682	1687.53
549.108	1678.81
549.535	1678.26
549.961	1680.38
550.387	1666.69
550.813	1661.26
551.24	1666.61
551.666	1667.33
552.092	1657.56
552.518	1650.46
552.943	1643.57
553.369	1649.91
553.795	1654.62
554.221	1653.8
554.646	1649.21
555.072	1658.38
555.498	1660.53
555.923	1666.99
556.349	1679.45
556.774	1686.22
557.199	1684.5
557.625	1688.17
558.05	1679.01
558.475	1686.78
558.9	1683.87
559.325	1673.87
559.75	1664.48
560.175	1655.84
560.6	1646.55
561.025	1640.32
561.449	1636.52
561.874	1638.4
562.299	1637.96
562.723	1641.53
563.148	1628.9
563.572	1627.99
563.997	1632.7
564.421	1633.26
564.846	1628.74
565.27	1628.76
565.694	1623
566.118	1629.4
566.542	1632.16
566.966	1621.69
567.39	1612.64
567.814	1599.53
568.238	1596.3
568.662	1597.22
569.086	1595.53
569.509	1598.55
569.933	1580.58
570.357	1570.19
570.78	1547.71
571.204	1532.57
571.627	1519.96
572.05	1514.72
572.474	1509.84
572.897	1494.37
573.32	1482.88
573.743	1471.33
574.166	1452.26
574.589	1448.23
575.012	1437.96
575.435	1433.1
575.858	1422.25
576.281	1410.41
576.704	1393.79
577.126	1380.66
577.549	1367.96
577.972	1357.75
578.394	1346.32
578.817	1337.39
579.239	1319.94
579.661	1306.89
580.084	1292.61
580.506	1278.71
580.928	1272.7
581.35	1262.27
581.772	1256.5
582.194	1244.43
582.616	1232.12
583.038	1217.27
583.46	1207.32
583.882	1202.77
584.303	1203.66
584.725	1198.65
585.147	1199.51
585.568	1207.23
585.99	1215.51
586.411	1219.03
586.833	1228.57
587.254	1228.13
587.675	1239.2
588.096	1247.59
588.518	1242.38
588.939	1228.37
589.36	1226.43
589.781	1215.17
590.202	1190.75
590.623	1182.02
591.043	1178.73
591.464	1168.3
591.885	1164.13
592.305	1158.45
592.726	1147.01
593.147	1147.01
593.567	1141.97
593.987	1133.24
594.408	1128.69
594.828	1127.33
595.248	1121.99
595.669	1106.41
596.089	1100.25
596.509	1093.22
596.929	1082.03
597.349	1082.14
597.769	1073.7
598.189	1068.42
598.608	1070.09
599.028	1071.46
599.448	1070.16
599.867	1059.68
600.287	1056.22
600.706	1052.58
601.126	1045.8
601.545	1044.9
601.965	1042.98
602.384	1038.28
602.803	1039.5
603.222	1034.97
603.641	1028.64
604.061	1025.17
604.48	1021.28
604.898	1026.71
605.317	1029.27
605.736	1030.25
606.155	1026.5
606.574	1019.12
606.992	1023.13
607.411	1018.64
607.829	1010.59
608.248	1007.95
608.666	1004.78
609.085	1004.43
609.503	997.37
609.921	992.65
610.339	992.94
610.758	991.56
611.176	987.12
611.594	978.69
612.012	976.2
612.43	979.32
612.847	983.8
613.265	985.45
613.683	987.15
614.101	987.86
614.518	983.86
614.936	976.79
615.353	965.98
615.771	962.49
616.188	963.06
616.606	960.05
617.023	954.07
617.44	942.93
617.857	936.69
618.274	930.37
618.691	925.42
619.108	918.29
619.525	913.3
619.942	918.48
620.359	920.57
620.776	916.36
621.192	913.6
621.609	912.1
622.026	917.1
622.442	920.38
622.859	922.56
623.275	917.44
623.691	921.45
624.108	929.73
624.524	939.73
624.94	939.99
625.356	946.62
625.772	955.24
626.188	963.1
626.604	963.54
627.02	960.91
627.436	960.63
627.852	966.64
628.268	975.69
628.683	969.24
629.099	962.83
629.514	959.23
629.93	961.53
630.345	965.31
630.761	962.17
631.176	964.43
631.591	961.18
632.007	954.92
632.422	952.37
632.837	943.42
633.252	941.4
633.667	933.64
634.082	926.66
634.497	917.47
634.911	903
635.326	900.77
635.741	888.27
636.155	880.1
636.57	881.13
636.984	879.92
637.399	879.99
637.813	879.1
638.228	877.67
638.642	880.39
639.056	873.16
639.47	873.11
639.884	867.53
640.298	863.24
640.712	861.95
641.126	852.88
641.54	847
641.954	844.25
642.368	835.64
642.781	831.99
643.195	820.31
643.609	820.99
644.022	816.87
644.436	813.86
644.849	806.19
645.262	798.86
645.676	801.75
646.089	799.41
646.502	790.43
646.915	788.33
647.328	776.62
647.741	776.6
648.154	769.88
648.567	771.34
648.98	764.15
649.393	766.42
649.805	766.63
650.218	763.05
650.631	753.39
651.043	750.42
651.456	747.3
651.868	748.68
652.28	763.12
652.693	773.81
653.105	779.66
653.517	787.65
653.929	789.17
654.341	794.82
654.753	787.26
655.165	794.45
655.577	795.2
655.989	794.75
656.401	791.81
656.813	766.67
657.224	755.4
657.636	735.25
658.047	724.97
658.459	713.17
658.87	709.32
659.282	704.56
659.693	692.54
660.104	684.6
660.515	677.54
660.926	679.81
661.338	681.55
661.749	679.36
662.159	676.42
662.57	676.56
662.981	677.18
663.392	675.53
663.803	683.72
664.213	685.59
664.624	686.7
665.035	693.41
665.445	687.62
665.855	686.35
666.266	684.06
666.676	686.11
667.086	682.89
667.497	686.8
667.907	685.5
668.317	679.57
668.727	680.46
669.137	684.01
669.547	685.68
669.956	689.78
670.366	695.03
670.776	700.21
671.186	706.72
671.595	712.13
672.005	717.06
672.414	718.55
672.824	719.98
673.233	725.48
673.642	729.72
674.052	733.29
674.461	738.03
674.87	743.42
675.279	741.98
675.688	744.76
676.097	747.82
676.506	746.55
676.915	760.96
677.323	764.16
677.732	762.42
678.141	762.52
678.549	753.49
678.958	751.94
679.366	752.54
679.775	757.26
680.183	767.43
680.592	772.18
681	775.02
681.408	766.5
681.816	771.71
682.224	778.51
682.632	783.77
683.04	807.18
683.448	825.32
683.856	846.29
684.264	871.18
684.671	893.57
685.079	920.48
685.487	951.6
685.894	994.56
686.302	1025.76
686.709	1046.45
687.116	1074.7
687.524	1094.71
687.931	1108.81
688.338	1118.48
688.745	1125.86
689.152	1134.08
689.559	1155.07
689.966	1176.33
690.373	1182.49
690.78	1204.93
691.187	1246.28
691.593	1276.37
692	1302.78
692.407	1348.48
692.813	1405.62
693.22	1453.1
693.626	1503.89
694.032	1545.81
694.439	1610.85
694.845	1666.35
695.251	1736.82
695.657	1803.03
696.063	1895.79
696.469	1971.09
696.875	2043.43
697.281	2092.4
697.687	2148.92
698.093	2201.6
698.498	2285.34
698.904	2356.89
699.31	2455.3
699.715	2532.21
700.12	2634.12
700.526	2675.45
700.931	2763.58
701.337	2835.32
701.742	2892.08
702.147	2995.94
702.552	3051.68
702.957	3135.36
703.362	3180.41
703.767	3234.8
704.172	3298.95
704.577	3279.31
704.981	3350.59
705.386	3391.93
705.791	3409.79
706.195	3511.36
706.6	3545.29
707.004	3650.07
707.408	3642.33
707.813	3693.37
708.217	3703.44
708.621	3728.82
709.025	3855.9
709.43	3879.31
709.834	3966.06
710.237	4062.97
710.641	4069.17
711.045	4115.4
711.449	4132
711.853	4185.46
712.256	4253.88
712.66	4317.83
713.064	4421.58
713.467	4490.89
713.87	4637.4
714.274	4711.79
714.677	4858.43
715.08	5065.09
715.484	5282.12
715.887	5539.1
716.29	5796.03
716.693	6060.52
717.096	6364.43
717.499	6544.73
717.901	6595.28
718.304	6653.73
718.707	6702.86
719.109	6605.08
719.512	6585.39
719.915	6442.48
720.317	6395.43
720.719	6464.6
721.122	6450.31
721.524	6405.02
721.926	6371.92
722.328	6514.4
722.731	6519.79
723.133	6571.35
723.535	6823.92
723.937	6868.28
724.338	6949.44
724.74	7013.03
725.142	6923.46
725.544	6932.89
725.945	6976.1
726.347	6985.39
726.748	6989.35
727.15	7019.19
727.551	6985.11
727.952	6962.91
728.354	6937.68
728.755	6951.73
729.156	6912.31
729.557	6934.62
729.958	6790.62
730.359	6735.64
730.76	6723.09
731.161	6652.7
731.562	6631.27
731.962	6642.67
732.363	6567.95
732.763	6493.39
733.164	6545.59
733.564	6466.86
733.965	6350.24
734.365	6314.25
734.766	6356.38
735.166	6310.98
735.566	6246.4
735.966	6219.62
736.366	6220.89
736.766	6144.25
737.166	6188.7
737.566	6139.31
737.966	6108.5
738.365	6164.5
738.765	6161.25
739.165	6069.58
739.564	6038.27
739.964	6101.45
740.363	6044.77
740.763	6044.48
741.162	6033.9
741.561	5998
741.96	5941.57
742.36	5972.23
742.759	5982.58
743.158	6034.51
743.557	6057.36
743.955	6113.65
744.354	6056.4
744.753	6132.18
745.152	6078.43
745.55	6154.3
745.949	6148.76
746.348	6152
746.746	6176.92
747.144	6123.14
747.543	6094.79
747.941	6161.59
748.339	6072.69
748.737	6065.65
749.136	6055.62
749.534	6143.99
749.932	6107.02
750.33	6139.81
750.727	6212.76
751.125	6180.28
751.523	6160.6
751.921	6218.03
752.318	6170.16
752.716	6249.85
753.113	6268.35
753.511	6300.99
753.908	6302.45
754.305	6279.4
754.703	6358.82
755.1	6438.35
755.497	6518.43
755.894	6771.66
756.291	7008.29
756.688	7440.21
757.085	8009.7
757.482	8817.04
757.878	9697.67
758.275	10493.19
758.672	11593.77
759.068	12487.41
759.465	13769.83
759.861	15410.51
760.258	17314.5
760.654	18293.56
761.05	18155.38
761.447	17320.55
761.843	16121.05
762.239	14883.83
762.635	14328.42
763.031	13790.07
763.427	13017.48
763.822	12203.07
764.218	11402.56
764.614	10360.74
765.01	9667.1
765.405	9212.87
765.801	8876
766.196	8441.05
766.592	8200.66
766.987	7787.71
767.382	7509.8
767.778	7393.11
768.173	7224.41
768.568	7129.58
768.963	6966.45
769.358	6988.62
769.753	6930.43
770.148	6818.37
770.542	6817.47
770.937	6776.41
771.332	6895.97
771.726	6921.88
772.121	6839.02
772.515	6909.21
772.91	6890.76
773.304	6983.47
773.699	6903.04
774.093	6970.03
774.487	7043.7
774.881	7100.42
775.275	7095.61
775.669	7042.05
776.063	7101.34
776.457	7150.45
776.851	7054.01
777.245	7044.69
777.638	7090.22
778.032	7238.03
778.425	7194.44
778.819	7249.66
779.212	7193.92
779.606	7140.28
779.999	7168.49
780.392	7146.86
780.786	7257.83
781.179	7286.04
781.572	7343.26
781.965	7360.35
782.358	7286.5
782.751	7359.92
783.143	7297.96
783.536	7391.88
783.929	7449.12
784.322	7596.58
784.714	7635.91
785.107	7625.04
785.499	7718.17
785.891	7688.68
786.284	7661.17
786.676	7842.39
787.068	7814.65
787.46	7877.67
787.852	7906.1
788.245	8017.02
788.636	8050.86
789.028	8139.11
789.42	8191.73
789.812	8203.42
790.204	8329.94
790.595	8459.62
790.987	8205.24
791.378	8233.62
791.77	8407.19
792.161	8582.13
792.553	8656.98
792.944	8516.6
793.335	8427.51
793.726	8520.94
794.117	8635.07
794.508	8810.55
794.899	8767.81
795.29	8951.95
795.681	9026.65
796.072	8842.63
796.463	8592.15
796.853	8603.45
797.244	8806.53
797.634	8849.33
798.025	8847.93
798.415	8866.44
798.806	8980.59
799.196	9093.32
799.586	9154.91
799.976	9106.51
800.366	9406.42
800.756	9730.01
801.146	9671.95
801.536	9710.83
801.926	9809.47
802.316	9842.69
802.706	9934.67
803.095	9773.32
803.485	9905.02
803.874	9957.65
804.264	10297.09
804.653	10257.54
805.043	10442.28
805.432	10586.19
805.821	10580.33
806.21	10603.74
806.599	10756.34
806.988	10811.46
807.377	10951.42
807.766	11121.69
808.155	11492.09
808.544	11148.35
808.933	11169.64
809.321	11144.35
809.71	11531.44
810.098	11740.77
810.487	12340.3
810.875	12964.69
811.264	12994.06
811.652	13361.64
812.04	13548.85
812.428	13762.2
812.816	14759.02
813.204	15301.14
813.592	16018.73
813.98	16453.43
814.368	16333.95
814.756	16953.85
815.144	16847.75
815.531	17450.23
815.919	17359.2
816.306	17759.61
816.694	17349.85
817.081	17406.35
817.469	17860.55
817.856	17852.32
818.243	18201.43
818.63	18711.79
819.017	18161.5
819.404	18237.39
819.791	18726.08
820.178	19531.23
820.565	19840.05
820.952	21043.21
821.339	20398.49
821.725	20633.51
822.112	19677.43
822.498	19616.99
822.885	19779.89
823.271	19667.74
823.657	20215.79
824.044	20222.56
824.43	20310.09
824.816	20267.43
825.202	19709.48
825.588	21025.85
825.974	21038.1
826.36	21700.38
826.746	21746.6
827.132	22206.19
827.517	22168.67
827.903	21154.03
828.289	21206.46
828.674	20197.69
829.06	20070.18
829.445	20582.8
829.83	21048.77
830.216	21668.83
830.601	22141.5
830.986	21611.55
831.371	21436.1
831.756	22150.9
832.141	21590.24
832.526	21580.14
832.911	21953.87
833.295	21796.77
833.68	22396.37
834.065	21591.49
834.449	20419.15
834.834	20330.99
835.218	20328.83
835.603	20765.28
835.987	20500.37
836.371	21585.76
836.755	21463.29
837.139	21984.36
837.524	22316.77
837.908	22094.98
838.291	22172.19
838.675	22258.17
839.059	22529.36
839.443	22526.27
839.827	22238.53
840.21	22867.24
840.594	22668.3
840.977	22935.23
841.361	22910.95
841.744	23392.32
842.127	23193.05
842.511	23531.56
842.894	24310.5
843.277	24799.39
843.66	25502.95
844.043	25617.23
844.426	24562.43
844.809	24178.16
845.191	24222.9
845.574	23633.94
845.957	23169.71
846.339	23030.5
846.722	22347.93
847.104	22440.71
847.487	22227.19
847.869	22245.28
848.252	22604.62
848.634	23045.79
849.016	23382.87
849.398	23543.97
849.78	24644.27
850.162	24650.42
850.544	25193.82
850.926	26014.57
851.307	25896.85
851.689	26261.83
852.071	26846.65
852.452	27263.77
852.834	27231.86
853.215	27739.22
853.597	27933.8
853.978	28303.74
854.359	28887.9
854.741	27596.44
855.122	27463.42
855.503	27096.45
855.884	27261.29
856.265	27181.3
856.646	27331.25
857.026	26816.28
857.407	26736.23
857.788	26942.42
858.169	27317.48
858.549	26214.25
858.93	27018.47
859.31	27077.37
859.69	27335.96
860.071	26809.94
860.451	26518.95
860.831	25557.12
861.211	27060.22
861.591	27769.06
861.971	27737.32
862.351	27992.25
862.731	28494.09
863.111	28834.72
863.491	29264.33
863.87	30403.27
864.25	30858.26
864.629	30349.97
865.009	31017.79
865.388	32119.19
865.768	34427.83
866.147	34287.19
866.526	32389.02
866.905	32772.21
867.284	34609.19
867.663	32856.73
868.042	31483.01
868.421	31365.89
868.8	31884.65
869.179	32181.99
869.558	30305.46
869.936	27928.5
870.315	28423.23
870.693	29102.31
871.072	31381.51
871.45	29901.61
871.828	30279.31
872.207	31832.52
872.585	31357.72
872.963	32209.76
873.341	31111.78
873.719	30740.98
874.097	30366.23
874.475	30952.06
874.853	31666.64
875.23	30350.67
875.608	31614.74
875.986	34193.1
876.363	32700.16
876.741	33707.9
877.118	32859.02
877.495	34466.84
877.873	35051.72
878.25	36887.04
878.627	35384.94
879.004	35882.83
879.381	35719.49
879.758	34778.07
880.135	32401.26
880.512	34251.86
880.889	33338.35
881.265	33004.91
881.642	32734.56
882.019	33291.69
882.395	32614.86
882.772	33900.83
883.148	32439.3
883.524	32302.46
883.901	32107.64
884.277	32567.09
884.653	32367.69
885.029	33293.31
885.405	36859.94
885.781	36585.67
886.157	35076.18
886.532	35499.45
886.908	35479.85
887.284	39452.18
887.659	40760.44
888.035	42041.24
888.411	43148.31
888.786	43713.33
889.161	45231.08
889.537	44412.95
889.912	45825.13
890.287	45777.41
890.662	46971.27
891.037	46126.36
891.412	43011.32
891.787	42585.52
892.162	41086.02
892.536	42041.64
892.911	40467.27
893.286	39615.4
893.66	38011.57
894.035	38992.09
894.409	42474.15
894.784	40758.75
895.158	41444.6
895.532	43903.35
895.906	45074.09
896.281	46154.26
896.655	45412.35
897.029	51915.67
897.402	54088.27
897.776	60206.65
898.15	59983.49
898.524	59314.83
898.898	60097.86
899.271	67279.1
899.645	58259.87
900.018	55977.78
900.392	58031.74
900.765	58513.27
901.138	54129.01
901.511	53303.06
901.884	48939.22
902.258	45152.93
902.631	46664.25
903.003	53697.51
903.376	48443.72
903.749	54325.51
904.122	58168.16
904.495	64077.59
904.867	64892.22
905.24	56361.27
905.612	52473.28
905.985	53669.21
906.357	56113.57
906.729	53577.39
907.102	45798.43
907.474	44036.59
907.846	44311.93
908.218	43707.26
908.59	38607.42
908.962	37327.03
909.334	40174.66
909.705	42179.3
910.077	40950.32
910.449	42624.62
910.82	43801.79
911.192	48181.86
911.563	50071.94
911.935	53584.71
912.306	53655.31
912.677	55419.03
913.048	54859.59
913.419	59538.01
913.79	59867.23
914.161	64182.46
914.532	61326.1
914.903	56356.44
915.274	53529.6
915.645	52769.31
916.015	46455.01
916.386	44305.11
916.756	47159.23
917.127	48661.08
917.497	43464.37
917.868	47309.47
918.238	44971.28
918.608	46274.11
918.978	47218.65
919.348	49994.78
919.718	51633.93
920.088	49686.61
920.458	51609.68
920.828	54319.96
921.198	51486.16
921.567	54991.98
921.937	42590.11
922.306	42987.74
922.676	46337.39
923.045	38627.85
923.415	36678.24
923.784	33394.52
924.153	34358.85
924.522	34299.64
924.891	32230.98
925.26	34515.61
925.629	33697.86
925.998	38732.65
926.367	37797.76
926.736	35998.72
927.104	42913.84
927.473	46163.13
927.842	55747.58
928.21	55198.73
928.578	58024.33
928.947	54865.12
929.315	55192.16
929.683	64706.89
930.051	65221.12
930.42	75695.38
930.788	64732.87
931.156	64240.38
931.523	60135.21
931.891	55563.08
932.259	53390.17
932.627	61945.26
932.994	87683.15
933.362	72477.77
933.729	62952.96
934.097	60287.88
934.464	51017.8
934.831	58823.66
935.199	57970.35
935.566	56256.85
935.933	57104.44
936.3	69172.67
936.667	53823.1
937.034	48464.27
937.401	47929.4
937.767	41364.29
938.134	36818.29
938.501	51940.1
938.867	55355.03
939.234	93621.16
939.6	79938.98
939.967	87893.48
940.333	58764.76
940.699	50051.01
941.065	40248
941.431	52743.53
941.798	50875.73
942.163	66781.87
942.529	41788.82
942.895	38513.95
943.261	24901.38
943.627	32637.16
943.992	28587.23
944.358	28657.83
944.723	28724.8
945.089	27983.7
945.454	25860.57
945.82	27605.42
946.185	26530
946.55	30714.46
946.915	27554.74
947.28	32333.09
947.645	28467.56
948.01	26261.77
948.375	27373.88
948.74	32854.97
949.104	38332.25
949.469	55428.41
949.834	97941.88
950.198	92852.77
950.562	55624.13
950.927	46290.88
951.291	55691.04
951.655	47454.13
952.02	44627.19
952.384	33735.77
952.748	29322.28
953.112	28550.04
953.476	24822.47
953.839	22949.44
954.203	22708.82
954.567	28411.74
954.931	44794.75
955.294	38322.14
955.658	38538.17
956.021	65456.61
956.385	111125.42
956.748	164212.04
957.111	255043.85
957.474	286403.17
957.837	322746.15
958.2	244273.12
958.563	87896.26
958.926	59356.85
959.289	90085.55
959.652	100689.96
960.015	75577.4
960.377	108328.3
960.74	123501.82
961.102	213230.49
961.465	228560.37
961.827	122215.32
962.189	234504.17
962.552	162486.9
962.914	130414.85
963.276	84638.26
963.638	69957.35
964	69249
964.362	46800.6
964.724	45245.89
965.085	32255.31
965.447	26477.46
965.809	30220.27
966.17	30250.08
966.532	32740.15
966.893	30033.75
967.255	27339.62
967.616	32252.01
967.977	25814.69
968.338	28215.81
968.699	23200.4
969.061	23201.49
969.421	23357.43
969.782	26212.69
970.143	22142.76
970.504	22905.46
970.865	26037.85
971.225	26592.52
971.586	26034.58
971.946	37176.69
972.307	32283.67
972.667	42195.31
973.027	43474.11
973.388	52728.45
973.748	35835.03
974.108	39000.98
974.468	52859.66
974.828	40696.21
975.188	31312.3
975.548	28754.69
975.907	24096.58
976.267	27031.12
976.627	22693.67
976.986	23549.98
977.346	22429.48
977.705	21578.06
978.064	19663.32
978.424	16362.19
978.783	16948.61
979.142	19356.37
979.501	18522.58
979.86	19578.4
980.219	18850.2
980.578	24313.74
980.937	27183.23
981.296	24235.34
981.654	24936.31
982.013	38829.47
982.371	50343.91
982.73	46981.41
983.088	53170.46
983.447	56781.96
983.805	81208.24
984.163	169802.3
984.521	188658.89
984.879	276899.56
985.237	-450719.95
985.595	434582.9
985.953	108043.94
986.311	62429.25
986.669	36274.86
987.026	31335.95
987.384	42156.13
987.741	43618.99
988.099	31117.03
988.456	24782.25
988.814	23175.54
989.171	20128.66
989.528	19845.95
989.885	20960.06
990.242	16579.43
990.599	20652.2
990.956	16890.17
991.313	11803.68
991.67	9672.48
992.027	10235.54
992.383	9098.18
992.74	7971.55
993.096	8351.98
993.453	8672.74
993.809	8992.93
994.165	11971.63
994.522	10936.81
994.878	12049.98
995.234	15139.56
995.59	14956.01
995.946	14195.37
996.302	16173.91
996.658	18721.28
997.013	20614.77
997.369	24387.85
997.725	31145.69
998.08	20182.36
998.436	31219.11
998.791	43097.01
999.147	42995.39
999.502	46882.12
999.857	34136.18
1000.212	55691.87
1000.567	79270.36
1000.922	45815.48
1001.277	29159.79
1001.632	21660.46
1001.987	27961.76
1002.342	20025.84
1002.696	16013.1
1003.051	12754.42
1003.406	15443.47
1003.76	15339.26
1004.114	15117.76
1004.469	12705.27
1004.823	10506.46
1005.177	11346.16
1005.531	8995.29
1005.885	7973.05
1006.239	8986.29
1006.593	11260.98
1006.947	15084.8
1007.301	11324.49
1007.655	12369.27
1008.008	9084.38
1008.362	10200.63
1008.715	14588.24
1009.069	13232.26
1009.422	19818.6
1009.776	39717.21
1010.129	26401.19
1010.482	22035.67
1010.835	18683.88
1011.188	38950.07
1011.541	36631.6
1011.894	-223566.81
1012.247	658500.62
1012.6	44727.74
1012.952	28229.27
1013.305	14630.89
1013.657	10532.94
1014.01	9988.16
1014.362	8252.55
1014.715	7279.8
1015.067	6318.18
1015.419	6163.8
1015.771	5471.1
1016.123	4860.07
1016.475	4992.21
1016.827	5316.99
1017.179	5696.66
1017.531	5748.53
1017.883	5867.63
1018.234	5658.39
1018.586	7171.41
1018.938	7580.65
1019.289	10483.46
1019.64	12024.39
1019.992	11227.38
1020.343	10303.76
1020.694	8126.33
1021.045	7181.48
1021.396	8210.42
1021.747	8778.22
1022.098	10548.62
1022.449	7648.98
1022.8	7091.02
1023.151	4912.09
1023.501	4337
1023.852	4697.62
1024.202	4843.65
1024.553	5335.92
1024.903	5199.44
1025.253	4430.44
1025.604	4004.63
1025.954	4964.58
1026.304	6074.51
1026.654	7115.6
1027.004	10499.4
1027.354	16960.58
1027.703	15926.63
1028.053	21071.93
1028.403	30677
1028.753	44701.87
1029.102	61221.19
1029.452	315131.98
1029.801	13663.47
1030.15	8803.55
1030.499	7466.11
897.758	2226.01
901.051	2157.89
904.343	2193.26
907.636	2201.74
910.928	2267.03
914.22	2180.46
917.511	2187.71
920.803	2238.72
924.094	2235.49
927.384	2240.79
930.675	2204.56
933.965	2166.36
937.255	2199.2
940.544	2166.63
943.834	2164.85
947.123	2101.92
950.411	2197.55
953.7	2176.8
956.988	2159.22
960.276	2096.39
963.563	2145.22
966.851	2156
970.138	2199.98
973.424	2199.66
976.711	2153.28
979.997	2204.78
983.283	2250.84
986.568	2179.59
989.853	2171.57
993.138	2198.95
996.423	2284.82
999.708	2244.56
1002.992	2275.32
1006.275	2184.65
1009.559	2192.18
1012.842	2291.72
1016.125	2242.73
1019.408	2220.35
1022.69	2280.98
1025.972	2315.07
1029.254	2291.05
1032.536	2251.61
1035.817	2262.77
1039.098	2232.42
1042.379	2288.21
1045.659	2315.57
1048.939	2263.42
1052.219	2271.45
1055.498	2266.99
1058.778	2264.67
1062.057	2238.25
1065.335	2263.39
1068.614	2276.88
1071.892	2272.28
1075.17	2326.2
1078.447	2331.34
1081.724	2324.04
1085.001	2352.09
1088.278	2330.49
1091.554	2337.61
1094.83	2329.1
1098.106	2367.54
1101.382	2399.16
1104.657	2398.04
1107.932	2398.69
1111.206	2378.91
1114.481	2326.1
1117.755	2328.69
1121.029	2320.77
1124.302	2383.03
1127.575	2347.64
1130.848	2346.82
1134.121	2315.41
1137.393	2278.32
1140.665	2338.56
1143.937	2315.03
1147.208	2261.9
1150.48	2325.45
1153.75	2314.14
1157.021	2315.36
1160.291	2291.53
1163.561	2347.94
1166.831	2313.05
1170.101	2342.77
1173.37	2299.55
1176.639	2256.33
1179.907	2301.92
1183.176	2325.25
1186.444	2326.15
1189.711	2352.42
1192.979	2379.62
1196.246	2334.47
1199.513	2346.66
1202.78	2351.97
1206.046	2361.38
1209.312	2390.2
1212.578	2407.67
1215.843	2374.84
1219.108	2342.7
1222.373	2366.29
1225.638	2335.86
1228.902	2327.76
1232.166	2280.09
1235.43	2267.07
1238.693	2292.52
1241.956	2283.53
1245.219	2332.51
1248.482	2315.7
1251.744	2313.97
1255.006	2439.32
1258.268	2385.69
1261.529	2341.93
1264.79	2341.73
1268.051	2444.9
1271.312	2454.39
1274.572	2426.77
1277.832	2415.73
1281.092	2394.18
1284.351	2384.82
1287.61	2369.28
1290.869	2301.36
1294.128	2299.34
1297.386	2349.28
1300.644	2340.68
1303.902	2350.6
1307.159	2214.45
1310.416	2266.58
1313.673	2294.72
1316.93	2294.68
1320.186	2326.7
1323.442	2360.24
1326.697	2360.34
1329.953	2333.3
1333.208	2369.39
1336.463	2339.62
1339.717	2298.96
1342.972	2405.31
1346.226	2376.75
1349.479	2321.96
1352.733	2300.33
1355.986	2305.74
1359.238	2284.81
1362.491	2290.78
1365.743	2288.93
1368.995	2281.93
1372.247	2294.88
1375.498	2314.1
1378.749	2359.53
1382	2307.88
1385.251	2346.95
1388.501	2298.34
1391.751	2298.58
1395	2262.4
1398.25	2287.5
1401.499	2309.08
1404.748	2254.79
1407.996	2231.76
1411.244	2221.39
1414.492	2205.44
1417.74	2189.97
1420.987	2193.33
1424.234	2253.06
1427.481	2214.19
1430.728	2272.77
1433.974	2247.78
1437.22	2247.68
1440.465	2245.32
1443.711	2245.6
1446.956	2269.12
1450.201	2241
1453.445	2282.4
1456.689	2270.71
1459.933	2282.82
1463.177	2324.83
1466.42	2297.72
1469.663	2281.32
1472.906	2297.52
1476.148	2346.7
1479.391	2321.14
1482.633	2295.11
1485.874	2323
1489.115	2329.12
1492.356	2312.76
1495.597	2292.22
1498.838	2285.95
1502.078	2270.36
1505.318	2240.29
1508.557	2276.23
1511.797	2273.89
1515.036	2318.48
1518.274	2293.2
1521.513	2244.02
1524.751	2258.31
1527.989	2286.09
1531.227	2306.22
1534.464	2320.5
1537.701	2315.21
1540.938	2329.24
1544.174	2274.34
1547.41	2265.83
1550.646	2305.62
1553.882	2356.65
1557.117	2417.39
1560.352	2425.08
1563.587	2384.69
1566.821	2351.1
1570.055	2366.07
1573.289	2350.73
1576.523	2410.46
1579.756	2426.48
1582.989	2448.23
1586.222	2407.8
1589.454	2437.26
1592.686	2418.97
1595.918	2447.46
1599.15	2447.8
1602.381	2491.69
1605.612	2475.72
1608.843	2568.1
1612.073	2491.95
1615.303	2480.76
1618.533	2478.57
1621.762	2478.14
1624.992	2453.79
1628.221	2458.96
1631.449	2448.23
1634.678	2473.17
1637.906	2441.57
1641.134	2469.56
1644.361	2433.98
1647.588	2421.55
1650.815	2444.22
1654.042	2405.87
1657.269	2434.17
1660.495	2411.76
1663.72	2396.67
1666.946	2363.29
1670.171	2337.18
1673.396	2309.59
1676.621	2291.4
1679.845	2287.04
1683.069	2298.24
1686.293	2328.16
1689.517	2318.74
1692.74	2267.6
1695.963	2289.02
1699.185	2330.75
1702.408	2301.71
1705.63	2331.68
1708.852	2350.7
1712.073	2319.67
1715.294	2331.69
1718.515	2370.32
1721.736	2328.45
1724.956	2307
1728.176	2329.32
1731.396	2354.34
1734.616	2338.54
1737.835	2377.12
1741.054	2346.99
1744.272	2337.62
1747.491	2377.7
1750.709	2403.73
1753.927	2351.09
1757.144	2376.03
1760.361	2435.41
1763.578	2410.38
1766.795	2356.61
1770.011	2344.61
1773.227	2368.15
1776.443	2412.1
1779.658	2456
1782.874	2393.48
1786.089	2385.21
1789.303	2386.81
1792.518	2383.64
1795.732	2371.99
1798.945	2388.31
1802.159	2428.07
1805.372	2369.06
1808.585	2366.98
1811.797	2368.46
1815.01	2387.21
1818.222	2411.2
1821.434	2365.41
1824.645	2408.95
1827.856	2420.59
1831.067	2448.44
1834.278	2383.06
1837.488	2367.47
1840.698	2492.97
1843.908	2430.4
1847.117	2395.96
1850.326	2321.42
1853.535	2381.83
1856.744	2418.99
1859.952	2339.51
1863.16	2339.34
1866.368	2353.02
1869.575	2466.27
1872.782	2345.69
1875.989	2275.49
1879.196	2325.02
1882.402	2312.1
1885.608	2347.64
1888.814	2287.16
1892.019	2190.45
1895.224	2241.82
1898.429	2206.28
1901.634	2189.14
1904.838	2161.43
1908.042	2219.63
1911.246	2231.93
1914.449	2193.59
1917.652	2174.37
1920.855	2152.5
1924.058	2177.65
1927.26	2224.53
1930.462	2247.62
1933.664	2285.72
1936.865	2228.05
1940.066	2249.41
1943.267	2191.98
1946.467	2201.72
1949.668	2221.11
1952.868	2294.75
1956.067	2284.81
1959.267	2224.92
1962.466	2248.35
1965.665	2229.51
1968.863	2222.85
1972.061	2225.54
1975.259	2217.38
1978.457	2293.42
1981.654	2254.34
1984.852	2257.45
1988.048	2209.66
1991.245	2195.22
1994.441	2283.16
1997.637	2243.75
2000.833	2224.93
2004.028	2261.35
2007.223	2324.63
2010.418	2310.74
2013.613	2261.47
2016.807	2254.8
2020.001	2250.75
2023.194	2271.68
2026.388	2260.29
2029.581	2203.61
2032.774	2264.47
2035.966	2276.87
2039.158	2222.12
2042.35	2241.67
2045.542	2166.19
2048.733	2248.89
2051.924	2241.63
2055.115	2257.07
2058.306	2222.48
2061.496	2276.95
2064.686	2327.42
2067.875	2234.77
2071.065	2237.97
2074.254	2256.44
2077.442	2210.19
2080.631	2296.75
2083.819	2225.66
2087.007	2219.23
2090.195	2202.86
2093.382	2219.74
2096.569	2202.22
2099.756	2162.4
2102.942	2210.34
2106.128	2223.04
2109.314	2211.56
2112.5	2196.56
2115.685	2163.13
2118.87	2172.61
2122.055	2232.78
2125.239	2212.08
2128.424	2197.88
2131.608	2260.39
2134.791	2246.81
2137.974	2283.07
2141.157	2272.65
2144.34	2244.28
2147.523	2233.68
2150.705	2259.45
2153.887	2226.14
2157.068	2197.44
2160.25	2179.72
2163.431	2205.38
2166.611	2173.36
2169.792	2193.53
2172.972	2105.59
2176.152	2156.61
2179.331	2183.56
2182.511	2187.69
2185.69	2210.44
2188.868	2215.34
2192.047	2251.67
2195.225	2266.56
2198.403	2214.32
2201.58	2202.95
2204.758	2188.25
2207.935	2263.32
2211.111	2177.15
2214.288	2166.06
2217.464	2201.84
2220.64	2153.05
2223.815	2204.16
2226.991	2135.78
2230.166	2152.82
2233.34	2194.65
2236.515	2207.09
2239.689	2272.38
2242.863	2222.98
2246.036	2276.8
2249.209	2258.95
2252.382	2276.93
2255.555	2288.17
2258.727	2236.4
2261.9	2264.73
2265.071	2255.58
2268.243	2251.72
2271.414	2199.13
2274.585	2182.42
2277.756	2242.08
2280.926	2197.79
2284.096	2229.51
2287.266	2158.33
2290.436	2206.99
2293.605	2225.7
2296.774	2265.25
2299.942	2269.37
2303.111	2287.52
2306.279	2339.7
2309.447	2326.13
2312.614	2294.79
2315.781	2320.11
2318.948	2295.72
2322.115	2332.77
2325.281	2230.07
2328.447	2240.2
2331.613	2207.5
2334.779	2200.25
2337.944	2194.01
2341.109	2194.73
2344.274	2181.69
2347.438	2151.39
2350.602	2171.19
2353.766	2181.44
2356.929	2170.71
2360.092	2209.46
2363.255	2178.73
2366.418	2144.87
2369.58	2213.63
2372.742	2083.08
2375.904	2078.93
2379.066	2063.87
2382.227	2089.83
2385.388	2053.01
2388.548	2000.71
2391.709	2044.32
2394.869	2032.66
2398.029	2088.83
2401.188	2085.72
2404.347	2046.4
2407.506	2130.07
2410.665	2168.12
2413.823	2153.68
2416.981	2132.33
2420.139	2149.29
2423.296	2191.92
2426.453	2162.7
2429.61	2182.5
2432.767	2152.72
2435.923	2191
2439.079	2139.56
2442.235	2172.88
2445.391	2113.73
2448.546	2156.09
2451.701	2190.5
2454.855	2185.97
2458.009	2213.39
2461.163	2204.87
2464.317	2177.74
2467.471	2202.44
2470.624	2232.57
2473.777	2222.38
2476.929	2240.49
2480.082	2261.3
2483.234	2234.85
2486.385	2175.09
2489.537	2169.03
2492.688	2158.69
2495.839	2172.58
2498.989	2190.06
2502.14	2177.05
2505.29	2169.03
2508.439	2189.73
2511.589	2129.21
2514.738	2132.69
2517.887	2156.23
2521.035	2233.04
2524.183	2192.27
2527.331	2180.08
2530.479	2174.56
2533.627	2173.7
