Data from N_2_DEC_CT_2N_Splice17_12-28-01-668.txt Node
Date: Sat Mar 14 12:28:01 EDT 2020
User: sa697716
Spectrometer: FLMS03696
Trigger mode: 0
Integration Time (sec): 3.180400E-1
Scans to average: 20
Electric dark correction enabled: true
Nonlinearity correction enabled: true
Boxcar width: 5
XAxis mode: Wavelengths
Number of Pixels in Spectrum: 2048
>>>>>Begin Spectral Data<<<<<
187.83	-339066.32
188.298	2437.2
188.766	1341.99
189.233	1209.65
189.701	1773.45
190.169	2365.4
190.636	880.49
191.104	670.38
191.571	120.28
192.039	-33.99
192.506	52.44
192.974	653.24
193.441	-970.16
193.908	-149.56
194.375	3.5
194.842	79.32
195.31	108.04
195.777	154.8
196.244	352.52
196.711	497.33
197.177	666.45
197.644	993.89
198.111	1719.5
198.578	2450.4
199.045	1940.77
199.511	3184.87
199.978	3737.41
200.445	3185.07
200.911	3546.86
201.378	4013.71
201.844	3616.26
202.31	6234.52
202.777	6438.1
203.243	3608.5
203.709	3423.6
204.176	4077.76
204.642	3357.21
205.108	3140.65
205.574	2564.53
206.04	2350.69
206.506	2213.5
206.972	2110.7
207.438	2037.88
207.903	2349.67
208.369	2047.16
208.835	2030.42
209.301	2142.26
209.766	2201.91
210.232	2189.43
210.697	2713.11
211.163	3358.44
211.628	5102.93
212.094	4319.62
212.559	5287.79
213.024	3291.81
213.49	4016.36
213.955	3927.85
214.42	3863.45
214.885	3598.63
215.35	3464.55
215.815	3362.68
216.28	3592.7
216.745	2925.47
217.21	3178.33
217.675	2973.57
218.14	3395.09
218.604	3854.83
219.069	4481.81
219.534	4745.26
219.998	5612.92
220.463	6908.9
220.927	8619.29
221.392	8169.54
221.856	8340.45
222.32	10628.98
222.785	13173.62
223.249	16670.65
223.713	18685.94
224.177	18756.91
224.642	24171.13
225.106	29813.96
225.57	32622.16
226.034	24245.78
226.497	36976.68
226.961	33425.24
227.425	38898.77
227.889	43237.49
228.353	43290.63
228.816	89500.72
229.28	85600.87
229.744	72173.82
230.207	43801.39
230.671	43081.22
231.134	71331.69
231.597	82243.15
232.061	82272.65
232.524	80260.87
232.987	55297.35
233.45	49740.61
233.914	44587.66
234.377	45696.62
234.84	41875.38
235.303	49450.09
235.766	55196.08
236.229	57078.61
236.691	35955.18
237.154	40420.81
237.617	30401.37
238.08	31154.17
238.542	36463.92
239.005	26071.74
239.468	25880.52
239.93	24379.61
240.393	22137.34
240.855	19431.81
241.317	19911.65
241.78	24257.47
242.242	25041.56
242.704	27001.37
243.166	23470.09
243.629	21280.78
244.091	24532.6
244.553	26887.9
245.015	28886
245.477	37376.55
245.939	54803.78
246.4	58187.59
246.862	56545.65
247.324	53345.55
247.786	59808.24
248.247	78560.62
248.709	81276.94
249.17	60772.89
249.632	57263.95
250.093	66407.54
250.555	57397.3
251.016	35014.51
251.477	33206.47
251.939	35853.52
252.4	37666.85
252.861	44812.95
253.322	41669.06
253.783	49641.73
254.244	64481.89
254.705	50853.43
255.166	45283.55
255.627	44587.68
256.088	62919.84
256.549	66855.79
257.009	57557.35
257.47	69829.82
257.931	56866.42
258.391	42581.99
258.852	43867.32
259.312	45970.21
259.773	56814.01
260.233	47968.85
260.694	40442.73
261.154	45886.62
261.614	36809.41
262.074	32946.68
262.534	34254.85
262.994	32301.33
263.455	43099.53
263.915	36330.16
264.374	34218.73
264.834	37374.89
265.294	41475.62
265.754	43031.74
266.214	40750.68
266.673	38194.71
267.133	48251.53
267.593	47874.73
268.052	58616.99
268.512	51016.09
268.971	61528.69
269.431	67508.99
269.89	60482.96
270.349	90713.36
270.809	101161.85
271.268	91013.72
271.727	204417.78
272.186	132360.46
272.645	99365.54
273.104	71750.04
273.563	103967.71
274.022	81856.4
274.481	69662.13
274.94	53712.52
275.399	39962.5
275.857	46557.21
276.316	63012.21
276.775	56090.61
277.233	55260.76
277.692	51672.64
278.15	58429.7
278.609	60089.58
279.067	55578.65
279.525	51658.48
279.984	66740.31
280.442	80176.11
280.9	79027.07
281.358	51969.75
281.816	48466.44
282.274	47494.98
282.732	49184.53
283.19	49458.8
283.648	42693.05
284.106	45518.47
284.564	46283.17
285.021	42884.95
285.479	31940.46
285.937	29049.37
286.394	25459.61
286.852	26179.14
287.309	27498.79
287.767	26531.04
288.224	25211.65
288.682	27654.85
289.139	30322.08
289.596	27739.65
290.053	28845.74
290.511	36459.67
290.968	44248.8
291.425	60104
291.882	50002.84
292.339	43530.07
292.796	43206.03
293.252	40742.51
293.709	32357.56
294.166	29037.64
294.623	32105.53
295.079	30852.39
295.536	30996.12
295.992	28160.11
296.449	27863.46
296.905	28951.22
297.362	27771.29
297.818	29255.5
298.274	30363.08
298.731	30988.69
299.187	30674.56
299.643	32960.79
300.099	39858.42
300.555	43726.29
301.011	36526.47
301.467	35204.11
301.923	41311.5
302.379	40337.24
302.835	39610.16
303.291	39671.26
303.746	45175.63
304.202	57124.24
304.658	57394.71
305.113	38606.46
305.569	37848.16
306.024	40411.78
306.479	38550.6
306.935	32476.79
307.39	35550.48
307.845	32861.87
308.301	33087.33
308.756	32272.66
309.211	31106.65
309.666	31904.28
310.121	39638.91
310.576	40283.59
311.031	39955.28
311.486	45784.53
311.94	45820.65
312.395	61223.39
312.85	115182.16
313.305	566488.79
313.759	2928269.55
314.214	212133.48
314.668	168047.63
315.123	141176.93
315.577	50566.85
316.032	45006.45
316.486	56432.26
316.94	44485.06
317.394	30964.96
317.849	24030.19
318.303	22767.87
318.757	21456.27
319.211	23712.09
319.665	20771.2
320.119	21026.69
320.572	30164.36
321.026	28174.1
321.48	23437.08
321.934	25591.97
322.387	25642.91
322.841	27705.15
323.295	24871.34
323.748	28741.11
324.202	29167.02
324.655	34998.09
325.108	48844.18
325.562	34524.83
326.015	41034.37
326.468	31004.45
326.921	34623.32
327.374	32292.45
327.827	33597.41
328.28	38028.83
328.733	25439.96
329.186	22383.79
329.639	21345.72
330.092	18030.75
330.545	17153.47
330.997	17307.69
331.45	18867.11
331.903	22114.89
332.355	38098.51
332.808	37032.93
333.26	30535.7
333.713	33139.22
334.165	33380.03
334.617	44544.26
335.069	36003.56
335.522	65146.24
335.974	72113.55
336.426	66054.38
336.878	45750.92
337.33	23154.4
337.782	22601.52
338.234	28290.76
338.686	33826.4
339.137	40036.78
339.589	37655.91
340.041	29472.12
340.493	25342.22
340.944	25916.53
341.396	27897.71
341.847	23454.63
342.299	27660.12
342.75	33766.71
343.201	29589.14
343.653	34049.7
344.104	41889.07
344.555	33000.4
345.006	51443.47
345.457	39302.26
345.908	31290.04
346.359	29400.7
346.81	23925.42
347.261	25273.9
347.712	24924.49
348.163	26704.48
348.613	27015.56
349.064	25224.03
349.515	22092.33
349.965	22640.92
350.416	27315.01
350.866	29975.44
351.317	33967.43
351.767	56363
352.217	71195.52
352.668	59109.59
353.118	54101.97
353.568	52277.62
354.018	41306.79
354.468	43541.44
354.918	31222.83
355.368	27333.49
355.818	38626.57
356.268	111165.32
356.718	464468.11
357.168	115492.16
357.617	57874.54
358.067	64478.19
358.517	60399.28
358.966	70883.75
359.416	79443.22
359.865	85912.36
360.315	102183.04
360.764	47642.69
361.213	26677.42
361.663	25304.69
362.112	31248.5
362.561	50452.7
363.01	38031.43
363.459	32019.87
363.908	34668.36
364.357	29456.97
364.806	49790.36
365.255	34267.94
365.703	31383.85
366.152	31421.37
366.601	25501.53
367.05	20688.86
367.498	18801.43
367.947	19655.79
368.395	20433.16
368.844	18073.37
369.292	21816.67
369.74	15056.15
370.189	23043.58
370.637	27010.4
371.085	23300.29
371.533	28354.91
371.981	27361.81
372.429	26047.48
372.877	27127.87
373.325	22682.44
373.773	23112.7
374.221	20560.75
374.669	25489.68
375.116	22067
375.564	22239.5
376.012	24888.59
376.459	20500.59
376.907	24480.52
377.354	29699.09
377.801	27664.54
378.249	31832.56
378.696	40740.93
379.143	49452.15
379.591	52869.25
380.038	89409.74
380.485	64728.46
380.932	69914.03
381.379	64009.17
381.826	47105.29
382.273	33488.13
382.72	29352.89
383.166	28652.45
383.613	18615.7
384.06	16816.84
384.506	19480.45
384.953	14339.9
385.4	14483.23
385.846	12737.79
386.292	12469.04
386.739	12259.32
387.185	12159.08
387.631	12197.04
388.078	11838.13
388.524	12695.25
388.97	11740.05
389.416	9803.83
389.862	10451.1
390.308	9922.25
390.754	10098.2
391.2	10987.88
391.645	11281.7
392.091	10801.36
392.537	10460.56
392.983	10524.9
393.428	10366.44
393.874	11149.56
394.319	11214.06
394.765	10635.54
395.21	10966.19
395.655	10313.29
396.101	9683.64
396.546	8771.13
396.991	8887.05
397.436	8281.67
397.881	8028.66
398.326	7638.29
398.771	7231.86
399.216	6348.98
399.661	5748.08
400.106	5732.81
400.551	5874.78
400.995	5275.5
401.44	5221.18
401.885	4916.51
402.329	4973.85
402.774	4774.37
403.218	4615.44
403.663	4454.39
404.107	4581.08
404.551	4616.1
404.995	4235.09
405.44	4091.86
405.884	4161.93
406.328	4030.26
406.772	4024.77
407.216	3666.49
407.66	3549.38
408.104	3378.37
408.547	3169.38
408.991	3069.84
409.435	2957.21
409.879	2920.63
410.322	2882.33
410.766	2781.97
411.209	2648.52
411.653	2540.03
412.096	2486.21
412.54	2491.2
412.983	2476.07
413.426	2478.98
413.869	2479.88
414.312	2431.55
414.756	2344.13
415.199	2234.37
415.642	2171.36
416.085	2172.03
416.527	2158.49
416.97	2195.57
417.413	2079.21
417.856	2058.53
418.298	2037.63
418.741	2023.46
419.184	2021.42
419.626	2109.58
420.069	2109.71
420.511	2117.53
420.953	2071.25
421.396	2052.23
421.838	2000.41
422.28	2045.79
422.722	2052.02
423.164	2083.39
423.606	2045.89
424.048	2043.31
424.49	1940.35
424.932	1931.74
425.374	1908.88
425.816	1945.64
426.258	1982.04
426.699	2006.3
427.141	1975.88
427.582	2011.93
428.024	2002.31
428.465	1996.61
428.907	1948.42
429.348	1924.26
429.789	1922.57
430.231	1877.92
430.672	1900.59
431.113	1856.66
431.554	1827.37
431.995	1782.02
432.436	1715.31
432.877	1675.55
433.318	1643.79
433.759	1636.51
434.2	1636.29
434.64	1619.95
435.081	1624.8
435.522	1537.73
435.962	1481.12
436.403	1446.41
436.843	1468.37
437.284	1434.89
437.724	1398.99
438.164	1404.54
438.604	1376.26
439.045	1323.57
439.485	1268.32
439.925	1243.67
440.365	1213.6
440.805	1197.09
441.245	1185.28
441.685	1144.65
442.125	1141.59
442.564	1151.45
443.004	1127.52
443.444	1125.98
443.883	1131.02
444.323	1129.6
444.762	1139.26
445.202	1160.72
445.641	1187.52
446.081	1188.12
446.52	1201.95
446.959	1193.32
447.398	1166.81
447.837	1156.77
448.276	1140.68
448.716	1156.26
449.154	1171.74
449.593	1146.87
450.032	1147.62
450.471	1130.14
450.91	1134.91
451.349	1134.37
451.787	1133.88
452.226	1154.69
452.664	1158.49
453.103	1165.03
453.541	1168.42
453.98	1165.41
454.418	1176.64
454.856	1160.72
455.295	1162.09
455.733	1172.19
456.171	1181.06
456.609	1184.33
457.047	1187.96
457.485	1204.73
457.923	1205.26
458.361	1190.4
458.798	1196.36
459.236	1192.87
459.674	1202.63
460.111	1208.45
460.549	1196.67
460.987	1194.07
461.424	1192.92
461.862	1185.85
462.299	1168.57
462.736	1167.94
463.173	1171.79
463.611	1156.94
464.048	1155.05
464.485	1164.48
464.922	1154.15
465.359	1148.6
465.796	1126.23
466.233	1115.88
466.67	1103.2
467.106	1099.53
467.543	1090.48
467.98	1078.37
468.416	1053.83
468.853	1046.02
469.29	1015.16
469.726	1005.17
470.162	979.73
470.599	974.02
471.035	967.18
471.471	947.68
471.907	944.46
472.344	939.59
472.78	941.55
473.216	954.37
473.652	943.41
474.088	942.51
474.523	940.35
474.959	950.64
475.395	943.29
475.831	938.53
476.266	943.73
476.702	942.58
477.138	933.06
477.573	930.61
478.008	927.91
478.444	931.23
478.879	939.3
479.314	944.22
479.75	944.79
480.185	950.58
480.62	959.85
481.055	966.32
481.49	974.66
481.925	989.07
482.36	1005.23
482.795	1034.5
483.229	1066.15
483.664	1090.55
484.099	1096.51
484.534	1114.64
484.968	1125.56
485.403	1130.51
485.837	1130.39
486.271	1130.67
486.706	1134.75
487.14	1125.41
487.574	1108.72
488.009	1099.96
488.443	1092.23
488.877	1104.5
489.311	1109.32
489.745	1125.1
490.179	1136.92
490.613	1158.62
491.046	1169.17
491.48	1179.4
491.914	1183.66
492.348	1194.61
492.781	1204.89
493.215	1210.54
493.648	1215.76
494.082	1228.75
494.515	1231.93
494.948	1247.65
495.382	1261.2
495.815	1271.74
496.248	1284.35
496.681	1310.49
497.114	1335.18
497.547	1356.4
497.98	1381.64
498.413	1395.07
498.846	1414.5
499.279	1432.78
499.711	1444.27
500.144	1450.26
500.577	1472.51
501.009	1495.26
501.442	1513.7
501.874	1518.11
502.306	1523.36
502.739	1537.71
503.171	1566.79
503.603	1575.37
504.036	1595.55
504.468	1608.18
504.9	1631.63
505.332	1645.67
505.764	1654.91
506.196	1669.66
506.627	1696.47
507.059	1720.91
507.491	1738.94
507.923	1734.83
508.354	1760.83
508.786	1777.97
509.217	1808.97
509.649	1832.75
510.08	1865.72
510.512	1893.18
510.943	1917.41
511.374	1933.7
511.805	1966.44
512.237	1997.89
512.668	2051.98
513.099	2097.31
513.53	2142.61
513.961	2173.53
514.391	2224.18
514.822	2273.63
515.253	2329.2
515.684	2366.95
516.114	2414.08
516.545	2443.97
516.975	2482.53
517.406	2506.75
517.836	2502.17
518.267	2502.76
518.697	2525.12
519.127	2524.92
519.558	2529.01
519.988	2527.14
520.418	2537.17
520.848	2557.57
521.278	2564.76
521.708	2558.81
522.138	2571.52
522.567	2617.15
522.997	2652.81
523.427	2671.23
523.857	2692.02
524.286	2702.32
524.716	2720.66
525.145	2743.49
525.575	2754.07
526.004	2772.34
526.433	2779.82
526.863	2773.27
527.292	2749.5
527.721	2752.12
528.15	2756.22
528.579	2751.02
529.008	2763.33
529.437	2795.37
529.866	2813.19
530.295	2836.67
530.724	2849.36
531.152	2887.53
531.581	2906.31
532.01	2930.08
532.438	2939.78
532.867	2959.74
533.295	2987.04
533.723	2994.12
534.152	2988.19
534.58	2985.68
535.008	2959
535.436	2960.61
535.865	2971.13
536.293	2994.12
536.721	3019.04
537.149	3058.54
537.576	3061.83
538.004	3081.23
538.432	3095.04
538.86	3090.54
539.287	3100.78
539.715	3121.34
540.143	3125.88
540.57	3118.82
540.998	3110.02
541.425	3070.83
541.852	3037.54
542.28	3034.42
542.707	3006
543.134	2981.78
543.561	2975.36
543.988	2962.53
544.415	2960.7
544.842	2951.22
545.269	2939.19
545.696	2943.11
546.123	2964.54
546.549	2947
546.976	2925.01
547.403	2924.04
547.829	2926.01
548.256	2929.87
548.682	2924.15
549.108	2910.56
549.535	2909.3
549.961	2913.2
550.387	2892.01
550.813	2880.97
551.24	2890.44
551.666	2892.74
552.092	2878.14
552.518	2869.39
552.943	2858.66
553.369	2870.6
553.795	2881.03
554.221	2883.63
554.646	2879.09
555.072	2895.81
555.498	2906.71
555.923	2923.53
556.349	2948.94
556.774	2965.44
557.199	2969.49
557.625	2981.1
558.05	2975.63
558.475	2995.73
558.9	2995.93
559.325	2984.96
559.75	2978.35
560.175	2970.48
560.6	2962.76
561.025	2962.5
561.449	2966.56
561.874	2979.57
562.299	2990.2
562.723	3004.59
563.148	2991.41
563.572	3003.07
563.997	3024.51
564.421	3038.06
564.846	3044.95
565.27	3056.19
565.694	3055.77
566.118	3081.31
566.542	3097.66
566.966	3093.86
567.39	3092.88
567.814	3081.17
568.238	3086.63
568.662	3102.46
569.086	3113.34
569.509	3131.8
569.933	3111.94
570.357	3107.39
570.78	3077.98
571.204	3061.86
571.627	3049.82
572.05	3052.49
572.474	3058.1
572.897	3043.12
573.32	3034.39
573.743	3023.46
574.166	2997.67
574.589	3004.92
575.012	2997.67
575.435	3000.51
575.858	2988.76
576.281	2973.64
576.704	2949.13
577.126	2932.61
577.549	2917.41
577.972	2904.76
578.394	2890.05
578.817	2878.1
579.239	2846.78
579.661	2825.14
580.084	2800.09
580.506	2781.71
580.928	2778.32
581.35	2763.63
581.772	2759.04
582.194	2737.28
582.616	2718.06
583.038	2697.1
583.46	2684.3
583.882	2681.55
584.303	2694.4
584.725	2690.96
585.147	2693.86
585.568	2714.83
585.99	2739.02
586.411	2752.84
586.833	2782.82
587.254	2788.34
587.675	2816.7
588.096	2841.62
588.518	2835.65
588.939	2807.31
589.36	2804.73
589.781	2792.89
590.202	2742.39
590.623	2727.83
591.043	2726.99
591.464	2705.87
591.885	2700.1
592.305	2691.67
592.726	2668.45
593.147	2672.59
593.567	2664.18
593.987	2653.06
594.408	2645.01
594.828	2646.45
595.248	2638.15
595.669	2604.49
596.089	2593.27
596.509	2584.84
596.929	2561.12
597.349	2564.32
597.769	2547.24
598.189	2537.2
598.608	2540.92
599.028	2545.98
599.448	2547.14
599.867	2525.97
600.287	2520.11
600.706	2514.21
601.126	2497.12
601.545	2496.48
601.965	2495.66
602.384	2487.82
602.803	2495.65
603.222	2488.78
603.641	2478.72
604.061	2472.76
604.48	2467.13
604.898	2484.67
605.317	2495.19
605.736	2501.36
606.155	2497.55
606.574	2483.29
606.992	2495.55
607.411	2488.38
607.829	2476.08
608.248	2471.79
608.666	2470.01
609.085	2471.07
609.503	2457.51
609.921	2447.91
610.339	2454.07
610.758	2455.35
611.176	2447.11
611.594	2431.58
612.012	2427.02
612.43	2434.04
612.847	2447.91
613.265	2450.87
613.683	2461.71
614.101	2466.31
614.518	2461.39
614.936	2444.48
615.353	2418.18
615.771	2415.54
616.188	2417.4
616.606	2413.17
617.023	2402
617.44	2377.7
617.857	2368.53
618.274	2354.46
618.691	2343.67
619.108	2328.08
619.525	2318.44
619.942	2333.36
620.359	2339.63
620.776	2332.52
621.192	2325.43
621.609	2322.9
622.026	2335.69
622.442	2346.17
622.859	2353.22
623.275	2342.07
623.691	2354.89
624.108	2377.04
624.524	2405.93
624.94	2405.86
625.356	2426.01
625.772	2452.84
626.188	2476.2
626.604	2480.86
627.02	2473.98
627.436	2469.58
627.852	2480.27
628.268	2501.78
628.683	2485.15
629.099	2468.81
629.514	2461.77
629.93	2468.22
630.345	2477.46
630.761	2470.9
631.176	2478.01
631.591	2467.01
632.007	2457.3
632.422	2457.71
632.837	2438.77
633.252	2434.45
633.667	2416.22
634.082	2401.35
634.497	2379.87
634.911	2342.31
635.326	2337.38
635.741	2306.74
636.155	2291.51
636.57	2294.72
636.984	2295.45
637.399	2300.68
637.813	2303.82
638.228	2305.53
638.642	2316.49
639.056	2300.67
639.47	2306.33
639.884	2293.66
640.298	2285.28
640.712	2284.83
641.126	2266.12
641.54	2253.69
641.954	2249.77
642.368	2229.34
642.781	2212.75
643.195	2180.86
643.609	2183.1
644.022	2174.51
644.436	2168.1
644.849	2146.76
645.262	2126.63
645.676	2132
646.089	2123.17
646.502	2091.27
646.915	2082.33
647.328	2053.59
647.741	2050.6
648.154	2025.21
648.567	2015.66
648.98	1989.98
649.393	1991.78
649.805	1984.32
650.218	1966.92
650.631	1935.69
651.043	1923.25
651.456	1909.26
651.868	1909.16
652.28	1941.3
652.693	1968.42
653.105	1983.22
653.517	2002.78
653.929	2001.5
654.341	2010.54
654.753	1986.46
655.165	1996.31
655.577	1989.52
655.989	1979.52
656.401	1964.04
656.813	1888.72
657.224	1847.05
657.636	1788.75
658.047	1748.13
658.459	1708.19
658.87	1689.08
659.282	1663.01
659.693	1620.64
660.104	1590.2
660.515	1561.57
660.926	1553.21
661.338	1545.18
661.749	1528.65
662.159	1505.51
662.57	1494.79
662.981	1480.79
663.392	1462.21
663.803	1466.08
664.213	1456.74
664.624	1443.3
665.035	1442.83
665.445	1412.5
665.855	1393.8
666.266	1373.61
666.676	1365.65
667.086	1343.36
667.497	1335.97
667.907	1319.36
668.317	1297.02
668.727	1284
669.137	1281.37
669.547	1272.59
669.956	1272.86
670.366	1271.82
670.776	1269.7
671.186	1271.91
671.595	1273.84
672.005	1275.91
672.414	1270.41
672.824	1264.65
673.233	1271.59
673.642	1271.48
674.052	1272.21
674.461	1271.93
674.87	1276.84
675.279	1269.7
675.688	1271.28
676.097	1270.25
676.506	1263.81
676.915	1286.39
677.323	1287.27
677.732	1281.33
678.141	1280.96
678.549	1265.27
678.958	1265.27
679.366	1265.12
679.775	1276.37
680.183	1292.11
680.592	1304.65
681	1316.9
681.408	1310.13
681.816	1329.03
682.224	1350.89
682.632	1372.5
683.04	1428.7
683.448	1477.12
683.856	1537.58
684.264	1605.93
684.671	1674.64
685.079	1754.51
685.487	1841.01
685.894	1960.34
686.302	2061.17
686.709	2145.21
687.116	2243.1
687.524	2322.88
687.931	2389.03
688.338	2447.18
688.745	2494.46
689.152	2546.96
689.559	2620.07
689.966	2688.06
690.373	2712.86
690.78	2771.9
691.187	2867.21
691.593	2932.23
692	2985.89
692.407	3074.83
692.813	3180.6
693.22	3260.38
693.626	3342.26
694.032	3399.26
694.439	3499.02
694.845	3572.92
695.251	3670.71
695.657	3753.88
696.063	3892.81
696.469	3985.94
696.875	4068.67
697.281	4104.79
697.687	4152.92
698.093	4186.87
698.498	4279.18
698.904	4346.79
699.31	4457.54
699.715	4527.85
700.12	4644.46
700.526	4642.73
700.931	4723.67
701.337	4774.05
701.742	4795.39
702.147	4898.59
702.552	4918.15
702.957	4983.54
703.362	4987.2
703.767	5008.27
704.172	5042.93
704.577	4947.64
704.981	4993.72
705.386	4995.55
705.791	4965.28
706.195	5056.5
706.6	5048.84
707.004	5146.96
707.408	5083.86
707.813	5103.6
708.217	5064.93
708.621	5050.41
709.025	5172.6
709.43	5155.76
709.834	5221.64
710.237	5302
710.641	5263.81
711.045	5277.33
711.449	5250.9
711.853	5273.42
712.256	5316.67
712.66	5351.82
713.064	5440.35
713.467	5481.37
713.87	5622.08
714.274	5670.87
714.677	5804.56
715.08	6007.89
715.484	6221.46
715.887	6480.61
716.29	6736.31
716.693	6999.4
717.096	7309.54
717.499	7471.17
717.901	7491.61
718.304	7513.26
718.707	7533.43
719.109	7383.03
719.512	7330.57
719.915	7137.16
720.317	7049.15
720.719	7095.12
721.122	7046.93
721.524	6970.27
721.926	6901.74
722.328	7021.51
722.731	6998.35
723.133	7024.12
723.535	7270.44
723.937	7286.2
724.338	7346.63
724.74	7393.17
725.142	7274.34
725.544	7261.98
725.945	7282.1
726.347	7271.25
726.748	7252.72
727.15	7264.1
727.551	7209.21
727.952	7164.71
728.354	7121.51
728.755	7114.47
729.156	7053.45
729.557	7054.08
729.958	6892.32
730.359	6820.66
730.76	6791.24
731.161	6709.97
731.562	6672.09
731.962	6668.71
732.363	6581
732.763	6494.72
733.164	6537.89
733.564	6448.4
733.965	6323.49
734.365	6276.01
734.766	6307.56
735.166	6254.7
735.566	6179.49
735.966	6142.95
736.366	6133.47
736.766	6053.46
737.166	6090.83
737.566	6033.17
737.966	5996.57
738.365	6043.51
738.765	6032.05
739.165	5933.17
739.564	5896.76
739.964	5953.42
740.363	5890.03
740.763	5884.28
741.162	5864.86
741.561	5821.17
741.96	5759.57
742.36	5782.82
742.759	5787.44
743.158	5833.92
743.557	5852.13
743.955	5900.13
744.354	5841.6
744.753	5916.5
745.152	5861.86
745.55	5932.94
745.949	5924.93
746.348	5928.07
746.746	5947.93
747.144	5894.64
747.543	5867.55
747.941	5929.56
748.339	5842.34
748.737	5830.8
749.136	5817.13
749.534	5900.34
749.932	5862.2
750.33	5891.27
750.727	5961.31
751.125	5932.75
751.523	5915.44
751.921	5968.06
752.318	5924.4
752.716	5997.41
753.113	6015.21
753.511	6046.86
753.908	6045.82
754.305	6024.42
754.703	6100.61
755.1	6175.67
755.497	6251.32
755.894	6487.23
756.291	6710.55
756.688	7123.31
757.085	7670.86
757.482	8440.81
757.878	9282.19
758.275	10046.85
758.672	11097.75
759.068	11954.63
759.465	13176.48
759.861	14747.4
760.258	16569.56
760.654	17505.66
761.05	17357.53
761.447	16555.98
761.843	15417.97
762.239	14230.77
762.635	13693.68
763.031	13182.96
763.427	12442.12
763.822	11663.14
764.218	10894.27
764.614	9898.37
765.01	9236.24
765.405	8807.12
765.801	8482.56
766.196	8063.7
766.592	7833.68
766.987	7438.97
767.382	7172.56
767.778	7061.33
768.173	6899
768.568	6808.58
768.963	6654.19
769.358	6675.59
769.753	6618.17
770.148	6512.53
770.542	6508.16
770.937	6470.84
771.332	6585.15
771.726	6608.55
772.121	6527.84
772.515	6594.18
772.91	6577.74
773.304	6667.44
773.699	6588.11
774.093	6654.81
774.487	6726.78
774.881	6786.97
775.275	6781.41
775.669	6730.13
776.063	6784.98
776.457	6832.94
776.851	6743.58
777.245	6732.7
777.638	6775.15
778.032	6919.08
778.425	6874.83
778.819	6927.96
779.212	6874.93
779.606	6824.51
779.999	6851.47
780.392	6832.33
780.786	6937.56
781.179	6962.36
781.572	7018.52
781.965	7037.27
782.358	6964.22
782.751	7034.24
783.143	6973.44
783.536	7063.16
783.929	7119.29
784.322	7262.47
784.714	7300.53
785.107	7292.95
785.499	7382.07
785.891	7351.87
786.284	7325.3
786.676	7502.28
787.068	7482.22
787.46	7549.8
787.852	7577.87
788.245	7684.14
788.636	7722.16
789.028	7804.49
789.42	7854.98
789.812	7865.21
790.204	7983.25
790.595	8108.67
790.987	7865.86
791.378	7893.05
791.77	8053.59
792.161	8220.77
792.553	8288.95
792.944	8150.14
793.335	8070.82
793.726	8158.18
794.117	8270.61
794.508	8442.26
794.899	8401.58
795.29	8577.04
795.681	8645.96
796.072	8469.95
796.463	8231.54
796.853	8242.93
797.244	8436.27
797.634	8474.13
798.025	8474.16
798.415	8489.17
798.806	8597.98
799.196	8705.1
799.586	8768.69
799.976	8717.68
800.366	9000.23
800.756	9304.08
801.146	9253.98
801.536	9287.52
801.926	9375.83
802.316	9404.61
802.706	9491.41
803.095	9339.42
803.485	9465.36
803.874	9512.8
804.264	9835.4
804.653	9802.56
805.043	9986.29
805.432	10118.04
805.821	10122.06
806.21	10152.2
806.599	10305.11
806.988	10365.73
807.377	10504.35
807.766	10669.21
808.155	11021.02
808.544	10699.74
808.933	10719.88
809.321	10693.35
809.71	11067.38
810.098	11262.13
810.487	11840.22
810.875	12443.93
811.264	12469.42
811.652	12826.18
812.04	13005.04
812.428	13212.97
812.816	14163.45
813.204	14689.7
813.592	15372.85
813.98	15800.42
814.368	15691.16
814.756	16295.91
815.144	16185.61
815.531	16772.47
815.919	16676.65
816.306	17052.09
816.694	16671.69
817.081	16733.11
817.469	17158.1
817.856	17159.21
818.243	17488.23
818.63	17978.27
819.017	17443.48
819.404	17521.51
819.791	18000.5
820.178	18782.83
820.565	19107.5
820.952	20258.93
821.339	19654.32
821.725	19893.25
822.112	18973
822.498	18925.89
822.885	19080.46
823.271	18963.55
823.657	19487.59
824.044	19492.52
824.43	19577.77
824.816	19523.96
825.202	18987.52
825.588	20245.56
825.974	20258.38
826.36	20895
826.746	20929.14
827.132	21383.91
827.517	21350.02
827.903	20372.17
828.289	20414.37
828.674	19443.47
829.06	19320.16
829.445	19812.75
829.83	20256.78
830.216	20851
830.601	21310.37
830.986	20797.52
831.371	20624
831.756	21315.55
832.141	20780.76
832.526	20777.34
832.911	21133.59
833.295	20991.7
833.68	21568.58
834.065	20791.18
834.449	19652.81
834.834	19548.85
835.218	19541.17
835.603	19958.96
835.987	19696.27
836.371	20729.34
836.755	20599.77
837.139	21087.69
837.524	21383.6
837.908	21163.89
838.291	21246.57
838.675	21329.64
839.059	21592.31
839.443	21585.97
839.827	21298.85
840.21	21902.79
840.594	21715.95
840.977	21963.9
841.361	21932.16
841.744	22402.15
842.127	22212.68
842.511	22508.29
842.894	23256.78
843.277	23732.98
843.66	24409.04
844.043	24510.04
844.426	23509.14
844.809	23131.37
845.191	23173.69
845.574	22620.44
845.957	22171.42
846.339	22032.61
846.722	21393.24
847.104	21475.72
847.487	21261.7
847.869	21271.14
848.252	21619.49
848.634	22028.2
849.016	22362.39
849.398	22528.82
849.78	23584.83
850.162	23596.76
850.544	24125.26
850.926	24912.93
851.307	24808.57
851.689	25162.38
852.071	25740.74
852.452	26153.52
852.834	26126.36
853.215	26605.33
853.597	26790.37
853.978	27155.79
854.359	27711.4
854.741	26468.79
855.122	26341.78
855.503	25984.15
855.884	26155.64
856.265	26077.85
856.646	26220.2
857.026	25739.88
857.407	25666.97
857.788	25861.22
858.169	26216.62
858.549	25160.64
858.93	25939.39
859.31	26002.46
859.69	26255.33
860.071	25743.45
860.451	25472.48
860.831	24557.94
861.211	25994.93
861.591	26681.23
861.971	26657.79
862.351	26900.32
862.731	27387.05
863.111	27708.9
863.491	28115.75
863.87	29211.55
864.25	29647.84
864.629	29140.85
865.009	29770.77
865.388	30832
865.768	33040.85
866.147	32902.5
866.526	31074
866.905	31436.51
867.284	33203.16
867.663	31521.52
868.042	30200.31
868.421	30097.69
868.8	30599.56
869.179	30905.03
869.558	29106.94
869.936	26813.06
870.315	27288.99
870.693	27944.8
871.072	30135.27
871.45	28706.56
871.828	29070.66
872.207	30557.59
872.585	30084.74
872.963	30896.94
873.341	29817.85
873.719	29456.54
874.097	29101.48
874.475	29650.5
874.853	30325.7
875.23	29061.16
875.608	30268.89
875.986	32731.53
876.363	31299.48
876.741	32260.66
877.118	31450.62
877.495	32989.97
877.873	33524.78
878.25	35292.35
878.627	33834.81
879.004	34311.2
879.381	34139.72
879.758	33236.23
880.135	30945.96
880.512	32723.77
880.889	31853.59
881.265	31519.91
881.642	31248.67
882.019	31773.49
882.395	31123.77
882.772	32374.67
883.148	30968.62
883.524	30840.57
883.901	30666.61
884.277	31129.66
884.653	30934.11
885.029	31811.3
885.405	35240.74
885.781	34983.61
886.157	33549.97
886.532	33955.58
886.908	33926.02
887.284	37722.08
887.659	38969.89
888.035	40179.19
888.411	41215.23
888.786	41753.63
889.161	43207.93
889.537	42402.55
889.912	43766.42
890.287	43734.39
890.662	44851.85
891.037	44057.56
891.412	41092.69
891.787	40681.26
892.162	39274.46
892.536	40198.82
892.911	38705.88
893.286	37913.41
893.66	36377.42
894.035	37311.16
894.409	40631.04
894.784	39006.89
895.158	39653.15
895.532	42009.91
895.906	43144.69
896.281	44160.42
896.655	43444.82
897.029	49637.65
897.402	51667.84
897.776	57547.47
898.15	57346.11
898.524	56738.04
898.898	57496
899.271	64373.3
899.645	55752.5
900.018	53563.68
900.392	55533.13
900.765	55997.47
901.138	51821.47
901.511	51054.46
901.884	46860.07
902.258	43223.86
902.631	44639.24
903.003	51386.51
903.376	46372.4
903.749	51981.85
904.122	55638.25
904.495	61298.37
904.867	62054.87
905.24	53895.28
905.612	50161.32
905.985	51321.08
906.357	53644.41
906.729	51196.37
907.102	43724.92
907.474	42029.65
907.846	42315.07
908.218	41761.77
908.59	36872.08
908.962	35663.71
909.334	38373.49
909.705	40303.16
910.077	39115.84
910.449	40703.55
910.82	41856.51
911.192	46028.78
911.563	47830.04
911.935	51164.81
912.306	51217.03
912.677	52889.21
913.048	52342.57
913.419	56791.76
913.79	57101.33
914.161	61210.89
914.532	58493.75
914.903	53741.29
915.274	51036.17
915.645	50297.73
916.015	44261.37
916.386	42201.97
916.756	44904.52
917.127	46304.36
917.497	41356.36
917.868	45002.06
918.238	42743.12
918.608	43965.41
918.978	44858.22
919.348	47517.86
919.718	49078.08
920.088	47285.85
920.458	49105.54
920.828	51682.7
921.198	48992.46
921.567	52354.02
921.937	40552.25
922.306	40948.35
922.676	44162.46
923.045	36853.8
923.415	35002.82
923.784	31860.86
924.153	32746.51
924.522	32702.2
924.891	30738.81
925.26	32939.4
925.629	32155.29
925.998	36963.06
926.367	36070.87
926.736	34347.88
927.104	40900.83
927.473	43980.03
927.842	53156.63
928.21	52639.38
928.578	55347.53
928.947	52366.94
929.315	52720
929.683	61839.54
930.051	62344.26
930.42	72402.39
930.788	61922.55
931.156	61440.54
931.523	57581.07
931.891	53207.2
932.259	51139.48
932.627	59316.84
932.994	83871.44
933.362	69288
933.729	60150.49
934.097	57611.76
934.464	48778.23
934.831	56300.24
935.199	55545.37
935.566	53847.81
935.933	54510.3
936.3	65993.76
936.667	51376.82
937.034	46334.15
937.401	45827.72
937.767	39566.87
938.134	35210.11
938.501	49669.3
938.867	52921.63
939.234	89468.1
939.6	76401.11
939.967	84290.78
940.333	56419.07
940.699	48003.64
941.065	38585.8
941.431	50548.88
941.798	48780.27
942.163	64056.62
942.529	40002.43
942.895	36835
943.261	23821.74
943.627	31244.44
943.992	27351.4
944.358	27400.96
944.723	27528.26
945.089	26802.37
945.454	24791.63
945.82	26423.07
946.185	25380.93
946.55	29411.91
946.915	26378.43
947.28	30925.42
947.645	27255.56
948.01	25140.67
948.375	26234.77
948.74	31438.9
949.104	36680.77
949.469	52969.64
949.834	93758.87
950.198	88874.81
950.562	53266.13
950.927	44362.7
951.291	53511.77
951.655	45543.58
952.02	42821.18
952.384	32372.57
952.748	28166.1
953.112	27449.4
953.476	23851.26
953.839	22055.62
954.203	21824.58
954.567	27301.48
954.931	43009.83
955.294	36758.78
955.658	36940.47
956.021	62792.16
956.385	106468.98
956.748	157115.8
957.111	243839.16
957.474	273985.85
957.837	308477.63
958.2	233490.94
958.563	83988.14
958.926	56739.27
959.289	86057.22
959.652	96173.07
960.015	72125.97
960.377	103512.03
960.74	118127.35
961.102	203875.47
961.465	218583.99
961.827	116933.2
962.189	224233.85
962.552	155387.54
962.914	124694.52
963.276	80852.48
963.638	66827.16
964	66176.98
964.362	44690.88
964.724	43183.82
965.085	30780.11
965.447	25260.41
965.809	28800.3
966.17	28870.55
966.532	31243.86
966.893	28634
967.255	26078.07
967.616	30792.64
967.977	24645.74
968.338	26929.09
968.699	22130.73
969.061	22144.48
969.421	22287.19
969.782	25012.88
970.143	21098.32
970.504	21850.52
970.865	24824.7
971.225	25366.74
971.586	24822.46
971.946	35411.18
972.307	30705.59
972.667	40116.93
973.027	41283.02
973.388	50063.6
973.748	34035.48
974.108	37069.04
974.468	50099.15
974.828	38658.99
975.188	29760.48
975.548	27315.27
975.907	22929.65
976.267	25730.02
976.627	21621.85
976.986	22425.95
977.346	21367.56
977.705	20557.61
978.064	18718.15
978.424	15597.76
978.783	16135.93
979.142	18424.66
979.501	17634.71
979.86	18645.33
980.219	17972.71
980.578	23191.3
980.937	25970.34
981.296	23154.35
981.654	23841.1
982.013	37161.73
982.371	48208.5
982.73	44996.61
983.088	50871.07
983.447	54323.95
983.805	77587.9
984.163	162119.57
984.521	179929.23
984.879	263756.52
985.237	-428894.69
985.595	413010.21
985.953	102593.67
986.311	59226.3
986.669	34375.79
987.026	29721.72
987.384	40012.21
987.741	41401.74
988.099	29567.61
988.456	23580.28
988.814	22043.15
989.171	19180.82
989.528	18928.77
989.885	20000.38
990.242	15825.29
990.599	19713.73
990.956	16112.98
991.313	11253.37
991.67	9231.99
992.027	9770.87
992.383	8671.54
992.74	7614.39
993.096	7980.42
993.453	8274.15
993.809	8569.45
994.165	11431.85
994.522	10461.01
994.878	11526.24
995.234	14467.86
995.59	14283.28
995.946	13557.18
996.302	15470.69
996.658	17913.53
997.013	19736.1
997.369	23417.34
997.725	29929.74
998.08	19368.22
998.436	29966.1
998.791	41328.78
999.147	41303.3
999.502	45026.6
999.857	32722.35
1000.212	53324.07
1000.567	75799.32
1000.922	43871.26
1001.277	27877.86
1001.632	20708.44
1001.987	26691.88
1002.342	19109.79
1002.696	15291.81
1003.051	12170.76
1003.406	14730.26
1003.76	14673.14
1004.114	14475.64
1004.469	12197.01
1004.823	10069.09
1005.177	10874.14
1005.531	8630.87
1005.885	7652.26
1006.239	8648
1006.593	10845.52
1006.947	14544.63
1007.301	10934
1007.655	11927.69
1008.008	8763.54
1008.362	9831.17
1008.715	14061.28
1009.069	12752.03
1009.422	19129.59
1009.776	38404.67
1010.129	25512.03
1010.482	21303.3
1010.835	18032.11
1011.188	37532.64
1011.541	35233.99
1011.894	-215442.78
1012.247	634748.79
1012.6	43079.05
1012.952	27163.82
1013.305	14023.96
1013.657	10088.26
1014.01	9536.82
1014.362	7864.05
1014.715	6964.35
1015.067	6058.93
1015.419	5930.81
1015.771	5242.93
1016.123	4645.17
1016.475	4783.19
1016.827	5101.83
1017.179	5468.69
1017.531	5525.55
1017.883	5651.78
1018.234	5450.03
1018.586	6875.42
1018.938	7260.11
1019.289	10008.14
1019.64	11480.14
1019.992	10730.13
1020.343	9812.39
1020.694	7759.93
1021.045	6859.88
1021.396	7829.81
1021.747	8367.96
1022.098	10063.47
1022.449	7330.72
1022.8	6834.86
1023.151	4763.48
1023.501	4216.45
1023.852	4584.65
1024.202	4745.91
1024.553	5219.28
1024.903	5133.91
1025.253	4390.63
1025.604	3958.42
1025.954	4913.98
1026.304	5990.51
1026.654	6969.37
1027.004	10231.58
1027.354	16619.62
1027.703	15641.22
1028.053	20578.78
1028.403	30016.05
1028.753	43244.09
1029.102	58958.52
1029.452	304243.64
1029.801	13161.4
1030.15	8491.94
1030.499	7215.59
897.758	2658.83
901.051	2617.77
904.343	2655.08
907.636	2655.08
910.928	2720.89
914.22	2629.3
917.511	2637.36
920.803	2700.92
924.094	2721.26
927.384	2701.69
930.675	2668.04
933.965	2620.97
937.255	2631.49
940.544	2597.34
943.834	2539.35
947.123	2482.23
950.411	2579.94
953.7	2552.35
956.988	2519.56
960.276	2460.86
963.563	2543.19
966.851	2540.41
970.138	2595.73
973.424	2589.03
976.711	2539.78
979.997	2671.37
983.283	2707.9
986.568	2612.52
989.853	2631.94
993.138	2657.02
996.423	2738.67
999.708	2677.16
1002.992	2742.18
1006.275	2580.91
1009.559	2624.24
1012.842	2739.98
1016.125	2671.94
1019.408	2652.22
1022.69	2738.64
1025.972	2756.67
1029.254	2734.09
1032.536	2666.22
1035.817	2691.39
1039.098	2633.76
1042.379	2779.14
1045.659	2779.27
1048.939	2711.99
1052.219	2732.54
1055.498	2745.39
1058.778	2730.92
1062.057	2715.78
1065.335	2738.17
1068.614	2755.76
1071.892	2739.7
1075.17	2816.8
1078.447	2806.25
1081.724	2795.8
1085.001	2833.1
1088.278	2809.6
1091.554	2819.3
1094.83	2816.72
1098.106	2844.58
1101.382	2889.19
1104.657	2893.76
1107.932	2886.44
1111.206	2848.19
1114.481	2807.49
1117.755	2812.07
1121.029	2790.89
1124.302	2843.68
1127.575	2795.94
1130.848	2783.55
1134.121	2743.81
1137.393	2693.26
1140.665	2761.03
1143.937	2735.46
1147.208	2699.49
1150.48	2737.79
1153.75	2722.6
1157.021	2755.98
1160.291	2724.81
1163.561	2771.12
1166.831	2761.79
1170.101	2794.41
1173.37	2770.87
1176.639	2712.81
1179.907	2774.9
1183.176	2777.87
1186.444	2787.34
1189.711	2816.57
1192.979	2828.8
1196.246	2784.04
1199.513	2802.71
1202.78	2800.29
1206.046	2810.07
1209.312	2831.68
1212.578	2857.4
1215.843	2807.26
1219.108	2785.13
1222.373	2804.12
1225.638	2767.6
1228.902	2750.48
1232.166	2714.61
1235.43	2696.76
1238.693	2719.9
1241.956	2714.9
1245.219	2756.08
1248.482	2747.33
1251.744	2744.61
1255.006	2891.37
1258.268	2848.07
1261.529	2791.12
1264.79	2798.64
1268.051	2909.45
1271.312	2924.28
1274.572	2884.22
1277.832	2875.42
1281.092	2868.82
1284.351	2842.93
1287.61	2820.46
1290.869	2734.95
1294.128	2712.36
1297.386	2803.59
1300.644	2790.79
1303.902	2801.28
1307.159	2659.34
1310.416	2717.24
1313.673	2740.33
1316.93	2722.7
1320.186	2768.43
1323.442	2812.75
1326.697	2800.97
1329.953	2792.01
1333.208	2811.02
1336.463	2792.75
1339.717	2728.95
1342.972	2864.73
1346.226	2842.05
1349.479	2773.83
1352.733	2743.91
1355.986	2767.73
1359.238	2741.94
1362.491	2746.29
1365.743	2749.62
1368.995	2745.83
1372.247	2758.21
1375.498	2782.2
1378.749	2793.77
1382	2748.72
1385.251	2803.52
1388.501	2765.13
1391.751	2748.4
1395	2718.34
1398.25	2751.01
1401.499	2756.81
1404.748	2683.24
1407.996	2674.96
1411.244	2659.61
1414.492	2642.27
1417.74	2619.11
1420.987	2629.03
1424.234	2683.73
1427.481	2663.66
1430.728	2723.86
1433.974	2697.08
1437.22	2713.01
1440.465	2716.21
1443.711	2677.82
1446.956	2713.18
1450.201	2700.79
1453.445	2746.91
1456.689	2724.47
1459.933	2740.51
1463.177	2772.65
1466.42	2744.94
1469.663	2723.6
1472.906	2716.79
1476.148	2794.23
1479.391	2755.46
1482.633	2727.22
1485.874	2735.23
1489.115	2721.55
1492.356	2729.8
1495.597	2702.6
1498.838	2708.14
1502.078	2676.47
1505.318	2627.45
1508.557	2671.38
1511.797	2646.09
1515.036	2717.52
1518.274	2707.08
1521.513	2682.22
1524.751	2704.82
1527.989	2718.14
1531.227	2731.82
1534.464	2725.01
1537.701	2743.75
1540.938	2764.23
1544.174	2715.82
1547.41	2713.39
1550.646	2754.86
1553.882	2793.9
1557.117	2846.9
1560.352	2862.65
1563.587	2818.08
1566.821	2777.94
1570.055	2814.5
1573.289	2786.46
1576.523	2863.4
1579.756	2872.73
1582.989	2891.25
1586.222	2850.73
1589.454	2887.61
1592.686	2860.21
1595.918	2886.43
1599.15	2877.19
1602.381	2952.4
1605.612	2906.17
1608.843	3007.87
1612.073	2917.37
1615.303	2900.09
1618.533	2894.93
1621.762	2894.14
1624.992	2883.83
1628.221	2871.91
1631.449	2856.68
1634.678	2913.15
1637.906	2866.34
1641.134	2907.8
1644.361	2861.73
1647.588	2851.88
1650.815	2867.81
1654.042	2844.44
1657.269	2877.72
1660.495	2827.33
1663.72	2848.7
1666.946	2809.14
1670.171	2750.84
1673.396	2728.13
1676.621	2713.73
1679.845	2734.73
1683.069	2754.92
1686.293	2799.58
1689.517	2770.59
1692.74	2699.42
1695.963	2729.74
1699.185	2745.25
1702.408	2723.2
1705.63	2764.23
1708.852	2775.13
1712.073	2748.47
1715.294	2731.88
1718.515	2792.82
1721.736	2737.9
1724.956	2732.02
1728.176	2757.66
1731.396	2777.3
1734.616	2767.29
1737.835	2793.05
1741.054	2775.86
1744.272	2769.67
1747.491	2799.74
1750.709	2854.17
1753.927	2757.97
1757.144	2802.81
1760.361	2843.27
1763.578	2836.84
1766.795	2779.74
1770.011	2783.11
1773.227	2824.61
1776.443	2858.06
1779.658	2901.96
1782.874	2846.26
1786.089	2823.71
1789.303	2825.11
1792.518	2833.95
1795.732	2819.92
1798.945	2828.32
1802.159	2880.02
1805.372	2781.97
1808.585	2765.14
1811.797	2767.23
1815.01	2815.6
1818.222	2814.94
1821.434	2788.03
1824.645	2847.1
1827.856	2829.11
1831.067	2866.65
1834.278	2825.22
1837.488	2805.63
1840.698	2957.21
1843.908	2881.52
1847.117	2845.05
1850.326	2726.24
1853.535	2829.52
1856.744	2853.67
1859.952	2768.15
1863.16	2769.78
1866.368	2790.77
1869.575	2892.55
1872.782	2779.91
1875.989	2716.58
1879.196	2802.68
1882.402	2792.79
1885.608	2833.62
1888.814	2737.79
1892.019	2630.11
1895.224	2681.88
1898.429	2662.37
1901.634	2640.73
1904.838	2619
1908.042	2665.74
1911.246	2673.42
1914.449	2601.75
1917.652	2598.21
1920.855	2583.21
1924.058	2630.53
1927.26	2666.8
1930.462	2696.56
1933.664	2722.95
1936.865	2661.11
1940.066	2664.4
1943.267	2613.28
1946.467	2628.66
1949.668	2655.34
1952.868	2723.37
1956.067	2699.98
1959.267	2632.63
1962.466	2661.74
1965.665	2641.47
1968.863	2636.78
1972.061	2653.42
1975.259	2651.98
1978.457	2732.26
1981.654	2690.91
1984.852	2691.34
1988.048	2623.64
1991.245	2626.55
1994.441	2711.5
1997.637	2699.51
2000.833	2685.2
2004.028	2724.75
2007.223	2778.5
2010.418	2753.85
2013.613	2716.37
2016.807	2685.6
2020.001	2694.95
2023.194	2737.07
2026.388	2714.33
2029.581	2661.06
2032.774	2706.29
2035.966	2710.07
2039.158	2640.33
2042.35	2667.81
2045.542	2599.03
2048.733	2694.92
2051.924	2720.92
2055.115	2746.93
2058.306	2690.86
2061.496	2750.73
2064.686	2812.84
2067.875	2728.96
2071.065	2744.66
2074.254	2771.03
2077.442	2721.16
2080.631	2811.76
2083.819	2702.59
2087.007	2684.45
2090.195	2657.31
2093.382	2691.18
2096.569	2670.19
2099.756	2623.62
2102.942	2647.41
2106.128	2651.47
2109.314	2645.87
2112.5	2607.98
2115.685	2583.93
2118.87	2594.71
2122.055	2660.31
2125.239	2624.07
2128.424	2599.95
2131.608	2703.29
2134.791	2687.29
2137.974	2744.21
2141.157	2731.67
2144.34	2680.33
2147.523	2698.7
2150.705	2712.65
2153.887	2693.79
2157.068	2641.05
2160.25	2645.58
2163.431	2680.25
2166.611	2628.05
2169.792	2642.65
2172.972	2537.21
2176.152	2615.43
2179.331	2650.71
2182.511	2629.22
2185.69	2657.78
2188.868	2651.22
2192.047	2706.73
2195.225	2694.39
2198.403	2647.99
2201.58	2640.04
2204.758	2635.72
2207.935	2719.85
2211.111	2605.53
2214.288	2589.46
2217.464	2628.51
2220.64	2601.92
2223.815	2657.86
2226.991	2576.46
2230.166	2598.05
2233.34	2626.24
2236.515	2650.32
2239.689	2723.64
2242.863	2666.82
2246.036	2723.84
2249.209	2724.7
2252.382	2762.01
2255.555	2746.69
2258.727	2681.36
2261.9	2725.65
2265.071	2715.04
2268.243	2717.83
2271.414	2647.14
2274.585	2607.24
2277.756	2673.83
2280.926	2630.89
2284.096	2674.27
2287.266	2578.08
2290.436	2635.8
2293.605	2664.38
2296.774	2692.81
2299.942	2713.52
2303.111	2731.91
2306.279	2781.27
2309.447	2767.72
2312.614	2744.92
2315.781	2764.87
2318.948	2732.43
2322.115	2773.19
2325.281	2672.58
2328.447	2694.35
2331.613	2668.84
2334.779	2642.87
2337.944	2643.25
2341.109	2641.88
2344.274	2624.52
2347.438	2588.76
2350.602	2614.27
2353.766	2631.45
2356.929	2616.54
2360.092	2659.61
2363.255	2612.03
2366.418	2544.02
2369.58	2656.59
2372.742	2444.03
2375.904	2457.65
2379.066	2432.62
2382.227	2468.35
2385.388	2432
2388.548	2355.48
2391.709	2411.77
2394.869	2389.64
2398.029	2487.86
2401.188	2503.62
2404.347	2437.48
2407.506	2580.04
2410.665	2607.18
2413.823	2616.24
2416.981	2572.12
2420.139	2601.7
2423.296	2652.99
2426.453	2624.33
2429.61	2651.14
2432.767	2583.75
2435.923	2619.79
2439.079	2587.59
2442.235	2631.97
2445.391	2559.96
2448.546	2586.19
2451.701	2637.28
2454.855	2609.98
2458.009	2663.49
2461.163	2665.86
2464.317	2622.02
2467.471	2655.57
2470.624	2696.34
2473.777	2662.24
2476.929	2678.71
2480.082	2706.71
2483.234	2670.75
2486.385	2625.32
2489.537	2616.89
2492.688	2576.62
2495.839	2595.95
2498.989	2607.32
2502.14	2590.12
2505.29	2572.53
2508.439	2595.88
2511.589	2519.88
2514.738	2532.18
2517.887	2562.16
2521.035	2626.11
2524.183	2610.72
2527.331	2590.53
2530.479	2563.12
2533.627	2573.86
