Data from N_2_HIR_IL_4N_Splice17_12-11-03-588.txt Node
Date: Sat Mar 14 12:11:03 EDT 2020
User: sa697716
Spectrometer: FLMS03696
Trigger mode: 0
Integration Time (sec): 3.180400E-1
Scans to average: 20
Electric dark correction enabled: true
Nonlinearity correction enabled: true
Boxcar width: 5
XAxis mode: Wavelengths
Number of Pixels in Spectrum: 2048
>>>>>Begin Spectral Data<<<<<
187.83	-250742.2
188.298	1902.63
188.766	1078.65
189.233	1005.17
189.701	1288.25
190.169	1775.62
190.636	706.68
191.104	633.89
191.571	148.5
192.039	-33.96
192.506	-88.18
192.974	362.96
193.441	-473.79
193.908	-32.97
194.375	32.79
194.842	30.2
195.31	145.45
195.777	163.25
196.244	349.13
196.711	446.35
197.177	548.37
197.644	788.54
198.111	1393.99
198.578	1970.3
199.045	1604.41
199.511	2638.17
199.978	3086.4
200.445	2588.2
200.911	2897.62
201.378	3276.03
201.844	2977.94
202.31	5088.6
202.777	5265.46
203.243	2907.01
203.709	2765.58
204.176	3311.95
204.642	2714.88
205.108	2524.94
205.574	2074.09
206.04	1879.83
206.506	1755.39
206.972	1656.09
207.438	1612.29
207.903	1843.66
208.369	1629.74
208.835	1621.08
209.301	1676.74
209.766	1708.64
210.232	1694.73
210.697	2096.4
211.163	2572.71
211.628	3874.76
212.094	3227.41
212.559	3953.91
213.024	2463.62
213.49	2991.31
213.955	2932.63
214.42	2866.22
214.885	2681.06
215.35	2568.29
215.815	2461.26
216.28	2617.21
216.745	2118.46
217.21	2280.25
217.675	2065.77
218.14	2281.26
218.604	2503.07
219.069	2803.1
219.534	2935.9
219.998	3383.69
220.463	4051.43
220.927	4924.52
221.392	4613.35
221.856	4664.12
222.32	5849.73
222.785	7202.19
223.249	9055.12
223.713	10106.66
224.177	10093.94
224.642	12896.3
225.106	15813.96
225.57	17273.13
226.034	12856.38
226.497	19572.16
226.961	17674.62
227.425	20583.98
227.889	22801.55
228.353	22775.34
228.816	46914.37
229.28	44897.62
229.744	37858.7
230.207	23028.27
230.671	22612.08
231.134	37365.89
231.597	42982.99
232.061	42867.18
232.524	41772.4
232.987	28770.2
233.45	25915.37
233.914	23245.88
234.377	23813.44
234.84	21773.28
235.303	25642.15
235.766	28648.13
236.229	29542
236.691	18579.17
237.154	20852.85
237.617	15668.43
238.08	16045.66
238.542	18760.35
239.005	13408.64
239.468	13292.8
239.93	12500.37
240.393	11359.03
240.855	9953.88
241.317	10192.54
241.78	12414.73
242.242	12837.85
242.704	13851.32
243.166	12049.82
243.629	10952.39
244.091	12605.9
244.553	13782.2
245.015	14807.68
245.477	19144.36
245.939	28054.05
246.4	29757.43
246.862	28870.23
247.324	27218.22
247.786	30458.95
248.247	39907.61
248.709	41130.81
249.17	30783.81
249.632	29096.25
250.093	33763.43
250.555	29141.53
251.016	17774.98
251.477	16872.4
251.939	18222.22
252.4	19102.41
252.861	22732.51
253.322	21151.7
253.783	25143.72
254.244	32588.39
254.705	25630.3
255.166	22765
255.627	22392.97
256.088	31605.37
256.549	33500.13
257.009	28843.28
257.47	34978.31
257.931	28444.87
258.391	21293.14
258.852	21965.39
259.312	23023.44
259.773	28439.05
260.233	24050.48
260.694	20277.76
261.154	22994.3
261.614	18486.96
262.074	16521.78
262.534	17162.03
262.994	16177.73
263.455	21554.25
263.915	18156.1
264.374	17081.73
264.834	18652.34
265.294	20672.88
265.754	21440.03
266.214	20282.7
266.673	18997.46
267.133	23983.74
267.593	23811.62
268.052	29136.78
268.512	25315.32
268.971	30533.35
269.431	33508.42
269.89	30016.57
270.349	45043.19
270.809	50286.99
271.268	45228.65
271.727	101507.65
272.186	65717.6
272.645	49309.66
273.104	35562.92
273.563	51542.42
274.022	40556.03
274.481	34571.83
274.94	26675.8
275.399	19820.08
275.857	23054.3
276.316	31181.22
276.775	27750.33
277.233	27345.54
277.692	25610.24
278.15	28976.55
278.609	29858.15
279.067	27624.98
279.525	25636.12
279.984	33099.21
280.442	39766.38
280.9	39258.44
281.358	25853.35
281.816	24099.19
282.274	23587.96
282.732	24352.58
283.19	24485.06
283.648	21144.09
284.106	22556.25
284.564	22972.63
285.021	21301.31
285.479	15872.84
285.937	14425.75
286.394	12663.62
286.852	13047.46
287.309	13733.95
287.767	13291.44
288.224	12663.08
288.682	13881.23
289.139	15217.64
289.596	13920.47
290.053	14476.13
290.511	18266.42
290.968	22138.32
291.425	30012.87
291.882	24984.61
292.339	21742.57
292.796	21565.67
293.252	20281.76
293.709	16128.55
294.166	14477.42
294.623	15992.3
295.079	15322.92
295.536	15408.55
295.992	14016.52
296.449	13879.3
296.905	14415.67
297.362	13811.32
297.818	14514.53
298.274	15080.18
298.731	15367.07
299.187	15182.26
299.643	16286.75
300.099	19728.61
300.555	21636.97
301.011	18077.36
301.467	17415.81
301.923	20386.9
302.379	19926.45
302.835	19590.17
303.291	19604.49
303.746	22310.76
304.202	28217.89
304.658	28346.3
305.113	19062.13
305.569	18680.95
306.024	19900.27
306.479	18951.21
306.935	16004.01
307.39	17507.14
307.845	16171.45
308.301	16284.34
308.756	15848.97
309.211	15257.42
309.666	15637.55
310.121	19398.83
310.576	19692.2
311.031	19541.37
311.486	22353.25
311.94	22293.58
312.395	29816.23
312.85	56034.51
313.305	275479.01
313.759	1428114.43
314.214	103725.88
314.668	82262.82
315.123	69262.78
315.577	24869.19
316.032	22102.12
316.486	27714.15
316.94	21887.75
317.394	15235.59
317.849	11840.39
318.303	11195.07
318.757	10562.38
319.211	11660.78
319.665	10190.86
320.119	10316.53
320.572	14798.85
321.026	13830.21
321.48	11520.22
321.934	12554.62
322.387	12583.5
322.841	13593.51
323.295	12240.59
323.748	14086.8
324.202	14271.59
324.655	17162.22
325.108	23968.92
325.562	16918.49
326.015	20145.9
326.468	15213.16
326.921	17010.42
327.374	15860.52
327.827	16508.4
328.28	18661.4
328.733	12514.49
329.186	11021.68
329.639	10505.99
330.092	8851.6
330.545	8433.75
330.997	8501.88
331.45	9304.67
331.903	10897.19
332.355	18743.12
332.808	18241.35
333.26	15049.56
333.713	16349.7
334.165	16489.42
334.617	22003.15
335.069	17766.76
335.522	32120.84
335.974	35583.5
336.426	32520.52
336.878	22544.61
337.33	11435.62
337.782	11169.38
338.234	14030.02
338.686	16751.47
339.137	19827.52
339.589	18689.49
340.041	14684.37
340.493	12618.21
340.944	12898.49
341.396	13884.49
341.847	11683.81
342.299	13792.63
342.75	16797.85
343.201	14633.07
343.653	16843.56
344.104	20689.64
344.555	16245.72
345.006	25200.91
345.457	19312.23
345.908	15352.19
346.359	14465
346.81	11787.59
347.261	12396.74
347.712	12193.09
348.163	13083.94
348.613	13257.62
349.064	12378.24
349.515	10863.61
349.965	11166.27
350.416	13439.11
350.866	14752.06
351.317	16612.14
351.767	27514.48
352.217	34754.67
352.668	28932.08
353.118	26454.22
353.568	25491.28
354.018	20169.43
354.468	21239.58
354.918	15251.64
355.368	13338.81
355.818	18830.75
356.268	54324.48
356.718	227712.35
357.168	56717.42
357.617	28416.79
358.067	31703.29
358.517	29731.6
358.966	34896.72
359.416	39240.74
359.865	42364.54
360.315	50460.48
360.764	23548.89
361.213	13181.61
361.663	12462.92
362.112	15394.46
362.561	24864.41
363.01	18735.59
363.459	15730.69
363.908	16980.82
364.357	14420.86
364.806	24305.85
365.255	16694.86
365.703	15302.33
366.152	15316.49
366.601	12422.79
367.05	10091.79
367.498	9191.13
367.947	9606.08
368.395	10003.86
368.844	8874.69
369.292	10677.3
369.74	7392.29
370.189	11329.2
370.637	13278.7
371.085	11460.35
371.533	13949.35
371.981	13409.42
372.429	12781.72
372.877	13285.04
373.325	11122.23
373.773	11312.08
374.221	10062.71
374.669	12499.71
375.116	10809.47
375.564	10919.88
376.012	12196.85
376.459	10056.16
376.907	12071.73
377.354	14599.38
377.801	13647.49
378.249	15707.69
378.696	20141.23
379.143	24443.75
379.591	26066.87
380.038	44150.93
380.485	31941.75
380.932	34660.15
381.379	31782.34
381.826	23396.86
382.273	16673.94
382.72	14642.68
383.166	14282.84
383.613	9298.36
384.06	8418.52
384.506	9791.66
384.953	7214.88
385.4	7276.77
385.846	6402.76
386.292	6264.87
386.739	6159.73
387.185	6101.43
387.631	6123.3
388.078	5973.67
388.524	6412.03
388.97	5953.27
389.416	4961.33
389.862	5295.14
390.308	5044.36
390.754	5140.38
391.2	5608.4
391.645	5765.26
392.091	5550.47
392.537	5385.63
392.983	5428.73
393.428	5360.98
393.874	5761.91
394.319	5833.19
394.765	5581.32
395.21	5762.47
395.655	5427.12
396.101	5116.38
396.546	4643.03
396.991	4711.89
397.436	4399.88
397.881	4274.13
398.326	4080.8
398.771	3879.98
399.216	3407.52
399.661	3079.15
400.106	3086.24
400.551	3178.47
400.995	2861.74
401.44	2843.12
401.885	2680.68
402.329	2720.35
402.774	2616.52
403.218	2541.06
403.663	2460.65
404.107	2544.19
404.551	2573.24
404.995	2370.19
405.44	2294.47
405.884	2338.04
406.328	2273.8
406.772	2276.74
407.216	2082.86
407.66	2021.06
408.104	1926.22
408.547	1811.58
408.991	1757.37
409.435	1694.89
409.879	1675.88
410.322	1659.81
410.766	1608.05
411.209	1531.61
411.653	1474.74
412.096	1446.57
412.54	1450.09
412.983	1442.91
413.426	1448.51
413.869	1450.77
414.312	1428.32
414.756	1381.38
415.199	1317.79
415.642	1281.98
416.085	1285.77
416.527	1277.26
416.97	1302.34
417.413	1238.48
417.856	1226.85
418.298	1216.3
418.741	1210.02
419.184	1210.01
419.626	1261.5
420.069	1263.27
420.511	1272.53
420.953	1244.4
421.396	1236.24
421.838	1204.54
422.28	1233.36
422.722	1242.38
423.164	1261.04
423.606	1241.66
424.048	1239.63
424.49	1180.06
424.932	1176.87
425.374	1159.71
425.816	1185.26
426.258	1208.13
426.699	1223.07
427.141	1208.85
427.582	1229.82
428.024	1223.94
428.465	1216.39
428.907	1189.38
429.348	1176.62
429.789	1176.57
430.231	1153.05
430.672	1167.97
431.113	1140.62
431.554	1123.55
431.995	1093.87
432.436	1051.63
432.877	1027.75
433.318	1010.34
433.759	1004.82
434.2	1003.9
434.64	992.76
435.081	996.5
435.522	944.23
435.962	910.17
436.403	892.17
436.843	903.42
437.284	885.93
437.724	863.94
438.164	866.25
438.604	846.74
439.045	814.05
439.485	781.78
439.925	765.07
440.365	745.68
440.805	734.76
441.245	723.28
441.685	697.12
442.125	690.92
442.564	694.25
443.004	679.41
443.444	675.97
443.883	675.79
444.323	670.05
444.762	670.1
445.202	678.07
445.641	691.14
446.081	689.04
446.52	694.09
446.959	687.21
447.398	669.85
447.837	660.38
448.276	647.47
448.716	654.17
449.154	657.38
449.593	642.2
450.032	639.9
450.471	626.3
450.91	623.7
451.349	621.65
451.787	618.79
452.226	627.53
452.664	624.97
453.103	627.07
453.541	624.76
453.98	625.04
454.418	628.4
454.856	617.96
455.295	615.31
455.733	620.68
456.171	622.66
456.609	623.55
457.047	622.81
457.485	633.98
457.923	635.46
458.361	626.59
458.798	627.47
459.236	625.84
459.674	629.6
460.111	634.09
460.549	628
460.987	626.27
461.424	623.84
461.862	622.31
462.299	611.64
462.736	610.14
463.173	611.37
463.611	606.8
464.048	604.44
464.485	609.76
464.922	603.78
465.359	600.96
465.796	594.45
466.233	589.7
466.67	583.18
467.106	581.56
467.543	575.96
467.98	568.84
468.416	553.14
468.853	549.1
469.29	531.61
469.726	525.9
470.162	511.48
470.599	502.87
471.035	497.65
471.471	485.74
471.907	482.36
472.344	478.65
472.78	480.04
473.216	485.47
473.652	479.5
474.088	478.02
474.523	475.98
474.959	479.04
475.395	474.98
475.831	472.44
476.266	474.22
476.702	472.59
477.138	466.63
477.573	463.74
478.008	460.08
478.444	461.33
478.879	465.25
479.314	467.08
479.75	466.93
480.185	467.69
480.62	469.92
481.055	472.19
481.49	474.73
481.925	481.25
482.36	490.04
482.795	504.57
483.229	517.43
483.664	527.73
484.099	529.07
484.534	536.92
484.968	542.63
485.403	544.72
485.837	542.85
486.271	541.63
486.706	541.72
487.14	534.81
487.574	525.26
488.009	519.85
488.443	514.52
488.877	519.95
489.311	520.46
489.745	525.18
490.179	529.14
490.613	539.61
491.046	543.66
491.48	547.54
491.914	547.44
492.348	550.17
492.781	553.17
493.215	554.37
493.648	553.59
494.082	557.75
494.515	557.47
494.948	562.91
495.382	564.91
495.815	568.18
496.248	571.7
496.681	580.59
497.114	589.94
497.547	596.88
497.98	606.68
498.413	610.82
498.846	617.4
499.279	623.52
499.711	625.9
500.144	627.12
500.577	634.33
501.009	641.63
501.442	649.4
501.874	649.12
502.306	649.98
502.739	655.8
503.171	667.1
503.603	669.29
504.036	676.24
504.468	681.68
504.9	690.11
505.332	696.25
505.764	699.95
506.196	705.03
506.627	717.95
507.059	729.05
507.491	735.26
507.923	734.32
508.354	746.36
508.786	756
509.217	770.38
509.649	783.45
510.08	797.92
510.512	812.69
510.943	826.07
511.374	835.25
511.805	852.7
512.237	869.97
512.668	896.99
513.099	921.05
513.53	944.27
513.961	962.62
514.391	989.92
514.822	1019.01
515.253	1049.81
515.684	1072.67
516.114	1100.01
516.545	1119.94
516.975	1144.02
517.406	1161.72
517.836	1166.81
518.267	1175.19
518.697	1192.17
519.127	1198.43
519.558	1207.97
519.988	1214.67
520.418	1226.82
520.848	1243.8
521.278	1254.46
521.708	1275.42
522.138	1289.33
522.567	1318.26
522.997	1342.27
523.427	1359.21
523.857	1376.87
524.286	1387.64
524.716	1402.42
525.145	1421.63
525.575	1433.99
526.004	1448.12
526.433	1442.3
526.863	1444.2
527.292	1437.43
527.721	1445.03
528.15	1451.72
528.579	1453.37
529.008	1465.37
529.437	1486.74
529.866	1499.55
530.295	1514.63
530.724	1527.85
531.152	1552.47
531.581	1566.74
532.01	1583.89
532.438	1592.36
532.867	1606.66
533.295	1625.56
533.723	1632.46
534.152	1632.01
534.58	1632.79
535.008	1621.95
535.436	1624.62
535.865	1633.36
536.293	1647.16
536.721	1663.22
537.149	1687.45
537.576	1690.59
538.004	1703.31
538.432	1711.03
538.86	1711.24
539.287	1719.96
539.715	1732.69
540.143	1736.65
540.57	1734.19
540.998	1730.88
541.425	1710.73
541.852	1692.33
542.28	1692.27
542.707	1677.39
543.134	1665.43
543.561	1661.97
543.988	1654.88
544.415	1654.1
544.842	1648.58
545.269	1641.74
545.696	1645.22
546.123	1657.17
546.549	1647.84
546.976	1634.69
547.403	1633.85
547.829	1635.4
548.256	1637.07
548.682	1634.46
549.108	1628.11
549.535	1628.45
549.961	1629.84
550.387	1617.13
550.813	1611.32
551.24	1616.36
551.666	1617.56
552.092	1608.79
552.518	1602.73
552.943	1597.75
553.369	1603.35
553.795	1606.67
554.221	1606.53
554.646	1604.32
555.072	1613.16
555.498	1615.86
555.923	1623.63
556.349	1637.11
556.774	1644.37
557.199	1644.86
557.625	1648.39
558.05	1641.95
558.475	1651.87
558.9	1649.6
559.325	1640.02
559.75	1632.64
560.175	1626.24
560.6	1618.83
561.025	1613.85
561.449	1611.98
561.874	1613.87
562.299	1614.96
562.723	1619.16
563.148	1607.01
563.572	1608.87
563.997	1615.77
564.421	1619.18
564.846	1616.91
565.27	1618.01
565.694	1614.83
566.118	1623.54
566.542	1630.03
566.966	1622.56
567.39	1615.87
567.814	1604.75
568.238	1600.83
568.662	1602.46
569.086	1602.48
569.509	1607.35
569.933	1592.02
570.357	1583.41
570.78	1562.31
571.204	1548.02
571.627	1537.2
572.05	1533.19
572.474	1530.9
572.897	1518.3
573.32	1509.66
573.743	1498.85
574.166	1480.98
574.589	1479.09
575.012	1471.32
575.435	1469.27
575.858	1459.44
576.281	1447.24
576.704	1431.05
577.126	1417.9
577.549	1407.34
577.972	1397.48
578.394	1387.45
578.817	1379.57
579.239	1361.31
579.661	1347.3
580.084	1332.07
580.506	1318.43
580.928	1313.54
581.35	1304.08
581.772	1298.99
582.194	1284.84
582.616	1272.36
583.038	1258.22
583.46	1247.68
583.882	1243.98
584.303	1246.42
584.725	1242.1
585.147	1244.19
585.568	1252.54
585.99	1261.88
586.411	1266.89
586.833	1279.64
587.254	1280.47
587.675	1291.31
588.096	1301.02
588.518	1295.79
588.939	1281.15
589.36	1279.16
589.781	1268.2
590.202	1243.77
590.623	1235.52
591.043	1232.68
591.464	1221.01
591.885	1217.42
592.305	1211.8
592.726	1199.41
593.147	1199.04
593.567	1194.8
593.987	1187.5
594.408	1182.14
594.828	1179.51
595.248	1173.6
595.669	1157.58
596.089	1151.34
596.509	1144.6
596.929	1132.39
597.349	1132.48
597.769	1123.91
598.189	1117.62
598.608	1116.82
599.028	1117.7
599.448	1116.69
599.867	1105.49
600.287	1102.43
600.706	1099.12
601.126	1091.48
601.545	1090.51
601.965	1089.01
602.384	1084.55
602.803	1085.68
603.222	1082.03
603.641	1077.26
604.061	1074.88
604.48	1072
604.898	1077.25
605.317	1080.28
605.736	1081.52
606.155	1078.25
606.574	1069.11
606.992	1072.27
607.411	1067.94
607.829	1060.19
608.248	1056.11
608.666	1052.88
609.085	1051.7
609.503	1044.64
609.921	1038.47
610.339	1039.41
610.758	1038.13
611.176	1035.8
611.594	1028.17
612.012	1024.87
612.43	1028.58
612.847	1033.38
613.265	1033.56
613.683	1035.71
614.101	1035.23
614.518	1031.29
614.936	1022.98
615.353	1011.69
615.771	1008.47
616.188	1008.42
616.606	1006.52
617.023	998.94
617.44	987.47
617.857	981.09
618.274	975.64
618.691	971.92
619.108	965
619.525	958.41
619.942	963.55
620.359	965.36
620.776	961.12
621.192	956.84
621.609	955.51
622.026	960.09
622.442	964.85
622.859	965.86
623.275	959.64
623.691	964.3
624.108	973.95
624.524	984.3
624.94	983.09
625.356	991.06
625.772	1000.7
626.188	1009.74
626.604	1010.93
627.02	1007.36
627.436	1006.27
627.852	1010.97
628.268	1019.98
628.683	1013.61
629.099	1007.24
629.514	1004.16
629.93	1006.97
630.345	1010.06
630.761	1005.84
631.176	1008.21
631.591	1004.81
632.007	1000.26
632.422	998.15
632.837	988.26
633.252	984.93
633.667	974.99
634.082	967.12
634.497	955.67
634.911	940.48
635.326	936.36
635.741	922.31
636.155	912.58
636.57	911.44
636.984	909.18
637.399	908.76
637.813	906.53
638.228	903.64
638.642	904.69
639.056	894.21
639.47	891.78
639.884	884.27
640.298	876.64
640.712	873.36
641.126	862.11
641.54	853.09
641.954	846.88
642.368	836.31
642.781	831.08
643.195	816.51
643.609	816.66
644.022	810.81
644.436	806.33
644.849	797.07
645.262	787.22
645.676	786.7
646.089	782.94
646.502	771.97
646.915	767.42
647.328	754.19
647.741	753.28
648.154	743.69
648.567	741.82
648.98	731.88
649.393	732.3
649.805	730.27
650.218	724.86
650.631	714.52
651.043	710.76
651.456	706.97
651.868	706.93
652.28	718.39
652.693	728.09
653.105	732.25
653.517	740.56
653.929	740.94
654.341	745.71
654.753	738.6
655.165	743.48
655.577	741.86
655.989	739.95
656.401	735.75
656.813	711.88
657.224	697.8
657.636	678.58
658.047	666.99
658.459	654.84
658.87	648.56
659.282	640.73
659.693	628.21
660.104	619.97
660.515	611.35
660.926	610.71
661.338	609.56
661.749	607.13
662.159	602.81
662.57	599.49
662.981	597.87
663.392	594.71
663.803	599.55
664.213	598.5
664.624	596.18
665.035	599.7
665.445	591.52
665.855	587.92
666.266	585.23
666.676	585.4
667.086	581.8
667.497	583.12
667.907	580.27
668.317	573.97
668.727	573.62
669.137	575.65
669.547	576.07
669.956	580.08
670.366	583.63
670.776	585.07
671.186	589.54
671.595	594.01
672.005	596.84
672.414	597.8
672.824	598.79
673.233	604.09
673.642	607.25
674.052	610.92
674.461	613.81
674.87	618.22
675.279	617.52
675.688	620.43
676.097	622.68
676.506	621.9
676.915	635.49
677.323	639.53
677.732	639.15
678.141	639.31
678.549	632.01
678.958	632.32
679.366	632.04
679.775	636.54
680.183	644.97
680.592	648.82
681	654.6
681.408	647.78
681.816	653.14
682.224	657.66
682.632	666.9
683.04	689.68
683.448	707.24
683.856	730.42
684.264	755.33
684.671	778.43
685.079	806.87
685.487	837.37
685.894	882.81
686.302	918.22
686.709	947.61
687.116	980.43
687.524	1005.07
687.931	1028.66
688.338	1048.49
688.745	1066.49
689.152	1085.29
689.559	1116.39
689.966	1146.8
690.373	1160.38
690.78	1190.99
691.187	1241.36
691.593	1279
692	1314.81
692.407	1365.33
692.813	1427.71
693.22	1479.31
693.626	1533.87
694.032	1579.28
694.439	1646.48
694.845	1703.04
695.251	1773.12
695.657	1836.33
696.063	1928.74
696.469	2000.11
696.875	2070.48
697.281	2115.97
697.687	2169.68
698.093	2215.87
698.498	2293.92
698.904	2358.16
699.31	2448.92
699.715	2518.31
700.12	2613.29
700.526	2642.38
700.931	2719.05
701.337	2780.19
701.742	2825.46
702.147	2915.79
702.552	2959.49
702.957	3029.78
703.362	3062.64
703.767	3104.9
704.172	3155.45
704.577	3124.62
704.981	3182.79
705.386	3212.38
705.791	3217.32
706.195	3299.79
706.6	3321.88
707.004	3409.24
707.408	3391.75
707.813	3429.58
708.217	3429.19
708.621	3443.96
709.025	3549.86
709.43	3562.59
709.834	3633.74
710.237	3715.98
710.641	3715.03
711.045	3749.02
711.449	3757.63
711.853	3800.16
712.256	3854.51
712.66	3904.91
713.064	3992.68
713.467	4048.88
713.87	4174.4
714.274	4235.22
714.677	4358.5
715.08	4533.86
715.484	4717.55
715.887	4939.56
716.29	5159.64
716.693	5387.15
717.096	5649.07
717.499	5798.68
717.901	5835.49
718.304	5878.59
718.707	5913.12
719.109	5815.77
719.512	5797.43
719.915	5665.69
720.317	5614.43
720.719	5665.61
721.122	5647.77
721.524	5603
721.926	5567.22
722.328	5683.71
722.731	5681.42
723.133	5722.97
723.535	5938.95
723.937	5965.44
724.338	6032.52
724.74	6086.03
725.142	6010.91
725.544	6012.67
725.945	6048.89
726.347	6052.97
726.748	6054.25
727.15	6076.62
727.551	6040.28
727.952	6016.41
728.354	5993.84
728.755	5996.59
729.156	5957.8
729.557	5967.92
729.958	5842.9
730.359	5790.3
730.76	5774.69
731.161	5712.06
731.562	5691.88
731.962	5698.9
732.363	5631.86
732.763	5567.15
733.164	5612.94
733.564	5541.73
733.965	5438.46
734.365	5404.27
734.766	5437.55
735.166	5398.86
735.566	5340.78
735.966	5312.78
736.366	5311.75
736.766	5248.26
737.166	5285.08
737.566	5242.12
737.966	5216.08
738.365	5261.15
738.765	5257.16
739.165	5174.68
739.564	5146.22
739.964	5201.04
740.363	5149.84
740.763	5146.73
741.162	5134.91
741.561	5101.02
741.96	5049.3
742.36	5072.44
742.759	5079.83
743.158	5123.63
743.557	5142.17
743.955	5187.36
744.354	5135.69
744.753	5203.86
745.152	5158.93
745.55	5220.49
745.949	5213.03
746.348	5216.32
746.746	5237.35
747.144	5192.58
747.543	5167.07
747.941	5222.16
748.339	5146.78
748.737	5138.91
749.136	5127.73
749.534	5201.92
749.932	5171.55
750.33	5199.18
750.727	5260.77
751.125	5234.36
751.523	5219.23
751.921	5267.7
752.318	5230.87
752.716	5294.8
753.113	5313.01
753.511	5342.61
753.908	5341.2
754.305	5322.5
754.703	5388.73
755.1	5457.56
755.497	5522.6
755.894	5735.77
756.291	5932.61
756.688	6295.84
757.085	6782.9
757.482	7463.4
757.878	8207.64
758.275	8881.62
758.672	9810.71
759.068	10567.33
759.465	11644.47
759.861	13037.92
760.258	14645.28
760.654	15483.58
761.05	15362.19
761.447	14658.17
761.843	13646.66
762.239	12602.06
762.635	12133.96
763.031	11677.06
763.427	11027.16
763.822	10343.41
764.218	9664.07
764.614	8780.44
765.01	8186.6
765.405	7804.59
765.801	7513.41
766.196	7145
766.592	6939.05
766.987	6591.11
767.382	6358.6
767.778	6258.84
768.173	6114.58
768.568	6032.56
768.963	5894.72
769.358	5917.15
769.753	5865.15
770.148	5772
770.542	5768.49
770.937	5731.22
771.332	5833.77
771.726	5854.02
772.121	5781.73
772.515	5840.27
772.91	5823.27
773.304	5900.18
773.699	5827.01
774.093	5885.14
774.487	5948.76
774.881	5998.33
775.275	5993.96
775.669	5946.62
776.063	5994.62
776.457	6037.47
776.851	5955.66
777.245	5948.34
777.638	5988.06
778.032	6118.18
778.425	6080.34
778.819	6124.3
779.212	6077.42
779.606	6037.67
779.999	6059.66
780.392	6042.38
780.786	6133.03
781.179	6155.19
781.572	6204.59
781.965	6218.25
782.358	6151.48
782.751	6210.43
783.143	6162.02
783.536	6244.38
783.929	6289.25
784.322	6414.39
784.714	6446.73
785.107	6444.37
785.499	6524.99
785.891	6500.12
786.284	6479.34
786.676	6637.28
787.068	6618.85
787.46	6672.72
787.852	6692.32
788.245	6788.6
788.636	6823.13
789.028	6900.33
789.42	6941.91
789.812	6951.17
790.204	7057.98
790.595	7166.37
790.987	6945.89
791.378	6972.1
791.77	7118.49
792.161	7269.58
792.553	7328.45
792.944	7202.49
793.335	7124.04
793.726	7203.07
794.117	7303.18
794.508	7451.52
794.899	7417.68
795.29	7576.31
795.681	7638.18
796.072	7480.25
796.463	7270.51
796.853	7279.58
797.244	7452.5
797.634	7491.24
798.025	7490.41
798.415	7501.09
798.806	7597.49
799.196	7692.17
799.586	7743.89
799.976	7699.3
800.366	7954.85
800.756	8218.95
801.146	8175.89
801.536	8205.33
801.926	8281.03
802.316	8307.8
802.706	8381.09
803.095	8248.36
803.485	8357.63
803.874	8407.8
804.264	8694.29
804.653	8657.98
805.043	8817.91
805.432	8935.06
805.821	8934.1
806.21	8959.93
806.599	9086.4
806.988	9140.3
807.377	9255.65
807.766	9402.73
808.155	9713.64
808.544	9421.67
808.933	9440.03
809.321	9418.78
809.71	9746.89
810.098	9927.16
810.487	10435.86
810.875	10965.56
811.264	10986.7
811.652	11303.83
812.04	11459.24
812.428	11631.96
812.816	12470.63
813.204	12923.87
813.592	13530.73
813.98	13900.37
814.368	13798.51
814.756	14324.57
815.144	14240.97
815.531	14753.8
815.919	14670.33
816.306	15008.43
816.694	14668.23
817.081	14725.79
817.469	15110.28
817.856	15107.55
818.243	15400.91
818.63	15822.22
819.017	15358.63
819.404	15424.32
819.791	15848.23
820.178	16529.95
820.565	16800.94
820.952	17822.24
821.339	17281.45
821.725	17485.57
822.112	16670.58
822.498	16623.08
822.885	16770.2
823.271	16668.14
823.657	17135.68
824.044	17138.18
824.43	17208.42
824.816	17171.11
825.202	16694.71
825.588	17807.96
825.974	17822.84
826.36	18391.13
826.746	18422.74
827.132	18801.48
827.517	18774.94
827.903	17913.21
828.289	17955.82
828.674	17111.3
829.06	16998.07
829.445	17432.33
829.83	17833.46
830.216	18353.58
830.601	18746.39
830.986	18304.66
831.371	18160.77
831.756	18768.64
832.141	18293.3
832.526	18287.75
832.911	18596.98
833.295	18470.52
833.68	18988.89
834.065	18298.85
834.449	17302.92
834.834	17225.71
835.218	17218.37
835.603	17589.88
835.987	17357.78
836.371	18267.67
836.755	18159.57
837.139	18594.51
837.524	18856.14
837.908	18659.98
838.291	18727.72
838.675	18804.64
839.059	19039.04
839.443	19032.26
839.827	18787.22
840.21	19312.17
840.594	19146.81
840.977	19362.92
841.361	19348.5
841.744	19761.23
842.127	19596.23
842.511	19875.62
842.894	20523.05
843.277	20934.54
843.66	21529.53
844.043	21614.33
844.426	20734.67
844.809	20409.26
845.191	20453.54
845.574	19944.34
845.957	19552.34
846.339	19425.99
846.722	18848.78
847.104	18931.52
847.487	18745.14
847.869	18759.18
848.252	19070.17
848.634	19433.92
849.016	19711.73
849.398	19846.47
849.78	20783.43
850.162	20780.38
850.544	21240.69
850.926	21929.11
851.307	21830.5
851.689	22142.19
852.071	22643.33
852.452	23000.25
852.834	22986.86
853.215	23418.78
853.597	23586.37
853.978	23901.17
854.359	24416.92
854.741	23329.16
855.122	23220.1
855.503	22900.9
855.884	23045.34
856.265	22981.74
856.646	23100.35
857.026	22666.05
857.407	22604.85
857.788	22772.93
858.169	23093.22
858.549	22158.75
858.93	22844.89
859.31	22900.19
859.69	23130.3
860.071	22680.55
860.451	22433.69
860.831	21637.18
861.211	22901.76
861.591	23510.51
861.971	23496.92
862.351	23707.89
862.731	24128.88
863.111	24413.78
863.491	24775.41
863.87	25745
864.25	26132.81
864.629	25700.07
865.009	26251.05
865.388	27186.25
865.768	29120.81
866.147	28995.97
866.526	27383.43
866.905	27705.61
867.284	29263.85
867.663	27783.22
868.042	26613.36
868.421	26532.3
868.8	26975.23
869.179	27240.88
869.558	25648.89
869.936	23639.63
870.315	24060.14
870.693	24648.15
871.072	26577.21
871.45	25315.73
871.828	25628.96
872.207	26951.05
872.585	26524.12
872.963	27237.64
873.341	26298.05
873.719	25990.63
874.097	25671.83
874.475	26158.78
874.853	26763.71
875.23	25650.89
875.608	26713.05
875.986	28892.2
876.363	27622.76
876.741	28469.75
877.118	27743.94
877.495	29109.87
877.873	29586.87
878.25	31148.19
878.627	29880.43
879.004	30297.95
879.381	30156.69
879.758	29363.72
880.135	27344.45
880.512	28909.32
880.889	28150.53
881.265	27862.84
881.642	27626.59
882.019	28098.61
882.395	27523.07
882.772	28618.33
883.148	27367.05
883.524	27255.29
883.901	27102.3
884.277	27518.01
884.653	27361.77
885.029	28145.03
885.405	31176.8
885.781	30937.46
886.157	29660.71
886.532	30030.15
886.908	30010.99
887.284	33384.55
887.659	34482.56
888.035	35562.95
888.411	36486.19
888.786	36945.91
889.161	38228.77
889.537	37521.95
889.912	38733.43
890.287	38701.19
890.662	39698.78
891.037	38978.3
891.412	36343.62
891.787	35980.42
892.162	34724.35
892.536	35526.91
892.911	34203.18
893.286	33487.56
893.66	32140.58
894.035	32953.55
894.409	35886.88
894.784	34444.71
895.158	35017.51
895.532	37096.48
895.906	38100.69
896.281	39001.78
896.655	38375.33
897.029	43865.18
897.402	45674.67
897.776	50855.49
898.15	50699.47
898.524	50156.14
898.898	50804.15
899.271	56889.15
899.645	49278.04
900.018	47355.38
900.392	49127.58
900.765	49547.05
901.138	45841.49
901.511	45184.65
901.884	41476.25
902.258	38253.44
902.631	39523.27
903.003	45486.85
903.376	41054.82
903.749	46021.4
904.122	49240.49
904.495	54200.56
904.867	54869.72
905.24	47639.58
905.612	44313.22
905.985	45334.06
906.357	47415.35
906.729	45273.03
907.102	38681.16
907.474	37188.12
907.846	37428.16
908.218	36952.84
908.59	32642.59
908.962	31569.6
909.334	33992.97
909.705	35706.1
910.077	34650.09
910.449	36036.66
910.82	37038.31
911.192	40756.26
911.563	42319.7
911.935	45274.44
912.306	45303.75
912.677	46780.78
913.048	46291.71
913.419	50220.31
913.79	50516.93
914.161	54149.31
914.532	51730.83
914.903	47524.7
915.274	45114.56
915.645	44449.71
916.015	39110.74
916.386	37284.35
916.756	39659.76
917.127	40904.85
917.497	36523.11
917.868	39729.98
918.238	37747.59
918.608	38844.51
918.978	39630.57
919.348	41984.33
919.718	43388.59
920.088	41809.08
920.458	43443.7
920.828	45741.08
921.198	43375.67
921.567	46343.32
921.937	35903.39
922.306	36256.32
922.676	39107.23
923.045	32630.26
923.415	30990.48
923.784	28226.97
924.153	29021.64
924.522	28997.31
924.891	27250.18
925.26	29186.81
925.629	28501.41
925.998	32741.45
926.367	31949.04
926.736	30426.11
927.104	36243.15
927.473	38994.27
927.842	47120.17
928.21	46668.75
928.578	49054.63
928.947	46377.81
929.315	46665.3
929.683	54742.9
930.051	55157.97
930.42	64071.28
930.788	54783.95
931.156	54401.83
931.523	50931.49
931.891	47031.19
932.259	45157.72
932.627	52313.27
932.994	74031.22
933.362	61155.38
933.729	53125.9
934.097	50902.98
934.464	43082.66
934.831	49705.77
935.199	48993.83
935.566	47544.98
935.933	48159.13
936.3	58375.54
936.667	45454.3
937.034	40984.54
937.401	40552.96
937.767	34995.24
938.134	31149.17
938.501	43908.61
938.867	46796.87
939.234	79099.19
939.6	67454.22
939.967	74395.83
940.333	49774.45
940.699	42379.89
941.065	34056.01
941.431	44676.09
941.798	43050.14
942.163	56509.38
942.529	35332.06
942.895	32503.66
943.261	21033.02
943.627	27599.09
943.992	24152.4
944.358	24196.04
944.723	24276.25
945.089	23665.43
945.454	21857.33
945.82	23347.39
946.185	22429.79
946.55	25982.53
946.915	23322.24
947.28	27349.47
947.645	24088.14
948.01	22228.72
948.375	23176.05
948.74	27787.04
949.104	32424.11
949.469	46807.11
949.834	82749.62
950.198	78498.13
950.562	47085.81
950.927	39185.44
951.291	47149.9
951.655	40177.49
952.02	37739.23
952.384	28522.58
952.748	24840.39
953.112	24193.2
953.476	21058.49
953.839	19457.99
954.203	19261.55
954.567	24084.16
954.931	37952.41
955.294	32490.01
955.658	32657.16
956.021	55538.74
956.385	94199.77
956.748	138986.58
957.111	215527.44
957.474	241974.2
957.837	272419.94
958.2	206222.28
958.563	74220.9
958.926	50175.03
959.289	76086.57
959.652	85059.23
960.015	63856.74
960.377	91698.19
960.74	104760.32
961.102	181108.93
961.465	194416.99
961.827	104045.41
962.189	199440.11
962.552	138189.2
962.914	110859.63
963.276	71982.57
963.638	59515.45
964	58942.11
964.362	39798.84
964.724	38453.81
965.085	27393.07
965.447	22458.8
965.809	25625.35
966.17	25662.49
966.532	27768.31
966.893	25487.2
967.255	23167.78
967.616	27350.48
967.977	21881.77
968.338	23927.22
968.699	19634.76
969.061	19663.79
969.421	19783.88
969.782	22210.71
970.143	18753.24
970.504	19418.97
970.865	22047.9
971.225	22525.35
971.586	22005.64
971.946	31403.53
972.307	27222.99
972.667	35604.82
973.027	36633.05
973.388	44440.51
973.748	30202.88
974.108	32908.86
974.468	44513.84
974.828	34297.29
975.188	26420.21
975.548	24284.28
975.907	20385.24
976.267	22886.56
976.627	19234.65
976.986	19946.02
977.346	19018.33
977.705	18302.95
978.064	16678.11
978.424	13873.02
978.783	14373.83
979.142	16412.74
979.501	15702.92
979.86	16571.21
980.219	15944.26
980.578	20556.64
980.937	23019.56
981.296	20500.69
981.654	21080.41
982.013	32829.41
982.371	42606.56
982.73	39741.3
983.088	44959.61
983.447	48033.2
983.805	68748.11
984.163	143878.75
984.521	159891.87
984.879	234348.35
985.237	-381461.82
985.595	368056.06
985.953	91313.51
986.311	52764.52
986.669	30631.1
987.026	26471.04
987.384	35557.49
987.741	36811.5
988.099	26277.37
988.456	20916.51
988.814	19559.41
989.171	17012.55
989.528	16802.52
989.885	17789.65
990.242	14084.84
990.599	17580.47
990.956	14377.05
991.313	10056.63
991.67	8242.41
992.027	8733.57
992.383	7772.95
992.74	6818.47
993.096	7148.23
993.453	7406.09
993.809	7667.07
994.165	10221.12
994.522	9355.11
994.878	10317.19
995.234	12975.28
995.59	12813.46
995.946	12145.8
996.302	13837.81
996.658	16002.22
997.013	17615.42
997.369	20877.16
997.725	26730
998.08	17299.2
998.436	26696.19
998.791	36850.13
999.147	36710.55
999.502	39989.63
999.857	29081.25
1000.212	47496.31
1000.567	67625
1000.922	39053.94
1001.277	24781.47
1001.632	18371.17
1001.987	23681.36
1002.342	16967.75
1002.696	13537.03
1003.051	10802.43
1003.406	13097.83
1003.76	13042.59
1004.114	12846.19
1004.469	10804.89
1004.823	8954.72
1005.177	9671.28
1005.531	7672.44
1005.885	6811.8
1006.239	7678.58
1006.593	9638.57
1006.947	12898.83
1007.301	9683.28
1007.655	10550.46
1008.008	7729.2
1008.362	8679.69
1008.715	12351.45
1009.069	11248.12
1009.422	16895.7
1009.776	33820.78
1010.129	22534.43
1010.482	18825.8
1010.835	15925.79
1011.188	33165.02
1011.541	31204.77
1011.894	-191399.75
1012.247	563058.52
1012.6	38354.26
1012.952	24122.35
1013.305	12421.75
1013.657	8955.35
1014.01	8443.86
1014.362	6966.4
1014.715	6183.56
1015.067	5356.54
1015.419	5244.34
1015.771	4631.14
1016.123	4122.71
1016.475	4239.67
1016.827	4523.48
1017.179	4864.99
1017.531	4915.72
1017.883	5024.39
1018.234	4845.53
1018.586	6112.6
1018.938	6480.23
1019.289	8918.34
1019.64	10232.98
1019.992	9531.12
1020.343	8721.42
1020.694	6887.95
1021.045	6109.99
1021.396	6958.87
1021.747	7459.05
1022.098	8947.77
1022.449	6481.49
1022.8	6006.78
1023.151	4182.32
1023.501	3700.2
1023.852	4025.41
1024.202	4174.33
1024.553	4595.21
1024.903	4458.77
1025.253	3816.63
1025.604	3432.78
1025.954	4276.44
1026.304	5222.96
1026.654	6087.51
1027.004	8944.53
1027.354	14441.06
1027.703	13611
1028.053	17952.28
1028.403	25911.04
1028.753	37627.36
1029.102	51074.7
1029.452	262788.46
1029.801	11291.21
1030.15	7287.22
1030.499	6198.23
897.758	2321.42
901.051	2263.19
904.343	2299.67
907.636	2305.94
910.928	2367.52
914.22	2281.76
917.511	2286.38
920.803	2341.3
924.094	2343.14
927.384	2339.64
930.675	2302.78
933.965	2265.48
937.255	2288.53
940.544	2250.54
943.834	2240.14
947.123	2176.92
950.411	2269.48
953.7	2247.6
956.988	2227.16
960.276	2167.42
963.563	2224.33
966.851	2232.74
970.138	2279.89
973.424	2279.33
976.711	2235.93
979.997	2301.54
983.283	2348.07
986.568	2272.74
989.853	2271.41
993.138	2298.53
996.423	2381.47
999.708	2335.11
1002.992	2369.3
1006.275	2263.68
1009.559	2277.91
1012.842	2377.94
1016.125	2325.82
1019.408	2306.74
1022.69	2370.65
1025.972	2398.3
1029.254	2373.18
1032.536	2329.06
1035.817	2343.43
1039.098	2309.16
1042.379	2384.77
1045.659	2407.63
1048.939	2353.18
1052.219	2363.48
1055.498	2361.85
1058.778	2356.42
1062.057	2336.3
1065.335	2359.69
1068.614	2372.51
1071.892	2365.77
1075.17	2427.1
1078.447	2425.1
1081.724	2417.79
1085.001	2447.03
1088.278	2424.08
1091.554	2433.2
1094.83	2427.38
1098.106	2463.57
1101.382	2494.84
1104.657	2497.86
1107.932	2493.9
1111.206	2469.23
1114.481	2424.9
1117.755	2427.12
1121.029	2416.88
1124.302	2475.01
1127.575	2438.81
1130.848	2434.09
1134.121	2397.18
1137.393	2359.78
1140.665	2418.04
1143.937	2398.41
1147.208	2348.87
1150.48	2400.96
1153.75	2388.78
1157.021	2401.5
1160.291	2377.21
1163.561	2425.03
1166.831	2399.66
1170.101	2427.51
1173.37	2393.64
1176.639	2347.71
1179.907	2395.64
1183.176	2414.86
1186.444	2416.82
1189.711	2444.98
1192.979	2462.5
1196.246	2416.47
1199.513	2430.44
1202.78	2435.28
1206.046	2446.3
1209.312	2471.37
1212.578	2491.43
1215.843	2453.04
1219.108	2421.67
1222.373	2447.02
1225.638	2414.04
1228.902	2406.32
1232.166	2365.71
1235.43	2354.64
1238.693	2374.3
1241.956	2370.43
1245.219	2412.72
1248.482	2399.24
1251.744	2396.38
1255.006	2528.56
1258.268	2477.82
1261.529	2430.23
1264.79	2430.05
1268.051	2533.02
1271.312	2542.67
1274.572	2514.11
1277.832	2499
1281.092	2488.56
1284.351	2472.32
1287.61	2456.95
1290.869	2384.28
1294.128	2374.51
1297.386	2436.58
1300.644	2427.42
1303.902	2436.07
1307.159	2303.45
1310.416	2355
1313.673	2383.17
1316.93	2373.84
1320.186	2408.65
1323.442	2445.28
1326.697	2441.29
1329.953	2420.83
1333.208	2452.07
1336.463	2430.61
1339.717	2384.01
1342.972	2494.08
1346.226	2470.22
1349.479	2413.71
1352.733	2390.53
1355.986	2402.17
1359.238	2381.3
1362.491	2386.41
1365.743	2387.39
1368.995	2376.83
1372.247	2390.58
1375.498	2412.5
1378.749	2447.92
1382	2399.43
1385.251	2441
1388.501	2394.92
1391.751	2389.53
1395	2355.17
1398.25	2384.88
1401.499	2401.01
1404.748	2345.71
1407.996	2324.38
1411.244	2312.79
1414.492	2294.78
1417.74	2274.86
1420.987	2280.24
1424.234	2337.55
1427.481	2307.26
1430.728	2365.37
1433.974	2337.98
1437.22	2341.56
1440.465	2339.72
1443.711	2327.29
1446.956	2354.14
1450.201	2331.84
1453.445	2375.39
1456.689	2361.12
1459.933	2374.64
1463.177	2410.4
1466.42	2382.32
1469.663	2365.96
1472.906	2375.39
1476.148	2426.83
1479.391	2413.88
1482.633	2385.08
1485.874	2406.38
1489.115	2407.73
1492.356	2398.24
1495.597	2376.05
1498.838	2374.15
1502.078	2354.91
1505.318	2320.11
1508.557	2355.34
1511.797	2352.31
1515.036	2385.82
1518.274	2368.39
1521.513	2328.1
1524.751	2340.95
1527.989	2363.89
1531.227	2379.86
1534.464	2387.03
1537.701	2386.99
1540.938	2401.23
1544.174	2352.62
1547.41	2344.45
1550.646	2384.22
1553.882	2428.77
1557.117	2485.98
1560.352	2497.16
1563.587	2456.49
1566.821	2422.96
1570.055	2442.51
1573.289	2422.86
1576.523	2485.83
1579.756	2498.44
1582.989	2519.18
1586.222	2479.94
1589.454	2512.49
1592.686	2493.82
1595.918	2521.27
1599.15	2515.82
1602.381	2569.86
1605.612	2544.09
1608.843	2639.92
1612.073	2563.34
1615.303	2547.32
1618.533	2543.74
1621.762	2542.99
1624.992	2520.2
1628.221	2517.04
1631.449	2504.51
1634.678	2539.38
1637.906	2506.32
1641.134	2537.58
1644.361	2500.13
1647.588	2485.65
1650.815	2508.74
1654.042	2476.34
1657.269	2505.6
1660.495	2476.41
1663.72	2472.41
1666.946	2439.33
1670.171	2405.26
1673.396	2377.68
1676.621	2360.87
1679.845	2365.67
1683.069	2377.3
1686.293	2409.59
1689.517	2395.76
1692.74	2340.84
1695.963	2364.23
1699.185	2398.72
1702.408	2372.33
1705.63	2404.24
1708.852	2419.3
1712.073	2392.1
1715.294	2394.43
1718.515	2441.93
1721.736	2399.02
1724.956	2381.75
1728.176	2404.38
1731.396	2426.01
1734.616	2411.74
1737.835	2446.52
1741.054	2420.29
1744.272	2411.15
1747.491	2446.24
1750.709	2479.87
1753.927	2416.49
1757.144	2446.92
1760.361	2499.07
1763.578	2478.59
1766.795	2427.76
1770.011	2421.78
1773.227	2448.34
1776.443	2488.52
1779.658	2533.91
1782.874	2474.8
1786.089	2461.86
1789.303	2464.4
1792.518	2462.11
1795.732	2447.87
1798.945	2464.06
1802.159	2506.15
1805.372	2436.05
1808.585	2429.81
1811.797	2430.45
1815.01	2458.38
1818.222	2475.71
1821.434	2440.1
1824.645	2486.2
1827.856	2491.63
1831.067	2527.14
1834.278	2465.34
1837.488	2451.92
1840.698	2580.29
1843.908	2518.12
1847.117	2484.48
1850.326	2397.87
1853.535	2470.62
1856.744	2502.14
1859.952	2419.07
1863.16	2419.09
1866.368	2431.39
1869.575	2542.77
1872.782	2427.25
1875.989	2361.76
1879.196	2419.22
1882.402	2408.94
1885.608	2445.21
1888.814	2372.93
1892.019	2276.12
1895.224	2328.93
1898.429	2300.36
1901.634	2283.1
1904.838	2258.56
1908.042	2308.06
1911.246	2319.36
1914.449	2273.37
1917.652	2258.88
1920.855	2239.8
1924.058	2273.58
1927.26	2315.57
1930.462	2339.66
1933.664	2371.28
1936.865	2316.05
1940.066	2327.59
1943.267	2274.07
1946.467	2285.4
1949.668	2307.05
1952.868	2378.34
1956.067	2364.24
1959.267	2302.61
1962.466	2326.61
1965.665	2310.44
1968.863	2306.23
1972.061	2310.11
1975.259	2307.26
1978.457	2383.78
1981.654	2343.46
1984.852	2345.96
1988.048	2291.98
1991.245	2283.63
1994.441	2370.58
1997.637	2337.9
2000.833	2320.95
2004.028	2356.33
2007.223	2417.55
2010.418	2401.11
2013.613	2355.31
2016.807	2342.94
2020.001	2341.39
2023.194	2370.72
2026.388	2354.94
2029.581	2298.57
2032.774	2354.59
2035.966	2362.54
2039.158	2305.45
2042.35	2327.03
2045.542	2253.64
2048.733	2342.76
2051.924	2343.36
2055.115	2362.34
2058.306	2319.9
2061.496	2375.58
2064.686	2428.56
2067.875	2342.43
2071.065	2348.49
2074.254	2367.41
2077.442	2320.41
2080.631	2406.01
2083.819	2323.85
2087.007	2317.06
2090.195	2296.44
2093.382	2318.16
2096.569	2300.34
2099.756	2260.69
2102.942	2299.24
2106.128	2311.93
2109.314	2303.75
2112.5	2282.01
2115.685	2252.82
2118.87	2260.83
2122.055	2320.25
2125.239	2296.91
2128.424	2282.33
2131.608	2353.73
2134.791	2339.53
2137.974	2382.46
2141.157	2370.09
2144.34	2335.36
2147.523	2334.02
2150.705	2356.35
2153.887	2328.98
2157.068	2295.04
2160.25	2285.42
2163.431	2308.62
2166.611	2270.49
2169.792	2289.04
2172.972	2195.42
2176.152	2253.08
2179.331	2283.72
2182.511	2279.98
2185.69	2303.99
2188.868	2305.09
2192.047	2345.5
2195.225	2350.95
2198.403	2304.81
2201.58	2294.32
2204.758	2283.14
2207.935	2361.03
2211.111	2269.53
2214.288	2256.2
2217.464	2291.43
2220.64	2251.98
2223.815	2304.09
2226.991	2233.8
2230.166	2250.08
2233.34	2286.93
2236.515	2302.31
2239.689	2368.24
2242.863	2316.38
2246.036	2369.09
2249.209	2357.86
2252.382	2383.22
2255.555	2385.94
2258.727	2330.86
2261.9	2361.72
2265.071	2353.97
2268.243	2352.67
2271.414	2298.12
2274.585	2274.31
2277.756	2335.38
2280.926	2294.4
2284.096	2326.25
2287.266	2248.04
2290.436	2295.91
2293.605	2320.39
2296.774	2355.6
2299.942	2363.7
2303.111	2381.23
2306.279	2431.05
2309.447	2415.44
2312.614	2389.57
2315.781	2411.22
2318.948	2385.46
2322.115	2423.34
2325.281	2323.71
2328.447	2333.74
2331.613	2305.63
2334.779	2293.13
2337.944	2289.25
2341.109	2289.89
2344.274	2279.88
2347.438	2246.8
2350.602	2268.56
2353.766	2281.12
2356.929	2269.18
2360.092	2309.1
2363.255	2273.35
2366.418	2231.93
2369.58	2311.82
2372.742	2163
2375.904	2163.94
2379.066	2145.36
2382.227	2174.81
2385.388	2134.62
2388.548	2076.97
2391.709	2121.62
2394.869	2107.27
2398.029	2175.64
2401.188	2175.12
2404.347	2130.17
2407.506	2224.7
2410.665	2260.57
2413.823	2251.74
2416.981	2223.01
2420.139	2247.7
2423.296	2293.55
2426.453	2266.48
2429.61	2286.76
2432.767	2247.5
2435.923	2287.62
2439.079	2239.39
2442.235	2278.99
2445.391	2218.13
2448.546	2257.37
2451.701	2296.01
2454.855	2283.48
2458.009	2316.63
2461.163	2310.68
2464.317	2281.49
2467.471	2308.43
2470.624	2341
2473.777	2322.84
2476.929	2339.17
2480.082	2362.5
2483.234	2332.37
2486.385	2277.58
2489.537	2271.76
2492.688	2253.17
2495.839	2267.88
2498.989	2281.95
2502.14	2266.79
2505.29	2256.47
2508.439	2281.58
2511.589	2215.88
2514.738	2219.27
2517.887	2245.47
2521.035	2315.63
2524.183	2284.78
2527.331	2271.97
2530.479	2261.89
2533.627	2266.07
