Data from N_2_DIV_PA_2N_Splice17_12-39-20-726.txt Node
Date: Sat Mar 14 12:39:20 EDT 2020
User: sa697716
Spectrometer: FLMS03696
Trigger mode: 0
Integration Time (sec): 3.180400E-1
Scans to average: 20
Electric dark correction enabled: true
Nonlinearity correction enabled: true
Boxcar width: 5
XAxis mode: Wavelengths
Number of Pixels in Spectrum: 2048
>>>>>Begin Spectral Data<<<<<
187.83	-261853.35
188.298	1999.11
188.766	1104.88
189.233	969.23
189.701	1296.23
190.169	1915.23
190.636	668.21
191.104	467.36
191.571	-24.31
192.039	-148.26
192.506	-178.86
192.974	499.43
193.441	-746.04
193.908	-329.27
194.375	-125.42
194.842	-114.23
195.31	-19.24
195.777	119.13
196.244	342.71
196.711	447.51
197.177	586.09
197.644	863.78
198.111	1529.38
198.578	2179.54
199.045	1775.83
199.511	2920.67
199.978	3397.98
200.445	2908.09
200.911	3243.96
201.378	3631.33
201.844	3296.52
202.31	5607.8
202.777	5860.78
203.243	3252.16
203.709	3078.6
204.176	3669.69
204.642	3045.79
205.108	2836.7
205.574	2295
206.04	2083.86
206.506	1947.67
206.972	1838.39
207.438	1799.39
207.903	2030.94
208.369	1780.81
208.835	1765.41
209.301	1838.74
209.766	1857.94
210.232	1856.06
210.697	2309.96
211.163	2836.93
211.628	4277.74
212.094	3558.05
212.559	4370.9
213.024	2722.43
213.49	3311.44
213.955	3225.86
214.42	3147.12
214.885	2929.73
215.35	2789.78
215.815	2670.59
216.28	2823.78
216.745	2283.65
217.21	2476.47
217.675	2250.72
218.14	2512.11
218.604	2765.48
219.069	3138.42
219.534	3291.67
219.998	3801.94
220.463	4569.66
220.927	5570.59
221.392	5227.33
221.856	5279.36
222.32	6597.19
222.785	8117.25
223.249	10175.69
223.713	11352.12
224.177	11352.18
224.642	14475.44
225.106	17756.64
225.57	19402.34
226.034	14429.31
226.497	21914.08
226.961	19811.28
227.425	23086.49
227.889	25548.63
228.353	25530.55
228.816	52625.48
229.28	50380.12
229.744	42449.91
230.207	25837.97
230.671	25368.82
231.134	41894.59
231.597	48273.33
232.061	48174.69
232.524	46923.5
232.987	32338.17
233.45	29083.16
233.914	26085.95
234.377	26648.12
234.84	24390.24
235.303	28705.54
235.766	32028.27
236.229	33113.44
236.691	20864.84
237.154	23407.86
237.617	17599.45
238.08	18018
238.542	21103.52
239.005	15102.16
239.468	14991.69
239.93	14116.27
240.393	12827.96
240.855	11262.39
241.317	11514.03
241.78	13981.64
242.242	14452.23
242.704	15633.46
243.166	13606.83
243.629	12353.72
244.091	14229.05
244.553	15588.61
245.015	16749.99
245.477	21682.31
245.939	31770.11
246.4	33734.25
246.862	32794.9
247.324	30920.47
247.786	34550.5
248.247	45255.85
248.709	46712.26
249.17	34898.16
249.632	32908.87
250.093	38184.22
250.555	32942.48
251.016	20112.64
251.477	19085.79
251.939	20586.06
252.4	21580.25
252.861	25669.6
253.322	23907.29
253.783	28424.45
254.244	36836.58
254.705	29006.96
255.166	25800.21
255.627	25385.57
256.088	35772.56
256.549	37959.58
257.009	32669.64
257.47	39604.46
257.931	32202.3
258.391	24113.35
258.852	24862.37
259.312	26057.19
259.773	32196.65
260.233	27215.58
260.694	22965.79
261.154	26022.38
261.614	20900.83
262.074	18704.55
262.534	19450.84
262.994	18335.27
263.455	24418.55
263.915	20568.98
264.374	19380.3
264.834	21149.16
265.294	23407.49
265.754	24266.26
266.214	22966.86
266.673	21519.3
267.133	27166.96
267.593	26957.36
268.052	33019.97
268.512	28724.17
268.971	34624.38
269.431	37948.96
269.89	34003.57
270.349	50982.81
270.809	56853.37
271.268	51167.1
271.727	114725.37
272.186	74304.23
272.645	55732.47
273.104	40166.37
273.563	58125.25
274.022	45703.56
274.481	38942.05
274.94	30001.12
275.399	22322.83
275.857	25973.08
276.316	35138.74
276.775	31277.81
277.233	30820.94
277.692	28879.61
278.15	32705.81
278.609	33696.99
279.067	31213.9
279.525	28993.99
279.984	37468.24
280.442	45045.01
280.9	44506.99
281.358	29291
281.816	27346.82
282.274	26770.53
282.732	27660.54
283.19	27804.35
283.648	24006.17
284.106	25609.12
284.564	26039.95
285.021	24174.49
285.479	18019.19
285.937	16368.54
286.394	14402.65
286.852	14820.24
287.309	15595.33
287.767	15101.5
288.224	14377.35
288.682	15777.37
289.139	17324.16
289.596	15899.97
290.053	16523.48
290.511	20852.58
290.968	25301.48
291.425	34258.38
291.882	28551.87
292.339	24851.45
292.796	24627.15
293.252	23182.15
293.709	18432.08
294.166	16503.61
294.623	18230.58
295.079	17498.1
295.536	17585.88
295.992	15972.93
296.449	15798.59
296.905	16381.22
297.362	15717.23
297.818	16533.14
298.274	17188.43
298.731	17500.32
299.187	17330.81
299.643	18591.82
300.099	22494.59
300.555	24684.57
301.011	20635.7
301.467	19924.13
301.923	23347.34
302.379	22813.91
302.835	22421.49
303.291	22448.91
303.746	25574.12
304.202	32325.43
304.658	32446.04
305.113	21806.58
305.569	21374.05
306.024	22786.46
306.479	21692.01
306.935	18288.38
307.39	19978.83
307.845	18459.96
308.301	18606.95
308.756	18148.77
309.211	17510.44
309.666	17954.13
310.121	22344.34
310.576	22699.5
311.031	22537.67
311.486	25791.55
311.94	25839.71
312.395	34600.37
312.85	65065.93
313.305	319185.52
313.759	1655214.84
314.214	119928.42
314.668	95194.23
315.123	80112.68
315.577	28755.65
316.032	25600.49
316.486	32153.09
316.94	25387.76
317.394	17637.13
317.849	13695.01
318.303	12959.82
318.757	12229.46
319.211	13538.06
319.665	11868
320.119	12001.88
320.572	17204.52
321.026	16083.09
321.48	13373.22
321.934	14572.39
322.387	14633.73
322.841	15847.26
323.295	14269.58
323.748	16413.05
324.202	16642.63
324.655	19998.28
325.108	27999.19
325.562	19796.28
326.015	23521.81
326.468	17789.79
326.921	19891.32
327.374	18567.43
327.827	19341.02
328.28	21914.91
328.733	14701.02
329.186	12940.03
329.639	12318.7
330.092	10377.2
330.545	9888.52
330.997	9985.53
331.45	10928.46
331.903	12831.33
332.355	22059.35
332.808	21437.02
333.26	17704.1
333.713	19259.72
334.165	19416.81
334.617	25959.49
335.069	20949.74
335.522	37906.57
335.974	41932.74
336.426	38234.17
336.878	26432.97
337.33	13421.36
337.782	13113.67
338.234	16446.2
338.686	19660.15
339.137	23286.5
339.589	21935.7
340.041	17218.79
340.493	14808.53
340.944	15190.42
341.396	16406.42
341.847	13828.25
342.299	16328.91
342.75	19943.44
343.201	17408.37
343.653	20007.08
344.104	24595.51
344.555	19375.48
345.006	30141.57
345.457	23124.87
345.908	18381.16
346.359	17315.21
346.81	14094.48
347.261	14851.89
347.712	14636.33
348.163	15673.72
348.613	15908.85
349.064	14862.09
349.515	13009.64
349.965	13365.06
350.416	16071.33
350.866	17624.96
351.317	19881.59
351.767	32920
352.217	41664.9
352.668	34577.45
353.118	31755.81
353.568	30595.8
354.018	24231
354.468	25585.31
354.918	18386.36
355.368	16083.97
355.818	22764.76
356.268	65633.59
356.718	275136.48
357.168	68456.91
357.617	34409.32
358.067	38218.4
358.517	35873.04
358.966	42108.02
359.416	47312.23
359.865	51135.13
360.315	60953.02
360.764	28467.72
361.213	15968.05
361.663	15146.64
362.112	18689.87
362.561	30124.22
363.01	22764.61
363.459	19157.73
363.908	20734.43
364.357	17609.97
364.806	29719.28
365.255	20474.92
365.703	18809.33
366.152	18884.27
366.601	15340.18
367.05	12493.72
367.498	11378.59
367.947	11889.44
368.395	12366.04
368.844	10971.35
369.292	13213.26
369.74	9158.22
370.189	14009.7
370.637	16406.64
371.085	14150.21
371.533	17214.68
371.981	16600.49
372.429	15826.29
372.877	16493.77
373.325	13830.05
373.773	14104.28
374.221	12575.94
374.669	15613.18
375.116	13547.07
375.564	13706.55
376.012	15349.53
376.459	12699.15
376.907	15200.52
377.354	18472.33
377.801	17296.37
378.249	19906.73
378.696	25495.75
379.143	30969.5
379.591	33112.66
380.038	56192.76
380.485	40728.57
380.932	44127.94
381.379	40557.09
381.826	29971.77
382.273	21402.67
382.72	18792.93
383.166	18432.06
383.613	11993.44
384.06	10859.57
384.506	12619.44
384.953	9312.19
385.4	9412.11
385.846	8297.53
386.292	8106.07
386.739	7967.75
387.185	7895.69
387.631	7921.67
388.078	7715.86
388.524	8306.57
388.97	7713.26
389.416	6463.36
389.862	6902.67
390.308	6572.71
390.754	6693.92
391.2	7302.58
391.645	7515.22
392.091	7233.57
392.537	7040.38
392.983	7076.14
393.428	6989.22
393.874	7520.56
394.319	7571.14
394.765	7202.82
395.21	7418.97
395.655	6973.62
396.101	6557.08
396.546	5944.33
396.991	6008.8
397.436	5583.29
397.881	5418.49
398.326	5148.1
398.771	4883.17
399.216	4284.92
399.661	3870.38
400.106	3872.47
400.551	3977.48
400.995	3574.85
401.44	3537.07
401.885	3329.42
402.329	3378.24
402.774	3250.63
403.218	3156.8
403.663	3050.61
404.107	3145.71
404.551	3179.53
404.995	2923.53
405.44	2824.48
405.884	2871.03
406.328	2785.29
406.772	2788.1
407.216	2543.83
407.66	2461
408.104	2343.9
408.547	2197.97
408.991	2130.19
409.435	2052.25
409.879	2029.13
410.322	2007.92
410.766	1945.61
411.209	1850.08
411.653	1777.82
412.096	1745.66
412.54	1750.52
412.983	1743.22
413.426	1752.7
413.869	1756.54
414.312	1728.22
414.756	1669.37
415.199	1595.18
415.642	1553.48
416.085	1562.77
416.527	1555.49
416.97	1583.2
417.413	1503.74
417.856	1487.03
418.298	1473.79
418.741	1464.78
419.184	1463.49
419.626	1523.94
420.069	1527.03
420.511	1538.14
420.953	1506.73
421.396	1494.06
421.838	1456.13
422.28	1492.21
422.722	1499.18
423.164	1518.83
423.606	1496.03
424.048	1495.74
424.49	1422.23
424.932	1415.9
425.374	1394.27
425.816	1418.94
426.258	1445.72
426.699	1461.74
427.141	1438.66
427.582	1461.24
428.024	1458.43
428.465	1450.99
428.907	1413.6
429.348	1399.03
429.789	1400.58
430.231	1371.54
430.672	1389.51
431.113	1357.77
431.554	1340.18
431.995	1308.37
432.436	1263.71
432.877	1235.99
433.318	1211.99
433.759	1207.69
434.2	1207.78
434.64	1193.16
435.081	1198.86
435.522	1136.64
435.962	1095.36
436.403	1071.27
436.843	1087.08
437.284	1061.79
437.724	1030.99
438.164	1035.93
438.604	1011.7
439.045	971.78
439.485	932.64
439.925	912.03
440.365	889.24
440.805	876.47
441.245	866.01
441.685	833.72
442.125	829.92
442.564	834.36
443.004	812.51
443.444	811.21
443.883	812.23
444.323	805.62
444.762	806.59
445.202	816.71
445.641	832.04
446.081	826.25
446.52	831.41
446.959	821.87
447.398	802.05
447.837	793.41
448.276	778.31
448.716	783.77
449.154	789.51
449.593	769.88
450.032	764.9
450.471	749.03
450.91	745.59
451.349	743.18
451.787	736.9
452.226	746.91
452.664	745.11
453.103	745.53
453.541	743.78
453.98	741.69
454.418	743.87
454.856	732.34
455.295	729.5
455.733	736.05
456.171	738.1
456.609	740.63
457.047	740.52
457.485	751.1
457.923	753.59
458.361	743.23
458.798	744.6
459.236	744.17
459.674	748.96
460.111	753.07
460.549	745.92
460.987	744.38
461.424	739.46
461.862	735.23
462.299	723.22
462.736	720.45
463.173	724.03
463.611	717.27
464.048	715.11
464.485	721.51
464.922	714.1
465.359	709.77
465.796	700.91
466.233	697.63
466.67	691.59
467.106	690.72
467.543	683.56
467.98	673.47
468.416	654.49
468.853	648.12
469.29	628.15
469.726	621.48
470.162	605.47
470.599	597.06
471.035	590.89
471.471	575.86
471.907	571.95
472.344	568.34
472.78	569.73
473.216	575.95
473.652	570.2
474.088	568.51
474.523	566.69
474.959	570.37
475.395	563.57
475.831	559.24
476.266	561.62
476.702	559.84
477.138	553.94
477.573	551.25
478.008	549.42
478.444	551.04
478.879	555.34
479.314	557
479.75	556.69
480.185	559.22
480.62	563.05
481.055	565.02
481.49	568.75
481.925	575.25
482.36	585.39
482.795	600.4
483.229	615.35
483.664	627.15
484.099	628.39
484.534	637.92
484.968	642.67
485.403	643.81
485.837	642.02
486.271	639.17
486.706	638.76
487.14	629.6
487.574	618.09
488.009	610.47
488.443	602.81
488.877	607.5
489.311	606.74
489.745	612.18
490.179	615.53
490.613	625.76
491.046	628.15
491.48	630.57
491.914	628.87
492.348	631.6
492.781	632.82
493.215	632.44
493.648	630.21
494.082	631.81
494.515	629.04
494.948	632.95
495.382	632.22
495.815	632.98
496.248	633.68
496.681	640.22
497.114	645.26
497.547	649.14
497.98	655.18
498.413	656.1
498.846	659.18
499.279	660.36
499.711	657.42
500.144	653.19
500.577	655.9
501.009	658.7
501.442	660.14
501.874	654.95
502.306	650.18
502.739	651.05
503.171	655.92
503.603	651.12
504.036	651.03
504.468	649.45
504.9	651.74
505.332	649.09
505.764	645.23
506.196	643.48
506.627	646.69
507.059	649.23
507.491	646.09
507.923	636.85
508.354	640.54
508.786	641.48
509.217	646.58
509.649	649.32
510.08	654.8
510.512	659.12
510.943	662.37
511.374	663.31
511.805	669.52
512.237	675.53
512.668	688.78
513.099	698.62
513.53	708.59
513.961	715.05
514.391	728.95
514.822	745.24
515.253	761.66
515.684	771.67
516.114	783.32
516.545	792.03
516.975	802.08
517.406	809.01
517.836	807.14
518.267	808
518.697	816.12
519.127	815.78
519.558	816.06
519.988	816.38
520.418	820.01
520.848	828.36
521.278	832.25
521.708	866.08
522.138	873.13
522.567	890.29
522.997	904.26
523.427	911.99
523.857	921.78
524.286	927.67
524.716	936.83
525.145	949.21
525.575	955.85
526.004	963.92
526.433	938.37
526.863	939.23
527.292	935.74
527.721	940.78
528.15	945.78
528.579	947.16
529.008	955.25
529.437	968.25
529.866	976.19
530.295	987.75
530.724	997.25
531.152	1013.46
531.581	1024.5
532.01	1035.89
532.438	1041.55
532.867	1052.16
533.295	1065.44
533.723	1070.28
534.152	1071.29
534.58	1073.5
535.008	1065.46
535.436	1068.13
535.865	1073.28
536.293	1081.73
536.721	1091.38
537.149	1107.65
537.576	1109.21
538.004	1117.61
538.432	1122.45
538.86	1122.14
539.287	1126.46
539.715	1136.63
540.143	1138.02
540.57	1136.38
540.998	1134.23
541.425	1123.37
541.852	1111.23
542.28	1111.36
542.707	1101.06
543.134	1093.78
543.561	1091.45
543.988	1087.79
544.415	1087.55
544.842	1084.49
545.269	1081.58
545.696	1083.91
546.123	1091.51
546.549	1086.48
546.976	1079.5
547.403	1080.59
547.829	1081.67
548.256	1083.7
548.682	1081.79
549.108	1077.76
549.535	1077.92
549.961	1078.85
550.387	1071.51
550.813	1069.17
551.24	1072.88
551.666	1072.58
552.092	1066.74
552.518	1063.05
552.943	1059.16
553.369	1064.07
553.795	1067.13
554.221	1068.36
554.646	1065.85
555.072	1072.21
555.498	1072.95
555.923	1077.91
556.349	1086.37
556.774	1090.44
557.199	1090.37
557.625	1092.45
558.05	1088.03
558.475	1093.34
558.9	1091.31
559.325	1087.71
559.75	1082.62
560.175	1077.45
560.6	1071.84
561.025	1069.85
561.449	1069.34
561.874	1070.89
562.299	1072.92
562.723	1074.94
563.148	1066.27
563.572	1066.97
563.997	1068.97
564.421	1068.74
564.846	1066.32
565.27	1067.06
565.694	1062.35
566.118	1065.57
566.542	1068.43
566.966	1063.08
567.39	1057.86
567.814	1051.2
568.238	1048.21
568.662	1048.91
569.086	1049.32
569.509	1051.71
569.933	1042.15
570.357	1037.38
570.78	1024.56
571.204	1016.67
571.627	1007.91
572.05	1006.34
572.474	1005.28
572.897	997.85
573.32	993.51
573.743	986.98
574.166	976.66
574.589	974.77
575.012	969.66
575.435	968.49
575.858	961.96
576.281	956
576.704	945.91
577.126	937.72
577.549	930.84
577.972	924.17
578.394	918.71
578.817	917.47
579.239	907.2
579.661	900.57
580.084	893.07
580.506	885.54
580.928	883.1
581.35	877.56
581.772	875.16
582.194	868.03
582.616	860.8
583.038	852.11
583.46	843.85
583.882	842.21
584.303	843.48
584.725	840.79
585.147	846.75
585.568	853.91
585.99	861.83
586.411	866.46
586.833	875.48
587.254	877.13
587.675	885.49
588.096	892.73
588.518	891.15
588.939	882.47
589.36	881.42
589.781	870.8
590.202	856.32
590.623	850.83
591.043	848.01
591.464	840.04
591.885	839.4
592.305	836.19
592.726	829.26
593.147	829.4
593.567	826.45
593.987	822.58
594.408	819.18
594.828	815.9
595.248	813.6
595.669	805.74
596.089	803.09
596.509	798.35
596.929	790.55
597.349	790.89
597.769	784.9
598.189	781.77
598.608	781.69
599.028	783.64
599.448	783.47
599.867	775.49
600.287	771.67
600.706	769.24
601.126	764.37
601.545	764.78
601.965	764.13
602.384	761.06
602.803	762.47
603.222	760.59
603.641	756.48
604.061	755.26
604.48	754.26
604.898	758.91
605.317	761.2
605.736	762.42
606.155	761.14
606.574	756.07
606.992	759.16
607.411	756.91
607.829	752.69
608.248	751.28
608.666	750.44
609.085	750.12
609.503	745.85
609.921	743.93
610.339	746.48
610.758	746.01
611.176	743.95
611.594	740.08
612.012	739.64
612.43	742.54
612.847	747.22
613.265	749.54
613.683	752.72
614.101	755.66
614.518	754.18
614.936	749.07
615.353	742.54
615.771	742.53
616.188	743.47
616.606	741.74
617.023	738.87
617.44	731.4
617.857	726.95
618.274	723.22
618.691	721.78
619.108	718.09
619.525	715.09
619.942	720.69
620.359	722.54
620.776	720.69
621.192	720.65
621.609	720.57
622.026	725.97
622.442	731.19
622.859	733.09
623.275	727.13
623.691	730.84
624.108	738.92
624.524	746.82
624.94	748.28
625.356	755.34
625.772	761.65
626.188	768.34
626.604	769.96
627.02	767.63
627.436	767.39
627.852	773.24
628.268	779.34
628.683	773.88
629.099	769.6
629.514	765.86
629.93	767.17
630.345	771.16
630.761	769.41
631.176	771.11
631.591	769.69
632.007	767.22
632.422	766.22
632.837	761.19
633.252	761.66
633.667	755.62
634.082	752.43
634.497	747.53
634.911	739.37
635.326	738.27
635.741	730.75
636.155	725.18
636.57	729.43
636.984	731.4
637.399	736.16
637.813	737.25
638.228	740.24
638.642	745.57
639.056	742.69
639.47	745.03
639.884	744.15
640.298	744.14
640.712	748.84
641.126	744.67
641.54	743.74
641.954	743.5
642.368	740.65
642.781	742.56
643.195	737.4
643.609	743.52
644.022	744.42
644.436	746.5
644.849	743.63
645.262	740.13
645.676	745.03
646.089	746.97
646.502	742.83
646.915	744.18
647.328	735.27
647.741	736.02
648.154	729.73
648.567	733.03
648.98	727.72
649.393	730.61
649.805	730.51
650.218	728.22
650.631	719.61
651.043	716.26
651.456	714.37
651.868	718.06
652.28	733.08
652.693	745.27
653.105	749.28
653.517	757.92
653.929	760.78
654.341	767.92
654.753	762.48
655.165	769.57
655.577	770.75
655.989	769.8
656.401	765.78
656.813	742.76
657.224	731.38
657.636	713.77
658.047	705.87
658.459	695.82
658.87	692.51
659.282	687.38
659.693	677.06
660.104	671.31
660.515	665.94
660.926	670.45
661.338	672.92
661.749	672.29
662.159	671.76
662.57	671.37
662.981	672.83
663.392	672.45
663.803	681.86
664.213	684.34
664.624	685.2
665.035	692.4
665.445	685.03
665.855	684.78
666.266	683.58
666.676	684.73
667.086	681.2
667.497	683.32
667.907	681.35
668.317	675.55
668.727	675.59
669.137	678.54
669.547	679.44
669.956	683.13
670.366	687.12
670.776	690.26
671.186	696
671.595	701.35
672.005	705.34
672.414	705.66
672.824	705.58
673.233	710.43
673.642	713.19
674.052	717.22
674.461	718.86
674.87	721.97
675.279	720.07
675.688	719.65
676.097	719.8
676.506	716.65
676.915	729.06
677.323	730.53
677.732	727.39
678.141	725.72
678.549	714.22
678.958	712.91
679.366	709.98
679.775	710.72
680.183	719.44
680.592	722.6
681	724.85
681.408	715.2
681.816	717.32
682.224	720.33
682.632	724.72
683.04	743.49
683.448	757.34
683.856	775.93
684.264	798.56
684.671	814.12
685.079	834.64
685.487	857.43
685.894	892.65
686.302	915.95
686.709	930.83
687.116	948.82
687.524	959.31
687.931	963.01
688.338	962.21
688.745	956
689.152	953.69
689.559	959.81
689.966	965.54
690.373	955.99
690.78	961.08
691.187	979.24
691.593	988.32
692	994.49
692.407	1014.93
692.813	1046.21
693.22	1066.72
693.626	1089.87
694.032	1107.15
694.439	1139.69
694.845	1164.51
695.251	1200.47
695.657	1234.11
696.063	1286.78
696.469	1327.72
696.875	1368.33
697.281	1391.89
697.687	1424.21
698.093	1453.83
698.498	1504.45
698.904	1548.34
699.31	1611.49
699.715	1664.28
700.12	1733.48
700.526	1760.99
700.931	1821.06
701.337	1871.73
701.742	1910.82
702.147	1984.1
702.552	2025.38
702.957	2087.07
703.362	2123.39
703.767	2166.88
704.172	2215.02
704.577	2206.52
704.981	2260.15
705.386	2296.18
705.791	2315.7
706.195	2392.64
706.6	2423
707.004	2503.86
707.408	2507.89
707.813	2552.92
708.217	2569.57
708.621	2596.39
709.025	2695.38
709.43	2725.25
709.834	2795.03
710.237	2873.95
710.641	2888.64
711.045	2932.06
711.449	2955.36
711.853	3007.59
712.256	3069.61
712.66	3127.19
713.064	3214.12
713.467	3277.21
713.87	3397.65
714.274	3468.1
714.677	3588.84
715.08	3754.97
715.484	3931.73
715.887	4138.82
716.29	4338.78
716.693	4552.48
717.096	4798.75
717.499	4951.53
717.901	5006.74
718.304	5061.82
718.707	5114.2
719.109	5055.57
719.512	5060.9
719.915	4968
720.317	4946.91
720.719	5022.89
721.122	5026.99
721.524	5008.9
721.926	5002.09
722.328	5126.84
722.731	5149.89
723.133	5207.16
723.535	5421.82
723.937	5468.4
724.338	5549.47
724.74	5617.13
725.142	5583.73
725.544	5608.22
725.945	5665.73
726.347	5684.77
726.748	5702.88
727.15	5742.5
727.551	5727.22
727.952	5721.73
728.354	5717.92
728.755	5737.16
729.156	5714.36
729.557	5720.01
729.958	5608.19
730.359	5565.59
730.76	5566.16
731.161	5519.65
731.562	5506.22
731.962	5525.82
732.363	5473.6
732.763	5419.33
733.164	5472.55
733.564	5413.88
733.965	5324.06
734.365	5302.46
734.766	5345.5
735.166	5313.23
735.566	5266.09
735.966	5251.21
736.366	5257.24
736.766	5202.45
737.166	5248.49
737.566	5213.28
737.966	5196.8
738.365	5249.52
738.765	5253.91
739.165	5179.47
739.564	5159.89
739.964	5218.74
740.363	5175.94
740.763	5181.62
741.162	5177.75
741.561	5148.9
741.96	5106.68
742.36	5135.06
742.759	5147.66
743.158	5195.43
743.557	5220.71
743.955	5273.42
744.354	5229.37
744.753	5299.73
745.152	5257.34
745.55	5320.07
745.949	5314.83
746.348	5318.25
746.746	5342.3
747.144	5300.47
747.543	5279.95
747.941	5336.26
748.339	5258.6
748.737	5252.65
749.136	5245.41
749.534	5323.61
749.932	5298.47
750.33	5330.32
750.727	5398.23
751.125	5373.71
751.523	5360.81
751.921	5414.81
752.318	5379.13
752.716	5449.02
753.113	5466.11
753.511	5497.21
753.908	5497.65
754.305	5478.63
754.703	5552.12
755.1	5623.67
755.497	5695.79
755.894	5914.7
756.291	6119.59
756.688	6499.13
757.085	7000.9
757.482	7711.22
757.878	8483.33
758.275	9184.98
758.672	10150.45
759.068	10933.5
759.465	12054.41
759.861	13493.07
760.258	15169.87
760.654	16034.4
761.05	15916.12
761.447	15202.79
761.843	14155.7
762.239	13081.27
762.635	12599.92
763.031	12129.34
763.427	11455.26
763.822	10744.15
764.218	10041.15
764.614	9123.97
765.01	8509.9
765.405	8110.01
765.801	7806.52
766.196	7425.63
766.592	7210.87
766.987	6847.73
767.382	6607.1
767.778	6505.28
768.173	6354.31
768.568	6271.6
768.963	6131.08
769.358	6153.98
769.753	6101.89
770.148	6004.2
770.542	6000.99
770.937	5966.37
771.332	6071.62
771.726	6094.03
772.121	6022.91
772.515	6089.16
772.91	6072.66
773.304	6152.34
773.699	6078.2
774.093	6141.37
774.487	6209.09
774.881	6263.01
775.275	6257.94
775.669	6211.05
776.063	6261.8
776.457	6304.06
776.851	6219.66
777.245	6212.33
777.638	6252.79
778.032	6387.28
778.425	6345.23
778.819	6395.77
779.212	6344.47
779.606	6297.75
779.999	6319.16
780.392	6300.69
780.786	6394.04
781.179	6416.45
781.572	6465.99
781.965	6480.34
782.358	6413.16
782.751	6479.28
783.143	6422.32
783.536	6508.88
783.929	6559.96
784.322	6693.59
784.714	6729.7
785.107	6726.01
785.499	6807.28
785.891	6782.08
786.284	6762.4
786.676	6926.37
787.068	6905.82
787.46	6964.75
787.852	6985.03
788.245	7083.86
788.636	7115.02
789.028	7188.26
789.42	7231.71
789.812	7243.96
790.204	7353.04
790.595	7465.89
790.987	7239.91
791.378	7264.89
791.77	7416.61
792.161	7575.38
792.553	7638.53
792.944	7515.45
793.335	7442.75
793.726	7528.98
794.117	7631.42
794.508	7790.16
794.899	7757.34
795.29	7921.06
795.681	7984.59
796.072	7819.7
796.463	7606.07
796.853	7621.15
797.244	7802.92
797.634	7840.1
798.025	7840.08
798.415	7857.07
798.806	7961.56
799.196	8059.22
799.586	8120.32
799.976	8082.11
800.366	8346.92
800.756	8627.02
801.146	8580.65
801.536	8611.1
801.926	8694.07
802.316	8725.23
802.706	8806.01
803.095	8665.09
803.485	8779.27
803.874	8825.28
804.264	9123.58
804.653	9095.97
805.043	9262.73
805.432	9384.4
805.821	9386.48
806.21	9415.3
806.599	9554.9
806.988	9609.02
807.377	9727.72
807.766	9881.63
808.155	10206.41
808.544	9900.47
808.933	9914.8
809.321	9883.47
809.71	10225.84
810.098	10410.01
810.487	10939.43
810.875	11486.54
811.264	11512.27
811.652	11852.52
812.04	12020.93
812.428	12208.5
812.816	13094.31
813.204	13575.86
813.592	14222.22
813.98	14612.57
814.368	14501.98
814.756	15055.95
815.144	14965.22
815.531	15496.96
815.919	15410.08
816.306	15759.87
816.694	15407.39
817.081	15464.02
817.469	15865.04
817.856	15855.97
818.243	16160.19
818.63	16618.64
819.017	16132.64
819.404	16202.91
819.791	16644.86
820.178	17348.31
820.565	17645.15
820.952	18722.77
821.339	18153.02
821.725	18363.03
822.112	17514.99
822.498	17476.76
822.885	17628.52
823.271	17531.42
823.657	18023
824.044	18039.24
824.43	18126.32
824.816	18081.91
825.202	17577.63
825.588	18756.16
825.974	18781.72
826.36	19383.8
826.746	19418.99
827.132	19823.79
827.517	19784.21
827.903	18870.5
828.289	18909.38
828.674	18020.26
829.06	17902.02
829.445	18358.11
829.83	18770.23
830.216	19316.02
830.601	19722.36
830.986	19245.26
831.371	19086.75
831.756	19724.8
832.141	19229.86
832.526	19221.86
832.911	19540.06
833.295	19403.22
833.68	19937.71
834.065	19219.98
834.449	18169.6
834.834	18094.85
835.218	18095.8
835.603	18495.04
835.987	18260.3
836.371	19217.33
836.755	19095.07
837.139	19551.97
837.524	19832.82
837.908	19623.25
838.291	19694.72
838.675	19770.45
839.059	20010.3
839.443	19994.66
839.827	19725.58
840.21	20267.1
840.594	20102.24
840.977	20345.52
841.361	20333.46
841.744	20765.9
842.127	20589.63
842.511	20868.99
842.894	21560.39
843.277	21994.09
843.66	22614.8
844.043	22720.99
844.426	21799.43
844.809	21441.4
845.191	21474.32
845.574	20934.35
845.957	20507.26
846.339	20390.43
846.722	19784.22
847.104	19856.16
847.487	19656.96
847.869	19682.09
848.252	19984.52
848.634	20362.1
849.016	20665.89
849.398	20814.47
849.78	21793.96
850.162	21804.56
850.544	22264.1
850.926	22989.32
851.307	22895.52
851.689	23217.54
852.071	23731.35
852.452	24119.73
852.834	24098.47
853.215	24540.56
853.597	24706.33
853.978	25034.77
854.359	25560.93
854.741	24421.85
855.122	24316.7
855.503	23987.95
855.884	24140.05
856.265	24071.97
856.646	24201.86
857.026	23753.56
857.407	23678.77
857.788	23861.26
858.169	24205.6
858.549	23223.16
858.93	23959.21
859.31	24009.2
859.69	24250.83
860.071	23782
860.451	23531.75
860.831	22678.3
861.211	24004.29
861.591	24639.59
861.971	24607.36
862.351	24829.47
862.731	25280.35
863.111	25578.61
863.491	25951.19
863.87	26946.03
864.25	27355.59
864.629	26889.43
865.009	27474.07
865.388	28453.96
865.768	30509.39
866.147	30400.6
866.526	28721.2
866.905	29055.49
867.284	30682.81
867.663	29129.38
868.042	27932.23
868.421	27844.54
868.8	28317.14
869.179	28600.99
869.558	26946.57
869.936	24827.86
870.315	25271.7
870.693	25874.94
871.072	27924.1
871.45	26600.85
871.828	26969.37
872.207	28352.02
872.585	27920.17
872.963	28677.84
873.341	27703.33
873.719	27357.27
874.097	27038.31
874.475	27562.9
874.853	28204.11
875.23	27027.51
875.608	28158
875.986	30450.37
876.363	29124.94
876.741	30016.81
877.118	29280.99
877.495	30712.7
877.873	31251.81
878.25	32882.31
878.627	31518.9
879.004	31956.78
879.381	31786.88
879.758	30962.62
880.135	28817.42
880.512	30464.27
880.889	29656.46
881.265	29338.54
881.642	29083.6
882.019	29555.45
882.395	28957.11
882.772	30106.32
883.148	28797.3
883.524	28696.36
883.901	28528.92
884.277	28954.12
884.653	28764
885.029	29584.92
885.405	32744.29
885.781	32479.78
886.157	31143.73
886.532	31517.26
886.908	31508.04
887.284	35049.89
887.659	36171.93
888.035	37291.68
888.411	38252.41
888.786	38761.31
889.161	40107.66
889.537	39390.57
889.912	40676.23
890.287	40650.02
890.662	41708.06
891.037	40951.79
891.412	38181.22
891.787	37812.54
892.162	36497.82
892.536	37343.28
892.911	35950.57
893.286	35189.35
893.66	33762.59
894.035	34612.1
894.409	37679.16
894.784	36147.37
895.158	36742.08
895.532	38918.07
895.906	39983.64
896.281	40917.57
896.655	40274.49
897.029	46022.99
897.402	47930.08
897.776	53354.72
898.15	53191.47
898.524	52625.43
898.898	53346.91
899.271	59759.02
899.645	51754.02
900.018	49704.35
900.392	51547.34
900.765	51968.33
901.138	48082.02
901.511	47373.77
901.884	43503
902.258	40124.87
902.631	41467.2
903.003	47719.68
903.376	43042.27
903.749	48285.11
904.122	51689.78
904.495	56927.17
904.867	57643.94
905.24	50052.82
905.612	46590.68
905.985	47657.45
906.357	49841.04
906.729	47564.56
907.102	40631.55
907.474	39073.12
907.846	39325.87
908.218	38807.42
908.59	34289.42
908.962	33162.92
909.334	35720.54
909.705	37527.64
910.077	36422.39
910.449	37895.31
910.82	38969.3
911.192	42887.05
911.563	44549.43
911.935	47670.42
912.306	47758.52
912.677	49315.01
913.048	48809.14
913.419	52951.38
913.79	53228.06
914.161	57085.31
914.532	54546.46
914.903	50108.7
915.274	47590.07
915.645	46929.69
916.015	41276.93
916.386	39343.41
916.756	41882.55
917.127	43208.27
917.497	38582.27
917.868	41993.04
918.238	39900.74
918.608	41070.44
918.978	41931.9
919.348	44406.01
919.718	45860.94
920.088	44187.45
920.458	45918.86
920.828	48307.24
921.198	45808.93
921.567	48968.62
921.937	37940.08
922.306	38317.76
922.676	41332.02
923.045	34474.59
923.415	32762.88
923.784	29845.29
924.153	30682.94
924.522	30640.64
924.891	28804.65
925.26	30857.46
925.629	30129.74
925.998	34637.61
926.367	33807.73
926.736	32184.17
927.104	38344.53
927.473	41195.82
927.842	49740.56
928.21	49282.82
928.578	51847.64
928.947	49040.85
929.315	49347.06
929.683	57869.16
930.051	58304.55
930.42	67723.84
930.788	57900.8
931.156	57460.15
931.523	53872.5
931.891	49813.11
932.259	47860.6
932.627	55465.86
932.994	78486.61
933.362	64870.58
933.729	56366.87
934.097	53997.87
934.464	45666.64
934.831	52707.01
935.199	51978.64
935.566	50424.25
935.933	51173.57
936.3	62002.91
936.667	48253.56
937.034	43548.44
937.401	43082.62
937.767	37162.56
938.134	33085.12
938.501	46694.46
938.867	49751.51
939.234	84102.23
939.6	71781.24
939.967	78884.4
940.333	52768.51
940.699	44934.31
941.065	36063.43
941.431	47290.06
941.798	45567.81
942.163	59762.92
942.529	37342.3
942.895	34402.42
943.261	22250.04
943.627	29159.45
943.992	25537.08
944.358	25544.94
944.723	25618.18
945.089	24937.01
945.454	23021.13
945.82	24590.58
946.185	23620.42
946.55	27348.83
946.915	24504.09
947.28	28736.71
947.645	25318.67
948.01	23375.37
948.375	24380.07
948.74	29217.38
949.104	34074.11
949.469	49271.24
949.834	87029.95
950.198	82555.94
950.562	49477.02
950.927	41259.15
951.291	49684.59
951.655	42327.22
952.02	39775.55
952.384	30098.51
952.748	26212.9
953.112	25575.43
953.476	22231.53
953.839	20559.28
954.203	20356.99
954.567	25461.47
954.931	40075.92
955.294	34270.23
955.658	34461.61
956.021	58586.22
956.385	99273.33
956.748	146557.12
957.111	227470.26
957.474	255350.4
957.837	287606.08
958.2	217533.9
958.563	78246.03
958.926	52936.13
959.289	80361.87
959.652	89820.65
960.015	67328.66
960.377	96663.48
960.74	110169.87
961.102	190094.93
961.465	203929.45
961.827	109283.62
962.189	209886.95
962.552	145578.5
962.914	116711.64
963.276	75679.63
963.638	62488.33
964	61818.8
964.362	41797.84
964.724	40414.28
965.085	28845.41
965.447	23677.27
965.809	26952.91
966.17	26968.88
966.532	29179.36
966.893	26774.7
967.255	24370.31
967.616	28767.43
967.977	23058.97
968.338	25194.14
968.699	20706.5
969.061	20679.5
969.421	20826.54
969.782	23419.26
970.143	19797.25
970.504	20498.74
970.865	23303.08
971.225	23795.28
971.586	23296.32
971.946	33226.66
972.307	28824.1
972.667	37687.02
973.027	38859.88
973.388	47065.69
973.748	31987.56
974.108	34842.13
974.468	47141.84
974.828	36320.61
975.188	28005.82
975.548	25703.24
975.907	21589.38
976.267	24204.06
976.627	20368.32
976.986	21097.7
977.346	20122.15
977.705	19338.57
978.064	17596.61
978.424	14663.16
978.783	15155.92
979.142	17305.39
979.501	16564.92
979.86	17497.44
980.219	16901.06
980.578	21777.15
980.937	24390.64
981.296	21764.03
981.654	22400.56
982.013	34889.88
982.371	45224.12
982.73	42267.58
983.088	47812.27
983.447	51099.18
983.805	73095.17
984.163	152559.2
984.521	169501
984.879	248551.26
985.237	-404196.27
985.595	389537.88
985.953	96837.8
986.311	55973.26
986.669	32490.22
987.026	28053.87
987.384	37750.5
987.741	39044.3
988.099	27884.56
988.456	22180.15
988.814	20741.11
989.171	18011.31
989.528	17808.41
989.885	18777.6
990.242	14869.74
990.599	18544.94
990.956	15179.7
991.313	10617.53
991.67	8712.46
992.027	9249.25
992.383	8239.15
992.74	7243.51
993.096	7610.17
993.453	7884.58
993.809	8191.96
994.165	10900.3
994.522	9995.85
994.878	11026.43
995.234	13826.2
995.59	13643.71
995.946	12902.72
996.302	14704.47
996.658	16979
997.013	18705.97
997.369	22211
997.725	28410.67
998.08	18424.03
998.436	28388.84
998.791	39129.21
999.147	39055.47
999.502	42635.96
999.857	31001.33
1000.212	50559.92
1000.567	72126.34
1000.922	41549.84
1001.277	26357.05
1001.632	19570.98
1001.987	25210.67
1002.342	18063.96
1002.696	14429.26
1003.051	11538.91
1003.406	13987.26
1003.76	13914.91
1004.114	13703.77
1004.469	11500.16
1004.823	9523.5
1005.177	10284.61
1005.531	8129.03
1005.885	7201.19
1006.239	8134.01
1006.593	10210.13
1006.947	13674.16
1007.301	10252.69
1007.655	11178.1
1008.008	8208.28
1008.362	9233.66
1008.715	13180.34
1009.069	11972.89
1009.422	18042.51
1009.776	36195.99
1010.129	24041.18
1010.482	20092.79
1010.835	16932
1011.188	35170.41
1011.541	33138.2
1011.894	-202530.47
1012.247	594774.1
1012.6	40479.84
1012.952	25531.52
1013.305	13147.57
1013.657	9502.96
1014.01	8997.74
1014.362	7414.91
1014.715	6602.99
1015.067	5763.02
1015.419	5622.72
1015.771	5000.79
1016.123	4451.75
1016.475	4577.01
1016.827	4867.26
1017.179	5229.01
1017.531	5255.47
1017.883	5375.37
1018.234	5203.74
1018.586	6557.1
1018.938	6928.85
1019.289	9588.82
1019.64	10926.88
1019.992	10198.33
1020.343	9317.79
1020.694	7372.25
1021.045	6527.91
1021.396	7472.75
1021.747	8004.41
1022.098	9576.89
1022.449	6968.12
1022.8	6446.27
1023.151	4491.76
1023.501	3997.05
1023.852	4335.46
1024.202	4515.34
1024.553	4958.96
1024.903	4843.01
1025.253	4138.8
1025.604	3714.28
1025.954	4615.12
1026.304	5609.56
1026.654	6588.7
1027.004	9653.65
1027.354	15608.36
1027.703	14674.4
1028.053	19288.52
1028.403	28052
1028.753	40706.02
1029.102	55430.2
1029.452	285797.77
1029.801	12340.45
1030.15	7979.18
1030.499	6744.03
897.758	3041.99
901.051	3022.91
904.343	3064.46
907.636	3056.35
910.928	3123.4
914.22	3026.53
917.511	3038.04
920.803	3116.61
924.094	3156.06
927.384	3113.15
930.675	3085.13
933.965	3030.48
937.255	3023.04
940.544	2988.35
943.834	2876.95
947.123	2829.12
950.411	2934.94
953.7	2902.2
956.988	2852.45
960.276	2800.79
963.563	2911.3
966.851	2891.99
970.138	2965
973.424	2948.58
976.711	2893.31
979.997	3106.52
983.283	3127.64
986.568	3007.31
989.853	3049.37
993.138	3078.72
996.423	3153.48
999.708	3071.42
1002.992	3173.69
1006.275	2940.24
1009.559	3028.13
1012.842	3159.04
1016.125	3073.19
1019.408	3052.2
1022.69	3166.7
1025.972	3169.43
1029.254	3142.3
1032.536	3049.54
1035.817	3093.15
1039.098	3008.57
1042.379	3233.89
1045.659	3202.15
1048.939	3122.07
1052.219	3156.72
1055.498	3185.67
1058.778	3158.72
1062.057	3150.73
1065.335	3169.48
1068.614	3198.58
1071.892	3167.58
1075.17	3260.23
1078.447	3240.41
1081.724	3226.84
1085.001	3271.83
1088.278	3242.02
1091.554	3260.49
1094.83	3256.83
1098.106	3281.24
1101.382	3341.12
1104.657	3340.42
1107.932	3332.79
1111.206	3289.09
1114.481	3247.72
1117.755	3256.12
1121.029	3223.28
1124.302	3266.61
1127.575	3205.81
1130.848	3186.26
1134.121	3141.3
1137.393	3076.4
1140.665	3154.43
1143.937	3127.92
1147.208	3068.04
1150.48	3088.87
1153.75	3069.17
1157.021	3132.7
1160.291	3095.48
1163.561	3133.47
1166.831	3147.23
1170.101	3179.44
1173.37	3171.17
1176.639	3098.93
1179.907	3175
1183.176	3193.12
1186.444	3209.78
1189.711	3241.23
1192.979	3241.47
1196.246	3197.79
1199.513	3221.41
1202.78	3214.41
1206.046	3222.01
1209.312	3249.82
1212.578	3280.45
1215.843	3216.83
1219.108	3199.77
1222.373	3218.58
1225.638	3172.45
1228.902	3147.85
1232.166	3121.99
1235.43	3097.12
1238.693	3118.36
1241.956	3121.58
1245.219	3148.69
1248.482	3152.77
1251.744	3141.44
1255.006	3317.49
1258.268	3278.5
1261.529	3212
1264.79	3229.67
1268.051	3341.35
1271.312	3362.91
1274.572	3316.95
1277.832	3309.67
1281.092	3309.92
1284.351	3264.75
1287.61	3241.34
1290.869	3132.41
1294.128	3091.86
1297.386	3221.09
1300.644	3202.82
1303.902	3214.4
1307.159	3065.03
1310.416	3123.06
1313.673	3140.31
1316.93	3115.55
1320.186	3174.1
1323.442	3225.58
1326.697	3204.47
1329.953	3210.28
1333.208	3218.89
1336.463	3205.67
1339.717	3128.25
1342.972	3247.98
1346.226	3239.51
1349.479	3155.61
1352.733	3111.82
1355.986	3154.68
1359.238	3123.64
1362.491	3121.37
1365.743	3130.12
1368.995	3128.59
1372.247	3138.84
1375.498	3162.43
1378.749	3185.36
1382	3139.62
1385.251	3210.87
1388.501	3178.41
1391.751	3144.88
1395	3123.21
1398.25	3160.39
1401.499	3150.71
1404.748	3057.45
1407.996	3017.98
1411.244	3003.37
1414.492	2979.51
1417.74	2947.91
1420.987	2966.72
1424.234	3018.34
1427.481	3015.24
1430.728	3072.05
1433.974	3045.14
1437.22	3076.18
1440.465	3087.03
1443.711	3055.89
1446.956	3098.52
1450.201	3105.23
1453.445	3152.4
1456.689	3115.2
1459.933	3133.83
1463.177	3160.39
1466.42	3129
1469.663	3108.16
1472.906	3081.92
1476.148	3202.19
1479.391	3116.85
1482.633	3098.04
1485.874	3095.76
1489.115	3065.1
1492.356	3094.23
1495.597	3062.59
1498.838	3073.8
1502.078	3027.89
1505.318	2959.18
1508.557	3005.8
1511.797	2940.76
1515.036	3074.8
1518.274	3066.15
1521.513	3052.6
1524.751	3085.31
1527.989	3085.33
1531.227	3094.99
1534.464	3068.9
1537.701	3118.1
1540.938	3143.04
1544.174	3105.58
1547.41	3111.74
1550.646	3153.01
1553.882	3175.1
1557.117	3228.4
1560.352	3247.99
1563.587	3204.16
1566.821	3155.38
1570.055	3211.36
1573.289	3174.09
1576.523	3265.06
1579.756	3264.63
1582.989	3282.03
1586.222	3244.7
1589.454	3288.85
1592.686	3253.49
1595.918	3276.49
1599.15	3256.24
1602.381	3358.85
1605.612	3288.4
1608.843	3385.76
1612.073	3294.24
1615.303	3275.06
1618.533	3259.34
1621.762	3264.29
1624.992	3266.49
1628.221	3236.88
1631.449	3219.52
1634.678	3305.94
1637.906	3251.37
1641.134	3304.68
1644.361	3250.33
1647.588	3235.88
1650.815	3248.76
1654.042	3240.74
1657.269	3274.45
1660.495	3219.45
1663.72	3192.38
1666.946	3172.76
1670.171	3082.71
1673.396	3059.32
1676.621	3057.26
1679.845	3100.13
1683.069	3134.63
1686.293	3186.47
1689.517	3145.27
1692.74	3049.88
1695.963	3072.68
1699.185	3142.31
1702.408	3098.02
1705.63	3151.2
1708.852	3157.54
1712.073	3128.28
1715.294	3090.96
1718.515	3153.21
1721.736	3090.11
1724.956	3085.09
1728.176	3115.68
1731.396	3137.68
1734.616	3125.92
1737.835	3142.15
1741.054	3137.45
1744.272	3133.2
1747.491	3148.6
1750.709	3231.15
1753.927	3105.62
1757.144	3168.95
1760.361	3200.89
1763.578	3216.07
1766.795	3147.33
1770.011	3168.47
1773.227	3229.52
1776.443	3250.66
1779.658	3292.45
1782.874	3244.94
1786.089	3208.37
1789.303	3211.86
1792.518	3226.59
1795.732	3217.08
1798.945	3215.2
1802.159	3278.75
1805.372	3146.09
1808.585	3114.72
1811.797	3120.92
1815.01	3195.59
1818.222	3191.8
1821.434	3102.86
1824.645	3195.53
1827.856	3153.36
1831.067	3192.02
1834.278	3153.96
1837.488	3131.41
1840.698	3305.65
1843.908	3213.88
1847.117	3174.57
1850.326	3015.83
1853.535	3149.42
1856.744	3237.1
1859.952	3126.73
1863.16	3128.74
1866.368	3157.44
1869.575	3263.47
1872.782	3153.68
1875.989	3096.68
1879.196	3216.99
1882.402	3205.87
1885.608	3256.18
1888.814	3122.69
1892.019	3006.22
1895.224	3057
1898.429	3053.24
1901.634	3024.01
1904.838	3009.08
1908.042	3052.29
1911.246	3057.18
1914.449	2956.3
1917.652	2968.57
1920.855	2953.28
1924.058	3026.74
1927.26	3057.39
1930.462	3091.96
1933.664	3105.67
1936.865	3040.55
1940.066	3036.43
1943.267	2987.47
1946.467	3007.32
1949.668	3039.39
1952.868	3107.98
1956.067	3071.33
1959.267	2993.17
1962.466	3025.14
1965.665	3011.27
1968.863	3011.46
1972.061	3035.93
1975.259	3044.55
1978.457	3122.45
1981.654	3080.48
1984.852	3078.52
1988.048	2988.87
1991.245	3007.33
1994.441	3087.18
1997.637	3096.04
2000.833	3079.06
2004.028	3118.8
2007.223	3164.35
2010.418	3127.59
2013.613	3103.64
2016.807	3048.06
2020.001	3071.87
2023.194	3137.5
2026.388	3100.46
2029.581	3051.1
2032.774	3086.42
2035.966	3083.4
2039.158	3002.02
2042.35	3036.31
2045.542	2964.1
2048.733	3082.57
2051.924	3138.09
2055.115	3175.99
2058.306	3097.96
2061.496	3163.41
2064.686	3242.55
2067.875	3165.29
2071.065	3192.91
2074.254	3228.93
2077.442	3178.74
2080.631	3280.29
2083.819	3129.69
2087.007	3100.57
2090.195	3057.73
2093.382	3113.1
2096.569	3090.53
2099.756	3031.57
2102.942	3035.76
2106.128	3029.79
2109.314	3025.74
2112.5	2968.75
2115.685	2951.64
2118.87	2966.85
2122.055	3035.98
2125.239	2990.09
2128.424	2944.92
2131.608	3091.52
2134.791	3076.72
2137.974	3154.47
2141.157	3134.71
2144.34	3065.84
2147.523	3105.99
2150.705	3107.14
2153.887	3096.51
2157.068	3023.84
2160.25	3047.99
2163.431	3105.17
2166.611	3025.32
2169.792	3033.61
2172.972	2911.13
2176.152	3021.03
2179.331	3063.89
2182.511	3022.57
2185.69	3055.08
2188.868	3040.51
2192.047	3117.61
2195.225	3081.11
2198.403	3030.49
2201.58	3028.54
2204.758	3035.05
2207.935	3124.7
2211.111	2983.8
2214.288	2962.98
2217.464	3010.29
2220.64	3001.47
2223.815	3062.14
2226.991	2971.08
2230.166	2994.39
2233.34	3010.22
2236.515	3050.03
2239.689	3127
2242.863	3065.63
2246.036	3126.52
2249.209	3143.04
2252.382	3195.72
2255.555	3162.26
2258.727	3085.67
2261.9	3135.74
2265.071	3126.49
2268.243	3135.62
2271.414	3050.56
2274.585	2992.56
2277.756	3067.39
2280.926	3029.28
2284.096	3081.15
2287.266	2962.93
2290.436	3028.94
2293.605	3065.19
2296.774	3086.36
2299.942	3124.36
2303.111	3140.91
2306.279	3184.42
2309.447	3174.73
2312.614	3151.5
2315.781	3160.36
2318.948	3126
2322.115	3165.89
2325.281	3068.23
2328.447	3101.48
2331.613	3084.54
2334.779	3040.68
2337.944	3050.58
2341.109	3042.47
2344.274	3018.33
2347.438	2982.45
2350.602	3012.86
2353.766	3031.99
2356.929	3015.92
2360.092	3063.58
2363.255	2996.29
2366.418	2896.96
2369.58	3050.75
2372.742	2762.67
2375.904	2794.32
2379.066	2760.61
2382.227	2808.56
2385.388	2772.37
2388.548	2675.69
2391.709	2745.13
2394.869	2710.54
2398.029	2856.04
2401.188	2884.84
2404.347	2791
2407.506	2984.39
2410.665	3006.63
2413.823	3033.84
2416.981	2967.66
2420.139	3013.74
2423.296	3071.87
2426.453	3043.62
2429.61	3075.8
2432.767	2970.66
2435.923	3011.91
2439.079	2928.34
2442.235	3003.85
2445.391	2917.27
2448.546	2926.64
2451.701	2995.57
2454.855	2939.07
2458.009	3017.06
2461.163	3032.98
2464.317	2973.93
2467.471	3017.51
2470.624	3061.47
2473.777	3080.45
2476.929	3078.37
2480.082	3105.09
2483.234	3068.2
2486.385	2975.87
2489.537	2973.12
2492.688	2904.98
2495.839	2925.89
2498.989	2930.88
2502.14	2909.75
2505.29	2883.19
2508.439	2911.81
2511.589	2819.35
2514.738	2848.73
2517.887	2879.77
2521.035	2994.45
2524.183	2994.7
2527.331	2966.88
2530.479	2919.34
2533.627	2940.01
