Data from N_2_DIV_OH_2N_Splice17_12-21-56-564.txt Node
Date: Sat Mar 14 12:21:56 EDT 2020
User: sa697716
Spectrometer: FLMS03696
Trigger mode: 0
Integration Time (sec): 3.180400E-1
Scans to average: 20
Electric dark correction enabled: true
Nonlinearity correction enabled: true
Boxcar width: 5
XAxis mode: Wavelengths
Number of Pixels in Spectrum: 2048
>>>>>Begin Spectral Data<<<<<
187.83	-284912.81
188.298	2020.42
188.766	1109.78
189.233	965.43
189.701	1373.64
190.169	1914.83
190.636	774.08
191.104	628.9
191.571	110.48
192.039	-43.62
192.506	-63.79
192.974	524.1
193.441	-935.91
193.908	-320.45
194.375	-102.55
194.842	1.9
195.31	83.46
195.777	177.57
196.244	394.38
196.711	526.31
197.177	670.03
197.644	990.18
198.111	1747.87
198.578	2427.01
199.045	1949.4
199.511	3164.69
199.978	3652.62
200.445	3102.15
200.911	3443.52
201.378	3877.68
201.844	3501.53
202.31	6008.51
202.777	6219.62
203.243	3444.23
203.709	3272.53
204.176	3900.59
204.642	3226.24
205.108	3030.45
205.574	2474.33
206.04	2256.51
206.506	2103.02
206.972	1979.06
207.438	1901.37
207.903	2165.77
208.369	1894.46
208.835	1883.64
209.301	1955.65
209.766	1981.27
210.232	1960.02
210.697	2425.53
211.163	2980.09
211.628	4488.74
212.094	3754.88
212.559	4579.28
213.024	2846.05
213.49	3459.84
213.955	3395.67
214.42	3324.58
214.885	3108.97
215.35	2963.58
215.815	2827.16
216.28	2991.79
216.745	2406.75
217.21	2593.18
217.675	2350.48
218.14	2593.07
218.604	2851.82
219.069	3223.11
219.534	3349.15
219.998	3842.76
220.463	4603.01
220.927	5605.18
221.392	5234.82
221.856	5287.15
222.32	6600.69
222.785	8145.96
223.249	10206.2
223.713	11343.38
224.177	11274.93
224.642	14389.12
225.106	17660.24
225.57	19311.43
226.034	14345.5
226.497	21794
226.961	19607.31
227.425	22783.49
227.889	25160.51
228.353	25140.37
228.816	51926.2
229.28	49570.56
229.744	41756.52
230.207	25321.86
230.671	24825.5
231.134	40953.67
231.597	47158.73
232.061	47113.25
232.524	45895.89
232.987	31545.97
233.45	28358.16
233.914	25406.9
234.377	25999.65
234.84	23776.7
235.303	28030.18
235.766	31281.39
236.229	32280.88
236.691	20314.12
237.154	22827.82
237.617	17178.43
238.08	17611.04
238.542	20608.32
239.005	14718.55
239.468	14605.4
239.93	13768.7
240.393	12510.17
240.855	10983.78
241.317	11237.93
241.78	13664.65
242.242	14128.69
242.704	15257.77
243.166	13271.53
243.629	12061.17
244.091	13901.22
244.553	15229.52
245.015	16336.08
245.477	21125.99
245.939	30928.39
246.4	32876.62
246.862	31903.15
247.324	29991.8
247.786	33478.94
248.247	43867.91
248.709	45152.16
249.17	33699.58
249.632	31737.68
250.093	36771.1
250.555	31709.96
251.016	19308.28
251.477	18251.55
251.939	19675.18
252.4	20642.1
252.861	24533.14
253.322	22784.5
253.783	27077.69
254.244	35082.51
254.705	27642.01
255.166	24552.76
255.627	24138.8
256.088	34009.89
256.549	36087.18
257.009	31078.87
257.47	37665.04
257.931	30613.57
258.391	22938.18
258.852	23646.77
259.312	24759.08
259.773	30527.32
260.233	25777.34
260.694	21726.32
261.154	24606.29
261.614	19772.77
262.074	17656.79
262.534	18318.88
262.994	17275
263.455	22956.36
263.915	19326.64
264.374	18207.81
264.834	19833.9
265.294	21957.6
265.754	22711.83
266.214	21469.84
266.673	20080.33
267.133	25309.04
267.593	25077.36
268.052	30631.92
268.512	26643.82
268.971	32089.69
269.431	35109.01
269.89	31423.79
270.349	47128.08
270.809	52537.43
271.268	47195.51
271.727	105707.15
272.186	68376.78
272.645	51241.82
273.104	36939.73
273.563	53471.82
274.022	42013.01
274.481	35757.94
274.94	27578.37
275.399	20463.02
275.857	23804.08
276.316	32223.21
276.775	28684.76
277.233	28293.48
277.692	26501.09
278.15	29986.2
278.609	30840.09
279.067	28541.07
279.525	26520.28
279.984	34217.72
280.442	41122.46
280.9	40616.4
281.358	26683.62
281.816	24886.98
282.274	24356.77
282.732	25192.66
283.19	25359.66
283.648	21922.74
284.106	23384.28
284.564	23800.81
285.021	22122.74
285.479	16505.3
285.937	15018.47
286.394	13221.01
286.852	13620.11
287.309	14326.58
287.767	13863.94
288.224	13164.68
288.682	14432.54
289.139	15838.13
289.596	14484.35
290.053	15026.17
290.511	18938.05
290.968	22935.09
291.425	31084.59
291.882	25832.6
292.339	22461.82
292.796	22256.82
293.252	20976.97
293.709	16654.77
294.166	14932.97
294.623	16494.86
295.079	15838.88
295.536	15932.74
295.992	14468.3
296.449	14299.67
296.905	14851.61
297.362	14244.52
297.818	14969.35
298.274	15529.36
298.731	15826.42
299.187	15662.8
299.643	16794.58
300.099	20310.59
300.555	22250.71
301.011	18595.56
301.467	17946.7
301.923	21018.63
302.379	20575.89
302.835	20223.83
303.291	20248.03
303.746	23059.13
304.202	29095.32
304.658	29258.22
305.113	19696.55
305.569	19316.21
306.024	20621.45
306.479	19594.25
306.935	16533.27
307.39	18030.12
307.845	16675.22
308.301	16803.52
308.756	16381.87
309.211	15801.85
309.666	16202.44
310.121	20110.84
310.576	20417.07
311.031	20235
311.486	23244.79
311.94	23246.18
312.395	31100.31
312.85	58388.46
313.305	286807.26
313.759	1485196.58
314.214	107757.12
314.668	85450.02
315.123	71838.63
315.577	25809.56
316.032	22958.9
316.486	28765.84
316.94	22724.45
317.394	15838.27
317.849	12305.66
318.303	11652.38
318.757	10984.34
319.211	12146.18
319.665	10622.17
320.119	10741.87
320.572	15358.17
321.026	14359.72
321.48	11926.23
321.934	12990.09
322.387	12991.55
322.841	14037.37
323.295	12620.87
323.748	14548.78
324.202	14756.82
324.655	17732.12
325.108	24830.8
325.562	17586.15
326.015	20925.04
326.468	15840.34
326.921	17712.14
327.374	16523.82
327.827	17238.4
328.28	19509.29
328.733	13088.4
329.186	11504.25
329.639	10975.49
330.092	9252.79
330.545	8811.09
330.997	8888.59
331.45	9729.66
331.903	11414.06
332.355	19662.49
332.808	19088.83
333.26	15792.14
333.713	17159.45
334.165	17298.86
334.617	23131.8
335.069	18674.91
335.522	33777.96
335.974	37324.18
336.426	34150.91
336.878	23689.05
337.33	12010.17
337.782	11742.83
338.234	14681.9
338.686	17557.31
339.137	20788.98
339.589	19521.27
340.041	15322.93
340.493	13185.23
340.944	13524.41
341.396	14547.1
341.847	12232.07
342.299	14457.2
342.75	17609.08
343.201	15387.69
343.653	17660.76
344.104	21733.37
344.555	17120.86
345.006	26561.93
345.457	20329.16
345.908	16144.44
346.359	15187.02
346.81	12336.27
347.261	12967.23
347.712	12783.63
348.163	13698.73
348.613	13908.74
349.064	12967.28
349.515	11333.53
349.965	11649.71
350.416	14026.06
350.866	15418.99
351.317	17395.65
351.767	28835.42
352.217	36521.56
352.668	30320.15
353.118	27765.15
353.568	26717.73
354.018	21134.13
354.468	22336.08
354.918	16029.05
355.368	14030.5
355.818	19792
356.268	57054.96
356.718	239353.9
357.168	59553.7
357.617	29895.65
358.067	33271.44
358.517	31183.84
358.966	36622.72
359.416	41069.26
359.865	44427.1
360.315	52990.54
360.764	24775.21
361.213	13886.32
361.663	13130.33
362.112	16224.52
362.561	26195.62
363.01	19768.78
363.459	16690.59
363.908	18100.95
364.357	15406.95
364.806	25958.15
365.255	17867.86
365.703	16413.9
366.152	16468.18
366.601	13392.5
367.05	10891.96
367.498	9937.19
367.947	10402.74
368.395	10809.81
368.844	9581.11
369.292	11560.88
369.74	8024.48
370.189	12298.03
370.637	14419.8
371.085	12473.12
371.533	15184.53
371.981	14655.93
372.429	14009.04
372.877	14642.18
373.325	12297.22
373.773	12567.22
374.221	11216.94
374.669	13961.26
375.116	12101.95
375.564	12241.33
376.012	13744.04
376.459	11412.39
376.907	13702.59
377.354	16634.17
377.801	15569.51
378.249	17980.14
378.696	23090.14
379.143	28135.96
379.591	30134.95
380.038	51282
380.485	37290.18
380.932	40438.66
381.379	37217.8
381.826	27526.35
382.273	19636.47
382.72	17229.5
383.166	16889.89
383.613	11006.65
384.06	9968.94
384.506	11594.38
384.953	8546.57
385.4	8652.21
385.846	7607.31
386.292	7421.96
386.739	7294.42
387.185	7247.46
387.631	7304.88
388.078	7117.43
388.524	7645.93
388.97	7099.32
389.416	5944.19
389.862	6340.99
390.308	6024.8
390.754	6146.12
391.2	6713.79
391.645	6896.97
392.091	6616.49
392.537	6411.72
392.983	6447.5
393.428	6372.13
393.874	6846.25
394.319	6895.63
394.765	6573.33
395.21	6777.04
395.655	6378.4
396.101	5986.29
396.546	5416.18
396.991	5477.63
397.436	5105.72
397.881	4939.04
398.326	4680.26
398.771	4427.77
399.216	3869.33
399.661	3488.18
400.106	3479.96
400.551	3560.02
400.995	3195.67
401.44	3160.37
401.885	2970.43
402.329	2992.17
402.774	2866.69
403.218	2766.63
403.663	2663.32
404.107	2736.42
404.551	2751.15
404.995	2514.5
405.44	2420.19
405.884	2449.04
406.328	2364.99
406.772	2354.7
407.216	2140.4
407.66	2066.47
408.104	1957.27
408.547	1830.42
408.991	1766.84
409.435	1695.51
409.879	1673.61
410.322	1647.49
410.766	1588.1
411.209	1507.44
411.653	1446.24
412.096	1415.02
412.54	1410.3
412.983	1404.01
413.426	1405.74
413.869	1404.33
414.312	1380.89
414.756	1329.63
415.199	1269.5
415.642	1232.18
416.085	1235.49
416.527	1223.87
416.97	1243.23
417.413	1182.97
417.856	1169.27
418.298	1157.89
418.741	1149.18
419.184	1142.57
419.626	1185.44
420.069	1184.65
420.511	1190.32
420.953	1161.91
421.396	1150.71
421.838	1119.35
422.28	1143.05
422.722	1147.88
423.164	1161.72
423.606	1142
424.048	1138.72
424.49	1082
424.932	1075.79
425.374	1062.16
425.816	1081.17
426.258	1102.14
426.699	1115.52
427.141	1098.46
427.582	1113.17
428.024	1107.6
428.465	1101.43
428.907	1075.22
429.348	1062.29
429.789	1062.42
430.231	1040.07
430.672	1053.41
431.113	1028.58
431.554	1012.71
431.995	988.21
432.436	955.63
432.877	935.56
433.318	921.01
433.759	917.8
434.2	920.26
434.64	911.44
435.081	914.12
435.522	867.69
435.962	837.38
436.403	819.23
436.843	831.46
437.284	814.19
437.724	792.98
438.164	795.8
438.604	778.86
439.045	750.05
439.485	719.23
439.925	704.17
440.365	687.74
440.805	679.21
441.245	672.95
441.685	648.7
442.125	644.43
442.564	649.46
443.004	635.57
443.444	634.95
443.883	636.93
444.323	633.95
444.762	637.31
445.202	646.58
445.641	659.52
446.081	656.93
446.52	663.64
446.959	658.91
447.398	645.55
447.837	639.74
448.276	630.42
448.716	636.61
449.154	642.71
449.593	628.93
450.032	628.58
450.471	617.06
450.91	618.63
451.349	618.95
451.787	615.92
452.226	624.65
452.664	624.96
453.103	625.96
453.541	627.01
453.98	627.01
454.418	630.62
454.856	620.78
455.295	621.03
455.733	627.22
456.171	629.57
456.609	631.75
457.047	631.86
457.485	640.97
457.923	641.87
458.361	632.83
458.798	634.1
459.236	632.32
459.674	636.61
460.111	639.62
460.549	632.32
460.987	629.22
461.424	627.61
461.862	624.86
462.299	614.51
462.736	614.49
463.173	615.24
463.611	609.4
464.048	608.8
464.485	613.35
464.922	606.98
465.359	604.04
465.796	598.42
466.233	593.77
466.67	588.11
467.106	587.94
467.543	582.79
467.98	576.1
468.416	562.01
468.853	557.65
469.29	541.1
469.726	535.1
470.162	521.2
470.599	513.06
471.035	507.5
471.471	494.95
471.907	491.84
472.344	488.33
472.78	489.85
473.216	494.76
473.652	488.51
474.088	487.21
474.523	486.39
474.959	489.76
475.395	485.66
475.831	483.01
476.266	484.91
476.702	483.4
477.138	477.56
477.573	476.08
478.008	474.39
478.444	476.39
478.879	480.69
479.314	482.7
479.75	482.54
480.185	485.02
480.62	488.54
481.055	490.8
481.49	494.58
481.925	501.78
482.36	511.76
482.795	526.02
483.229	539.96
483.664	551.6
484.099	553.2
484.534	562.43
484.968	568.12
485.403	571.35
485.837	571.49
486.271	571.26
486.706	572.39
487.14	565.22
487.574	556.74
488.009	552.63
488.443	548.49
488.877	555.48
489.311	557.98
489.745	565.23
490.179	570.44
490.613	582.61
491.046	588.41
491.48	594.39
491.914	596.72
492.348	603.61
492.781	608.78
493.215	612.3
493.648	615.46
494.082	622.18
494.515	625.74
494.948	636.38
495.382	643.01
495.815	649.69
496.248	656.73
496.681	672.25
497.114	685.43
497.547	698.16
497.98	713.5
498.413	723.28
498.846	736.98
499.279	748.3
499.711	755.63
500.144	762.76
500.577	777.11
501.009	793.56
501.442	806.69
501.874	812.74
502.306	820.28
502.739	833.24
503.171	852.65
503.603	860.92
504.036	875.38
504.468	887.75
504.9	905.22
505.332	917.79
505.764	928.15
506.196	941.23
506.627	961.26
507.059	980.96
507.491	996.27
507.923	1000.26
508.354	1023.37
508.786	1041.83
509.217	1067.02
509.649	1088.69
510.08	1115.27
510.512	1139.29
510.943	1163.54
511.374	1183.77
511.805	1212.74
512.237	1240.42
512.668	1283.52
513.099	1320.04
513.53	1357.66
513.961	1386.14
514.391	1428.9
514.822	1472.46
515.253	1519.49
515.684	1553.12
516.114	1592.19
516.545	1623.22
516.975	1659.76
517.406	1686.64
517.836	1693.82
518.267	1705.03
518.697	1731.77
519.127	1740.99
519.558	1754.5
519.988	1762.82
520.418	1780.19
520.848	1805.09
521.278	1817.5
521.708	1824.41
522.138	1842.41
522.567	1884.3
522.997	1919.16
523.427	1940.02
523.857	1962.46
524.286	1978.65
524.716	1998.85
525.145	2023.03
525.575	2038.35
526.004	2058.42
526.433	2069.84
526.863	2071.65
527.292	2059.53
527.721	2068.05
528.15	2077.27
528.579	2080.53
529.008	2095.21
529.437	2126.57
529.866	2146.2
530.295	2169.69
530.724	2186.84
531.152	2221.77
531.581	2242.2
532.01	2266.77
532.438	2276.95
532.867	2297.47
533.295	2321.78
533.723	2330.42
534.152	2327.97
534.58	2328.45
535.008	2310.5
535.436	2314.17
535.865	2325.33
536.293	2344.01
536.721	2365.68
537.149	2401.15
537.576	2405.72
538.004	2423.56
538.432	2435.08
538.86	2434.61
539.287	2445.86
539.715	2463.69
540.143	2469.11
540.57	2466.24
540.998	2463.26
541.425	2433.63
541.852	2406.75
542.28	2404.37
542.707	2383.71
543.134	2366.42
543.561	2361.34
543.988	2351.77
544.415	2352.01
544.842	2345.31
545.269	2336.4
545.696	2337.73
546.123	2355.29
546.549	2343.03
546.976	2326.92
547.403	2326.23
547.829	2328.72
548.256	2332.12
548.682	2328.13
549.108	2317.73
549.535	2317.1
549.961	2319.26
550.387	2302.47
550.813	2293.81
551.24	2300.58
551.666	2301.59
552.092	2290.72
552.518	2281.93
552.943	2272.95
553.369	2282.46
553.795	2289.28
554.221	2290.23
554.646	2285.78
555.072	2299.44
555.498	2305.91
555.923	2317.23
556.349	2337
556.774	2346.94
557.199	2348.43
557.625	2357.33
558.05	2348.55
558.475	2362.58
558.9	2360.03
559.325	2349.23
559.75	2341.19
560.175	2331.77
560.6	2322.99
561.025	2320.16
561.449	2321.2
561.874	2327.94
562.299	2332.46
562.723	2341.04
563.148	2328.98
563.572	2334.56
563.997	2347.29
564.421	2353.67
564.846	2355.2
565.27	2361.63
565.694	2357.92
566.118	2372.57
566.542	2382.42
566.966	2374.31
567.39	2368.35
567.814	2352.5
568.238	2352.76
568.662	2360.22
569.086	2364.06
569.509	2374.55
569.933	2351.95
570.357	2343.13
570.78	2316.86
571.204	2300.09
571.627	2285.71
572.05	2282.34
572.474	2282.31
572.897	2264.07
573.32	2252.34
573.743	2238.68
574.166	2213.55
574.589	2213.89
575.012	2203.16
575.435	2199.82
575.858	2187.1
576.281	2173
576.704	2153.5
577.126	2137.83
577.549	2124.8
577.972	2113.6
578.394	2099.15
578.817	2089.39
579.239	2066.09
579.661	2048.18
580.084	2028.21
580.506	2010.42
580.928	2005.05
581.35	1990.84
581.772	1984.05
582.194	1966.7
582.616	1948.8
583.038	1930.55
583.46	1916.78
583.882	1911.77
584.303	1917.3
584.725	1911.35
585.147	1913.08
585.568	1925.11
585.99	1938.82
586.411	1946.74
586.833	1963.2
587.254	1965.04
587.675	1983.29
588.096	1998.27
588.518	1991.2
588.939	1967.77
589.36	1964.09
589.781	1950.85
590.202	1913.44
590.623	1901.91
591.043	1897.79
591.464	1882.22
591.885	1876.32
592.305	1868.76
592.726	1851.86
593.147	1852.05
593.567	1845.37
593.987	1836.24
594.408	1828.59
594.828	1826.88
595.248	1819.62
595.669	1796.35
596.089	1787.1
596.509	1777.94
596.929	1759.94
597.349	1759.71
597.769	1746.53
598.189	1739.6
598.608	1739.89
599.028	1742.46
599.448	1741.36
599.867	1724.5
600.287	1719.1
600.706	1712.86
601.126	1700.27
601.545	1698.31
601.965	1696.05
602.384	1689.73
602.803	1692.41
603.222	1685.97
603.641	1677.44
604.061	1672.57
604.48	1667.15
604.898	1675.13
605.317	1680.85
605.736	1684.04
606.155	1679.01
606.574	1667.63
606.992	1674.55
607.411	1667.46
607.829	1657.11
608.248	1652.07
608.666	1648.01
609.085	1646.72
609.503	1636.41
609.921	1628.29
610.339	1629.16
610.758	1628.16
611.176	1621.46
611.594	1607.94
612.012	1602.75
612.43	1605.73
612.847	1611.98
613.265	1612.53
613.683	1616.27
614.101	1617.57
614.518	1611.63
614.936	1598.5
615.353	1580.47
615.771	1575.69
616.188	1575.1
616.606	1570.38
617.023	1561.37
617.44	1544.33
617.857	1537.22
618.274	1527.07
618.691	1519.29
619.108	1507.58
619.525	1499.68
619.942	1506.09
620.359	1509.59
620.776	1503.83
621.192	1498.86
621.609	1495.17
622.026	1503.57
622.442	1509.28
622.859	1512.4
623.275	1502.34
623.691	1509.22
624.108	1522.39
624.524	1540.13
624.94	1539.94
625.356	1552.08
625.772	1566.84
626.188	1580.92
626.604	1582.66
627.02	1577.41
627.436	1575.25
627.852	1582.62
628.268	1596.58
628.683	1585.98
629.099	1575.12
629.514	1568.59
629.93	1571.54
630.345	1576.99
630.761	1572.58
631.176	1575.9
631.591	1568.16
632.007	1558.97
632.422	1557.1
632.837	1542.09
633.252	1536.92
633.667	1522.02
634.082	1508.71
634.497	1492.36
634.911	1465.21
635.326	1457.93
635.741	1434.38
636.155	1420.36
636.57	1418.83
636.984	1414.69
637.399	1413.54
637.813	1409.44
638.228	1405.22
638.642	1406.52
639.056	1390.31
639.47	1386.91
639.884	1371.95
640.298	1360.28
640.712	1352.84
641.126	1333.97
641.54	1317.22
641.954	1305.28
642.368	1286.69
642.781	1273.01
643.195	1248.84
643.609	1243.64
644.022	1232.33
644.436	1223.75
644.849	1204.92
645.262	1186.98
645.676	1185.14
646.089	1177.45
646.502	1156.66
646.915	1147.93
647.328	1125.46
647.741	1119.04
648.154	1101.47
648.567	1094.49
648.98	1076.94
649.393	1074.43
649.805	1068.49
650.218	1056.96
650.631	1038.45
651.043	1030.36
651.456	1021.54
651.868	1020.17
652.28	1035.83
652.693	1048.43
653.105	1054.08
653.517	1061.26
653.929	1061.07
654.341	1065.41
654.753	1050.83
655.165	1055.42
655.577	1050.98
655.989	1044.08
656.401	1032.77
656.813	994.18
657.224	971.44
657.636	939.95
658.047	920.78
658.459	897.88
658.87	884.92
659.282	870.64
659.693	846.43
660.104	829.08
660.515	812.71
660.926	809.13
661.338	803.33
661.749	793.31
662.159	781.24
662.57	771.87
662.981	763.58
663.392	752.97
663.803	753.47
664.213	746.55
664.624	738.22
665.035	737.62
665.445	719.98
665.855	709.23
666.266	699.27
666.676	693.79
667.086	683.43
667.497	680.03
667.907	672.2
668.317	661.5
668.727	658.29
669.137	657.04
669.547	652.9
669.956	653.56
670.366	653.53
670.776	653.4
671.186	655.89
671.595	657.83
672.005	659.6
672.414	659.58
672.824	658.56
673.233	661.71
673.642	664.42
674.052	666.76
674.461	669.41
674.87	673.3
675.279	671.63
675.688	672.64
676.097	675.67
676.506	674
676.915	687.61
677.323	691.89
677.732	690.82
678.141	691.35
678.549	684.12
678.958	686.18
679.366	688.88
679.775	696.01
680.183	710.89
680.592	718.33
681	727.26
681.408	724.79
681.816	734.79
682.224	748.38
682.632	764.29
683.04	797.71
683.448	826.79
683.856	863.86
684.264	906.22
684.671	944.62
685.079	995.64
685.487	1051.65
685.894	1126.01
686.302	1191.83
686.709	1249.16
687.116	1314.79
687.524	1374.65
687.931	1427.29
688.338	1476.25
688.745	1521.38
689.152	1572.23
689.559	1631.98
689.966	1693.67
690.373	1732.42
690.78	1791.3
691.187	1877.58
691.593	1945.71
692	2005.97
692.407	2092.6
692.813	2192.67
693.22	2274.88
693.626	2360.03
694.032	2429.38
694.439	2530.79
694.845	2608.84
695.251	2709
695.657	2796.47
696.063	2926.72
696.469	3023.93
696.875	3113.66
697.281	3166.46
697.687	3230.07
698.093	3282.02
698.498	3381.73
698.904	3459.23
699.31	3576
699.715	3658.02
700.12	3778.55
700.526	3803.98
700.931	3894.78
701.337	3963.19
701.742	4006
702.147	4116.22
702.552	4156.19
702.957	4234.37
703.362	4261.5
703.767	4299.63
704.172	4353.01
704.577	4293.01
704.981	4354.12
705.386	4375.39
705.791	4365.89
706.195	4465.71
706.6	4473.57
707.004	4576.9
707.408	4536.57
707.813	4568.06
708.217	4550
708.621	4550.8
709.025	4673.96
709.43	4672.84
709.834	4750.46
710.237	4838.49
710.641	4816.73
711.045	4846.15
711.449	4837.67
711.853	4871.82
712.256	4927.56
712.66	4973.51
713.064	5068.29
713.467	5118.87
713.87	5261.36
714.274	5318
714.677	5457.47
715.08	5661.09
715.484	5876.75
715.887	6131.63
716.29	6388.77
716.693	6651.14
717.096	6959.95
717.499	7123.58
717.901	7156.78
718.304	7190.32
718.707	7219.93
719.109	7083.66
719.512	7042.04
719.915	6862.66
720.317	6790.04
720.719	6840.65
721.122	6799.59
721.524	6731.57
721.926	6676.23
722.328	6798.89
722.731	6785.22
723.133	6818.47
723.535	7063.28
723.937	7087.05
724.338	7153.78
724.74	7202.16
725.142	7098.85
725.544	7093.55
725.945	7118.69
726.347	7113.1
726.748	7105.68
727.15	7120.9
727.551	7070.51
727.952	7030.79
728.354	6994.52
728.755	6992.12
729.156	6939.65
729.557	6941.72
729.958	6785.77
730.359	6719.26
730.76	6696.41
731.161	6617.07
731.562	6581.27
731.962	6585.84
732.363	6506.67
732.763	6424.04
733.164	6469.22
733.564	6381.08
733.965	6259.46
734.365	6215.21
734.766	6250.7
735.166	6198.14
735.566	6129.6
735.966	6097.57
736.366	6087.08
736.766	6007.67
737.166	6048.6
737.566	5993.82
737.966	5962.05
738.365	6012.06
738.765	6005.29
739.165	5910.26
739.564	5877.31
739.964	5931.58
740.363	5872.7
740.763	5869.43
741.162	5853.01
741.561	5810.45
741.96	5754.5
742.36	5780.98
742.759	5787.15
743.158	5835.35
743.557	5855.23
743.955	5906.42
744.354	5850.23
744.753	5923.36
745.152	5873.91
745.55	5944.34
745.949	5938.29
746.348	5938.06
746.746	5957.01
747.144	5906.53
747.543	5879.19
747.941	5937.73
748.339	5849.15
748.737	5838.73
749.136	5825.44
749.534	5906.1
749.932	5870.64
750.33	5895.86
750.727	5966.77
751.125	5937.84
751.523	5915.64
751.921	5967.04
752.318	5925.99
752.716	5998.06
753.113	6015.05
753.511	6048.82
753.908	6046.31
754.305	6022.41
754.703	6100.99
755.1	6173.98
755.497	6246.01
755.894	6487.25
756.291	6711.18
756.688	7122.6
757.085	7672.14
757.482	8441.04
757.878	9279.73
758.275	10042.14
758.672	11097.09
759.068	11950.75
759.465	13174.16
759.861	14752
760.258	16570.05
760.654	17514.7
761.05	17379.13
761.447	16585.28
761.843	15438.99
762.239	14258.32
762.635	13727.4
763.031	13210.65
763.427	12468.42
763.822	11685.83
764.218	10919.2
764.614	9923.86
765.01	9257.98
765.405	8822.77
765.801	8498.03
766.196	8083.66
766.592	7849.75
766.987	7455.08
767.382	7189.1
767.778	7078.39
768.173	6917.66
768.568	6822.81
768.963	6666.42
769.358	6686.05
769.753	6627.1
770.148	6518.21
770.542	6517.02
770.937	6478.78
771.332	6593.6
771.726	6617.39
772.121	6539.84
772.515	6608.62
772.91	6591.47
773.304	6680.34
773.699	6601.23
774.093	6667.67
774.487	6738.78
774.881	6794.74
775.275	6790.31
775.669	6738.05
776.063	6795.5
776.457	6841.01
776.851	6750
777.245	6743.68
777.638	6785.64
778.032	6931.8
778.425	6886.86
778.819	6939.17
779.212	6882.8
779.606	6831.26
779.999	6854.65
780.392	6831.41
780.786	6934.36
781.179	6959.63
781.572	7016.46
781.965	7035.17
782.358	6959.9
782.751	7030.51
783.143	6971.48
783.536	7063.77
783.929	7118.46
784.322	7261.27
784.714	7300.84
785.107	7295.89
785.499	7384.09
785.891	7350.15
786.284	7323.72
786.676	7498.55
787.068	7475.73
787.46	7537.88
787.852	7561.25
788.245	7671.69
788.636	7709.27
789.028	7792.47
789.42	7841.11
789.812	7852.14
790.204	7973.08
790.595	8097.43
790.987	7856.43
791.378	7883.66
791.77	8048.56
792.161	8218.41
792.553	8284.34
792.944	8145.23
793.335	8062.41
793.726	8150.7
794.117	8265.67
794.508	8440.65
794.899	8400.65
795.29	8573.49
795.681	8642.48
796.072	8460.28
796.463	8225.77
796.853	8235.67
797.244	8430.3
797.634	8474.3
798.025	8471.96
798.415	8486.03
798.806	8594.24
799.196	8699.73
799.586	8764.2
799.976	8721.09
800.366	9005.64
800.756	9311.48
801.146	9264.49
801.536	9301.15
801.926	9386.92
802.316	9425.16
802.706	9512.56
803.095	9360.7
803.485	9489.19
803.874	9539.61
804.264	9864.23
804.653	9837.57
805.043	10018.09
805.432	10153.86
805.821	10151.92
806.21	10182.75
806.599	10326.59
806.988	10385.59
807.377	10517.18
807.766	10678.95
808.155	11030.25
808.544	10699.6
808.933	10715.98
809.321	10690.53
809.71	11056.93
810.098	11259.35
810.487	11831.86
810.875	12433.53
811.264	12459.4
811.652	12815.4
812.04	12995.3
812.428	13200.21
812.816	14154.69
813.204	14680.11
813.592	15370.09
813.98	15788.76
814.368	15667.69
814.756	16265.74
815.144	16162.85
815.531	16741.83
815.919	16648.88
816.306	17033.13
816.694	16650.46
817.081	16707.02
817.469	17128.43
817.856	17126.79
818.243	17453.61
818.63	17946.76
819.017	17421.99
819.404	17493.61
819.791	17962.38
820.178	18735.09
820.565	19044.94
820.952	20193.59
821.339	19580.34
821.725	19812.73
822.112	18869.86
822.498	18824.97
822.885	18984.55
823.271	18865.43
823.657	19385.51
824.044	19400.34
824.43	19481.91
824.816	19433.82
825.202	18896.93
825.588	20165.12
825.974	20189.79
826.36	20844.51
826.746	20884.1
827.132	21326.71
827.517	21285.42
827.903	20309.78
828.289	20345.34
828.674	19384.31
829.06	19252.67
829.445	19744.83
829.83	20180.8
830.216	20760.62
830.601	21204.65
830.986	20699.54
831.371	20530.32
831.756	21222.62
832.141	20684.19
832.526	20680.46
832.911	21030.5
833.295	20895.29
833.68	21488.19
834.065	20724.55
834.449	19601.75
834.834	19517.76
835.218	19516.61
835.603	19936.26
835.987	19687.42
836.371	20737.71
836.755	20603.79
837.139	21107.33
837.524	21412.04
837.908	21178.41
838.291	21249.79
838.675	21333.99
839.059	21595.09
839.443	21589.74
839.827	21305.05
840.21	21892.88
840.594	21699.31
840.977	21971.32
841.361	21944.69
841.744	22404.95
842.127	22211.18
842.511	22517.53
842.894	23264.75
843.277	23743.16
843.66	24404.21
844.043	24512.2
844.426	23518.76
844.809	23139.2
845.191	23171.84
845.574	22600
845.957	22152.84
846.339	22024.81
846.722	21383.85
847.104	21460.5
847.487	21238.35
847.869	21259.72
848.252	21599.87
848.634	22006.9
849.016	22335.64
849.398	22492.74
849.78	23545.85
850.162	23554.4
850.544	24076
850.926	24851.7
851.307	24747.32
851.689	25095.06
852.071	25651.39
852.452	26053.57
852.834	26033.69
853.215	26517.41
853.597	26712.92
853.978	27073.11
854.359	27632.83
854.741	26385.4
855.122	26252.8
855.503	25899.46
855.884	26068.38
856.265	25993.03
856.646	26142.43
857.026	25667.23
857.407	25587.46
857.788	25778.86
858.169	26128.93
858.549	25078.12
858.93	25861.4
859.31	25928.75
859.69	26179.34
860.071	25671.01
860.451	25407.87
860.831	24493.97
861.211	25920.96
861.591	26596.71
861.971	26573.49
862.351	26833.59
862.731	27310.34
863.111	27629.4
863.491	28038.93
863.87	29124.61
864.25	29572
864.629	29068.89
865.009	29700.23
865.388	30748.46
865.768	32956.61
866.147	32813.22
866.526	30976.4
866.905	31353.7
867.284	33110.29
867.663	31446.56
868.042	30147.77
868.421	30042.7
868.8	30548.18
869.179	30848.95
869.558	29056.54
869.936	26780.57
870.315	27256.96
870.693	27934
871.072	30112.1
871.45	28691.34
871.828	29045.42
872.207	30517.79
872.585	30051.07
872.963	30861.35
873.341	29787.15
873.719	29427.53
874.097	29065.76
874.475	29619.1
874.853	30285.55
875.23	29020.98
875.608	30231.15
875.986	32699.42
876.363	31271.19
876.741	32222.8
877.118	31414.55
877.495	32968.82
877.873	33514.98
878.25	35278.18
878.627	33833.13
879.004	34306.99
879.381	34153.37
879.758	33238.3
880.135	30956.19
880.512	32741.98
880.889	31871.61
881.265	31542.28
881.642	31272.58
882.019	31818
882.395	31176.14
882.772	32422.52
883.148	31017.23
883.524	30879.35
883.901	30714.97
884.277	31161.76
884.653	30979.49
885.029	31879.97
885.405	35314.08
885.781	35053.9
886.157	33609.66
886.532	34022.86
886.908	33997.88
887.284	37802.94
887.659	39066.75
888.035	40294.61
888.411	41343
888.786	41879.29
889.161	43327.3
889.537	42522.46
889.912	43876.35
890.287	43831.46
890.662	44972.33
891.037	44172.08
891.412	41190.96
891.787	40775.5
892.162	39355.02
892.536	40275.23
892.911	38755.14
893.286	37928.37
893.66	36381.19
894.035	37300.3
894.409	40612.65
894.784	38966.6
895.158	39606.45
895.532	41951.75
895.906	43088.31
896.281	44083.29
896.655	43384.7
897.029	49571.05
897.402	51631.64
897.776	57494.48
898.15	57308.93
898.524	56693.07
898.898	57441.16
899.271	64311.99
899.645	55703.61
900.018	53490.15
900.392	55487.03
900.765	55948.01
901.138	51791.89
901.511	51034.25
901.884	46859.12
902.258	43230.32
902.631	44652.45
903.003	51407.54
903.376	46371.92
903.749	52019.04
904.122	55705.19
904.495	61344.16
904.867	62109.04
905.24	53906.75
905.612	50175.82
905.985	51320.67
906.357	53645.91
906.729	51228.44
907.102	43740.26
907.474	42076.9
907.846	42335.39
908.218	41783.88
908.59	36908.31
908.962	35683.85
909.334	38446.3
909.705	40348.7
910.077	39160.38
910.449	40770.23
910.82	41901.14
911.192	46118.47
911.563	47901.28
911.935	51253.29
912.306	51306.78
912.677	52993.3
913.048	52482.23
913.419	56911.9
913.79	57259.63
914.161	61436.81
914.532	58731.55
914.903	53992.06
915.274	51268.98
915.645	50540.61
916.015	44485.97
916.386	42408.94
916.756	45132.71
917.127	46532.23
917.497	41568.15
917.868	45224.42
918.238	42960.29
918.608	44153.99
918.978	45045.14
919.348	47684.35
919.718	49270.26
920.088	47452.37
920.458	49301.1
920.828	51875.19
921.198	49175.69
921.567	52552.08
921.937	40735.93
922.306	41130.59
922.676	44365.83
923.045	37009.08
923.415	35163.71
923.784	32025.94
924.153	32933.34
924.522	32879.25
924.891	30909.75
925.26	33109.41
925.629	32319.96
925.998	37115.76
926.367	36220.25
926.736	34484.71
927.104	41094.82
927.473	44202.55
927.842	53351.99
928.21	52826.68
928.578	55554.44
928.947	52541.51
929.315	52865.33
929.683	62001.24
930.051	62529.93
930.42	72602.17
930.788	62103.84
931.156	61616.13
931.523	57739.53
931.891	53376.45
932.259	51275.87
932.627	59416.4
932.994	84073.01
933.362	69465.35
933.729	60298.31
934.097	57738.98
934.464	48864.64
934.831	56357.45
935.199	55532.74
935.566	53835.13
935.933	54584.35
936.3	66088.43
936.667	51470.53
937.034	46364.77
937.401	45859.83
937.767	39596.11
938.134	35226.23
938.501	49661.31
938.867	52917.71
939.234	89514.56
939.6	76364.36
939.967	84048.81
940.333	56224.06
940.699	47829.1
941.065	38409.63
941.431	50316.52
941.798	48491.88
942.163	63633.61
942.529	39745.81
942.895	36614.11
943.261	23643.94
943.627	31026.79
943.992	27149.59
944.358	27199.84
944.723	27296.15
945.089	26591.01
945.454	24574.56
945.82	26242.67
946.185	25243.01
946.55	29256.54
946.915	26231.81
947.28	30770.51
947.645	27104.78
948.01	25016.76
948.375	26122.33
948.74	31318.33
949.104	36587.22
949.469	52904.62
949.834	93541.8
950.198	88610.83
950.562	53120.99
950.927	44228.19
951.291	53296.41
951.655	45404.48
952.02	42681.63
952.384	32247.17
952.748	28081
953.112	27326.88
953.476	23777.34
953.839	21977.17
954.203	21747.97
954.567	27196.79
954.931	42856.63
955.294	36670.63
955.658	36898
956.021	62708.69
956.385	106384.3
956.748	156923.36
957.111	243961.54
957.474	273668.97
957.837	308230.29
958.2	233551.97
958.563	84057.06
958.926	56842.56
959.289	86262.86
959.652	96304.97
960.015	72316.98
960.377	103730.41
960.74	118501.64
961.102	204601.51
961.465	219714.34
961.827	117545.08
962.189	225356.33
962.552	156234.22
962.914	125344.02
963.276	81317.46
963.638	67232.91
964	66586.09
964.362	45052.02
964.724	43567.7
965.085	31065.36
965.447	25491.05
965.809	29112.78
966.17	29169.04
966.532	31555.85
966.893	28960.4
967.255	26375.63
967.616	31155.45
967.977	24928.2
968.338	27222.83
968.699	22356.79
969.061	22355.69
969.421	22492.39
969.782	25236.92
970.143	21325.85
970.504	22098.73
970.865	25101.88
971.225	25648.29
971.586	25065.02
971.946	35762.89
972.307	31071.87
972.667	40619.45
973.027	41795.35
973.388	50695.38
973.748	34450.07
974.108	37521.6
974.468	50804.09
974.828	39190.03
975.188	30168.69
975.548	27724.54
975.907	23286.73
976.267	26076.12
976.627	21908.95
976.986	22736.64
977.346	21673.41
977.705	20865.78
978.064	19001.06
978.424	15813.02
978.783	16367.85
979.142	18672.82
979.501	17854.37
979.86	18868.23
980.219	18198.05
980.578	23501.58
980.937	26322.64
981.296	23471.03
981.654	24149.81
982.013	37587.89
982.371	48726.3
982.73	45518.1
983.088	51602
983.447	55217.59
983.805	78906.04
984.163	164921.58
984.521	182909.28
984.879	268178.21
985.237	-436147
985.595	420274.66
985.953	104570.95
986.311	60387.81
986.669	35009.51
987.026	30211.32
987.384	40651.26
987.741	42021.96
988.099	30033.31
988.456	23957.12
988.814	22389.07
989.171	19446.35
989.528	19208.43
989.885	20256.35
990.242	16043.02
990.599	19991.2
990.956	16341.28
991.313	11412.62
991.67	9364.28
992.027	9896.76
992.383	8782.89
992.74	7712.7
993.096	8094.05
993.453	8400.06
993.809	8716.29
994.165	11626.93
994.522	10647.54
994.878	11752.08
995.234	14748.85
995.59	14577.07
995.946	13861.92
996.302	15830.65
996.658	18303.81
997.013	20149.99
997.369	23842.99
997.725	30502.54
998.08	19730.7
998.436	30485.57
998.791	42043.09
999.147	41959.22
999.502	45699.06
999.857	33201.47
1000.212	54119.3
1000.567	76972.06
1000.922	44470.77
1001.277	28287.28
1001.632	20961.65
1001.987	27005
1002.342	19344.79
1002.696	15455.75
1003.051	12323.92
1003.406	14924.82
1003.76	14813.24
1004.114	14579.73
1004.469	12261.54
1004.823	10145.9
1005.177	10947.59
1005.531	8679.7
1005.885	7701.37
1006.239	8681.78
1006.593	10878.7
1006.947	14591.38
1007.301	10943.03
1007.655	11943.75
1008.008	8779.74
1008.362	9875.96
1008.715	14118.16
1009.069	12828.25
1009.422	19271.88
1009.776	38580.83
1010.129	25654.43
1010.482	21391.07
1010.835	18082.1
1011.188	37681.16
1011.541	35534.09
1011.894	-217013.88
1012.247	639610.97
1012.6	43555.66
1012.952	27375.34
1013.305	14124.25
1013.657	10199.05
1014.01	9640.34
1014.362	7981.09
1014.715	7070.42
1015.067	6156.19
1015.419	6012.64
1015.771	5335.09
1016.123	4722.8
1016.475	4845.67
1016.827	5181.41
1017.179	5568.69
1017.531	5631.98
1017.883	5755.63
1018.234	5537.27
1018.586	6999.38
1018.938	7400.92
1019.289	10225.68
1019.64	11676.31
1019.992	10921.21
1020.343	10016.71
1020.694	7911.85
1021.045	6990.96
1021.396	7970.79
1021.747	8561.6
1022.098	10316.25
1022.449	7478.68
1022.8	6944.16
1023.151	4827.89
1023.501	4276
1023.852	4626.34
1024.202	4782.52
1024.553	5263.59
1024.903	5146.07
1025.253	4397.37
1025.604	3958.14
1025.954	4922.35
1026.304	6011.1
1026.654	7031.12
1027.004	10284.31
1027.354	16673.28
1027.703	15772.34
1028.053	20825.76
1028.403	30245.7
1028.753	43889.62
1029.102	59703.08
1029.452	306314.79
1029.801	13192.19
1030.15	8514.18
1030.499	7199.99
897.758	2540.56
901.051	2491.13
904.343	2527.12
907.636	2529.06
910.928	2594.13
914.22	2505.35
917.511	2513.52
920.803	2572.9
924.094	2586.49
927.384	2573.39
930.675	2538.72
933.965	2494.16
937.255	2510.01
940.544	2475.45
943.834	2434.58
947.123	2374.54
950.411	2468.92
953.7	2442.13
956.988	2415.91
960.276	2355.6
963.563	2429.81
966.851	2425.93
970.138	2482.28
973.424	2476.74
976.711	2427.93
979.997	2535.53
983.283	2576.15
986.568	2488.41
989.853	2499.83
993.138	2527.43
996.423	2611.66
999.708	2552.27
1002.992	2609.5
1006.275	2464.63
1009.559	2499.02
1012.842	2608.78
1016.125	2546.51
1019.408	2526.66
1022.69	2608.16
1025.972	2629.74
1029.254	2604.76
1032.536	2544.07
1035.817	2568.03
1039.098	2520.32
1042.379	2640.39
1045.659	2648.02
1048.939	2587.13
1052.219	2604.84
1055.498	2610.92
1058.778	2598.06
1062.057	2582.46
1065.335	2604.52
1068.614	2621.61
1071.892	2607.89
1075.17	2678.46
1078.447	2670.04
1081.724	2663.89
1085.001	2698.68
1088.278	2673.29
1091.554	2687.91
1094.83	2682.61
1098.106	2711.77
1101.382	2752.63
1104.657	2755.94
1107.932	2750.85
1111.206	2718.01
1114.481	2676.1
1117.755	2679.02
1121.029	2662.13
1124.302	2718.8
1127.575	2671.09
1130.848	2663.69
1134.121	2627.76
1137.393	2580.72
1140.665	2644.24
1143.937	2621.93
1147.208	2579.92
1150.48	2625.13
1153.75	2608.95
1157.021	2634.8
1160.291	2606.26
1163.561	2654.85
1166.831	2637.21
1170.101	2667.49
1173.37	2639.68
1176.639	2586.62
1179.907	2643.43
1183.176	2652.03
1186.444	2658.86
1189.711	2688.34
1192.979	2702.96
1196.246	2656.5
1199.513	2673.75
1202.78	2673.3
1206.046	2682.45
1209.312	2706.14
1212.578	2730.79
1215.843	2686.16
1219.108	2659.03
1222.373	2682.76
1225.638	2647.03
1228.902	2632.86
1232.166	2596.59
1235.43	2579.26
1238.693	2604.03
1241.956	2598.16
1245.219	2643.8
1248.482	2630.96
1251.744	2625.23
1255.006	2768.4
1258.268	2719.53
1261.529	2665.46
1264.79	2670.08
1268.051	2775.88
1271.312	2789.04
1274.572	2754.8
1277.832	2745.58
1281.092	2733
1284.351	2710.68
1287.61	2691.5
1290.869	2611.31
1294.128	2593.98
1297.386	2674.47
1300.644	2663.06
1303.902	2675.62
1307.159	2534.38
1310.416	2588.93
1313.673	2614.43
1316.93	2600.94
1320.186	2644.15
1323.442	2685.47
1326.697	2678.35
1329.953	2664.16
1333.208	2688.66
1336.463	2668.04
1339.717	2610.11
1342.972	2739.76
1346.226	2714.13
1349.479	2650.52
1352.733	2624.36
1355.986	2641.79
1359.238	2620.18
1362.491	2621.78
1365.743	2621.68
1368.995	2618.21
1372.247	2630.96
1375.498	2653.62
1378.749	2675.77
1382	2626.97
1385.251	2677.41
1388.501	2634.53
1391.751	2621.54
1395	2588.27
1398.25	2621.49
1401.499	2633.63
1404.748	2565.38
1407.996	2549.9
1411.244	2535.76
1414.492	2517.54
1417.74	2496.15
1420.987	2504.64
1424.234	2561.4
1427.481	2536.95
1430.728	2596.46
1433.974	2568.56
1437.22	2578.97
1440.465	2579.44
1443.711	2553.79
1446.956	2585.96
1450.201	2568.62
1453.445	2616.03
1456.689	2594.2
1459.933	2608.56
1463.177	2644.17
1466.42	2616.66
1469.663	2596.26
1472.906	2596.24
1476.148	2657.16
1479.391	2635.07
1482.633	2602.19
1485.874	2616.87
1489.115	2605.42
1492.356	2610.32
1495.597	2584.95
1498.838	2585.77
1502.078	2558.04
1505.318	2514.88
1508.557	2557.6
1511.797	2544.34
1515.036	2596.35
1518.274	2588.47
1521.513	2558.66
1524.751	2579.17
1527.989	2594.6
1531.227	2609.86
1534.464	2610.13
1537.701	2625.09
1540.938	2642.96
1544.174	2595.3
1547.41	2592.73
1550.646	2632.62
1553.882	2674.36
1557.117	2728.11
1560.352	2742.85
1563.587	2699.27
1566.821	2662.29
1570.055	2692.54
1573.289	2666.52
1576.523	2739
1579.756	2746.48
1582.989	2765.78
1586.222	2726.72
1589.454	2761.99
1592.686	2738.52
1595.918	2765.25
1599.15	2757.44
1602.381	2825.28
1605.612	2787.18
1608.843	2884.02
1612.073	2797.53
1615.303	2783.56
1618.533	2779.15
1621.762	2775.94
1624.992	2760.49
1628.221	2750.24
1631.449	2736.93
1634.678	2786.75
1637.906	2741.13
1641.134	2779.14
1644.361	2737.29
1647.588	2726.07
1650.815	2742.91
1654.042	2716.9
1657.269	2751.48
1660.495	2707.61
1663.72	2721.67
1666.946	2686.18
1670.171	2635.78
1673.396	2613.9
1676.621	2599.92
1679.845	2613.05
1683.069	2628.96
1686.293	2667.54
1689.517	2644.8
1692.74	2578.15
1695.963	2607.02
1699.185	2632.27
1702.408	2603.48
1705.63	2643.57
1708.852	2654.82
1712.073	2627.25
1715.294	2618.12
1718.515	2677.63
1721.736	2629.54
1724.956	2615.41
1728.176	2639.49
1731.396	2662.13
1734.616	2646.36
1737.835	2677.54
1741.054	2656.58
1744.272	2649.08
1747.491	2680.09
1750.709	2724.94
1753.927	2639.7
1757.144	2678.95
1760.361	2727.72
1763.578	2715.25
1766.795	2659.12
1770.011	2659.26
1773.227	2696.89
1776.443	2732.1
1779.658	2777.34
1782.874	2716.71
1786.089	2699.6
1789.303	2701.01
1792.518	2705.83
1795.732	2692.35
1798.945	2703.16
1802.159	2751.2
1805.372	2662.14
1808.585	2649.36
1811.797	2649.79
1815.01	2690.05
1818.222	2699.24
1821.434	2676.28
1824.645	2732.71
1827.856	2721.76
1831.067	2756.16
1834.278	2708.76
1837.488	2689.13
1840.698	2834.8
1843.908	2761.51
1847.117	2725.18
1850.326	2621.34
1853.535	2713.52
1856.744	2733.02
1859.952	2644.24
1863.16	2646
1866.368	2665.42
1869.575	2770.26
1872.782	2654.89
1875.989	2589.52
1879.196	2663.61
1882.402	2652.66
1885.608	2690.36
1888.814	2601.57
1892.019	2496.74
1895.224	2550.03
1898.429	2527.31
1901.634	2504.16
1904.838	2481.11
1908.042	2529.75
1911.246	2539.77
1914.449	2479.6
1917.652	2472.38
1920.855	2454.06
1924.058	2496.51
1927.26	2536.98
1930.462	2562.34
1933.664	2589.58
1936.865	2530.96
1940.066	2538.83
1943.267	2487.37
1946.467	2497.17
1949.668	2523.17
1952.868	2590.57
1956.067	2572.13
1959.267	2507.05
1962.466	2533.24
1965.665	2519.16
1968.863	2515.16
1972.061	2525
1975.259	2523.91
1978.457	2600.68
1981.654	2562.67
1984.852	2562.27
1988.048	2501.81
1991.245	2501.34
1994.441	2585.51
1997.637	2564.6
2000.833	2542.52
2004.028	2581.19
2007.223	2640.59
2010.418	2618.95
2013.613	2577.36
2016.807	2553.36
2020.001	2560.75
2023.194	2596.16
2026.388	2575.75
2029.581	2521.96
2032.774	2574.03
2035.966	2585.72
2039.158	2521.61
2042.35	2544.61
2045.542	2471.57
2048.733	2570.21
2051.924	2586.83
2055.115	2609.33
2058.306	2559.36
2061.496	2617.75
2064.686	2678.74
2067.875	2590.81
2071.065	2600.37
2074.254	2624.51
2077.442	2577.75
2080.631	2667.66
2083.819	2567.44
2087.007	2550.77
2090.195	2524.88
2093.382	2558.17
2096.569	2537.77
2099.756	2493.65
2102.942	2524.32
2106.128	2532.94
2109.314	2523.58
2112.5	2491.99
2115.685	2465.12
2118.87	2475.26
2122.055	2540.58
2125.239	2510.31
2128.424	2488.3
2131.608	2578.7
2134.791	2562.84
2137.974	2615.9
2141.157	2600.94
2144.34	2557.2
2147.523	2568.03
2150.705	2584.85
2153.887	2561.1
2157.068	2515.17
2160.25	2513.53
2163.431	2542.98
2166.611	2496.93
2169.792	2513.8
2172.972	2411.66
2176.152	2484.62
2179.331	2518.12
2182.511	2502.22
2185.69	2532.1
2188.868	2528.47
2192.047	2577.03
2195.225	2572.41
2198.403	2525.23
2201.58	2515.06
2204.758	2507.87
2207.935	2589.47
2211.111	2483.67
2214.288	2469.7
2217.464	2508.79
2220.64	2473.5
2223.815	2526.41
2226.991	2450.92
2230.166	2471.41
2233.34	2501.76
2236.515	2523.4
2239.689	2591.78
2242.863	2538.8
2246.036	2593.86
2249.209	2590.21
2252.382	2618.47
2255.555	2613.33
2258.727	2555.14
2261.9	2593.38
2265.071	2583.89
2268.243	2586.1
2271.414	2522.66
2274.585	2489.66
2277.756	2554.78
2280.926	2510.9
2284.096	2547.03
2287.266	2462.01
2290.436	2513.17
2293.605	2542.73
2296.774	2570.93
2299.942	2588.05
2303.111	2605.36
2306.279	2653.63
2309.447	2640.66
2312.614	2613.75
2315.781	2635
2318.948	2605.74
2322.115	2644.9
2325.281	2546.55
2328.447	2561.3
2331.613	2537.87
2334.779	2514.8
2337.944	2513.93
2341.109	2513.8
2344.274	2499.17
2347.438	2465.29
2350.602	2490.01
2353.766	2506.29
2356.929	2492.45
2360.092	2535.89
2363.255	2489.55
2366.418	2432.26
2369.58	2534.37
2372.742	2345.37
2375.904	2354.81
2379.066	2332.94
2382.227	2362.78
2385.388	2324.21
2388.548	2257.37
2391.709	2307.95
2394.869	2286.99
2398.029	2378.3
2401.188	2386.07
2404.347	2326.1
2407.506	2451.1
2410.665	2481.94
2413.823	2483.15
2416.981	2447.98
2420.139	2476.88
2423.296	2524.16
2426.453	2496.81
2429.61	2519.77
2432.767	2460.79
2435.923	2499.29
2439.079	2459.81
2442.235	2505.25
2445.391	2437.59
2448.546	2468.83
2451.701	2515.23
2454.855	2493.39
2458.009	2538.42
2461.163	2536.51
2464.317	2499.47
2467.471	2531.56
2470.624	2567.58
2473.777	2543.3
2476.929	2557.7
2480.082	2582.71
2483.234	2549.15
2486.385	2498.51
2489.537	2490.6
2492.688	2458.53
2495.839	2479.22
2498.989	2489.67
2502.14	2475.06
2505.29	2461.9
2508.439	2483.45
2511.589	2411.23
2514.738	2417.94
2517.887	2448.28
2521.035	2515.78
2524.183	2494.11
2527.331	2476.58
2530.479	2454.38
2533.627	2463.29
