Data from N_2_DIV_IL_4N_Splice17_12-35-44-468.txt Node
Date: Sat Mar 14 12:35:44 EDT 2020
User: sa697716
Spectrometer: FLMS03696
Trigger mode: 0
Integration Time (sec): 3.180400E-1
Scans to average: 20
Electric dark correction enabled: true
Nonlinearity correction enabled: true
Boxcar width: 5
XAxis mode: Wavelengths
Number of Pixels in Spectrum: 2048
>>>>>Begin Spectral Data<<<<<
187.83	-267934.91
188.298	1936.45
188.766	1075.65
189.233	973.06
189.701	1340.14
190.169	1932.07
190.636	721.54
191.104	538.28
191.571	28.1
192.039	-126.58
192.506	-142.11
192.974	301.42
193.441	-653.4
193.908	-219.68
194.375	-37.72
194.842	-24.96
195.31	65.69
195.777	168.45
196.244	380.25
196.711	433.93
197.177	560.21
197.644	819.47
198.111	1413.37
198.578	2009.48
199.045	1637
199.511	2645.08
199.978	3095.17
200.445	2639.8
200.911	2907.78
201.378	3228.68
201.844	2958.36
202.31	5026.23
202.777	5234.68
203.243	2890.41
203.709	2738.99
204.176	3249.24
204.642	2708.1
205.108	2518.4
205.574	2055.36
206.04	1868.82
206.506	1755.28
206.972	1639.37
207.438	1594.29
207.903	1830.21
208.369	1610.08
208.835	1618.46
209.301	1696.22
209.766	1723.2
210.232	1719.1
210.697	2130.07
211.163	2644.02
211.628	3998.84
212.094	3383.53
212.559	4200.23
213.024	2598.59
213.49	3208.13
213.955	3154.14
214.42	3103.37
214.885	2902.09
215.35	2794.37
215.815	2705.37
216.28	2890.09
216.745	2376.98
217.21	2600.34
217.675	2408.56
218.14	2747.35
218.604	3109.92
219.069	3605.74
219.534	3846.32
219.998	4564.32
220.463	5624.09
220.927	7046.83
221.392	6723.95
221.856	6883.19
222.32	8786.49
222.785	10947.29
223.249	13931.5
223.713	15661.12
224.177	15760.86
224.642	20341.19
225.106	25171.74
225.57	27642.11
226.034	20628.37
226.497	31480.84
226.961	28496.16
227.425	33260.43
227.889	37045.44
228.353	37144.92
228.816	76929.94
229.28	73748.68
229.744	62446.29
230.207	38021.96
230.671	37456.35
231.134	62125.83
231.597	71805.25
232.061	72041.59
232.524	70476.17
232.987	48574.45
233.45	43747.81
233.914	39318.97
234.377	40395.22
234.84	37013.44
235.303	43718.25
235.766	48908.96
236.229	50594.9
236.691	31910.34
237.154	35858.83
237.617	26978.64
238.08	27696.7
238.542	32465.05
239.005	23219.14
239.468	23066.43
239.93	21754.95
240.393	19790.95
240.855	17395.18
241.317	17849.45
241.78	21745.25
242.242	22527.27
242.704	24335.56
243.166	21191.2
243.629	19230.63
244.091	22179.7
244.553	24300.24
245.015	26125.61
245.477	33836.64
245.939	49636.53
246.4	52678.95
246.862	51237.15
247.324	48320.77
247.786	54142.13
248.247	71031.82
248.709	73501.25
249.17	54999.34
249.632	51830.89
250.093	60099.92
250.555	51908.23
251.016	31640.73
251.477	30003.68
251.939	32411.71
252.4	34011.63
252.861	40428
253.322	37598.23
253.783	44760.61
254.244	58051.71
254.705	45802.24
255.166	40729.09
255.627	40100.11
256.088	56522.7
256.549	60094
257.009	51691.31
257.47	62727.13
257.931	51123.6
258.391	38310.48
258.852	39480.68
259.312	41401.87
259.773	51112.75
260.233	43194.1
260.694	36423.28
261.154	41332.91
261.614	33139.1
262.074	29634.41
262.534	30747.64
262.994	28955.05
263.455	38592.38
263.915	32497.57
264.374	30609.25
264.834	33443.42
265.294	37090.31
265.754	38396.63
266.214	36344.78
266.673	34041.93
267.133	42960.11
267.593	42657.21
268.052	52197.97
268.512	45391.49
268.971	54676.86
269.431	59903.16
269.89	53646.12
270.349	80355.83
270.809	89608.14
271.268	80536.11
271.727	180621.87
272.186	117003.41
272.645	87727.35
273.104	63278.46
273.563	91540.76
274.022	72058.81
274.481	61297.35
274.94	47168.71
275.399	35060.78
275.857	40817.48
276.316	55200.75
276.775	49102.75
277.233	48332.76
277.692	45243.58
278.15	51183.79
278.609	52671.93
279.067	48752.83
279.525	45305.05
279.984	58545.21
280.442	70289.69
280.9	69229.15
281.358	45539.89
281.816	42447.74
282.274	41580.4
282.732	42940.4
283.19	43139.81
283.648	37204.6
284.106	39600.25
284.564	40261.11
285.021	37316.2
285.479	27826.78
285.937	25334.8
286.394	22238.36
286.852	22885.62
287.309	24043.51
287.767	23228.23
288.224	22097.16
288.682	24245.79
289.139	26626.71
289.596	24364.29
290.053	25336.06
290.511	32006.82
290.968	38807.63
291.425	52705.47
291.882	43943.56
292.339	38250.29
292.796	37961.07
293.252	35792.5
293.709	28471.78
294.166	25537.24
294.623	28265.52
295.079	27158.96
295.536	27281.36
295.992	24798.78
296.449	24529.21
296.905	25490.6
297.362	24457.4
297.818	25776.47
298.274	26764.25
298.731	27301.63
299.187	27038.3
299.643	29045.75
300.099	35133.19
300.555	38538.18
301.011	32219.53
301.467	31053.1
301.923	36372.34
302.379	35543.88
302.835	34924.52
303.291	34972.25
303.746	39829.73
304.202	50320.27
304.658	50563.15
305.113	34016.39
305.569	33376.32
306.024	35623.31
306.479	33953.05
306.935	28637.37
307.39	31318.84
307.845	28924.7
308.301	29120.54
308.756	28367.04
309.211	27380.01
309.666	28029.93
310.121	34807.72
310.576	35384.07
311.031	35086.46
311.486	40214.76
311.94	40223.51
312.395	53786.59
312.85	101157.09
313.305	497673.92
313.759	2575226.64
314.214	186451.39
314.668	147790.81
315.123	124212.59
315.577	44546.16
316.032	39672.78
316.486	49709.22
316.94	39204.05
317.394	27284.42
317.849	21208.12
318.303	20049.63
318.757	18923.65
319.211	20914.83
319.665	18329.81
320.119	18582.67
320.572	26652.48
321.026	24900.56
321.48	20727.08
321.934	22623.82
322.387	22710.76
322.841	24524.95
323.295	22053.12
323.748	25441.66
324.202	25845.73
324.655	31051.23
325.108	43337.36
325.562	30613.09
326.015	36382.42
326.468	27528.78
326.921	30789.69
327.374	28680.76
327.827	29876.3
328.28	33851.61
328.733	22668.9
329.186	19939.53
329.639	18985.43
330.092	16031.45
330.545	15265.89
330.997	15402.99
331.45	16814.31
331.903	19680.95
332.355	33919.7
332.808	32981.55
333.26	27176.75
333.713	29539.28
334.165	29752.27
334.617	39791.64
335.069	32148.32
335.522	58162.36
335.974	64420.5
336.426	58928.9
336.878	40927.77
337.33	20720.23
337.782	20206.05
338.234	25311.03
338.686	30231.49
339.137	35837.59
339.589	33717.44
340.041	26436.26
340.493	22721.91
340.944	23280.81
341.396	25051.85
341.847	21025.2
342.299	24820.44
342.75	30360.36
343.201	26566.96
343.653	30588.05
344.104	37595.17
344.555	29602.55
345.006	46099.96
345.457	35252.94
345.908	28020.16
346.359	26394.11
346.81	21498.98
347.261	22686.18
347.712	22327.04
348.163	23967.9
348.613	24280.34
349.064	22667.41
349.515	19857.39
349.965	20382.79
350.416	24608.4
350.866	26976.79
351.317	30548.19
351.767	50619.61
352.217	63926.06
352.668	53075.53
353.118	48624.46
353.568	46936.06
354.018	37104.26
354.468	39138.13
354.918	28026.18
355.368	24492.96
355.818	34632.48
356.268	99665.68
356.718	417083.53
357.168	103886.05
357.617	52188.42
358.067	58076.98
358.517	54410.93
358.966	63860.42
359.416	71582.63
359.865	77509.41
360.315	92381.93
360.764	43135.83
361.213	24155.08
361.663	22909.54
362.112	28300.43
362.561	45687.12
363.01	34465.14
363.459	29012.63
363.908	31450.8
364.357	26700.99
364.806	45108.07
365.255	30972.81
365.703	28374.37
366.152	28419.1
366.601	23035.7
367.05	18681.56
367.498	16996.7
367.947	17756.29
368.395	18461.47
368.844	16306.33
369.292	19688.69
369.74	13576.46
370.189	20829.76
370.637	24409.95
371.085	21060.84
371.533	25676.85
371.981	24790.49
372.429	23619.9
372.877	24631.64
373.325	20597.45
373.773	20988.94
374.221	18663.47
374.669	23172.84
375.116	20033.71
375.564	20205.44
376.012	22591.52
376.459	18603.34
376.907	22210.04
377.354	26816.31
377.801	24996.56
378.249	28732.09
378.696	36746.97
379.143	44558.48
379.591	47581.2
380.038	80503.39
380.485	58144.21
380.932	62745.85
381.379	57372.97
381.826	42199.99
382.273	30025.96
382.72	26218.15
383.166	25561.04
383.613	16577.69
384.06	14939.42
384.506	17262.04
384.953	12662.28
385.4	12757.26
385.846	11177.26
386.292	10913.11
386.739	10672.47
387.185	10553.82
387.631	10548.42
388.078	10217.62
388.524	10920.96
388.97	10082.01
389.416	8400.94
389.862	8924.15
390.308	8438.21
390.754	8560.09
391.2	9279.53
391.645	9499.28
392.091	9071.96
392.537	8766.14
392.983	8785.19
393.428	8627.93
393.874	9233.34
394.319	9254.98
394.765	8774.98
395.21	9027.36
395.655	8463.69
396.101	7913.96
396.546	7131.56
396.991	7183.67
397.436	6664.24
397.881	6430.99
398.326	6090.59
398.771	5752.55
399.216	5025.18
399.661	4521.07
400.106	4490.62
400.551	4580.86
400.995	4100.06
401.44	4050.9
401.885	3806.82
402.329	3841.51
402.774	3680.45
403.218	3556.2
403.663	3424.32
404.107	3516.56
404.551	3537.68
404.995	3243.95
405.44	3121.78
405.884	3164.15
406.328	3060.44
406.772	3047.01
407.216	2773.75
407.66	2674.71
408.104	2539.74
408.547	2372.59
408.991	2293.16
409.435	2202.74
409.879	2168.59
410.322	2144.06
410.766	2072.33
411.209	1966.6
411.653	1884.15
412.096	1845.73
412.54	1847.55
412.983	1831.67
413.426	1837.73
413.869	1833.33
414.312	1800.17
414.756	1731.51
415.199	1645.27
415.642	1594.63
416.085	1596.79
416.527	1584.23
416.97	1605.41
417.413	1521.7
417.856	1503.54
418.298	1483.71
418.741	1472.71
419.184	1465.93
419.626	1526.3
420.069	1526.88
420.511	1534.3
420.953	1499.7
421.396	1485.71
421.838	1444.42
422.28	1474.29
422.722	1482.33
423.164	1506.59
423.606	1481.11
424.048	1476
424.49	1400.52
424.932	1395.48
425.374	1375.21
425.816	1398.18
426.258	1423.49
426.699	1441.01
427.141	1421.34
427.582	1442.73
428.024	1433.97
428.465	1425.91
428.907	1392.62
429.348	1380.05
429.789	1377.64
430.231	1347.96
430.672	1367.33
431.113	1338.56
431.554	1320.31
431.995	1286.66
432.436	1238.28
432.877	1212.96
433.318	1191.93
433.759	1186.6
434.2	1186.67
434.64	1173.42
435.081	1177.86
435.522	1115.34
435.962	1074.54
436.403	1048.95
436.843	1064.13
437.284	1043.97
437.724	1014.38
438.164	1015.7
438.604	994.31
439.045	956.95
439.485	920.46
439.925	902.93
440.365	881.37
440.805	868.53
441.245	859.15
441.685	825.83
442.125	819.22
442.564	824.19
443.004	806.72
443.444	803.62
443.883	802.31
444.323	794.24
444.762	793.54
445.202	804
445.641	817.62
446.081	812.83
446.52	819.86
446.959	812.12
447.398	792.37
447.837	783
448.276	768.85
448.716	777.54
449.154	784.55
449.593	766.66
450.032	763.74
450.471	750.41
450.91	749.48
451.349	749.96
451.787	747.03
452.226	757.97
452.664	756.76
453.103	758.97
453.541	757.28
453.98	757.78
454.418	762.56
454.856	750.07
455.295	748.2
455.733	755.2
456.171	757.58
456.609	760.15
457.047	760.26
457.485	773.47
457.923	774.69
458.361	766.11
458.798	767.79
459.236	766.4
459.674	772.65
460.111	776.17
460.549	769.22
460.987	768
461.424	764.62
461.862	760.28
462.299	747.87
462.736	747.47
463.173	748.41
463.611	739.44
464.048	737.32
464.485	742.81
464.922	736.49
465.359	731.47
465.796	722.24
466.233	717.73
466.67	712.51
467.106	710.91
467.543	703.28
467.98	695.49
468.416	677.51
468.853	670.93
469.29	650.78
469.726	643.1
470.162	626.67
470.599	618.17
471.035	610.85
471.471	595.1
471.907	590.87
472.344	587.07
472.78	588.47
473.216	595.94
473.652	589.87
474.088	588.21
474.523	586.61
474.959	592.29
475.395	585.48
475.831	581.28
476.266	584.71
476.702	582.79
477.138	576.89
477.573	574.31
478.008	571.91
478.444	573.97
478.879	579.06
479.314	581.15
479.75	580.97
480.185	583.85
480.62	590.24
481.055	592.67
481.49	596.77
481.925	605.16
482.36	614.89
482.795	631.64
483.229	648.88
483.664	662
484.099	665.16
484.534	674.86
484.968	681.91
485.403	683.19
485.837	682.27
486.271	682.29
486.706	682.65
487.14	676.05
487.574	665.33
488.009	658.55
488.443	652.49
488.877	658.44
489.311	659.73
489.745	666.79
490.179	672.8
490.613	686.13
491.046	690.62
491.48	694.79
491.914	695.04
492.348	700.68
492.781	705.17
493.215	706.88
493.648	707.39
494.082	712.05
494.515	713.07
494.948	720.44
495.382	723.37
495.815	727.66
496.248	732.98
496.681	745.64
497.114	756.02
497.547	765.05
497.98	777.51
498.413	783.5
498.846	793.37
499.279	800.12
499.711	803.26
500.144	805.27
500.577	814.99
501.009	824.4
501.442	832.87
501.874	832.63
502.306	834.4
502.739	842.27
503.171	855.56
503.603	857.92
504.036	867.26
504.468	873.29
504.9	883.7
505.332	889.76
505.764	893.74
506.196	900.04
506.627	913.67
507.059	926.3
507.491	932.59
507.923	931.58
508.354	946.11
508.786	956.24
509.217	972.42
509.649	987.24
510.08	1004.08
510.512	1021.02
510.943	1035.02
511.374	1046.05
511.805	1064.89
512.237	1084.1
512.668	1113.02
513.099	1138.13
513.53	1163.77
513.961	1182.76
514.391	1212.29
514.822	1245.28
515.253	1278.77
515.684	1303.44
516.114	1330.92
516.545	1350.44
516.975	1374.55
517.406	1392.35
517.836	1394.3
518.267	1398.77
518.697	1416.15
519.127	1420.05
519.558	1425.05
519.988	1427.39
520.418	1436.87
520.848	1452.8
521.278	1460.88
521.708	1469.49
522.138	1480.98
522.567	1510.69
522.997	1535.67
523.427	1549.56
523.857	1565.42
524.286	1575.63
524.716	1589.72
525.145	1606.79
525.575	1616.98
526.004	1630.54
526.433	1631.36
526.863	1630.35
527.292	1619.54
527.721	1624.64
528.15	1630.66
528.579	1630.33
529.008	1640.13
529.437	1662.16
529.866	1675.32
530.295	1692.54
530.724	1704.86
531.152	1730.91
531.581	1744.87
532.01	1761.44
532.438	1768.42
532.867	1781.54
533.295	1799.08
533.723	1805.07
534.152	1802.92
534.58	1801.46
535.008	1784.71
535.436	1785.88
535.865	1792.17
536.293	1805.57
536.721	1821.44
537.149	1846.6
537.576	1848.51
538.004	1861.63
538.432	1869
538.86	1866.82
539.287	1873.35
539.715	1887.2
540.143	1889.28
540.57	1885.94
540.998	1882.78
541.425	1859.99
541.852	1839
542.28	1837.33
542.707	1820.56
543.134	1806.93
543.561	1802.7
543.988	1795.48
544.415	1794.78
544.842	1788.78
545.269	1781.08
545.696	1782.89
546.123	1795.38
546.549	1784.68
546.976	1772.07
547.403	1771.71
547.829	1773.18
548.256	1775.5
548.682	1771.78
549.108	1764.81
549.535	1765.37
549.961	1767.35
550.387	1754.27
550.813	1748.26
551.24	1753.71
551.666	1755.16
552.092	1744.88
552.518	1737.87
552.943	1731.68
553.369	1739
553.795	1744.23
554.221	1745.43
554.646	1742.56
555.072	1753.38
555.498	1758.8
555.923	1768.01
556.349	1782.61
556.774	1791.7
557.199	1794.17
557.625	1799.45
558.05	1794.86
558.475	1805.88
558.9	1804.07
559.325	1796.8
559.75	1790.81
560.175	1784.85
560.6	1779.41
561.025	1776.83
561.449	1776.84
561.874	1781.35
562.299	1785.62
562.723	1792.26
563.148	1780.53
563.572	1784.55
563.997	1794.51
564.421	1798.78
564.846	1799.07
565.27	1801.83
565.694	1798.86
566.118	1810.95
566.542	1818.95
566.966	1812.53
567.39	1806.89
567.814	1796.95
568.238	1796.29
568.662	1799.25
569.086	1802.45
569.509	1809.14
569.933	1793.95
570.357	1787.6
570.78	1766.34
571.204	1754.36
571.627	1743.92
572.05	1742.15
572.474	1742.35
572.897	1729.98
573.32	1724.31
573.743	1714.22
574.166	1697.21
574.589	1697.33
575.012	1690.01
575.435	1689.25
575.858	1678.56
576.281	1668.3
576.704	1653.43
577.126	1640.72
577.549	1630.9
577.972	1619.64
578.394	1609.59
578.817	1603.04
579.239	1584.77
579.661	1570.66
580.084	1555.48
580.506	1543.3
580.928	1539.5
581.35	1528.37
581.772	1524.22
582.194	1509.82
582.616	1497.74
583.038	1484.03
583.46	1472.31
583.882	1469.68
584.303	1473.95
584.725	1469.81
585.147	1472.31
585.568	1483.06
585.99	1494.47
586.411	1500.67
586.833	1515.85
587.254	1518.63
587.675	1531.6
588.096	1542.98
588.518	1538.16
588.939	1522.41
589.36	1520.05
589.781	1509.6
590.202	1482.15
590.623	1474.57
591.043	1472.11
591.464	1458.92
591.885	1455
592.305	1450.27
592.726	1438.43
593.147	1439.48
593.567	1434.93
593.987	1428.21
594.408	1422.67
594.828	1420.06
595.248	1414.06
595.669	1396.88
596.089	1390.97
596.509	1384.88
596.929	1371.73
597.349	1372.74
597.769	1362.48
598.189	1356.48
598.608	1358.36
599.028	1360.21
599.448	1360.54
599.867	1348.2
600.287	1343.3
600.706	1339.38
601.126	1329.69
601.545	1328.51
601.965	1326.62
602.384	1323.06
602.803	1325.46
603.222	1319.88
603.641	1314.04
604.061	1310.27
604.48	1306.61
604.898	1315.81
605.317	1320.04
605.736	1323.09
606.155	1321.25
606.574	1312.55
606.992	1317.15
607.411	1313.21
607.829	1305.02
608.248	1301.07
608.666	1298.64
609.085	1297.98
609.503	1288.15
609.921	1282.67
610.339	1283.39
610.758	1281.65
611.176	1277.02
611.594	1267.49
612.012	1263.09
612.43	1267.28
612.847	1273.32
613.265	1274.58
613.683	1277.84
614.101	1279.17
614.518	1274.78
614.936	1265.41
615.353	1250.78
615.771	1247.48
616.188	1245.82
616.606	1242.67
617.023	1235.04
617.44	1221.05
617.857	1213.59
618.274	1205.95
618.691	1199.06
619.108	1189.82
619.525	1182.54
619.942	1189.09
620.359	1191.28
620.776	1186.93
621.192	1182.86
621.609	1180.74
622.026	1187.52
622.442	1192.98
622.859	1194.94
623.275	1189.98
623.691	1195.31
624.108	1206.61
624.524	1219.51
624.94	1218.79
625.356	1228.93
625.772	1240.99
626.188	1252.02
626.604	1253.23
627.02	1248.84
627.436	1247.32
627.852	1253.06
628.268	1263.93
628.683	1255.35
629.099	1247.2
629.514	1243.14
629.93	1246.67
630.345	1250.44
630.761	1247.53
631.176	1250.52
631.591	1246.55
632.007	1240.92
632.422	1238.72
632.837	1227.54
633.252	1225.19
633.667	1215.32
634.082	1207.54
634.497	1195.96
634.911	1178.6
635.326	1174.15
635.741	1158.21
636.155	1148.01
636.57	1150.55
636.984	1151.25
637.399	1154.11
637.813	1154.38
638.228	1155.63
638.642	1159.95
639.056	1150.95
639.47	1151.95
639.884	1146.86
640.298	1142.97
640.712	1143.63
641.126	1134.04
641.54	1127.89
641.954	1125.43
642.368	1116.04
642.781	1110.78
643.195	1096.29
643.609	1098.58
644.022	1094.78
644.436	1091.35
644.849	1081.19
645.262	1070.94
645.676	1073.47
646.089	1069.55
646.502	1055.35
646.915	1051.05
647.328	1034.34
647.741	1031.56
648.154	1019.52
648.567	1017.2
648.98	1004.11
649.393	1004.14
649.805	1001.03
650.218	993.41
650.631	978.18
651.043	972.4
651.456	966.41
651.868	965.97
652.28	983.21
652.693	996.33
653.105	1001.64
653.517	1010.88
653.929	1011.71
654.341	1017
654.753	1004.15
655.165	1010.25
655.577	1007.01
655.989	1002.04
656.401	994.72
656.813	959.63
657.224	939.55
657.636	911.24
658.047	893.75
658.459	874.29
658.87	865.52
659.282	854.45
659.693	834.44
660.104	820.75
660.515	807.39
660.926	805.8
661.338	803.35
661.749	798.17
662.159	791.19
662.57	787.86
662.981	784.43
663.392	778.48
663.803	783.08
664.213	781.53
664.624	778.3
665.035	782.68
665.445	770.13
665.855	764.6
666.266	758.19
666.676	757.13
667.086	748.46
667.497	748.09
667.907	742.18
668.317	733.99
668.727	731.8
669.137	733.01
669.547	731.83
669.956	734.39
670.366	736.03
670.776	736.52
671.186	739.1
671.595	743.1
672.005	745.42
672.414	744.62
672.824	741.66
673.233	744.44
673.642	745.55
674.052	747.13
674.461	749.04
674.87	752.93
675.279	750.59
675.688	751.4
676.097	751.95
676.506	748.51
676.915	761.21
677.323	764.73
677.732	762.76
678.141	762.28
678.549	750.99
678.958	747.48
679.366	744.77
679.775	747.44
680.183	756.98
680.592	761.83
681	765.92
681.408	757.54
681.816	762.94
682.224	769.36
682.632	777.81
683.04	805.35
683.448	827.69
683.856	855.08
684.264	887.8
684.671	915.82
685.079	949.75
685.487	988
685.894	1041.96
686.302	1083.98
686.709	1118.99
687.116	1160.68
687.524	1193.05
687.931	1221.08
688.338	1243.63
688.745	1260.79
689.152	1282.8
689.559	1315.58
689.966	1348.07
690.373	1361.68
690.78	1393.63
691.187	1444.83
691.593	1480.34
692	1511.93
692.407	1563.14
692.813	1628.04
693.22	1679.18
693.626	1730.75
694.032	1771.58
694.439	1836.7
694.845	1886.92
695.251	1952.37
695.657	2009.96
696.063	2100.05
696.469	2166.05
696.875	2226.72
697.281	2260.68
697.687	2304.85
698.093	2341.81
698.498	2412.44
698.904	2467.39
699.31	2549.99
699.715	2610.32
700.12	2698.2
700.526	2715.74
700.931	2783.92
701.337	2837.88
701.742	2873.33
702.147	2953.04
702.552	2984.65
702.957	3043.85
703.362	3068.22
703.767	3100.59
704.172	3141.16
704.577	3099.5
704.981	3148.45
705.386	3166.7
705.791	3159.61
706.195	3230.77
706.6	3241.49
707.004	3319.63
707.408	3292.59
707.813	3319.84
708.217	3311.23
708.621	3317.38
709.025	3411.86
709.43	3415.44
709.834	3476.39
710.237	3546.3
710.641	3535.73
711.045	3561.4
711.449	3558.34
711.853	3588.7
712.256	3631.05
712.66	3668.44
713.064	3742.95
713.467	3786.72
713.87	3897.87
714.274	3944.46
714.677	4053.18
715.08	4211.81
715.484	4374.86
715.887	4576.24
716.29	4773.09
716.693	4978.62
717.096	5211.08
717.499	5338.79
717.901	5367.35
718.304	5395.25
718.707	5420.7
719.109	5326.13
719.512	5299.81
719.915	5175.79
720.317	5120.49
720.719	5162.26
721.122	5133.99
721.524	5091.35
721.926	5055.57
722.328	5153.59
722.731	5146.44
723.133	5177.06
723.535	5365.77
723.937	5385.97
724.338	5438.22
724.74	5482.09
725.142	5430.61
725.544	5432.53
725.945	5462.77
726.347	5458.47
726.748	5453.69
727.15	5465.98
727.551	5433.49
727.952	5407.77
728.354	5382.15
728.755	5382.43
729.156	5342.63
729.557	5328.85
729.958	5209.33
730.359	5152.75
730.76	5136.64
731.161	5080.36
731.562	5059.6
731.962	5060.09
732.363	4998.03
732.763	4934.85
733.164	4968.67
733.564	4902.75
733.965	4808.9
734.365	4774.77
734.766	4805.28
735.166	4767.8
735.566	4714.08
735.966	4690.7
736.366	4686.65
736.766	4627.13
737.166	4660.91
737.566	4622.94
737.966	4600.61
738.365	4639.49
738.765	4638.14
739.165	4565.15
739.564	4540.19
739.964	4584.09
740.363	4537.86
740.763	4536.65
741.162	4526.65
741.561	4494.09
741.96	4449.78
742.36	4470.5
742.759	4475.51
743.158	4512.07
743.557	4525.83
743.955	4566.93
744.354	4523.11
744.753	4581.11
745.152	4540.48
745.55	4594.39
745.949	4590.87
746.348	4592.62
746.746	4606.04
747.144	4567.99
747.543	4546.08
747.941	4594.74
748.339	4527.6
748.737	4521.63
749.136	4512.62
749.534	4575.85
749.932	4546.91
750.33	4568.07
750.727	4622.15
751.125	4600.15
751.523	4584.45
751.921	4627.3
752.318	4596.57
752.716	4651.23
753.113	4662.89
753.511	4687.26
753.908	4687.25
754.305	4671.68
754.703	4731.39
755.1	4788.12
755.497	4845.61
755.894	5031.27
756.291	5205.41
756.688	5521.24
757.085	5948.05
757.482	6549.72
757.878	7205.49
758.275	7803.41
758.672	8619.09
759.068	9284.68
759.465	10236.78
759.861	11459.81
760.258	12874.3
760.654	13613
761.05	13507.53
761.447	12889.4
761.843	11998.6
762.239	11084
762.635	10659.51
763.031	10260.14
763.427	9685.82
763.822	9086.82
764.218	8487.09
764.614	7712.12
765.01	7189.41
765.405	6855.34
765.801	6601.96
766.196	6277.81
766.592	6092.1
766.987	5787.12
767.382	5581.52
767.778	5492.12
768.173	5363.76
768.568	5293.14
768.963	5174.36
769.358	5191.39
769.753	5143.49
770.148	5059.87
770.542	5056.85
770.937	5026.76
771.332	5115.63
771.726	5133.48
772.121	5077.1
772.515	5129.74
772.91	5117.94
773.304	5185.88
773.699	5122.69
774.093	5176.69
774.487	5231.04
774.881	5273.13
775.275	5272.07
775.669	5231.23
776.063	5274.45
776.457	5307.36
776.851	5236.1
777.245	5230.43
777.638	5263.43
778.032	5374.95
778.425	5339.78
778.819	5382.65
779.212	5343.47
779.606	5303.58
779.999	5324.42
780.392	5306.34
780.786	5386.07
781.179	5404.88
781.572	5442.37
781.965	5451.48
782.358	5394.57
782.751	5449.67
783.143	5401.73
783.536	5472.26
783.929	5513.23
784.322	5621.42
784.714	5654.8
785.107	5651.93
785.499	5720.86
785.891	5701.43
786.284	5684.72
786.676	5821.31
787.068	5803.49
787.46	5854.68
787.852	5875.7
788.245	5958.72
788.636	5983.43
789.028	6049.58
789.42	6085.95
789.812	6093.96
790.204	6188.36
790.595	6284.59
790.987	6097.5
791.378	6119.76
791.77	6245.03
792.161	6373.63
792.553	6426.81
792.944	6325.38
793.335	6255.53
793.726	6324.82
794.117	6413.99
794.508	6545.64
794.899	6517.88
795.29	6654.16
795.681	6706.91
796.072	6566.57
796.463	6389.91
796.853	6399.15
797.244	6551.56
797.634	6585.53
798.025	6583.98
798.415	6596.42
798.806	6684.33
799.196	6766.07
799.586	6815.03
799.976	6778.89
800.366	7004.88
800.756	7234.6
801.146	7197.09
801.536	7221.86
801.926	7294.94
802.316	7322.96
802.706	7392.52
803.095	7271.6
803.485	7371.42
803.874	7406.87
804.264	7660.69
804.653	7634.46
805.043	7777.38
805.432	7881
805.821	7883.73
806.21	7902.65
806.599	8013.8
806.988	8056.64
807.377	8160.87
807.766	8283.21
808.155	8559.79
808.544	8303.57
808.933	8315.65
809.321	8293.25
809.71	8579.92
810.098	8735.26
810.487	9180.65
810.875	9644.61
811.264	9660.04
811.652	9938.96
812.04	10080.58
812.428	10242.52
812.816	10979.55
813.204	11386.03
813.592	11917.3
813.98	12240.11
814.368	12146.02
814.756	12605.35
815.144	12534.74
815.531	12990.58
815.919	12914.09
816.306	13209
816.694	12903.69
817.081	12951.31
817.469	13285.17
817.856	13283.8
818.243	13543.92
818.63	13920.84
819.017	13520.01
819.404	13573.72
819.791	13938.74
820.178	14537.27
820.565	14782.37
820.952	15691.51
821.339	15219.76
821.725	15397.56
822.112	14685.34
822.498	14649.45
822.885	14771.08
823.271	14680.53
823.657	15083.57
824.044	15088.6
824.43	15157.07
824.816	15123.49
825.202	14694.57
825.588	15678
825.974	15691.86
826.36	16187.06
826.746	16212.68
827.132	16558.45
827.517	16535.38
827.903	15786.58
828.289	15828.4
828.674	15081.93
829.06	14982.11
829.445	15370.73
829.83	15711.17
830.216	16169.1
830.601	16519.3
830.986	16129.72
831.371	15995.02
831.756	16526.14
832.141	16114.98
832.526	16105.5
832.911	16377.42
833.295	16264.32
833.68	16708.3
834.065	16108.66
834.449	15238.41
834.834	15165.58
835.218	15154.78
835.603	15484.4
835.987	15284.01
836.371	16086.38
836.755	15987.22
837.139	16365.12
837.524	16606.24
837.908	16441.18
838.291	16499.7
838.675	16560.75
839.059	16762.19
839.443	16753.66
839.827	16540.64
840.21	17002.94
840.594	16859.05
840.977	17059.69
841.361	17051.49
841.744	17407.28
842.127	17256.1
842.511	17506.02
842.894	18076.15
843.277	18451.35
843.66	18982.17
844.043	19065.72
844.426	18287.37
844.809	17986.99
845.191	18009.13
845.574	17559.93
845.957	17206.79
846.339	17103.19
846.722	16582
847.104	16649.58
847.487	16478.06
847.869	16483.26
848.252	16744.71
848.634	17063.06
849.016	17309.04
849.398	17441.11
849.78	18251.03
850.162	18257.15
850.544	18652.29
850.926	19262.33
851.307	19177.37
851.689	19446.65
852.071	19886.58
852.452	20192.84
852.834	20173.24
853.215	20556.93
853.597	20696.62
853.978	20988.71
854.359	21423.31
854.741	20467.5
855.122	20370.52
855.503	20098.39
855.884	20224.64
856.265	20172.65
856.646	20281.23
857.026	19908.21
857.407	19848.8
857.788	19997.74
858.169	20266.41
858.549	19453.13
858.93	20056.45
859.31	20100.11
859.69	20296.37
860.071	19913.77
860.451	19700.51
860.831	18987.99
861.211	20092.13
861.591	20616.78
861.971	20591.72
862.351	20785.75
862.731	21159.66
863.111	21410.63
863.491	21735.73
863.87	22573.64
864.25	22899.23
864.629	22503.68
865.009	23003.42
865.388	23833.91
865.768	25538.01
866.147	25443.04
866.526	24020.79
866.905	24300.6
867.284	25662.63
867.663	24358.65
868.042	23354.18
868.421	23277.62
868.8	23671.75
869.179	23904.51
869.558	22515.68
869.936	20760.34
870.315	21127.24
870.693	21658.01
871.072	23356.56
871.45	22257.54
871.828	22550.09
872.207	23705.88
872.585	23354.71
872.963	23993
873.341	23165.66
873.719	22880.31
874.097	22595.39
874.475	23042.54
874.853	23560.76
875.23	22586.07
875.608	23528.97
875.986	25441.81
876.363	24323.93
876.741	25062.98
877.118	24441.07
877.495	25645.72
877.873	26083.38
878.25	27449.93
878.627	26311.31
879.004	26676.98
879.381	26535.61
879.758	25842.67
880.135	24070.17
880.512	25457.98
880.889	24790.38
881.265	24524.52
881.642	24324.53
882.019	24723.54
882.395	24226.53
882.772	25195.77
883.148	24111.36
883.524	24013.86
883.901	23865.89
884.277	24220.54
884.653	24064.96
885.029	24754.09
885.405	27418.55
885.781	27195.33
886.157	26069.77
886.532	26387.22
886.908	26370.29
887.284	29324.94
887.659	30292.58
888.035	31244.31
888.411	32042.84
888.786	32465.18
889.161	33582.01
889.537	32951.93
889.912	34017.73
890.287	34006.28
890.662	34879.65
891.037	34241.05
891.412	31924.39
891.787	31593.18
892.162	30485.91
892.536	31197.82
892.911	30028.96
893.286	29399.24
893.66	28212.42
894.035	28921.66
894.409	31482.59
894.784	30215.9
895.158	30725.46
895.532	32537.12
895.906	33428.35
896.281	34205.19
896.655	33669.86
897.029	38484.85
897.402	40072.86
897.776	44606.4
898.15	44470.29
898.524	44007.06
898.898	44598.74
899.271	49907.05
899.645	43251.89
900.018	41562.47
900.392	43103.5
900.765	43452.19
901.138	40195.51
901.511	39595.29
901.884	36376.73
902.258	33565
902.631	34682.55
903.003	39919.07
903.376	36033.95
903.749	40370.84
904.122	43214.66
904.495	47598.17
904.867	48170.76
905.24	41817.22
905.612	38927.34
905.985	39788.31
906.357	41590.7
906.729	39683.88
907.102	33869.74
907.474	32576.34
907.846	32792.71
908.218	32331.45
908.59	28551.26
908.962	27620.1
909.334	29742.47
909.705	31234.43
910.077	30321.72
910.449	31548.33
910.82	32419.5
911.192	35685.71
911.563	37064.35
911.935	39657.26
912.306	39714.41
912.677	41040.81
913.048	40645.65
913.419	44087.65
913.79	44344.48
914.161	47547.1
914.532	45434.37
914.903	41750.34
915.274	39661.6
915.645	39075.43
916.015	34407.18
916.386	32813.79
916.756	34917.3
917.127	35986.93
917.497	32162.24
917.868	34993.42
918.238	33260.59
918.608	34235.08
918.978	34956.76
919.348	37013.37
919.718	38264.46
920.088	36847.15
920.458	38295.87
920.828	40298.05
921.198	38218.93
921.567	40862.9
921.937	31674.01
922.306	31978.88
922.676	34486.07
923.045	28775.38
923.415	27364.13
923.784	24923.59
924.153	25632.08
924.522	25609.18
924.891	24076.34
925.26	25791.55
925.629	25173.77
925.998	28924.79
926.367	28238.1
926.736	26879.14
927.104	32011.75
927.473	34373.33
927.842	41484.25
928.21	41090.49
928.578	43181.92
928.947	40836.37
929.315	41121.41
929.683	48208.67
930.051	48605.48
930.42	56480.08
930.788	48305.78
931.156	47938.31
931.523	44955.71
931.891	41574.32
932.259	39947.79
932.627	46317.69
932.994	65534.84
933.362	54149.7
933.729	47058.52
934.097	45036.1
934.464	38084.14
934.831	43945.81
935.199	43329.94
935.566	42040.89
935.933	42555.77
936.3	51546.62
936.667	40139.78
937.034	36218.28
937.401	35794.05
937.767	30881.46
938.134	27498.82
938.501	38790.44
938.867	41342.32
939.234	69913.38
939.6	59606.34
939.967	65743.88
940.333	43971.45
940.699	37424.3
941.065	30004.46
941.431	39353.03
941.798	37877.58
942.163	49756.27
942.529	31030.37
942.895	28550.03
943.261	18445.38
943.627	24201.92
943.992	21178.36
944.358	21222.17
944.723	21270.72
945.089	20730.38
945.454	19151.93
945.82	20461.67
946.185	19652.29
946.55	22791.04
946.915	20460.91
947.28	24026.7
947.645	21140.6
948.01	19551.65
948.375	20383.56
948.74	24440.63
949.104	28528.79
949.469	41222.4
949.834	72803.62
950.198	69046.8
950.562	41429.58
950.927	34486.82
951.291	41512.24
951.655	35378.94
952.02	33177.01
952.384	25095.82
952.748	21860.66
953.112	21302.29
953.476	18510.45
953.839	17142.99
954.203	16982.34
954.567	21242.97
954.931	33436.81
955.294	28602.32
955.658	28800.85
956.021	49009.28
956.385	83092.37
956.748	122686.49
957.111	190467.89
957.474	214029.45
957.837	240806.39
958.2	181965.82
958.563	65410.06
958.926	44305.48
959.289	67231.57
959.652	74976.12
960.015	56234.98
960.377	80704.72
960.74	92081.73
961.102	158986.19
961.465	170776.83
961.827	91557.14
962.189	175620.54
962.552	121822.78
962.914	97515.24
963.276	63291.87
963.638	52374.69
964	51895.31
964.362	35069.53
964.724	33932.84
965.085	24213.01
965.447	19832.79
965.809	22595.08
966.17	22630.98
966.532	24499.67
966.893	22504.52
967.255	20471.23
967.616	24149.39
967.977	19355.83
968.338	21167.71
968.699	17377.46
969.061	17369.15
969.421	17503.4
969.782	19641.66
970.143	16604.65
970.504	17206.47
970.865	19559.51
971.225	19999.71
971.586	19563.95
971.946	27844.21
972.307	24152.01
972.667	31582.55
973.027	32531.71
973.388	39452.26
973.748	26831.61
974.108	29235.96
974.468	39489.19
974.828	30439.82
975.188	23417.86
975.548	21514.09
975.907	18058.95
976.267	20269.63
976.627	17036.6
976.986	17655.33
977.346	16822.58
977.705	16196.36
978.064	14747.39
978.424	12300.17
978.783	12717.7
979.142	14531.01
979.501	13920.35
979.86	14723.04
980.219	14186.64
980.578	18278.84
980.937	20473.67
981.296	18232.79
981.654	18745.19
982.013	29130.52
982.371	37777.2
982.73	35284.9
983.088	39971.55
983.447	42683.06
983.805	61101.75
984.163	127743
984.521	141853.21
984.879	207815.45
985.237	-338465.86
985.595	326621.91
985.953	81342.84
986.311	47028.12
986.669	27309.99
987.026	23570.83
987.384	31719.57
987.741	32768.78
988.099	23417.02
988.456	18684.29
988.814	17514.75
989.171	15244.43
989.528	15035.86
989.885	15856.7
990.242	12552.75
990.599	15650.13
990.956	12795.64
991.313	8943.48
991.67	7345.46
992.027	7789.59
992.383	6929.99
992.74	6077.47
993.096	6373.33
993.453	6606.89
993.809	6848.18
994.165	9120.06
994.522	8375.25
994.878	9246.16
995.234	11591.44
995.59	11431.58
995.946	10826.84
996.302	12334.53
996.658	14250.22
997.013	15686.12
997.369	18609.22
997.725	23834.56
998.08	15442.1
998.436	23738.27
998.791	32740.46
999.147	32721.96
999.502	35742.47
999.857	25930.09
1000.212	42309.47
1000.567	60242.89
1000.922	34820.86
1001.277	22119.29
1001.632	16426.87
1001.987	21155.33
1002.342	15199.77
1002.696	12144.77
1003.051	9724.03
1003.406	11775.37
1003.76	11730.39
1004.114	11569.95
1004.469	9735.09
1004.823	8043.73
1005.177	8695.13
1005.531	6894.91
1005.885	6114
1006.239	6910.79
1006.593	8672.1
1006.947	11589.21
1007.301	8689.03
1007.655	9470.25
1008.008	6940.21
1008.362	7809.13
1008.715	11168.96
1009.069	10131.89
1009.422	15252.55
1009.776	30593.81
1010.129	20212.39
1010.482	16860.24
1010.835	14237.93
1011.188	29649.25
1011.541	27961.45
1011.894	-170822.27
1012.247	501987.09
1012.6	34022.08
1012.952	21488.64
1013.305	11055.52
1013.657	7974.24
1014.01	7567.91
1014.362	6252.52
1014.715	5569.38
1015.067	4846.1
1015.419	4724.74
1015.771	4192.22
1016.123	3731.21
1016.475	3838.88
1016.827	4087.14
1017.179	4412.02
1017.531	4438.38
1017.883	4531.45
1018.234	4387.56
1018.586	5532.45
1018.938	5876.88
1019.289	8105.97
1019.64	9295.04
1019.992	8651.78
1020.343	7923.71
1020.694	6265.65
1021.045	5524.05
1021.396	6303.49
1021.747	6782.97
1022.098	8147.64
1022.449	5894.08
1022.8	5460.19
1023.151	3802.69
1023.501	3365.51
1023.852	3662.47
1024.202	3815.41
1024.553	4184.24
1024.903	4087.36
1025.253	3515.19
1025.604	3164.53
1025.954	3920.64
1026.304	4802.68
1026.654	5594.79
1027.004	8239.99
1027.354	13354.25
1027.703	12568.47
1028.053	16498.02
1028.403	23985.13
1028.753	34620.79
1029.102	46983.18
1029.452	241088.55
1029.801	10363.82
1030.15	6662.71
1030.499	5645.86
897.758	2859.21
901.051	2834.73
904.343	2870.43
907.636	2865.04
910.928	2932.17
914.22	2835.65
917.511	2847.07
920.803	2917.66
924.094	2946.33
927.384	2914.28
930.675	2881.16
933.965	2831.42
937.255	2828.69
940.544	2796.74
943.834	2712.04
947.123	2660.45
950.411	2763.98
953.7	2732.47
956.988	2691.19
960.276	2635.69
963.563	2731.18
966.851	2720.78
970.138	2786.42
973.424	2774.08
976.711	2720.94
979.997	2893.55
983.283	2921.39
986.568	2813.38
989.853	2843.09
993.138	2872.4
996.423	2951.21
999.708	2879.24
1002.992	2963.77
1006.275	2764.02
1009.559	2831.73
1012.842	2955.27
1016.125	2877.63
1019.408	2855.81
1022.69	2954.96
1025.972	2964.2
1029.254	2938.41
1032.536	2858.52
1035.817	2891.54
1039.098	2819.85
1042.379	3006.07
1045.659	2986.33
1048.939	2912.51
1052.219	2940.23
1055.498	2961.73
1058.778	2941.34
1062.057	2931.86
1065.335	2950.23
1068.614	2972.45
1071.892	2950.34
1075.17	3037.73
1078.447	3019.29
1081.724	3009.1
1085.001	3050.53
1088.278	3023.53
1091.554	3039.62
1094.83	3036.36
1098.106	3061.81
1101.382	3115.53
1104.657	3117.15
1107.932	3109.32
1111.206	3063.65
1114.481	3025.34
1117.755	3031.16
1121.029	3004.02
1124.302	3053.14
1127.575	2997.77
1130.848	2981.82
1134.121	2937.78
1137.393	2879.11
1140.665	2951.47
1143.937	2925.73
1147.208	2893.8
1150.48	2925.6
1153.75	2911.73
1157.021	2956.22
1160.291	2922.47
1163.561	2961.8
1166.831	2963.59
1170.101	2999.84
1173.37	2982.86
1176.639	2918.81
1179.907	2985.68
1183.176	2984.4
1186.444	2993.88
1189.711	3021.95
1192.979	3028.29
1196.246	2985.53
1199.513	3010.15
1202.78	3003.72
1206.046	3009.44
1209.312	3032.83
1212.578	3063.25
1215.843	3007.63
1219.108	2986.81
1222.373	3010.11
1225.638	2968.89
1228.902	2949.68
1232.166	2919.45
1235.43	2895.51
1238.693	2918.88
1241.956	2920.11
1245.219	2955.63
1248.482	2952.95
1251.744	2945.96
1255.006	3104.74
1258.268	3062.3
1261.529	3001.05
1264.79	3013.42
1268.051	3120.71
1271.312	3140.83
1274.572	3098.93
1277.832	3089.91
1281.092	3085.42
1284.351	3047.29
1287.61	3023.78
1290.869	2927.99
1294.128	2894.22
1297.386	3005.21
1300.644	2989.66
1303.902	3002.36
1307.159	2855.85
1310.416	2913.13
1313.673	2933.78
1316.93	2914.69
1320.186	2967.78
1323.442	3015.6
1326.697	3000.68
1329.953	3004.63
1333.208	3016.25
1336.463	3003.47
1339.717	2930.77
1342.972	3080.27
1346.226	3058.91
1349.479	2984.02
1352.733	2947.15
1355.986	2980.41
1359.238	2953.46
1362.491	2952.74
1365.743	2956.78
1368.995	2957.42
1372.247	2967.23
1375.498	2995.53
1378.749	2992.07
1382	2952.13
1385.251	3015.86
1388.501	2979.33
1391.751	2955.13
1395	2928.79
1398.25	2964.81
1401.499	2963.45
1404.748	2877.19
1407.996	2871.37
1411.244	2854.31
1414.492	2836.31
1417.74	2807.07
1420.987	2821.99
1424.234	2880.25
1427.481	2864.96
1430.728	2926.35
1433.974	2899.27
1437.22	2918.45
1440.465	2925.12
1443.711	2873.72
1446.956	2910.86
1450.201	2907.92
1453.445	2957.21
1456.689	2925.75
1459.933	2941.44
1463.177	2970.5
1466.42	2940.99
1469.663	2922.06
1472.906	2906.37
1476.148	3005.76
1479.391	2942.16
1482.633	2921.62
1485.874	2926.2
1489.115	2901.57
1492.356	2918.81
1495.597	2888.64
1498.838	2899.94
1502.078	2859.98
1505.318	2800.21
1508.557	2845.89
1511.797	2800.73
1515.036	2902.77
1518.274	2890.81
1521.513	2871.35
1524.751	2899.32
1527.989	2907.55
1531.227	2920.24
1534.464	2900.7
1537.701	2934.78
1540.938	2957.59
1544.174	2914.03
1547.41	2915.67
1550.646	2958.09
1553.882	2988.26
1557.117	3041.44
1560.352	3059.13
1563.587	3013.41
1566.821	2968.52
1570.055	3014.59
1573.289	2980.77
1576.523	3065.02
1579.756	3070.3
1582.989	3090.24
1586.222	3049.46
1589.454	3092.89
1592.686	3062.26
1595.918	3085.15
1599.15	3069.52
1602.381	3158.79
1605.612	3100.88
1608.843	3202.55
1612.073	3110.57
1615.303	3091.35
1618.533	3077.22
1621.762	3082.38
1624.992	3076.09
1628.221	3052.01
1631.449	3037.17
1634.678	3112.11
1637.906	3060.83
1641.134	3107.92
1644.361	3056.57
1647.588	3043.34
1650.815	3058.52
1654.042	3042.82
1657.269	3075.35
1660.495	3018.5
1663.72	3016.39
1666.946	2985.08
1670.171	2907.96
1673.396	2887.48
1676.621	2879.27
1679.845	2912.68
1683.069	2939.27
1686.293	2987.52
1689.517	2951.61
1692.74	2869.23
1695.963	2898.93
1699.185	2940.33
1702.408	2910.66
1705.63	2958.92
1708.852	2964.2
1712.073	2937.58
1715.294	2909.17
1718.515	2979.3
1721.736	2919.78
1724.956	2917.09
1728.176	2944.65
1731.396	2965.74
1734.616	2956.85
1737.835	2978.33
1741.054	2962.25
1744.272	2958.86
1747.491	2981.49
1750.709	3049.69
1753.927	2932.95
1757.144	2991.41
1760.361	3026.61
1763.578	3031.29
1766.795	2967.33
1770.011	2979.09
1773.227	3032.56
1776.443	3061.56
1779.658	3104.08
1782.874	3050.61
1786.089	3021.99
1789.303	3023.72
1792.518	3032
1795.732	3019.18
1798.945	3022.77
1802.159	3080.84
1805.372	2964.66
1808.585	2938.27
1811.797	2943.27
1815.01	3007.2
1818.222	3004.52
1821.434	2946.09
1824.645	3021.11
1827.856	2986.44
1831.067	3024.32
1834.278	2994.52
1837.488	2975.16
1840.698	3139.2
1843.908	3055.05
1847.117	3016.97
1850.326	2876.35
1853.535	2996.41
1856.744	3054.8
1859.952	2956.36
1863.16	2962.3
1866.368	2988.81
1869.575	3082.69
1872.782	2971.41
1875.989	2909.34
1879.196	3012.23
1882.402	3004.13
1885.608	3048.5
1888.814	2935.66
1892.019	2823.25
1895.224	2874.8
1898.429	2861.6
1901.634	2836.66
1904.838	2818.92
1908.042	2860.28
1911.246	2870.21
1914.449	2784.24
1917.652	2789.91
1920.855	2774.88
1924.058	2833.86
1927.26	2867.9
1930.462	2900.25
1933.664	2921.38
1936.865	2857.85
1940.066	2856.95
1943.267	2808.06
1946.467	2825.85
1949.668	2857.89
1952.868	2922.7
1956.067	2893.41
1959.267	2820.45
1962.466	2849.74
1965.665	2834.67
1968.863	2834.08
1972.061	2852.98
1975.259	2856.52
1978.457	2939.09
1981.654	2893.48
1984.852	2891.31
1988.048	2815.15
1991.245	2825.31
1994.441	2909.05
1997.637	2907.56
2000.833	2890.91
2004.028	2931.27
2007.223	2983.63
2010.418	2955.69
2013.613	2919.56
2016.807	2877.69
2020.001	2893.49
2023.194	2947.11
2026.388	2919.3
2029.581	2866.73
2032.774	2907.19
2035.966	2908.21
2039.158	2831.3
2042.35	2859.74
2045.542	2786.9
2048.733	2898.63
2051.924	2941.48
2055.115	2973.94
2058.306	2905.46
2061.496	2968.86
2064.686	3039.56
2067.875	2957.37
2071.065	2980.41
2074.254	3010.59
2077.442	2960.68
2080.631	3056.66
2083.819	2927.48
2087.007	2901.73
2090.195	2865.83
2093.382	2910.62
2096.569	2887.27
2099.756	2833.81
2102.942	2848.2
2106.128	2846.13
2109.314	2841.15
2112.5	2794.32
2115.685	2774.12
2118.87	2785.17
2122.055	2852.71
2125.239	2812.67
2128.424	2778.59
2131.608	2902.71
2134.791	2888.43
2137.974	2955.42
2141.157	2940.64
2144.34	2880.83
2147.523	2910.76
2150.705	2917.64
2153.887	2902.88
2157.068	2839.75
2160.25	2851.87
2163.431	2900.68
2166.611	2834.9
2169.792	2844.9
2172.972	2733.47
2176.152	2825.56
2179.331	2864.98
2182.511	2834.6
2185.69	2865.98
2188.868	2856.22
2192.047	2923.22
2195.225	2899.8
2198.403	2847.45
2201.58	2842.4
2204.758	2846.17
2207.935	2930.76
2211.111	2804.18
2214.288	2786.14
2217.464	2828.77
2220.64	2810.1
2223.815	2867.69
2226.991	2782.09
2230.166	2804.79
2233.34	2827.56
2236.515	2861.14
2239.689	2935.01
2242.863	2874.85
2246.036	2934.95
2249.209	2943.25
2252.382	2984.44
2255.555	2964.39
2258.727	2894.61
2261.9	2938.88
2265.071	2930.84
2268.243	2933.98
2271.414	2857.85
2274.585	2809.15
2277.756	2878.67
2280.926	2836.93
2284.096	2883.84
2287.266	2779.72
2290.436	2836.65
2293.605	2870.95
2296.774	2896.58
2299.942	2928.8
2303.111	2944.48
2306.279	2989.67
2309.447	2977.84
2312.614	2956.47
2315.781	2969.3
2318.948	2938.83
2322.115	2977.57
2325.281	2880.73
2328.447	2907.73
2331.613	2885.61
2334.779	2846.55
2337.944	2858.33
2341.109	2851.72
2344.274	2830.55
2347.438	2794.73
2350.602	2824.29
2353.766	2842.35
2356.929	2827.38
2360.092	2871.41
2363.255	2812.45
2366.418	2730.4
2369.58	2863.91
2372.742	2609.86
2375.904	2633.68
2379.066	2604.66
2382.227	2647.65
2385.388	2607.98
2388.548	2522.88
2391.709	2585.71
2394.869	2556.28
2398.029	2680
2401.188	2701.47
2404.347	2622
2407.506	2791.7
2410.665	2819.12
2413.823	2833.87
2416.981	2779.11
2420.139	2821.55
2423.296	2873.22
2426.453	2845.63
2429.61	2877.8
2432.767	2790.19
2435.923	2826.03
2439.079	2770.52
2442.235	2827.62
2445.391	2745.01
2448.546	2766.3
2451.701	2824.23
2454.855	2779.02
2458.009	2846.44
2461.163	2856.23
2464.317	2806.5
2467.471	2843.34
2470.624	2891.63
2473.777	2879.31
2476.929	2889.6
2480.082	2917.43
2483.234	2877.74
2486.385	2821.86
2489.537	2814.11
2492.688	2759.57
2495.839	2778.36
2498.989	2784.1
2502.14	2766.67
2505.29	2741.93
2508.439	2772.95
2511.589	2687.01
2514.738	2706.81
2517.887	2739.5
2521.035	2819.13
2524.183	2815
2527.331	2790.25
2530.479	2753.58
2533.627	2768.8
