Data from N_2_DIV_OH_2N_Splice17_12-21-29-855.txt Node
Date: Sat Mar 14 12:21:29 EDT 2020
User: sa697716
Spectrometer: FLMS03696
Trigger mode: 0
Integration Time (sec): 3.180400E-1
Scans to average: 20
Electric dark correction enabled: true
Nonlinearity correction enabled: true
Boxcar width: 5
XAxis mode: Wavelengths
Number of Pixels in Spectrum: 2048
>>>>>Begin Spectral Data<<<<<
187.83	-317574.39
188.298	2342.28
188.766	1237.39
189.233	1176.7
189.701	1707.39
190.169	2291.54
190.636	867.53
191.104	676.4
191.571	116.74
192.039	-41.91
192.506	-99.97
192.974	397.59
193.441	-782.83
193.908	-317.11
194.375	-51.32
194.842	107.22
195.31	179.5
195.777	194.2
196.244	398.68
196.711	494.05
197.177	622.47
197.644	858.59
198.111	1464.05
198.578	2074.12
199.045	1666.71
199.511	2740.67
199.978	3186.41
200.445	2691.41
200.911	2978.57
201.378	3307.88
201.844	2987.28
202.31	5074.87
202.777	5252.03
203.243	2919.5
203.709	2788.26
204.176	3322.35
204.642	2718.61
205.108	2538.75
205.574	2080.79
206.04	1883.93
206.506	1774.39
206.972	1678.36
207.438	1627.91
207.903	1849.63
208.369	1622.88
208.835	1607.58
209.301	1691.97
209.766	1726.98
210.232	1688.71
210.697	2080.93
211.163	2562.68
211.628	3846.65
212.094	3188.51
212.559	3882.55
213.024	2415.38
213.49	2935.17
213.955	2856
214.42	2769.23
214.885	2576.52
215.35	2459.56
215.815	2349.35
216.28	2499.81
216.745	2019.05
217.21	2171.64
217.675	1967.16
218.14	2164
218.604	2374.48
219.069	2665.46
219.534	2759.81
219.998	3164.66
220.463	3791.99
220.927	4598.65
221.392	4272.72
221.856	4296.94
222.32	5358.68
222.785	6598.88
223.249	8271.77
223.713	9218.66
224.177	9179.93
224.642	11692.83
225.106	14333.07
225.57	15648.88
226.034	11640.87
226.497	17680.8
226.961	15943.67
227.425	18587.61
227.889	20573.27
228.353	20585.42
228.816	42357.39
229.28	40509.71
229.744	34124.02
230.207	20748.91
230.671	20351.41
231.134	33529.18
231.597	38714.09
232.061	38658
232.524	37671.4
232.987	25940.33
233.45	23346.09
233.914	20971.3
234.377	21477.12
234.84	19671.64
235.303	23177.75
235.766	25884.94
236.229	26782.05
236.691	16844.04
237.154	18926.71
237.617	14232.1
238.08	14590.72
238.542	17073.99
239.005	12203.11
239.468	12125.2
239.93	11426.38
240.393	10389.67
240.855	9122.31
241.317	9340.56
241.78	11351.63
242.242	11734.71
242.704	12676.65
243.166	11010.74
243.629	9994.87
244.091	11505.39
244.553	12601.72
245.015	13562.17
245.477	17512.17
245.939	25643.4
246.4	27210.38
246.862	26460.76
247.324	24966.07
247.786	27885.48
248.247	36544.15
248.709	37677.83
249.17	28222.32
249.632	26594.13
250.093	30806.8
250.555	26618.11
251.016	16233.5
251.477	15390.97
251.939	16595.83
252.4	17379.24
252.861	20668.55
253.322	19232.03
253.783	22877.1
254.244	29557.46
254.705	23263.54
255.166	20654.62
255.627	20314.28
256.088	28638.67
256.549	30431.54
257.009	26188.08
257.47	31729.37
257.931	25783.91
258.391	19287.58
258.852	19881.94
259.312	20848.67
259.773	25733.82
260.233	21771.43
260.694	18374.76
261.154	20845.26
261.614	16720.93
262.074	14931.79
262.534	15548.32
262.994	14655.38
263.455	19508.61
263.915	16418.27
264.374	15470.48
264.834	16859.18
265.294	18645.77
265.754	19300.98
266.214	18250.21
266.673	17078.64
267.133	21562.65
267.593	21340.98
268.052	26101.55
268.512	22697.06
268.971	27372.5
269.431	29968.66
269.89	26884.38
270.349	40291.21
270.809	44906.15
271.268	40385.57
271.727	90551.18
272.186	58583.58
272.645	43962.28
273.104	31722.17
273.563	45971.9
274.022	36119.93
274.481	30750.66
274.94	23670.34
275.399	17603.29
275.857	20481.92
276.316	27657.63
276.775	24625.33
277.233	24295.47
277.692	22747.57
278.15	25722.12
278.609	26493.41
279.067	24556.73
279.525	22811.76
279.984	29476.16
280.442	35408.01
280.9	34961.85
281.358	23036.84
281.816	21463.24
282.274	20986.46
282.732	21676.62
283.19	21804.64
283.648	18804.93
284.106	20037.23
284.564	20399.38
285.021	18936.23
285.479	14122.08
285.937	12838.06
286.394	11280.43
286.852	11624.49
287.309	12247.48
287.767	11868.99
288.224	11305.51
288.682	12404.28
289.139	13622
289.596	12483.07
290.053	12973.01
290.511	16375.99
290.968	19874.26
291.425	26938.48
291.882	22444.87
292.339	19525.11
292.796	19325.35
293.252	18182.81
293.709	14455.53
294.166	12942.62
294.623	14294.87
295.079	13706.88
295.536	13765.72
295.992	12493.56
296.449	12365.24
296.905	12852.28
297.362	12335.04
297.818	12992.94
298.274	13528.58
298.731	13785.54
299.187	13654.73
299.643	14647.92
300.099	17705.27
300.555	19424.09
301.011	16212.57
301.467	15647.59
301.923	18283.84
302.379	17837.12
302.835	17498.45
303.291	17496.73
303.746	19892.91
304.202	25107.65
304.658	25231.27
305.113	17013.58
305.569	16697.13
306.024	17818.46
306.479	16935.52
306.935	14299.05
307.39	15638.83
307.845	14453.25
308.301	14533.36
308.756	14145.67
309.211	13646.94
309.666	13985.49
310.121	17356.29
310.576	17608.16
311.031	17487.39
311.486	19999.75
311.94	19972.28
312.395	26680.67
312.85	50153.92
313.305	246221.64
313.759	1283335.25
314.214	93048.74
314.668	73862.85
315.123	62230.21
315.577	22337.94
316.032	19914.51
316.486	24985.99
316.94	19755.17
317.394	13772.97
317.849	10690.94
318.303	10118.76
318.757	9519.37
319.211	10513.66
319.665	9194.07
320.119	9294.06
320.572	13310.23
321.026	12439.73
321.48	10376.45
321.934	11286.74
322.387	11281.41
322.841	12229.05
323.295	11033.93
323.748	12700.3
324.202	12898.68
324.655	15501.39
325.108	21659.77
325.562	15311.73
326.015	18163
326.468	13719.16
326.921	15350.06
327.374	14344.47
327.827	14923.43
328.28	16853.8
328.733	11309.47
329.186	9950.75
329.639	9493.6
330.092	8017.6
330.545	7649.18
330.997	7719.15
331.45	8444.53
331.903	9916.24
332.355	17033.65
332.808	16549.83
333.26	13654.92
333.713	14817.23
334.165	14928.87
334.617	19918.73
335.069	16050.34
335.522	28919
335.974	32116.63
336.426	29316.09
336.878	20266.1
337.33	10302.82
337.782	10043.61
338.234	12612.98
338.686	15089.91
339.137	17868.59
339.589	16821.1
340.041	13197.31
340.493	11348.34
340.944	11604.9
341.396	12547.81
341.847	10562
342.299	12463.36
342.75	15222.78
343.201	13255.82
343.653	15243.87
344.104	18726.67
344.555	14712.24
345.006	22885.45
345.457	17608.66
345.908	13970.22
346.359	13119.02
346.81	10691.59
347.261	11271.58
347.712	11097.68
348.163	11894.11
348.613	12058.71
349.064	11279.26
349.515	9871.78
349.965	10133.37
350.416	12179.48
350.866	13369.62
351.317	15083.91
351.767	24990.15
352.217	31590.69
352.668	26244.48
353.118	24136.61
353.568	23207.53
354.018	18319.61
354.468	19362.01
354.918	13872.42
355.368	12128.1
355.818	17132.21
356.268	49239.2
356.718	206595.75
357.168	51394.42
357.617	25826.17
358.067	28675.82
358.517	26939.77
358.966	31672.55
359.416	35595.98
359.865	38550.1
360.315	45962.41
360.764	21473.38
361.213	12053.36
361.663	11369.14
362.112	14037.2
362.561	22668.68
363.01	17074.7
363.459	14414.76
363.908	15612.06
364.357	13289
364.806	22484.28
365.255	15466.55
365.703	14222.38
366.152	14286.77
366.601	11642.8
367.05	9483.35
367.498	8635.6
367.947	9066.9
368.395	9432.33
368.844	8370.8
369.292	10098.24
369.74	7011.79
370.189	10741.3
370.637	12580.78
371.085	10866.39
371.533	13268.37
371.981	12799.78
372.429	12260.99
372.877	12763.95
373.325	10685.92
373.773	10918.24
374.221	9734.1
374.669	12075.68
375.116	10519.82
375.564	10655.22
376.012	11987.62
376.459	9928.67
376.907	11927.37
377.354	14470.28
377.801	13610
378.249	15730.96
378.696	20229.58
379.143	24619.28
379.591	26326.07
380.038	44740.09
380.485	32598.96
380.932	35377.81
381.379	32596.96
381.826	24113.61
382.273	17219.2
382.72	15131.51
383.166	14828.8
383.613	9674.95
384.06	8769.66
384.506	10221.68
384.953	7541.91
385.4	7620.25
385.846	6705.02
386.292	6559.02
386.739	6457.6
387.185	6407.85
387.631	6436.34
388.078	6289.67
388.524	6755.05
388.97	6283.61
389.416	5261.34
389.862	5613.96
390.308	5342.18
390.754	5456.23
391.2	5948.07
391.645	6100.23
392.091	5880.43
392.537	5709.06
392.983	5737.72
393.428	5672.04
393.874	6090
394.319	6142.98
394.765	5850.81
395.21	6038.18
395.655	5669.74
396.101	5319.69
396.546	4823.4
396.991	4863.09
397.436	4517.85
397.881	4370.11
398.326	4137.21
398.771	3920.3
399.216	3428.15
399.661	3090.85
400.106	3083.03
400.551	3158.43
400.995	2834.76
401.44	2802.05
401.885	2633.27
402.329	2661.98
402.774	2556.05
403.218	2473.78
403.663	2380.63
404.107	2446.15
404.551	2457.73
404.995	2250.46
405.44	2163.31
405.884	2188.59
406.328	2115.51
406.772	2108.54
407.216	1917.69
407.66	1847.52
408.104	1750.84
408.547	1637.9
408.991	1584.92
409.435	1525.4
409.879	1502.53
410.322	1485.35
410.766	1436.37
411.209	1367.34
411.653	1309.52
412.096	1282.85
412.54	1280.77
412.983	1272.1
413.426	1275.75
413.869	1270.73
414.312	1247.26
414.756	1202.07
415.199	1143.5
415.642	1109.74
416.085	1107.72
416.527	1101.42
416.97	1119.45
417.413	1062.06
417.856	1050.22
418.298	1038.57
418.741	1031
419.184	1025.58
419.626	1063.56
420.069	1065.17
420.511	1070.38
420.953	1048.54
421.396	1036.8
421.838	1008.18
422.28	1032.61
422.722	1038.33
423.164	1052.46
423.606	1033.75
424.048	1031.76
424.49	982.58
424.932	974.5
425.374	960.44
425.816	973.86
426.258	991.87
426.699	1000.76
427.141	983.49
427.582	994.03
428.024	985.8
428.465	979.84
428.907	957.06
429.348	942.62
429.789	944.6
430.231	923.24
430.672	934.93
431.113	912.66
431.554	900.82
431.995	878.91
432.436	852.99
432.877	836.02
433.318	825.24
433.759	822.01
434.2	823.69
434.64	813.19
435.081	817.8
435.522	778.37
435.962	752.08
436.403	738.18
436.843	749.32
437.284	731.55
437.724	713.27
438.164	713.51
438.604	698.69
439.045	673.13
439.485	649.05
439.925	635.72
440.365	619.38
440.805	611.09
441.245	603.67
441.685	582.59
442.125	579.08
442.564	583.26
443.004	570.98
443.444	570.35
443.883	573.47
444.323	567.71
444.762	569.45
445.202	578.24
445.641	590.77
446.081	586.75
446.52	592.97
446.959	589.34
447.398	577
447.837	571.15
448.276	562.37
448.716	567.02
449.154	574.8
449.593	563.28
450.032	563.4
450.471	552.04
450.91	553.52
451.349	553.52
451.787	550.3
452.226	558.73
452.664	559.99
453.103	561.57
453.541	562.04
453.98	561.48
454.418	564.17
454.856	554.74
455.295	554.82
455.733	559.86
456.171	562.25
456.609	564.81
457.047	563.47
457.485	571.42
457.923	572.21
458.361	564.46
458.798	566.1
459.236	564.5
459.674	568.92
460.111	571.04
460.549	566.32
460.987	564.25
461.424	560.93
461.862	559.37
462.299	551.07
462.736	550.5
463.173	553.27
463.611	547.69
464.048	547.26
464.485	550.62
464.922	545.84
465.359	540.94
465.796	536.45
466.233	533.95
466.67	529.4
467.106	527.97
467.543	521.73
467.98	514.08
468.416	500.97
468.853	497.07
469.29	482.5
469.726	478.21
470.162	467.06
470.599	459.21
471.035	454.15
471.471	443.31
471.907	441.54
472.344	440
472.78	441.52
473.216	445.96
473.652	440.66
474.088	440.2
474.523	439.36
474.959	442.32
475.395	438.49
475.831	436.28
476.266	438.64
476.702	436.79
477.138	432.59
477.573	431.21
478.008	429.77
478.444	432.56
478.879	436.58
479.314	437.54
479.75	438.42
480.185	439.62
480.62	442.98
481.055	444.76
481.49	448.3
481.925	453.38
482.36	461.28
482.795	473.27
483.229	484.69
483.664	494.11
484.099	496.28
484.534	504.2
484.968	510.03
485.403	512.04
485.837	511.87
486.271	511.25
486.706	512.24
487.14	507.25
487.574	500.59
488.009	496.93
488.443	493.4
488.877	499.86
489.311	501.65
489.745	508.64
490.179	513.92
490.613	524.93
491.046	529.32
491.48	535.08
491.914	536.61
492.348	542.06
492.781	546.77
493.215	549.93
493.648	551.99
494.082	558.73
494.515	560.8
494.948	570.27
495.382	574.96
495.815	582.33
496.248	589.02
496.681	602.06
497.114	613.62
497.547	625.08
497.98	639.6
498.413	648.59
498.846	659.55
499.279	670.47
499.711	677.17
500.144	684.04
500.577	696.13
501.009	709.57
501.442	722.65
501.874	728.15
502.306	734.61
502.739	745.65
503.171	762.85
503.603	770.52
504.036	782.67
504.468	792.66
504.9	807.05
505.332	818.41
505.764	827.49
506.196	838.5
506.627	857.76
507.059	874.97
507.491	887.98
507.923	891.62
508.354	911.92
508.786	928.5
509.217	949.95
509.649	969.7
510.08	993.55
510.512	1014.35
510.943	1034.36
511.374	1050.06
511.805	1074.65
512.237	1098.85
512.668	1135.62
513.099	1166.16
513.53	1197.1
513.961	1222.88
514.391	1259.42
514.822	1295.92
515.253	1336.87
515.684	1366.71
516.114	1401.52
516.545	1427.8
516.975	1458.38
517.406	1481.18
517.836	1488.17
518.267	1499.65
518.697	1521.56
519.127	1529.36
519.558	1540.71
519.988	1548.23
520.418	1561.91
520.848	1583.29
521.278	1595.2
521.708	1602.24
522.138	1618.33
522.567	1652.94
522.997	1680.94
523.427	1698.95
523.857	1718.68
524.286	1731.91
524.716	1749.66
525.145	1772.1
525.575	1784.35
526.004	1801.01
526.433	1809.91
526.863	1811.47
527.292	1802.33
527.721	1810.06
528.15	1818.65
528.579	1821.18
529.008	1834.73
529.437	1860.71
529.866	1877.05
530.295	1897.23
530.724	1912.73
531.152	1944.48
531.581	1961.73
532.01	1982.63
532.438	1993.07
532.867	2010.56
533.295	2032.96
533.723	2040.51
534.152	2039.14
534.58	2039.75
535.008	2024.31
535.436	2026.63
535.865	2035.52
536.293	2052.59
536.721	2070.57
537.149	2099.63
537.576	2103.12
538.004	2117.27
538.432	2127.81
538.86	2126.69
539.287	2135.46
539.715	2152.45
540.143	2157.57
540.57	2152.97
540.998	2148.43
541.425	2123.62
541.852	2101.62
542.28	2099.69
542.707	2081.95
543.134	2066.67
543.561	2063.27
543.988	2056.1
544.415	2054.97
544.842	2048.32
545.269	2042.34
545.696	2045.29
546.123	2061.38
546.549	2049.92
546.976	2037.26
547.403	2036.88
547.829	2039.23
548.256	2042.4
548.682	2038.79
549.108	2032.05
549.535	2032.88
549.961	2034.55
550.387	2020.67
550.813	2014.12
551.24	2021.34
551.666	2022.74
552.092	2013.64
552.518	2006.2
552.943	1999.88
553.369	2008.01
553.795	2013.35
554.221	2013.78
554.646	2011.75
555.072	2022.63
555.498	2027.99
555.923	2037.58
556.349	2054.12
556.774	2063.14
557.199	2065.35
557.625	2071.85
558.05	2065.42
558.475	2077.34
558.9	2076.12
559.325	2066.2
559.75	2059.23
560.175	2051.4
560.6	2044.51
561.025	2042.18
561.449	2042.92
561.874	2049.44
562.299	2053.76
562.723	2060.74
563.148	2048.74
563.572	2054.04
563.997	2065.69
564.421	2072.78
564.846	2074.53
565.27	2079.27
565.694	2075.9
566.118	2090.22
566.542	2096.88
566.966	2089.42
567.39	2085.03
567.814	2073.07
568.238	2072.11
568.662	2076.89
569.086	2079.2
569.509	2086.64
569.933	2068.7
570.357	2060.83
570.78	2036.22
571.204	2022.05
571.627	2010.51
572.05	2008.77
572.474	2007.69
572.897	1993.09
573.32	1984.95
573.743	1973.03
574.166	1952.6
574.589	1953.5
575.012	1945.2
575.435	1943.56
575.858	1933.2
576.281	1919.93
576.704	1900.78
577.126	1887.79
577.549	1875.73
577.972	1863.68
578.394	1851.9
578.817	1843.26
579.239	1821.03
579.661	1804.64
580.084	1787.27
580.506	1772.09
580.928	1767.72
581.35	1755.11
581.772	1749.52
582.194	1734.77
582.616	1720.74
583.038	1705
583.46	1692.87
583.882	1688.47
584.303	1693.84
584.725	1688.57
585.147	1690.06
585.568	1701.63
585.99	1715.56
586.411	1722.17
586.833	1736.99
587.254	1739.22
587.675	1754.05
588.096	1767
588.518	1760.71
588.939	1742.21
589.36	1739.52
589.781	1727.43
590.202	1695.01
590.623	1684.44
591.043	1682.14
591.464	1668.2
591.885	1661.81
592.305	1655.33
592.726	1639.37
593.147	1642.06
593.567	1635.96
593.987	1626.98
594.408	1621.77
594.828	1619.28
595.248	1612.43
595.669	1591.09
596.089	1582.21
596.509	1575.03
596.929	1560.16
597.349	1562.08
597.769	1549.96
598.189	1541.44
598.608	1543.12
599.028	1544.42
599.448	1544.33
599.867	1530.83
600.287	1527.17
600.706	1522.32
601.126	1512.24
601.545	1510.63
601.965	1508.68
602.384	1503.28
602.803	1506.55
603.222	1500.54
603.641	1493.38
604.061	1488.77
604.48	1483.62
604.898	1492.2
605.317	1497.96
605.736	1499.17
606.155	1495.29
606.574	1485.51
606.992	1490.53
607.411	1485.94
607.829	1477.21
608.248	1473.21
608.666	1470.8
609.085	1470.6
609.503	1460.02
609.921	1453.13
610.339	1456.59
610.758	1455.65
611.176	1449.6
611.594	1438.6
612.012	1432.62
612.43	1435.4
612.847	1442.38
613.265	1442.19
613.683	1445.55
614.101	1446.48
614.518	1441.79
614.936	1429.47
615.353	1413.07
615.771	1408.71
616.188	1409.15
616.606	1405.8
617.023	1397.01
617.44	1381.21
617.857	1374.57
618.274	1364.47
618.691	1358.3
619.108	1347.58
619.525	1340.76
619.942	1347.35
620.359	1349.99
620.776	1344.1
621.192	1339.77
621.609	1336.84
622.026	1343.82
622.442	1348.67
622.859	1352.23
623.275	1342.77
623.691	1348.56
624.108	1360.01
624.524	1375.69
624.94	1374.94
625.356	1386.36
625.772	1399.13
626.188	1411.76
626.604	1412.65
627.02	1407.42
627.436	1404.9
627.852	1412.59
628.268	1425.11
628.683	1414.62
629.099	1405.15
629.514	1400.96
629.93	1403.59
630.345	1408.21
630.761	1404.5
631.176	1407.52
631.591	1401.32
632.007	1394.75
632.422	1391.47
632.837	1377.96
633.252	1374.7
633.667	1362.89
634.082	1351.55
634.497	1335.24
634.911	1313
635.326	1307.52
635.741	1287.52
636.155	1274.63
636.57	1272.65
636.984	1269.78
637.399	1267.77
637.813	1263.63
638.228	1258.03
638.642	1258.09
639.056	1244.29
639.47	1240.07
639.884	1226.47
640.298	1214.49
640.712	1208.81
641.126	1192.65
641.54	1179.21
641.954	1170.05
642.368	1153.72
642.781	1141
643.195	1119.12
643.609	1114.94
644.022	1105.05
644.436	1094.6
644.849	1078.38
645.262	1061.68
645.676	1058
646.089	1048.46
646.502	1030.12
646.915	1021.43
647.328	1002.35
647.741	996.84
648.154	981.91
648.567	976.46
648.98	963.69
649.393	962.72
649.805	958.34
650.218	950.4
650.631	934.74
651.043	927.86
651.456	920.06
651.868	919.9
652.28	935.15
652.693	947.26
653.105	951.53
653.517	958.42
653.929	956.47
654.341	960.3
654.753	946.62
655.165	951.82
655.577	947.49
655.989	942.8
656.401	933.36
656.813	898.16
657.224	877.24
657.636	848.81
658.047	830.7
658.459	812.15
658.87	800.98
659.282	788.34
659.693	766.77
660.104	750.64
660.515	735.18
660.926	729.55
661.338	724.05
661.749	714.99
662.159	704.75
662.57	697.52
662.981	689.75
663.392	679.96
663.803	679.11
664.213	674.16
664.624	667.71
665.035	667.21
665.445	653.31
665.855	644.66
666.266	635.03
666.676	629.8
667.086	619.01
667.497	616.48
667.907	609.19
668.317	599.45
668.727	594.94
669.137	593.95
669.547	589.9
669.956	590.22
670.366	590.4
670.776	591.09
671.186	592.37
671.595	595.02
672.005	595.91
672.414	595.38
672.824	594.61
673.233	597.11
673.642	598.74
674.052	601.7
674.461	603.91
674.87	606.48
675.279	605.21
675.688	608.26
676.097	610.43
676.506	608.98
676.915	621.21
677.323	624.8
677.732	623.79
678.141	623.86
678.549	616.4
678.958	616.4
679.366	619.03
679.775	624.62
680.183	634.48
680.592	641.92
681	650.2
681.408	648.93
681.816	658.55
682.224	670.73
682.632	685.33
683.04	715.79
683.448	743.92
683.856	775.9
684.264	814.96
684.671	851.71
685.079	895.89
685.487	944.38
685.894	1010.11
686.302	1068.61
686.709	1119.3
687.116	1178.63
687.524	1232.44
687.931	1279.81
688.338	1324.46
688.745	1363.76
689.152	1409.06
689.559	1465.76
689.966	1522.6
690.373	1555.5
690.78	1610.17
691.187	1686.76
691.593	1746.75
692	1798.77
692.407	1873.98
692.813	1962.16
693.22	2033.59
693.626	2107.04
694.032	2163.85
694.439	2251.49
694.845	2322.06
695.251	2408.51
695.657	2483.29
696.063	2595.28
696.469	2678.95
696.875	2755.93
697.281	2799.24
697.687	2853.48
698.093	2897.86
698.498	2982.81
698.904	3047.57
699.31	3145.25
699.715	3210.71
700.12	3312.71
700.526	3334.18
700.931	3411.44
701.337	3467.81
701.742	3507.29
702.147	3601.33
702.552	3634.79
702.957	3704.08
703.362	3727.23
703.767	3758.92
704.172	3804.18
704.577	3750.32
704.981	3798.62
705.386	3815.35
705.791	3805.54
706.195	3885.76
706.6	3893.08
707.004	3980.72
707.408	3940.34
707.813	3968.26
708.217	3950.87
708.621	3950.92
709.025	4056.51
709.43	4056.47
709.834	4122.69
710.237	4196.13
710.641	4176.43
711.045	4199.44
711.449	4189.71
711.853	4221.26
712.256	4262.34
712.66	4301.72
713.064	4382.31
713.467	4427.3
713.87	4548.07
714.274	4594.11
714.677	4712.12
715.08	4886.87
715.484	5067.87
715.887	5287.4
716.29	5503.42
716.693	5727.39
717.096	5987.46
717.499	6127.6
717.901	6150.69
718.304	6177.95
718.707	6204.51
719.109	6091.45
719.512	6057.19
719.915	5904.16
720.317	5841.52
720.719	5886.56
721.122	5853.94
721.524	5797.97
721.926	5749.71
722.328	5858.41
722.731	5845.11
723.133	5873.27
723.535	6084.89
723.937	6101.84
724.338	6158.17
724.74	6199.38
725.142	6120.75
725.544	6119.14
725.945	6143.06
726.347	6138.24
726.748	6129.24
727.15	6142.23
727.551	6099.88
727.952	6065.75
728.354	6033.45
728.755	6030.04
729.156	5983.54
729.557	5975.62
729.958	5840.5
730.359	5783.94
730.76	5764.45
731.161	5700.39
731.562	5675.76
731.962	5676.73
732.363	5606.51
732.763	5537.82
733.164	5579.69
733.564	5507.9
733.965	5404.71
734.365	5368.96
734.766	5397.41
735.166	5355.14
735.566	5291.08
735.966	5261.86
736.366	5254.47
736.766	5187.33
737.166	5220.08
737.566	5172.76
737.966	5141.51
738.365	5182.69
738.765	5173.04
739.165	5094.06
739.564	5063.03
739.964	5113.66
740.363	5062.31
740.763	5061.45
741.162	5047.19
741.561	5015
741.96	4967.57
742.36	4990.35
742.759	4997.83
743.158	5042.52
743.557	5057.78
743.955	5103.99
744.354	5052.67
744.753	5115.98
745.152	5070.83
745.55	5133.13
745.949	5125.72
746.348	5125.74
746.746	5144.42
747.144	5098.82
747.543	5071.15
747.941	5122.76
748.339	5044.72
748.737	5038.35
749.136	5028.58
749.534	5097.29
749.932	5065.56
750.33	5090.48
750.727	5151.03
751.125	5124.16
751.523	5108.25
751.921	5157.57
752.318	5120.59
752.716	5182.71
753.113	5194.98
753.511	5224.2
753.908	5225.22
754.305	5207.19
754.703	5272.2
755.1	5335.32
755.497	5397.38
755.894	5601.19
756.291	5789.94
756.688	6140.36
757.085	6610.08
757.482	7266.34
757.878	7973.21
758.275	8615.07
758.672	9500.76
759.068	10219.46
759.465	11247.48
759.861	12582.62
760.258	14121.71
760.654	14915.59
761.05	14790.03
761.447	14110.35
761.843	13137.38
762.239	12138.96
762.635	11694.64
763.031	11262.27
763.427	10637.49
763.822	9985.55
764.218	9334.53
764.614	8490.06
765.01	7926
765.405	7563.83
765.801	7288.6
766.196	6938.79
766.592	6744.07
766.987	6407.14
767.382	6179.85
767.778	6086.58
768.173	5947.15
768.568	5869.26
768.963	5737.03
769.358	5755.91
769.753	5706.49
770.148	5614.61
770.542	5613.91
770.937	5579.98
771.332	5678.05
771.726	5700.39
772.121	5631.56
772.515	5691.88
772.91	5678.06
773.304	5754.98
773.699	5684.63
774.093	5742.78
774.487	5805.33
774.881	5851.78
775.275	5848.81
775.669	5805.8
776.063	5853.21
776.457	5896.23
776.851	5816.33
777.245	5809.39
777.638	5843.72
778.032	5970.18
778.425	5928.73
778.819	5973.83
779.212	5929.5
779.606	5883.19
779.999	5900.8
780.392	5881.31
780.786	5969.52
781.179	5989.72
781.572	6034.53
781.965	6048.55
782.358	5983.92
782.751	6044.05
783.143	5989.25
783.536	6064.52
783.929	6110.55
784.322	6232.84
784.714	6264.95
785.107	6256.66
785.499	6335.14
785.891	6309.9
786.284	6288.17
786.676	6439.39
787.068	6417.69
787.46	6477.06
787.852	6495.98
788.245	6586.62
788.636	6622.89
789.028	6695.11
789.42	6735.66
789.812	6742.82
790.204	6846.86
790.595	6950.7
790.987	6736.78
791.378	6760.9
791.77	6893.86
792.161	7039.28
792.553	7101.65
792.944	6976.18
793.335	6903.02
793.726	6983.37
794.117	7077.2
794.508	7219.27
794.899	7182.66
795.29	7335.27
795.681	7395.41
796.072	7243.25
796.463	7039.92
796.853	7045.61
797.244	7214.59
797.634	7249.32
798.025	7242.33
798.415	7254.51
798.806	7347.81
799.196	7441.9
799.586	7493.95
799.976	7453.02
800.366	7698.37
800.756	7960.86
801.146	7919.77
801.536	7949.29
801.926	8030.89
802.316	8058.19
802.706	8136.82
803.095	8007.38
803.485	8112.46
803.874	8154.36
804.264	8429.65
804.653	8402.83
805.043	8554.92
805.432	8673.94
805.821	8674.39
806.21	8694.32
806.599	8823.17
806.988	8867.99
807.377	8982.76
807.766	9124.39
808.155	9426.89
808.544	9142.22
808.933	9156.32
809.321	9131.18
809.71	9443.08
810.098	9610.34
810.487	10097.7
810.875	10599.14
811.264	10623.61
811.652	10927.37
812.04	11079.66
812.428	11253.45
812.816	12065.36
813.204	12498.86
813.592	13089.78
813.98	13444.75
814.368	13339.67
814.756	13844.34
815.144	13758.91
815.531	14244.11
815.919	14154.7
816.306	14470.39
816.694	14136.34
817.081	14187.91
817.469	14555.64
817.856	14545.65
818.243	14821.59
818.63	15236.41
819.017	14791.05
819.404	14864.01
819.791	15258.45
820.178	15910.12
820.565	16166
820.952	17146.12
821.339	16629.3
821.725	16818.96
822.112	16037.46
822.498	15993.94
822.885	16133.86
823.271	16032.47
823.657	16468.24
824.044	16485.02
824.43	16565.85
824.816	16542.73
825.202	16086.02
825.588	17161.47
825.974	17179.45
826.36	17711.17
826.746	17741.4
827.132	18110.89
827.517	18082.88
827.903	17256.91
828.289	17293.43
828.674	16468.34
829.06	16354.25
829.445	16764.99
829.83	17137.68
830.216	17642.92
830.601	18034.15
830.986	17606.71
831.371	17458.29
831.756	18047.85
832.141	17593.07
832.526	17586.82
832.911	17886.37
833.295	17760.15
833.68	18256.3
834.065	17596.52
834.449	16638.11
834.834	16561.68
835.218	16558.53
835.603	16922.55
835.987	16703.54
836.371	17586.18
836.755	17476.64
837.139	17890.34
837.524	18152.32
837.908	17967.45
838.291	18031.31
838.675	18105.94
839.059	18326.1
839.443	18315.27
839.827	18067.23
840.21	18572.68
840.594	18411.71
840.977	18629.51
841.361	18621.16
841.744	19018.31
842.127	18856.72
842.511	19120.62
842.894	19742.62
843.277	20141.42
843.66	20711.83
844.043	20802.79
844.426	19950.4
844.809	19623.82
845.191	19659.68
845.574	19169.8
845.957	18785.55
846.339	18677.57
846.722	18127.41
847.104	18206.49
847.487	18027.37
847.869	18044.88
848.252	18349.23
848.634	18693.93
849.016	18972.59
849.398	19110.24
849.78	20009.41
850.162	20010.6
850.544	20434.17
850.926	21098.61
851.307	21001.87
851.689	21301.59
852.071	21768.72
852.452	22103.47
852.834	22097.32
853.215	22516.33
853.597	22665.42
853.978	22970.08
854.359	23456.09
854.741	22401.64
855.122	22298.89
855.503	21989.59
855.884	22122.64
856.265	22060.75
856.646	22180.12
857.026	21757.5
857.407	21682.56
857.788	21849.04
858.169	22151.66
858.549	21247.21
858.93	21909.96
859.31	21952.96
859.69	22164.67
860.071	21735.12
860.451	21510.26
860.831	20723.21
861.211	21943.18
861.591	22527.03
861.971	22504.34
862.351	22716.62
862.731	23127.45
863.111	23403.21
863.491	23747.72
863.87	24673.85
864.25	25049.39
864.629	24619.07
865.009	25158.3
865.388	26046.5
865.768	27881.53
866.147	27766.55
866.526	26210.84
866.905	26523.84
867.284	28004.36
867.663	26582.3
868.042	25480.47
868.421	25392.43
868.8	25820.28
869.179	26079.79
869.558	24566.92
869.936	22670.26
870.315	23074.8
870.693	23639.57
871.072	25491.59
871.45	24299.18
871.828	24609.02
872.207	25866.45
872.585	25469.68
872.963	26165
873.341	25262.55
873.719	24959.08
874.097	24646.18
874.475	25109.22
874.853	25687.85
875.23	24617.29
875.608	25639.03
875.986	27734.23
876.363	26526.22
876.741	27335.86
877.118	26647.97
877.495	27948.87
877.873	28413.23
878.25	29898.97
878.627	28679.53
879.004	29089.76
879.381	28952.13
879.758	28197.98
880.135	26266.47
880.512	27775.76
880.889	27041.56
881.265	26751
881.642	26533.92
882.019	26978.75
882.395	26441.36
882.772	27491.33
883.148	26286.41
883.524	26178.17
883.901	26028.77
884.277	26407.59
884.653	26245.07
885.029	27004.78
885.405	29919.58
885.781	29699.09
886.157	28480.34
886.532	28815.51
886.908	28812.4
887.284	32039.89
887.659	33087.55
888.035	34102.57
888.411	34988
888.786	35445.34
889.161	36663
889.537	35980.4
889.912	37124.1
890.287	37080.03
890.662	38039.1
891.037	37339.27
891.412	34817.66
891.787	34467.35
892.162	33271.14
892.536	34040.52
892.911	32764.18
893.286	32076.79
893.66	30770.02
894.035	31547.63
894.409	34345.98
894.784	32960.4
895.158	33503.42
895.532	35491.39
895.906	36462.48
896.281	37309.32
896.655	36708.68
897.029	41929.49
897.402	43654.28
897.776	48609.24
898.15	48441.21
898.524	47925.1
898.898	48569.79
899.271	54380.26
899.645	47104.1
900.018	45247.5
900.392	46929.12
900.765	47320.34
901.138	43794.59
901.511	43144.45
901.884	39610.69
902.258	36533.22
902.631	37747.7
903.003	43441.99
903.376	39205.86
903.749	43956.58
904.122	47050.95
904.495	51799.28
904.867	52446.76
905.24	45524.58
905.612	42383.46
905.985	43381.02
906.357	45395.95
906.729	43320.75
907.102	36993.73
907.474	35562.26
907.846	35778.77
908.218	35298.44
908.59	31203.12
908.962	30181.65
909.334	32509.45
909.705	34136.02
910.077	33130.38
910.449	34469.3
910.82	35445.09
911.192	38998.02
911.563	40537.02
911.935	43402.52
912.306	43462.78
912.677	44858.18
913.048	44411.15
913.419	48178
913.79	48485.7
914.161	51963.08
914.532	49649.32
914.903	45630.4
915.274	43349.3
915.645	42690.04
916.015	37564.94
916.386	35806.43
916.756	38125.9
917.127	39334.75
917.497	35137.56
917.868	38217.92
918.238	36318.9
918.608	37373.79
918.978	38125.89
919.348	40353.42
919.718	41696
920.088	40135.94
920.458	41712.8
920.828	43887.11
921.198	41569.23
921.567	44415.54
921.937	34376.02
922.306	34702.29
922.676	37402.59
923.045	31213.68
923.415	29655.45
923.784	27004.9
924.153	27772.79
924.522	27734.34
924.891	26075.3
925.26	27957.52
925.629	27291.29
925.998	31391.89
926.367	30622.05
926.736	29160.91
927.104	34734.07
927.473	37343.13
927.842	45116.56
928.21	44688.12
928.578	46977.04
928.947	44424.3
929.315	44694.03
929.683	52413.62
930.051	52809.25
930.42	61331.39
930.788	52437.05
931.156	52027.11
931.523	48773.78
931.891	45069.31
932.259	43301.99
932.627	50170.57
932.994	70970.31
933.362	58650.07
933.729	50933.58
934.097	48761.66
934.464	41280.83
934.831	47633.58
935.199	46979.87
935.566	45562.78
935.933	46227.39
936.3	55971.95
936.667	43598.9
937.034	39305.25
937.401	38864.39
937.767	33534.82
938.134	29862.19
938.501	42116.87
938.867	44891.26
939.234	75863.42
939.6	64743.65
939.967	71139.48
940.333	47582.2
940.699	40510.28
941.065	32528.58
941.431	42612.15
941.798	41087.88
942.163	53954.08
942.529	33710.66
942.895	31007.35
943.261	20065.79
943.627	26324.43
943.992	23069.46
944.358	23137.81
944.723	23213.49
945.089	22628.64
945.454	20920.64
945.82	22348.71
946.185	21478.19
946.55	24888.42
946.915	22354.32
947.28	26224.94
947.645	23087.06
948.01	21301.88
948.375	22189.56
948.74	26615.01
949.104	31033.14
949.469	44827.02
949.834	79169.21
950.198	74965.36
950.562	44924.62
950.927	37388.61
951.291	44945.17
951.655	38255.13
952.02	35924.23
952.384	27194.51
952.748	23640.87
953.112	23060.53
953.476	20042.06
953.839	18540.33
954.203	18363.78
954.567	22958.13
954.931	36173.37
955.294	30988.64
955.658	31171.92
956.021	53018.68
956.385	89800.93
956.748	132651.07
957.111	205785.46
957.474	231259.28
957.837	260574.62
958.2	197169.56
958.563	70887.34
958.926	47899.4
959.289	72693.57
959.652	81307.21
960.015	61012.93
960.377	87650.42
960.74	99998.43
961.102	172743.17
961.465	185307.14
961.827	99152.66
962.189	190365.67
962.552	132168.72
962.914	106093.87
963.276	68772.16
963.638	56844.95
964	56305.38
964.362	38025.93
964.724	36753.72
965.085	26183.36
965.447	21480.69
965.809	24512.2
966.17	24550.11
966.532	26579.54
966.893	24383.76
967.255	22229.49
967.616	26233.07
967.977	20998.69
968.338	22968.13
968.699	18873.17
969.061	18870.59
969.421	18995.24
969.782	21319.54
970.143	18011.19
970.504	18630.89
970.865	21151.43
971.225	21588.71
971.586	21112.91
971.946	30092.21
972.307	26096.62
972.667	34142.24
973.027	35163.94
973.388	42679.72
973.748	28990.17
974.108	31564.35
974.468	42715.64
974.828	32991.16
975.188	25382.06
975.548	23302.19
975.907	19565.47
976.267	21944.84
976.627	18448.03
976.986	19136.62
977.346	18255.52
977.705	17581.21
978.064	16006.79
978.424	13325.37
978.783	13773.95
979.142	15736.53
979.501	15087.39
979.86	15937.08
980.219	15347.69
980.578	19776.49
980.937	22145.07
981.296	19714.65
981.654	20282.51
982.013	31599.9
982.371	41055.89
982.73	38341.13
983.088	43421.54
983.447	46333.28
983.805	66317.08
984.163	138877.33
984.521	154319.13
984.879	226384.28
985.237	-367990.53
985.595	354611.66
985.953	88024.71
986.311	50737.99
986.669	29487
987.026	25465.25
987.384	34240.37
987.741	35424.03
988.099	25298.96
988.456	20144.95
988.814	18852.24
989.171	16414.18
989.528	16218.69
989.885	17117.44
990.242	13570.17
990.599	16880.62
990.956	13804.74
991.313	9661.54
991.67	7932.27
992.027	8395.39
992.383	7464.1
992.74	6546.33
993.096	6848.31
993.453	7092.94
993.809	7355.01
994.165	9793.46
994.522	8958.09
994.878	9857.78
995.234	12372.2
995.59	12188.93
995.946	11541.87
996.302	13162.38
996.658	15210.16
997.013	16792.34
997.369	19884.47
997.725	25511.65
998.08	16495.94
998.436	25497.24
998.791	35148.07
999.147	34977.68
999.502	38159.07
999.857	27762.14
1000.212	45242.61
1000.567	64446.18
1000.922	37205.81
1001.277	23682.36
1001.632	17568.33
1001.987	22690.3
1002.342	16258.01
1002.696	13006.93
1003.051	10399.97
1003.406	12618.87
1003.76	12568.69
1004.114	12388.55
1004.469	10427.81
1004.823	8616.56
1005.177	9310.46
1005.531	7369.54
1005.885	6543.99
1006.239	7396.75
1006.593	9289.78
1006.947	12448.24
1007.301	9335.63
1007.655	10174.04
1008.008	7461.71
1008.362	8371.26
1008.715	11980.61
1009.069	10862.68
1009.422	16329.75
1009.776	32755.52
1010.129	21788.91
1010.482	18229.16
1010.835	15384.68
1011.188	32021.39
1011.541	30202.81
1011.894	-184472.1
1012.247	543638.44
1012.6	36905.13
1012.952	23279.8
1013.305	11990.26
1013.657	8660.4
1014.01	8175.8
1014.362	6733.92
1014.715	5978.73
1015.067	5205.1
1015.419	5067.09
1015.771	4495.52
1016.123	3986.27
1016.475	4113.05
1016.827	4383.72
1017.179	4714.84
1017.531	4723.95
1017.883	4827.91
1018.234	4661.57
1018.586	5888.84
1018.938	6221.74
1019.289	8579.67
1019.64	9808.86
1019.992	9158.46
1020.343	8346.42
1020.694	6598.39
1021.045	5832.3
1021.396	6659.55
1021.747	7133.96
1022.098	8571.35
1022.449	6216.75
1022.8	5767.19
1023.151	4034
1023.501	3588.46
1023.852	3901.18
1024.202	4035.99
1024.553	4418.99
1024.903	4314.61
1025.253	3690.7
1025.604	3318.39
1025.954	4091.99
1026.304	4998.1
1026.654	5842.87
1027.004	8570.59
1027.354	13945.69
1027.703	13073.91
1028.053	17249.63
1028.403	25327.55
1028.753	36827.06
1029.102	50378.41
1029.452	260379.37
1029.801	11342.59
1030.15	7339.98
1030.499	6243.22
897.758	2534.99
901.051	2486.14
904.343	2521.52
907.636	2524.49
910.928	2588.69
914.22	2500.47
917.511	2505.7
920.803	2566.68
924.094	2580.03
927.384	2564.81
930.675	2532.28
933.965	2488.26
937.255	2501.96
940.544	2468
943.834	2427.34
947.123	2366.66
950.411	2460.37
953.7	2435.71
956.988	2408.36
960.276	2349.78
963.563	2423.21
966.851	2422.64
970.138	2477.38
973.424	2473.86
976.711	2426.24
979.997	2532.53
983.283	2573.74
986.568	2486.96
989.853	2496.79
993.138	2524.51
996.423	2607.15
999.708	2548.7
1002.992	2603.09
1006.275	2460.22
1009.559	2491.77
1012.842	2602.11
1016.125	2539.67
1019.408	2520.08
1022.69	2601.74
1025.972	2623.69
1029.254	2599.32
1032.536	2538.73
1035.817	2563.85
1039.098	2514.43
1042.379	2633.94
1045.659	2643.91
1048.939	2581.08
1052.219	2599.36
1055.498	2606.06
1058.778	2593.99
1062.057	2578.68
1065.335	2600.66
1068.614	2616.6
1071.892	2602.17
1075.17	2676.5
1078.447	2666.77
1081.724	2660.21
1085.001	2694.49
1088.278	2671.34
1091.554	2683.6
1094.83	2679.84
1098.106	2708.1
1101.382	2749.15
1104.657	2751.6
1107.932	2746.58
1111.206	2712.16
1114.481	2672.28
1117.755	2672.83
1121.029	2658.21
1124.302	2710.8
1127.575	2665.57
1130.848	2654.33
1134.121	2617.35
1137.393	2569.09
1140.665	2636.27
1143.937	2613.06
1147.208	2570.16
1150.48	2615.33
1153.75	2602.52
1157.021	2626.28
1160.291	2601.12
1163.561	2648.31
1166.831	2633.06
1170.101	2665.66
1173.37	2637.58
1176.639	2583.86
1179.907	2641.1
1183.176	2651.02
1186.444	2655.71
1189.711	2684.79
1192.979	2698.42
1196.246	2650.9
1199.513	2668.55
1202.78	2667.76
1206.046	2675.78
1209.312	2701.98
1212.578	2725.69
1215.843	2679.73
1219.108	2653.75
1222.373	2676.44
1225.638	2642.72
1228.902	2628.08
1232.166	2590.6
1235.43	2576.47
1238.693	2597.32
1241.956	2594.88
1245.219	2636.79
1248.482	2625.03
1251.744	2619.4
1255.006	2761.64
1258.268	2715.19
1261.529	2660.45
1264.79	2666.02
1268.051	2773.68
1271.312	2783.65
1274.572	2751.36
1277.832	2739.01
1281.092	2728.17
1284.351	2705.8
1287.61	2687.32
1290.869	2606.75
1294.128	2588.13
1297.386	2667.88
1300.644	2658.32
1303.902	2668.75
1307.159	2530.14
1310.416	2584.69
1313.673	2610.18
1316.93	2596.69
1320.186	2639.13
1323.442	2681.37
1326.697	2674.55
1329.953	2660.5
1333.208	2685.29
1336.463	2664.06
1339.717	2606.98
1342.972	2734.97
1346.226	2709.66
1349.479	2646.3
1352.733	2619.05
1355.986	2637.43
1359.238	2614.4
1362.491	2617.18
1365.743	2616.43
1368.995	2612.58
1372.247	2624.83
1375.498	2648.24
1378.749	2669.56
1382	2623.17
1385.251	2673.29
1388.501	2633.37
1391.751	2619.62
1395	2587.09
1398.25	2618.67
1401.499	2631.35
1404.748	2563.69
1407.996	2546.39
1411.244	2532.48
1414.492	2514.93
1417.74	2490.74
1420.987	2500.23
1424.234	2555.25
1427.481	2531.14
1430.728	2590.35
1433.974	2562.73
1437.22	2572.72
1440.465	2573.54
1443.711	2548.9
1446.956	2580.04
1450.201	2562.83
1453.445	2610.42
1456.689	2588.11
1459.933	2600.2
1463.177	2637.41
1466.42	2608.23
1469.663	2589.09
1472.906	2589.25
1476.148	2650.8
1479.391	2629.72
1482.633	2596.97
1485.874	2610.65
1489.115	2601.82
1492.356	2604.67
1495.597	2582.73
1498.838	2582.26
1502.078	2556.23
1505.318	2512.82
1508.557	2554.38
1511.797	2541.16
1515.036	2592.43
1518.274	2585.51
1521.513	2555.28
1524.751	2573.03
1527.989	2591.58
1531.227	2605.53
1534.464	2605.39
1537.701	2619.1
1540.938	2637.12
1544.174	2589.22
1547.41	2586.25
1550.646	2626.3
1553.882	2667.02
1557.117	2719.42
1560.352	2735.29
1563.587	2692.68
1566.821	2654.72
1570.055	2687.02
1573.289	2661.35
1576.523	2733.82
1579.756	2743.27
1582.989	2763.16
1586.222	2721.65
1589.454	2757.49
1592.686	2735.23
1595.918	2762.41
1599.15	2753.21
1602.381	2820.01
1605.612	2781.78
1608.843	2878.34
1612.073	2792.78
1615.303	2777.78
1618.533	2769.85
1621.762	2770.5
1624.992	2754.6
1628.221	2745.9
1631.449	2728.55
1634.678	2778.31
1637.906	2736.49
1641.134	2774.24
1644.361	2732.86
1647.588	2719.26
1650.815	2737.64
1654.042	2714.04
1657.269	2744.23
1660.495	2701.2
1663.72	2716.02
1666.946	2683.48
1670.171	2634.59
1673.396	2607.5
1676.621	2591.03
1679.845	2606
1683.069	2623.73
1686.293	2662.81
1689.517	2639.96
1692.74	2576.72
1695.963	2603.73
1699.185	2626.48
1702.408	2598.96
1705.63	2636.41
1708.852	2651.2
1712.073	2623.46
1715.294	2613.56
1718.515	2671.47
1721.736	2622.66
1724.956	2608.5
1728.176	2632.44
1731.396	2656.16
1734.616	2641.94
1737.835	2672.73
1741.054	2650.01
1744.272	2641.86
1747.491	2673.83
1750.709	2721.21
1753.927	2636.15
1757.144	2674.33
1760.361	2723.43
1763.578	2711.42
1766.795	2655.28
1770.011	2654.54
1773.227	2692.28
1776.443	2728.67
1779.658	2774.23
1782.874	2713.92
1786.089	2693.89
1789.303	2695.81
1792.518	2700.65
1795.732	2686.71
1798.945	2698.12
1802.159	2746.43
1805.372	2659.78
1808.585	2645.64
1811.797	2646.02
1815.01	2686.5
1818.222	2695.07
1821.434	2674.04
1824.645	2728.86
1827.856	2718.78
1831.067	2753.33
1834.278	2703.92
1837.488	2683.06
1840.698	2827.16
1843.908	2755.43
1847.117	2722.29
1850.326	2618.98
1853.535	2710.28
1856.744	2726.26
1859.952	2640.23
1863.16	2643.28
1866.368	2661.07
1869.575	2764.49
1872.782	2652.32
1875.989	2586.79
1879.196	2662.01
1882.402	2650.41
1885.608	2686.48
1888.814	2598.26
1892.019	2496.75
1895.224	2547.95
1898.429	2523.77
1901.634	2502.7
1904.838	2481.69
1908.042	2526.23
1911.246	2537.57
1914.449	2474.89
1917.652	2468.64
1920.855	2451.69
1924.058	2494.46
1927.26	2533.05
1930.462	2560.13
1933.664	2586.01
1936.865	2527.65
1940.066	2534.2
1943.267	2485.76
1946.467	2495.53
1949.668	2520.04
1952.868	2588.29
1956.067	2568.85
1959.267	2503.89
1962.466	2529.75
1965.665	2517.11
1968.863	2514.08
1972.061	2522.84
1975.259	2523.12
1978.457	2598.98
1981.654	2560.19
1984.852	2561.43
1988.048	2499.48
1991.245	2498.87
1994.441	2584.29
1997.637	2561.62
2000.833	2539.23
2004.028	2579.21
2007.223	2638.52
2010.418	2617.52
2013.613	2575.29
2016.807	2550.08
2020.001	2558.12
2023.194	2595.14
2026.388	2571.95
2029.581	2518.28
2032.774	2571.81
2035.966	2581.16
2039.158	2514.52
2042.35	2538.37
2045.542	2464.11
2048.733	2563.68
2051.924	2582.41
2055.115	2604.29
2058.306	2553.12
2061.496	2613.17
2064.686	2673.99
2067.875	2585.56
2071.065	2596.47
2074.254	2621.73
2077.442	2574.69
2080.631	2664.41
2083.819	2564.45
2087.007	2545.41
2090.195	2521.15
2093.382	2552.7
2096.569	2534.12
2099.756	2489.25
2102.942	2521.38
2106.128	2529.1
2109.314	2520.59
2112.5	2489.44
2115.685	2462.63
2118.87	2472.41
2122.055	2537.24
2125.239	2506
2128.424	2485.39
2131.608	2574.85
2134.791	2559.24
2137.974	2610.96
2141.157	2597.07
2144.34	2553.1
2147.523	2563.58
2150.705	2579.55
2153.887	2557.7
2157.068	2513.36
2160.25	2510.52
2163.431	2541.47
2166.611	2495.04
2169.792	2511.31
2172.972	2410.49
2176.152	2481.53
2179.331	2513.1
2182.511	2499.45
2185.69	2528.6
2188.868	2522.65
2192.047	2573.64
2195.225	2570.42
2198.403	2520.04
2201.58	2510.28
2204.758	2502.3
2207.935	2585.25
2211.111	2478.71
2214.288	2466.86
2217.464	2503.44
2220.64	2469.33
2223.815	2522.72
2226.991	2446.31
2230.166	2464.92
2233.34	2500.75
2236.515	2519.06
2239.689	2590
2242.863	2534.28
2246.036	2590.56
2249.209	2585.96
2252.382	2617.25
2255.555	2611.88
2258.727	2553.3
2261.9	2588.19
2265.071	2581.35
2268.243	2580.94
2271.414	2518.83
2274.585	2485.08
2277.756	2550.05
2280.926	2505.05
2284.096	2543.11
2287.266	2455.3
2290.436	2506.99
2293.605	2536.21
2296.774	2568.28
2299.942	2582.53
2303.111	2599.07
2306.279	2649.39
2309.447	2634.37
2312.614	2610.4
2315.781	2632.41
2318.948	2602.3
2322.115	2641.66
2325.281	2543.72
2328.447	2559.9
2331.613	2533.14
2334.779	2511.06
2337.944	2510.97
2341.109	2510.43
2344.274	2496.62
2347.438	2460.39
2350.602	2485.1
2353.766	2502.22
2356.929	2488.17
2360.092	2530.16
2363.255	2483.37
2366.418	2427.58
2369.58	2530.19
2372.742	2340.24
2375.904	2349.72
2379.066	2329.1
2382.227	2358.56
2385.388	2323.29
2388.548	2255.39
2391.709	2304.98
2394.869	2283.75
2398.029	2375.65
2401.188	2382.88
2404.347	2323.09
2407.506	2447.71
2410.665	2478.38
2413.823	2479.15
2416.981	2444.82
2420.139	2470.07
2423.296	2517.92
2426.453	2492.61
2429.61	2516.04
2432.767	2456.16
2435.923	2495.16
2439.079	2456.95
2442.235	2501.88
2445.391	2433.24
2448.546	2463.96
2451.701	2510.81
2454.855	2490.23
2458.009	2534.87
2461.163	2531.28
2464.317	2495.2
2467.471	2526.76
2470.624	2563.08
2473.777	2537.37
2476.929	2550.38
2480.082	2576.19
2483.234	2543.43
2486.385	2492.49
2489.537	2484.45
2492.688	2453.66
2495.839	2472.17
2498.989	2483.31
2502.14	2469.39
2505.29	2455.64
2508.439	2476.46
2511.589	2406.12
2514.738	2413.73
2517.887	2443.08
2521.035	2509.89
2524.183	2487.3
2527.331	2467.21
2530.479	2447.45
2533.627	2455.24
