Data from N_2_DEC_OH_4N_Splice17_12-03-41-359.txt Node
Date: Sat Mar 14 12:03:41 EDT 2020
User: sa697716
Spectrometer: FLMS03696
Trigger mode: 0
Integration Time (sec): 3.180400E-1
Scans to average: 20
Electric dark correction enabled: true
Nonlinearity correction enabled: true
Boxcar width: 5
XAxis mode: Wavelengths
Number of Pixels in Spectrum: 2048
>>>>>Begin Spectral Data<<<<<
187.83	-243173.89
188.298	1790.07
188.766	969.99
189.233	882.06
189.701	1187.55
190.169	1700.12
190.636	610.88
191.104	450.4
191.571	23.5
192.039	-97.35
192.506	-88.48
192.974	451.04
193.441	-643.22
193.908	-109.77
194.375	12.98
194.842	-16.38
195.31	48.44
195.777	134.53
196.244	317.69
196.711	374.74
197.177	464.67
197.644	651.73
198.111	1134.41
198.578	1591.96
199.045	1280.01
199.511	2108.58
199.978	2471.29
200.445	2090.18
200.911	2303.72
201.378	2553.64
201.844	2326.72
202.31	3952.93
202.777	4113.64
203.243	2318.44
203.709	2199.01
204.176	2638.8
204.642	2171.97
205.108	2043.59
205.574	1689.91
206.04	1538.64
206.506	1447.85
206.972	1345.28
207.438	1296.85
207.903	1472.24
208.369	1289.22
208.835	1283.1
209.301	1337.36
209.766	1350.13
210.232	1332.17
210.697	1623.2
211.163	1980.94
211.628	2962.5
212.094	2518.7
212.559	3138.27
213.024	1960.69
213.49	2372.27
213.955	2314.95
214.42	2233.37
214.885	2082.13
215.35	1981.79
215.815	1912.65
216.28	2015.6
216.745	1624.81
217.21	1725.96
217.675	1518.45
218.14	1662.3
218.604	1798.1
219.069	1993.9
219.534	2041.33
219.998	2297.41
220.463	2714.77
220.927	3232.18
221.392	2981.12
221.856	2973.63
222.32	3656.06
222.785	4489.74
223.249	5575.37
223.713	6180.6
224.177	6113.99
224.642	7761.61
225.106	9468.27
225.57	10295.81
226.034	7662.26
226.497	11651.59
226.961	10511.33
227.425	12265.12
227.889	13550.24
228.353	13473.37
228.816	27642.45
229.28	26434.88
229.744	22152.08
230.207	13468.6
230.671	13193.56
231.134	21664.98
231.597	24846.05
232.061	24671.01
232.524	23887.13
232.987	16419.47
233.45	14819.67
233.914	13266.51
234.377	13495.66
234.84	12352.57
235.303	14533.19
235.766	16212.44
236.229	16726.42
236.691	10516.8
237.154	11793.59
237.617	8887.19
238.08	9073.63
238.542	10579.35
239.005	7561.03
239.468	7526.1
239.93	7088.67
240.393	6433.8
240.855	5631.28
241.317	5749.01
241.78	6987.37
242.242	7241.57
242.704	7828.48
243.166	6813.64
243.629	6196.1
244.091	7142.31
244.553	7816.11
245.015	8412.81
245.477	10865.29
245.939	15934.92
246.4	16929.5
246.862	16452.17
247.324	15460.47
247.786	17277.56
248.247	22574.13
248.709	23192.31
249.17	17336.82
249.632	16404.31
250.093	19011.18
250.555	16410.38
251.016	10023.49
251.477	9499.76
251.939	10240.48
252.4	10774.33
252.861	12732.18
253.322	11893.63
253.783	14189.11
254.244	18366.9
254.705	14423.21
255.166	12762.84
255.627	12592.28
256.088	17759.22
256.549	18859.7
257.009	16228.06
257.47	19641.46
257.931	16046.1
258.391	12029.4
258.852	12394.18
259.312	12976.98
259.773	15993.95
260.233	13590.06
260.694	11469.05
261.154	12956.73
261.614	10416.5
262.074	9314.94
262.534	9672.42
262.994	9126.15
263.455	12111.19
263.915	10196.95
264.374	9612.04
264.834	10496.31
265.294	11605.15
265.754	11997.66
266.214	11366.74
266.673	10628.4
267.133	13383.31
267.593	13269.01
268.052	16213.82
268.512	14109.35
268.971	17029.03
269.431	18653.76
269.89	16668.04
270.349	24999.02
270.809	27913.11
271.268	25071.22
271.727	56194.19
272.186	36439.53
272.645	27313.05
273.104	19642.36
273.563	28360.52
274.022	22241.41
274.481	18947.24
274.94	14613.27
275.399	10836.51
275.857	12579.49
276.316	17012.52
276.775	15131.81
277.233	14913.28
277.692	13990.51
278.15	15882.87
278.609	16418.51
279.067	15198.37
279.525	14124.33
279.984	18239.86
280.442	21919.74
280.9	21651.23
281.358	14254.09
281.816	13325.19
282.274	13036.28
282.732	13406.72
283.19	13469.8
283.648	11622.47
284.106	12380.33
284.564	12573.46
285.021	11695.33
285.479	8730.39
285.937	7939.94
286.394	6983.08
286.852	7163.75
287.309	7534.14
287.767	7330.29
288.224	6976.32
288.682	7631.6
289.139	8410.63
289.596	7705.76
290.053	7995.19
290.511	10059.04
290.968	12207.18
291.425	16541.73
291.882	13839.44
292.339	12050.07
292.796	11911.36
293.252	11199.07
293.709	8915.81
294.166	7962.51
294.623	8799.91
295.079	8422.5
295.536	8490.64
295.992	7704.22
296.449	7611.29
296.905	7905.73
297.362	7606.59
297.818	8003.96
298.274	8334.37
298.731	8482.8
299.187	8411.91
299.643	9020.78
300.099	10927.63
300.555	11957.15
301.011	9993.33
301.467	9684.34
301.923	11281.32
302.379	10974.33
302.835	10786.88
303.291	10762.94
303.746	12256.31
304.202	15453.12
304.658	15563.43
305.113	10468.67
305.569	10274.64
306.024	10945.12
306.479	10386.64
306.935	8807.94
307.39	9648.59
307.845	8907.56
308.301	9015.58
308.756	8787.33
309.211	8479.42
309.666	8671.68
310.121	10824.18
310.576	10983.6
311.031	10899.05
311.486	12464
311.94	12410.94
312.395	16575.17
312.85	31158.45
313.305	152151.41
313.759	790738.45
314.214	57412.3
314.668	45649.28
315.123	38336.8
315.577	13785.71
316.032	12293.97
316.486	15443.43
316.94	12191.62
317.394	8483.29
317.849	6599.31
318.303	6260.25
318.757	5912.65
319.211	6526.28
319.665	5707.64
320.119	5765.69
320.572	8250.6
321.026	7709.73
321.48	6410.98
321.934	6983.03
322.387	6998.66
322.841	7555.71
323.295	6817.93
323.748	7812.9
324.202	7933.32
324.655	9540.38
325.108	13371.91
325.562	9441.66
326.015	11220.26
326.468	8465.72
326.921	9476.37
327.374	8857.55
327.827	9249.8
328.28	10479.1
328.733	7057
329.186	6221.84
329.639	5926.62
330.092	4996.56
330.545	4776.75
330.997	4825.73
331.45	5298.29
331.903	6223.91
332.355	10684.78
332.808	10365.2
333.26	8539.8
333.713	9246.74
334.165	9299.75
334.617	12393.87
335.069	9940.13
335.522	17902.71
335.974	19835.02
336.426	18071.81
336.878	12479.06
337.33	6351.02
337.782	6201.93
338.234	7790.88
338.686	9342.67
339.137	11067.4
339.589	10442.64
340.041	8264.16
340.493	7115.75
340.944	7281.78
341.396	7869.38
341.847	6650.13
342.299	7867.45
342.75	9659.76
343.201	8413.66
343.653	9662.58
344.104	11868.34
344.555	9315.28
345.006	14413.29
345.457	11102.46
345.908	8810.35
346.359	8303.26
346.81	6745.99
347.261	7086.15
347.712	6940.85
348.163	7428.25
348.613	7551.12
349.064	7052.81
349.515	6187.03
349.965	6367.86
350.416	7635.27
350.866	8375.58
351.317	9412.72
351.767	15618.07
352.217	19721.31
352.668	16367.05
353.118	15017.42
353.568	14400.85
354.018	11380.53
354.468	12018.67
354.918	8637.05
355.368	7582.76
355.818	10681.61
356.268	30785.39
356.718	129406.34
357.168	32217.79
357.617	16222.19
358.067	18059.11
358.517	16926.27
358.966	19923.69
359.416	22408.43
359.865	24135.05
360.315	28662.43
360.764	13454.71
361.213	7563.15
361.663	7131.09
362.112	8821.66
362.561	14209.22
363.01	10724.18
363.459	9064.59
363.908	9802.68
364.357	8338.26
364.806	14074.83
365.255	9693.33
365.703	8902.51
366.152	8942.76
366.601	7270.79
367.05	5910.4
367.498	5408.71
367.947	5633.13
368.395	5855.29
368.844	5189.4
369.292	6213.86
369.74	4307.44
370.189	6583.8
370.637	7713.15
371.085	6654.44
371.533	8065.52
371.981	7761.19
372.429	7402.06
372.877	7728.17
373.325	6467.35
373.773	6594.78
374.221	5874.2
374.669	7287.84
375.116	6309.68
375.564	6358.75
376.012	7090.36
376.459	5894.71
376.907	7044.72
377.354	8489.6
377.801	7945.87
378.249	9185.41
378.696	11742.58
379.143	14251.85
379.591	15231.3
380.038	25899.45
380.485	18799.08
380.932	20389.75
381.379	18770.69
381.826	13917.55
382.273	9941.03
382.72	8689.62
383.166	8470.89
383.613	5535.73
384.06	5011.32
384.506	5810.92
384.953	4269.71
385.4	4291.71
385.846	3758.03
386.292	3649.26
386.739	3564.64
387.185	3530.23
387.631	3549.5
388.078	3464.81
388.524	3708.68
388.97	3438.03
389.416	2877.85
389.862	3064.44
390.308	2912.48
390.754	2974.13
391.2	3243.13
391.645	3318.79
392.091	3206.77
392.537	3108.12
392.983	3102.29
393.428	3073.76
393.874	3296.88
394.319	3324.69
394.765	3177.54
395.21	3269.33
395.655	3063.18
396.101	2860.85
396.546	2601.35
396.991	2613.51
397.436	2431.02
397.881	2355.42
398.326	2215.53
398.771	2103.33
399.216	1835.47
399.661	1648.2
400.106	1655.11
400.551	1705.99
400.995	1533.55
401.44	1516.15
401.885	1423.02
402.329	1441.74
402.774	1386.8
403.218	1358.41
403.663	1310.52
404.107	1353.88
404.551	1365.36
404.995	1245.55
405.44	1196.89
405.884	1215.49
406.328	1171.41
406.772	1173.18
407.216	1070.83
407.66	1034.3
408.104	973.27
408.547	910.59
408.991	880.21
409.435	846.97
409.879	838.57
410.322	829.14
410.766	803.12
411.209	767.89
411.653	735.22
412.096	720.92
412.54	721.27
412.983	719.12
413.426	725.86
413.869	723.96
414.312	713.53
414.756	687.88
415.199	655.39
415.642	637.43
416.085	640.84
416.527	636.34
416.97	644.97
417.413	613
417.856	603.63
418.298	594.31
418.741	588.21
419.184	583.2
419.626	603.75
420.069	601.78
420.511	605.22
420.953	590.65
421.396	584.86
421.838	568.87
422.28	580.9
422.722	587.09
423.164	593.62
423.606	587.14
424.048	586.75
424.49	559.37
424.932	556.74
425.374	547.53
425.816	556.67
426.258	566.99
426.699	572.44
427.141	567.48
427.582	575.6
428.024	571.86
428.465	565.28
428.907	551.27
429.348	544.69
429.789	547.06
430.231	536.59
430.672	545.42
431.113	534.53
431.554	528.84
431.995	511.88
432.436	494.86
432.877	486.87
433.318	483.82
433.759	480.42
434.2	482.26
434.64	477.61
435.081	480.81
435.522	454.46
435.962	438.1
436.403	429.79
436.843	434.44
437.284	423.13
437.724	409.58
438.164	405.78
438.604	399.9
439.045	386.26
439.485	372.29
439.925	363.69
440.365	355.21
440.805	349.78
441.245	345.32
441.685	333.7
442.125	331.22
442.564	333.2
443.004	326.77
443.444	324.11
443.883	323.21
444.323	317.52
444.762	316.92
445.202	321.07
445.641	326.83
446.081	322.41
446.52	324.8
446.959	323.4
447.398	315.55
447.837	310.79
448.276	305.16
448.716	310.25
449.154	312.87
449.593	305.75
450.032	304.45
450.471	297.47
450.91	297.79
451.349	298.08
451.787	294.55
452.226	298.52
452.664	298.1
453.103	298.23
453.541	293.39
453.98	292.53
454.418	293.93
454.856	289.1
455.295	287.98
455.733	289.89
456.171	289.45
456.609	291.15
457.047	291.25
457.485	296.74
457.923	297.55
458.361	293.79
458.798	294.82
459.236	292.7
459.674	293.91
460.111	295.84
460.549	293.32
460.987	290.94
461.424	288.09
461.862	286.14
462.299	280.92
462.736	280.58
463.173	282.5
463.611	282.1
464.048	283.14
464.485	286.39
464.922	282.89
465.359	279.46
465.796	283.45
466.233	282.57
466.67	282.1
467.106	282.66
467.543	279.64
467.98	274.13
468.416	264.88
468.853	261.05
469.29	251.76
469.726	248.62
470.162	242.87
470.599	234.8
471.035	232.16
471.471	225.64
471.907	222.48
472.344	220.91
472.78	222.17
473.216	223.34
473.652	219.92
474.088	218.8
474.523	218.93
474.959	220.9
475.395	217.88
475.831	215.71
476.266	215.97
476.702	214.66
477.138	211.84
477.573	211.04
478.008	210.96
478.444	212.82
478.879	215.03
479.314	214.64
479.75	214.52
480.185	214.77
480.62	215.15
481.055	215.35
481.49	216.37
481.925	219.16
482.36	223.82
482.795	228.72
483.229	233.51
483.664	237.74
484.099	238.18
484.534	240.96
484.968	243.94
485.403	244.92
485.837	243.73
486.271	243.16
486.706	242.77
487.14	238.56
487.574	234.34
488.009	231.6
488.443	228.26
488.877	231.64
489.311	231.94
489.745	234.26
490.179	237.31
490.613	243.39
491.046	244.82
491.48	245.72
491.914	245.67
492.348	247.42
492.781	249.58
493.215	250.94
493.648	250.49
494.082	252.09
494.515	252.46
494.948	255.16
495.382	254.7
495.815	256.88
496.248	259.95
496.681	264.46
497.114	268.18
497.547	272.4
497.98	277.99
498.413	281.17
498.846	285.51
499.279	288.29
499.711	289.21
500.144	290.97
500.577	296.21
501.009	300.12
501.442	304.95
501.874	307.27
502.306	308.16
502.739	314.02
503.171	320.87
503.603	323.32
504.036	327.81
504.468	331.8
504.9	337.74
505.332	341.05
505.764	344.73
506.196	348.91
506.627	356.12
507.059	363.22
507.491	365.43
507.923	366.43
508.354	374.44
508.786	381.3
509.217	391.02
509.649	399.73
510.08	409.91
510.512	420.03
510.943	429.31
511.374	437.25
511.805	448.03
512.237	459.93
512.668	475.83
513.099	490.34
513.53	505.75
513.961	518.48
514.391	536.24
514.822	555.5
515.253	576.04
515.684	592.21
516.114	610.52
516.545	626.57
516.975	644.03
517.406	658.1
517.836	664.15
518.267	672.61
518.697	687.15
519.127	695.13
519.558	703.91
519.988	710.65
520.418	719.96
520.848	733.26
521.278	742.68
521.708	774.83
522.138	786.97
522.567	808.45
522.997	826.42
523.427	838.27
523.857	851.16
524.286	861.04
524.716	873.91
525.145	888.89
525.575	900.21
526.004	911.34
526.433	895.69
526.863	899.12
527.292	898.36
527.721	906.25
528.15	914.07
528.579	918.37
529.008	927.71
529.437	943.38
529.866	954.67
530.295	966.33
530.724	977.63
531.152	995.77
531.581	1007.2
532.01	1019.25
532.438	1025.44
532.867	1035.27
533.295	1048.28
533.723	1053.02
534.152	1053
534.58	1054.78
535.008	1047.76
535.436	1049.94
535.865	1054.72
536.293	1063.46
536.721	1073.22
537.149	1089.12
537.576	1092.17
538.004	1100.52
538.432	1106.52
538.86	1106.82
539.287	1111.15
539.715	1120.08
540.143	1122.88
540.57	1122.22
540.998	1120.68
541.425	1109.09
541.852	1097.25
542.28	1096.03
542.707	1085.84
543.134	1078.41
543.561	1075.87
543.988	1071.77
544.415	1071.49
544.842	1067.03
545.269	1061.83
545.696	1063.85
546.123	1071.27
546.549	1065.34
546.976	1059.29
547.403	1059.86
547.829	1060.71
548.256	1062.05
548.682	1059.63
549.108	1054.84
549.535	1055.73
549.961	1057.75
550.387	1049.48
550.813	1046.25
551.24	1050.08
551.666	1048.87
552.092	1043.49
552.518	1039.79
552.943	1036.72
553.369	1040.65
553.795	1042.77
554.221	1041.54
554.646	1038.25
555.072	1043.51
555.498	1044.4
555.923	1047.21
556.349	1055.19
556.774	1057.99
557.199	1056.46
557.625	1057.41
558.05	1052.93
558.475	1057.38
558.9	1055.04
559.325	1048.55
559.75	1043.05
560.175	1037.43
560.6	1032.17
561.025	1027.69
561.449	1025.76
561.874	1026.3
562.299	1026.03
562.723	1026.01
563.148	1017.37
563.572	1016.32
563.997	1019.04
564.421	1018.18
564.846	1014.21
565.27	1012.66
565.694	1008.63
566.118	1011.36
566.542	1013.13
566.966	1005.34
567.39	999.71
567.814	990.31
568.238	987.27
568.662	985.68
569.086	982.59
569.509	982.29
569.933	971.47
570.357	962.37
570.78	946.68
571.204	935.86
571.627	927.21
572.05	921.83
572.474	917.84
572.897	907
573.32	900.73
573.743	891.87
574.166	879.91
574.589	874.9
575.012	868.35
575.435	864.78
575.858	856.41
576.281	847.52
576.704	837.01
577.126	827.42
577.549	819.35
577.972	810.26
578.394	803.6
578.817	799.41
579.239	787.66
579.661	779.6
580.084	770.16
580.506	761.38
580.928	756.89
581.35	749.83
581.772	745.94
582.194	736.94
582.616	728.18
583.038	718.64
583.46	709.08
583.882	706.46
584.303	705.07
584.725	701.39
585.147	703.25
585.568	706.36
585.99	710.07
586.411	712.6
586.833	718.57
587.254	718.44
587.675	723.03
588.096	728.07
588.518	723.49
588.939	715.5
589.36	712.73
589.781	703.28
590.202	691.35
590.623	685.13
591.043	681.34
591.464	674.5
591.885	671.54
592.305	667.62
592.726	660.38
593.147	660.65
593.567	657.29
593.987	652.89
594.408	649.15
594.828	645.54
595.248	642.68
595.669	634.47
596.089	629.96
596.509	625.98
596.929	619.81
597.349	619.74
597.769	613.86
598.189	610.38
598.608	610.44
599.028	611.07
599.448	610.71
599.867	604.51
600.287	601.65
600.706	599.31
601.126	594.96
601.545	593.61
601.965	591.49
602.384	587.84
602.803	587.93
603.222	584.79
603.641	580.42
604.061	578.02
604.48	574.79
604.898	576.81
605.317	577.58
605.736	577.26
606.155	575.81
606.574	571.05
606.992	572.87
607.411	569.15
607.829	564.19
608.248	562.01
608.666	558.98
609.085	558.42
609.503	553.79
609.921	550.49
610.339	550.67
610.758	548.12
611.176	545.01
611.594	540.41
612.012	538.75
612.43	539.24
612.847	539.73
613.265	539.88
613.683	540.81
614.101	540.56
614.518	536.65
614.936	530.75
615.353	524.5
615.771	522.07
616.188	520.95
616.606	517.91
617.023	513.83
617.44	507.84
617.857	503.12
618.274	497.31
618.691	494.29
619.108	490.36
619.525	486.41
619.942	487.86
620.359	487.98
620.776	484.69
621.192	482.88
621.609	481.54
622.026	483.59
622.442	485.67
622.859	486.96
623.275	482.67
623.691	484.25
624.108	488.21
624.524	493.02
624.94	492.61
625.356	496.17
625.772	500.61
626.188	504.57
626.604	505.14
627.02	502.9
627.436	501.94
627.852	505.76
628.268	510.22
628.683	506.5
629.099	502.37
629.514	500.14
629.93	500.8
630.345	501.47
630.761	499.02
631.176	499.23
631.591	497.05
632.007	493.94
632.422	491.18
632.837	485
633.252	484.41
633.667	480.44
634.082	476.85
634.497	471.69
634.911	465.02
635.326	462.76
635.741	455.22
636.155	449.36
636.57	449.2
636.984	448.17
637.399	448.28
637.813	445.61
638.228	443.22
638.642	441.92
639.056	435.81
639.47	432.67
639.884	427.94
640.298	424.36
640.712	422.38
641.126	415.3
641.54	409.31
641.954	404.66
642.368	399.49
642.781	396.93
643.195	389.16
643.609	388.4
644.022	384.89
644.436	381.72
644.849	375.1
645.262	369.72
645.676	368.7
646.089	365.98
646.502	361.28
646.915	357.72
647.328	350.3
647.741	349.63
648.154	344.1
648.567	344.17
648.98	339.45
649.393	339.28
649.805	338.23
650.218	335.92
650.631	331.26
651.043	329.3
651.456	327.56
651.868	326.76
652.28	330.85
652.693	335.47
653.105	336
653.517	339.77
653.929	339.81
654.341	341.61
654.753	338.07
655.165	339.82
655.577	338.67
655.989	337.3
656.401	334.8
656.813	325.37
657.224	319.15
657.636	309.55
658.047	304.72
658.459	299.61
658.87	296.34
659.282	293.11
659.693	287.98
660.104	283.85
660.515	279.97
660.926	279.29
661.338	277.55
661.749	275.24
662.159	274.64
662.57	272.92
662.981	272.68
663.392	271.29
663.803	272.71
664.213	272.18
664.624	270.95
665.035	272.86
665.445	269.52
665.855	269.75
666.266	270.05
666.676	269.28
667.086	267.02
667.497	267.72
667.907	267.54
668.317	265.74
668.727	269.14
669.137	270.94
669.547	271.88
669.956	273.93
670.366	276.07
670.776	278.5
671.186	282.48
671.595	285.7
672.005	288.12
672.414	289.01
672.824	291.22
673.233	291.38
673.642	294.67
674.052	298.03
674.461	302.05
674.87	306.01
675.279	306.29
675.688	307.87
676.097	311.1
676.506	312.49
676.915	320.32
677.323	323.27
677.732	324.36
678.141	325.8
678.549	323.17
678.958	324.68
679.366	324.8
679.775	328.64
680.183	335.81
680.592	339.53
681	343.07
681.408	341.83
681.816	345.93
682.224	350.22
682.632	355.96
683.04	368.84
683.448	378.7
683.856	392.25
684.264	406.75
684.671	417.15
685.079	431.58
685.487	447.88
685.894	472.13
686.302	489.83
686.709	505.45
687.116	523.29
687.524	539.65
687.931	552.92
688.338	563.11
688.745	571.35
689.152	583.6
689.559	601.29
689.966	620.85
690.373	630.13
690.78	648.71
691.187	677.36
691.593	700.47
692	719.81
692.407	751.92
692.813	793.09
693.22	828.22
693.626	863.42
694.032	896.57
694.439	941.68
694.845	979.93
695.251	1029.28
695.657	1074.33
696.063	1135.81
696.469	1187.34
696.875	1237.12
697.281	1272.05
697.687	1313.32
698.093	1352.98
698.498	1410.92
698.904	1459.13
699.31	1526.4
699.715	1580.85
700.12	1651.88
700.526	1683.26
700.931	1744.25
701.337	1794.28
701.742	1834.56
702.147	1903.6
702.552	1940.79
702.957	1995.91
703.362	2027.74
703.767	2064.99
704.172	2109.35
704.577	2098.02
704.981	2147.48
705.386	2175.79
705.791	2190.02
706.195	2257.32
706.6	2282.27
707.004	2354.53
707.408	2352.23
707.813	2390.93
708.217	2399.81
708.621	2418.63
709.025	2504.02
709.43	2522.2
709.834	2580.98
710.237	2646.88
710.641	2653.96
711.045	2687.14
711.449	2700.01
711.853	2738.34
712.256	2783.56
712.66	2826.87
713.064	2897
713.467	2942.9
713.87	3042.5
714.274	3093.71
714.677	3192.92
715.08	3330.46
715.484	3472.63
715.887	3645.38
716.29	3814.87
716.693	3992.24
717.096	4196.32
717.499	4318.6
717.901	4359.51
718.304	4395.52
718.707	4433.18
719.109	4370.69
719.512	4360.5
719.915	4272.34
720.317	4241.16
720.719	4290.53
721.122	4281.37
721.524	4257.43
721.926	4236.87
722.328	4330.9
722.731	4337.08
723.133	4373.16
723.535	4539.19
723.937	4568.51
724.338	4623.68
724.74	4672.37
725.142	4635.04
725.544	4647.91
725.945	4680.37
726.347	4687.33
726.748	4690.05
727.15	4710.91
727.551	4687.1
727.952	4672.96
728.354	4657.03
728.755	4663.49
729.156	4633.37
729.557	4627.99
729.958	4530.9
730.359	4490.78
730.76	4484.36
731.161	4441.39
731.562	4430.37
731.962	4440.92
732.363	4396.59
732.763	4349.84
733.164	4387.61
733.564	4335.79
733.965	4259.94
734.365	4236.29
734.766	4265.26
735.166	4234.6
735.566	4192.19
735.966	4172.89
736.366	4173.98
736.766	4123.7
737.166	4151.45
737.566	4118.01
737.966	4100.32
738.365	4137.39
738.765	4135.44
739.165	4075.33
739.564	4056.78
739.964	4098.24
740.363	4059.57
740.763	4060.46
741.162	4054.01
741.561	4031.17
741.96	3994.34
742.36	4012.97
742.759	4021.14
743.158	4057.28
743.557	4071.51
743.955	4108.02
744.354	4070.52
744.753	4121.51
745.152	4084.74
745.55	4133.74
745.949	4129.13
746.348	4132.65
746.746	4147.92
747.144	4112.51
747.543	4092.65
747.941	4135.51
748.339	4075.01
748.737	4069.11
749.136	4062.11
749.534	4122.32
749.932	4098.24
750.33	4118.99
750.727	4168.24
751.125	4149.54
751.523	4136.64
751.921	4176.86
752.318	4148.56
752.716	4199.78
753.113	4213.89
753.511	4239.06
753.908	4237.74
754.305	4223.06
754.703	4277.83
755.1	4331.9
755.497	4384.17
755.894	4553.75
756.291	4707.62
756.688	4998.37
757.085	5381.75
757.482	5920.18
757.878	6506
758.275	7041.2
758.672	7776.69
759.068	8374.8
759.465	9223.34
759.861	10323.94
760.258	11593.62
760.654	12256.42
761.05	12154.48
761.447	11601.34
761.843	10799.56
762.239	9979.29
762.635	9605.81
763.031	9245.91
763.427	8729.32
763.822	8184.48
764.218	7649.23
764.614	6948.04
765.01	6478.76
765.405	6175.09
765.801	5948.1
766.196	5655.13
766.592	5490.67
766.987	5214.27
767.382	5025.36
767.778	4949.02
768.173	4838.18
768.568	4771.75
768.963	4664.58
769.358	4678.69
769.753	4638.01
770.148	4563.32
770.542	4564.14
770.937	4535.39
771.332	4614.09
771.726	4633.11
772.121	4577.97
772.515	4625.11
772.91	4613.83
773.304	4677.21
773.699	4623.53
774.093	4669.11
774.487	4718.08
774.881	4757.06
775.275	4756.12
775.669	4720.88
776.063	4760.02
776.457	4792.36
776.851	4726.31
777.245	4720.6
777.638	4749.55
778.032	4848.33
778.425	4818.12
778.819	4857.96
779.212	4817.68
779.606	4781.66
779.999	4798.95
780.392	4783.49
780.786	4855.23
781.179	4874.56
781.572	4911
781.965	4922
782.358	4871.6
782.751	4920.13
783.143	4873.38
783.536	4938.45
783.929	4976.36
784.322	5075.16
784.714	5103.6
785.107	5098.41
785.499	5160.32
785.891	5138.27
786.284	5120.51
786.676	5246.48
787.068	5231.37
787.46	5279.04
787.852	5293.5
788.245	5365.08
788.636	5391.1
789.028	5450.87
789.42	5483.03
789.812	5492.31
790.204	5579.27
790.595	5664.77
790.987	5494.9
791.378	5516.25
791.77	5625.29
792.161	5747.17
792.553	5798.06
792.944	5701.01
793.335	5638.59
793.726	5703.07
794.117	5777.96
794.508	5896.54
794.899	5871.24
795.29	5990.49
795.681	6038.58
796.072	5920.63
796.463	5760.31
796.853	5767.53
797.244	5904.85
797.634	5936.55
798.025	5933.02
798.415	5946.05
798.806	6023.79
799.196	6097.9
799.586	6141.78
799.976	6108.66
800.366	6303.67
800.756	6507.89
801.146	6471.9
801.536	6493.23
801.926	6553.48
802.316	6573.88
802.706	6635.88
803.095	6526.92
803.485	6614.72
803.874	6653.46
804.264	6879.57
804.653	6857
805.043	6983.77
805.432	7073.18
805.821	7076.91
806.21	7093.74
806.599	7201.13
806.988	7240.25
807.377	7334.27
807.766	7446.09
808.155	7682.7
808.544	7452.5
808.933	7467.41
809.321	7450.51
809.71	7713.44
810.098	7850.01
810.487	8252.41
810.875	8670.23
811.264	8686.13
811.652	8935.97
812.04	9061.34
812.428	9208.85
812.816	9867.92
813.204	10227.8
813.592	10707.13
813.98	10991.79
814.368	10910.03
814.756	11320.67
815.144	11242.77
815.531	11645.48
815.919	11582.85
816.306	11846.26
816.694	11579.45
817.081	11620.84
817.469	11920.78
817.856	11913.47
818.243	12151.36
818.63	12488.25
819.017	12131.8
819.404	12187.05
819.791	12519.46
820.178	13052.11
820.565	13266.24
820.952	14073.3
821.339	13651.28
821.725	13809.9
822.112	13167.37
822.498	13131.47
822.885	13246.78
823.271	13159.74
823.657	13530.14
824.044	13526.9
824.43	13582.31
824.816	13557.66
825.202	13180.03
825.588	14064.24
825.974	14071.59
826.36	14518.97
826.746	14548.59
827.132	14852.8
827.517	14832.95
827.903	14151.97
828.289	14189.66
828.674	13521.51
829.06	13435.52
829.445	13777.67
829.83	14085.48
830.216	14504.54
830.601	14821.74
830.986	14473.83
831.371	14356.68
831.756	14829.02
832.141	14460.52
832.526	14461.12
832.911	14708.07
833.295	14600.54
833.68	15009.73
834.065	14472.28
834.449	13681.1
834.834	13622.79
835.218	13615.91
835.603	13916.1
835.987	13749.99
836.371	14464.62
836.755	14375.36
837.139	14723.7
837.524	14936.83
837.908	14779.39
838.291	14835.69
838.675	14896.9
839.059	15072.5
839.443	15068.98
839.827	14865.27
840.21	15273.43
840.594	15153.12
840.977	15331.01
841.361	15316.5
841.744	15644.23
842.127	15511.55
842.511	15729.81
842.894	16242.24
843.277	16577.06
843.66	17048.89
844.043	17125.05
844.426	16428.55
844.809	16166
845.191	16195.16
845.574	15802.5
845.957	15490.25
846.339	15403.71
846.722	14945.29
847.104	15015.07
847.487	14868.35
847.869	14880.17
848.252	15126.03
848.634	15416.6
849.016	15641.49
849.398	15746.68
849.78	16478.48
850.162	16481.66
850.544	16837.7
850.926	17385.09
851.307	17305.08
851.689	17542.05
852.071	17930.87
852.452	18210.73
852.834	18187.18
853.215	18528.43
853.597	18665.85
853.978	18917.94
854.359	19316.85
854.741	18454.94
855.122	18365.47
855.503	18117.52
855.884	18239.53
856.265	18187.3
856.646	18290.46
857.026	17961.2
857.407	17915.76
857.788	18055.13
858.169	18304.1
858.549	17565.88
858.93	18110.87
859.31	18153.39
859.69	18337.36
860.071	17981.88
860.451	17794.79
860.831	17147.28
861.211	18146.29
861.591	18615.68
861.971	18586.21
862.351	18747.56
862.731	19080.47
863.111	19300.32
863.491	19578.28
863.87	20332.34
864.25	20632.21
864.629	20289.99
865.009	20732.3
865.388	21462.73
865.768	22997.19
866.147	22916.61
866.526	21648.15
866.905	21900.44
867.284	23127.96
867.663	21958.47
868.042	21053.52
868.421	20981.44
868.8	21317.96
869.179	21530.83
869.558	20278.96
869.936	18691.41
870.315	19020.36
870.693	19493.87
871.072	21028.88
871.45	20035.15
871.828	20307
872.207	21332.11
872.585	21014.68
872.963	21588.68
873.341	20843.68
873.719	20598.88
874.097	20343.29
874.475	20727.07
874.853	21199.19
875.23	20307.01
875.608	21165.81
875.986	22877.66
876.363	21880.68
876.741	22550.46
877.118	21987.58
877.495	23062.63
877.873	23440.67
878.25	24677.95
878.627	23674.91
879.004	23996.86
879.381	23899.86
879.758	23269.99
880.135	21665.74
880.512	22915.78
880.889	22305.43
881.265	22075.06
881.642	21895.3
882.019	22271.58
882.395	21820.56
882.772	22681.91
883.148	21697.95
883.524	21597.67
883.901	21464.83
884.277	21802.26
884.653	21659.74
885.029	22286.12
885.405	24677.23
885.781	24493.8
886.157	23486.98
886.532	23770.35
886.908	23763.61
887.284	26439.69
887.659	27301.82
888.035	28169.13
888.411	28876.3
888.786	29260.14
889.161	30271.06
889.537	29718.37
889.912	30662.69
890.287	30642.29
890.662	31429.3
891.037	30857.83
891.412	28761.6
891.787	28484.65
892.162	27480.74
892.536	28129.53
892.911	27070.51
893.286	26498.95
893.66	25426.57
894.035	26079.21
894.409	28395.07
894.784	27250.9
895.158	27705.34
895.532	29368.21
895.906	30164.95
896.281	30874.12
896.655	30375.78
897.029	34713.21
897.402	36166.62
897.776	40258.68
898.15	40114.08
898.524	39665.73
898.898	40201.95
899.271	45006.94
899.645	38964.27
900.018	37410.1
900.392	38789.7
900.765	39117.93
901.138	36203.46
901.511	35635.96
901.884	32733
902.258	30187.48
902.631	31199.25
903.003	35902.32
903.376	32382.23
903.749	36302.85
904.122	38895.98
904.495	42830.44
904.867	43354.53
905.24	37646.14
905.612	35037.11
905.985	35805.94
906.357	37425.91
906.729	35715.38
907.102	30500.07
907.474	29337.61
907.846	29526.93
908.218	29133.8
908.59	25741.3
908.962	24900.17
909.334	26795.6
909.705	28144.41
910.077	27320.45
910.449	28451.31
910.82	29253.41
911.192	32193.76
911.563	33448.01
911.935	35786
912.306	35824.97
912.677	36990.71
913.048	36628.97
913.419	39743.47
913.79	39964.11
914.161	42879.67
914.532	40962.79
914.903	37632.29
915.274	35751.76
915.645	35224.11
916.015	30995.17
916.386	29536.53
916.756	31435.87
917.127	32420.33
917.497	28958.05
917.868	31527.12
918.238	29925.86
918.608	30798.1
918.978	31449.57
919.348	33278.64
919.718	34370.79
920.088	33099.75
920.458	34390.67
920.828	36176.5
921.198	34276.81
921.567	36633.19
921.937	28369.38
922.306	28650.69
922.676	30903.48
923.045	25772.09
923.415	24480.07
923.784	22298.2
924.153	22927.4
924.522	22907.99
924.891	21529.89
925.26	23070.18
925.629	22522.69
925.998	25908.12
926.367	25300.05
926.736	24085.88
927.104	28687.75
927.473	30855.64
927.842	37273.21
928.21	36935.04
928.578	38816.83
928.947	36724.07
929.315	36949.21
929.683	43347.43
930.051	43682.41
930.42	50722.01
930.788	43340.83
931.156	42998.8
931.523	40292.4
931.891	37253.49
932.259	35769.73
932.627	41454.46
932.994	58644.92
933.362	48433.31
933.729	42034.79
934.097	40219.29
934.464	34018.79
934.831	39277.29
935.199	38717.47
935.566	37553.39
935.933	38126.83
936.3	46203.7
936.667	35975.27
937.034	32452.05
937.401	32105.09
937.767	27720.03
938.134	24678.72
938.501	34849.34
938.867	37108.84
939.234	62753.24
939.6	53530.72
939.967	58823.68
940.333	39351.31
940.699	33496.63
941.065	26879.62
941.431	35269.11
941.798	34009.13
942.163	44647.76
942.529	27852.92
942.895	25638.19
943.261	16598.74
943.627	21778.88
943.992	19048.36
944.358	19082.36
944.723	19154.83
945.089	18696
945.454	17269.27
945.82	18432.11
946.185	17697.27
946.55	20532.12
946.915	18446.07
947.28	21620.76
947.645	19022.74
948.01	17572.16
948.375	18330.6
948.74	21984.79
949.104	25615.76
949.469	37022.33
949.834	65384.31
950.198	62003.84
950.562	37140.69
950.927	30890.86
951.291	37190.55
951.655	31725.85
952.02	29775.54
952.384	22481.71
952.748	19578.32
953.112	19085.33
953.476	16592.29
953.839	15360.22
954.203	15225.45
954.567	19072.62
954.931	30054.55
955.294	25696.95
955.658	25845.58
956.021	43986.64
956.385	74636.49
956.748	110098.95
957.111	170882.07
957.474	191665.98
957.837	215567.18
958.2	162907.15
958.563	58500.42
958.926	39492.68
959.289	59925.05
959.652	66925.3
960.015	50131.89
960.377	71905.17
960.74	82052.45
961.102	141657.62
961.465	152073.55
961.827	81511.13
962.189	156371.35
962.552	108501.66
962.914	87141.69
963.276	56513.21
963.638	46642.66
964	46248.02
964.362	31262.15
964.724	30210.83
965.085	21526.16
965.447	17662.77
965.809	20142.86
966.17	20170.14
966.532	21820.3
966.893	20016.66
967.255	18208.88
967.616	21508.15
967.977	17219.3
968.338	18819.15
968.699	15439.09
969.061	15443.27
969.421	15531.08
969.782	17406.73
970.143	14713.07
970.504	15222.88
970.865	17297.77
971.225	17696.93
971.586	17323.38
971.946	24679.85
972.307	21423.79
972.667	28031.79
973.027	28871.04
973.388	34994.47
973.748	23798.45
974.108	25907.79
974.468	35048.23
974.828	27008.22
975.188	20797.45
975.548	19088.19
975.907	16023.91
976.267	17963.28
976.627	15088.2
976.986	15622.42
977.346	14886.22
977.705	14314.63
978.064	13052.98
978.424	10876.26
978.783	11249.97
979.142	12828.31
979.501	12287.21
979.86	12987.58
980.219	12516.41
980.578	16163.51
980.937	18129.42
981.296	16164.77
981.654	16620.31
982.013	25807.12
982.371	33424.82
982.73	31234.32
983.088	35366.23
983.447	37796.09
983.805	54045.11
984.163	112951.44
984.521	125129.65
984.879	183414.84
985.237	-298460.06
985.595	288654.48
985.953	71775.59
986.311	41428.57
986.669	24023.42
987.026	20773.64
987.384	27899.36
987.741	28838.58
988.099	20587.84
988.456	16422.91
988.814	15363.41
989.171	13353.75
989.528	13157.03
989.885	13893.63
990.242	11016.56
990.599	13749
990.956	11232.34
991.313	7862.52
991.67	6446.46
992.027	6836.98
992.383	6073.06
992.74	5326.26
993.096	5605.85
993.453	5810.01
993.809	6020.98
994.165	8021.36
994.522	7347.06
994.878	8079.51
995.234	10130.49
995.59	10003.02
995.946	9468.23
996.302	10794.68
996.658	12478.82
997.013	13714.88
997.369	16239.84
997.725	20795.89
998.08	13468.21
998.436	20755.64
998.791	28727.84
999.147	28650.47
999.502	31235.48
999.857	22677.72
1000.212	37014.29
1000.567	52741.44
1000.922	30321.94
1001.277	19313.96
1001.632	14326.39
1001.987	18427.7
1002.342	13228.99
1002.696	10562.55
1003.051	8445.17
1003.406	10242.24
1003.76	10207.73
1004.114	10058.85
1004.469	8445.72
1004.823	7016.32
1005.177	7580.17
1005.531	6012.48
1005.885	5341.24
1006.239	6022.47
1006.593	7556.39
1006.947	10129.38
1007.301	7593.48
1007.655	8283.03
1008.008	6076.1
1008.362	6816.45
1008.715	9760
1009.069	8848.78
1009.422	13286.18
1009.776	26673.51
1010.129	17680.77
1010.482	14718.04
1010.835	12386.6
1011.188	25835.55
1011.541	24299.51
1011.894	-148604.49
1012.247	437869.88
1012.6	29700.96
1012.952	18752.42
1013.305	9681.96
1013.657	6975.41
1014.01	6620.57
1014.362	5473.67
1014.715	4881.07
1015.067	4235.02
1015.419	4148.83
1015.771	3678.25
1016.123	3276.46
1016.475	3365.69
1016.827	3584.12
1017.179	3844.01
1017.531	3875.37
1017.883	3949.93
1018.234	3826.08
1018.586	4812.89
1018.938	5106.21
1019.289	7040.08
1019.64	8052.76
1019.992	7499.96
1020.343	6864.14
1020.694	5429.05
1021.045	4813.43
1021.396	5497.23
1021.747	5901.53
1022.098	7059.79
1022.449	5125.89
1022.8	4775.98
1023.151	3331.61
1023.501	2968.06
1023.852	3221.38
1024.202	3361.27
1024.553	3698.43
1024.903	3601.44
1025.253	3071.19
1025.604	2769.39
1025.954	3435.24
1026.304	4185.88
1026.654	4878.99
1027.004	7108.17
1027.354	11426.51
1027.703	10760.23
1028.053	13965.23
1028.403	20172.53
1028.753	29378.76
1029.102	40111.48
1029.452	205967.11
1029.801	8919.62
1030.15	5761.37
1030.499	4850.02
897.758	2220.73
901.051	2149.96
904.343	2185.45
907.636	2193.89
910.928	2256.76
914.22	2174.86
917.511	2179.85
920.803	2229.55
924.094	2227.49
927.384	2231.85
930.675	2195.51
933.965	2156.5
937.255	2187.52
940.544	2154.74
943.834	2153.93
947.123	2092.19
950.411	2181.44
953.7	2161.36
956.988	2143.14
960.276	2079.59
963.563	2127.46
966.851	2138.72
970.138	2178.87
973.424	2181.79
976.711	2134.22
979.997	2181.95
983.283	2226.41
986.568	2156.35
989.853	2149.71
993.138	2177.94
996.423	2262.29
999.708	2221.23
1002.992	2250.45
1006.275	2167.08
1009.559	2172.27
1012.842	2271.14
1016.125	2221.35
1019.408	2200.46
1022.69	2259.05
1025.972	2293.57
1029.254	2266.39
1032.536	2226.95
1035.817	2238.96
1039.098	2205.79
1042.379	2255.94
1045.659	2283.32
1048.939	2232.18
1052.219	2240.09
1055.498	2234.51
1058.778	2229.75
1062.057	2202.48
1065.335	2227.2
1068.614	2239.91
1071.892	2233.92
1075.17	2286.98
1078.447	2288.76
1081.724	2281.6
1085.001	2307.59
1088.278	2287.41
1091.554	2293.15
1094.83	2286.34
1098.106	2321.57
1101.382	2352.77
1104.657	2352.98
1107.932	2351.28
1111.206	2330.04
1114.481	2284.14
1117.755	2283.87
1121.029	2275.12
1124.302	2333.51
1127.575	2299.26
1130.848	2296.94
1134.121	2265.68
1137.393	2228.1
1140.665	2283.39
1143.937	2261.98
1147.208	2211.62
1150.48	2268.78
1153.75	2255.91
1157.021	2259.09
1160.291	2235.39
1163.561	2288.43
1166.831	2256.04
1170.101	2282.11
1173.37	2243.36
1176.639	2200.98
1179.907	2244.27
1183.176	2266.94
1186.444	2269.22
1189.711	2295.1
1192.979	2318.88
1196.246	2274.15
1199.513	2286.19
1202.78	2292.77
1206.046	2304.72
1209.312	2328.73
1212.578	2347.5
1215.843	2314.71
1219.108	2283.98
1222.373	2305.71
1225.638	2277.52
1228.902	2270.6
1232.166	2228.84
1235.43	2215.62
1238.693	2240.55
1241.956	2231.64
1245.219	2283.44
1248.482	2264.3
1251.744	2263.28
1255.006	2385.93
1258.268	2333.04
1261.529	2291.52
1264.79	2291.19
1268.051	2387.69
1271.312	2398.43
1274.572	2368.43
1277.832	2356.59
1281.092	2332.79
1284.351	2323.71
1287.61	2308.07
1290.869	2242.79
1294.128	2239.66
1297.386	2287.96
1300.644	2280.26
1303.902	2292.4
1307.159	2159.19
1310.416	2209.78
1313.673	2238.27
1316.93	2239.56
1320.186	2269.62
1323.442	2306.49
1326.697	2304.13
1329.953	2278.13
1333.208	2313.57
1336.463	2287.81
1339.717	2247.08
1342.972	2354.13
1346.226	2328.77
1349.479	2275.67
1352.733	2254.1
1355.986	2262.33
1359.238	2240.73
1362.491	2247.86
1365.743	2250.61
1368.995	2242.76
1372.247	2256.15
1375.498	2275.52
1378.749	2317.81
1382	2268.18
1385.251	2306.58
1388.501	2259.98
1391.751	2262.04
1395	2227.44
1398.25	2253.37
1401.499	2274.22
1404.748	2224.15
1407.996	2200.16
1411.244	2189.62
1414.492	2175.93
1417.74	2160.96
1420.987	2164.39
1424.234	2224.39
1427.481	2185.88
1430.728	2243.25
1433.974	2219.06
1437.22	2217.12
1440.465	2213.73
1443.711	2212.63
1446.956	2236.18
1450.201	2209.21
1453.445	2249.29
1456.689	2238.16
1459.933	2249.01
1463.177	2286.81
1466.42	2260.89
1469.663	2241.31
1472.906	2255.96
1476.148	2304.07
1479.391	2278.73
1482.633	2252.99
1485.874	2276.26
1489.115	2281.66
1492.356	2265.44
1495.597	2243.84
1498.838	2238.32
1502.078	2221.25
1505.318	2193.69
1508.557	2227.05
1511.797	2223.85
1515.036	2264.41
1518.274	2238.67
1521.513	2193.38
1524.751	2203.1
1527.989	2227.02
1531.227	2245.17
1534.464	2257.27
1537.701	2250.73
1540.938	2262.73
1544.174	2211.59
1547.41	2202.11
1550.646	2239.36
1553.882	2286.91
1557.117	2340.58
1560.352	2350.55
1563.587	2311.34
1566.821	2278.11
1570.055	2295.05
1573.289	2276.06
1576.523	2334.04
1579.756	2346.86
1582.989	2365.3
1586.222	2327.78
1589.454	2356.26
1592.686	2338.68
1595.918	2366.73
1599.15	2364.05
1602.381	2408.9
1605.612	2387.91
1608.843	2478.8
1612.073	2404.55
1615.303	2393.14
1618.533	2392.92
1621.762	2389.02
1624.992	2365.53
1628.221	2369.35
1631.449	2355.5
1634.678	2381.4
1637.906	2350.45
1641.134	2377.99
1644.361	2344.93
1647.588	2332.7
1650.815	2354.54
1654.042	2316.12
1657.269	2346.56
1660.495	2324.62
1663.72	2311.41
1666.946	2280.36
1670.171	2254.99
1673.396	2229.14
1676.621	2211.54
1679.845	2209.53
1683.069	2218.53
1686.293	2247.13
1689.517	2240.39
1692.74	2190.33
1695.963	2212.46
1699.185	2252.2
1702.408	2224.28
1705.63	2254.62
1708.852	2271.19
1712.073	2242.88
1715.294	2253.23
1718.515	2294.7
1721.736	2255.48
1724.956	2236.55
1728.176	2258.33
1731.396	2279.4
1734.616	2265.56
1737.835	2304.08
1741.054	2274.31
1744.272	2267.02
1747.491	2307.72
1750.709	2331.71
1753.927	2279.84
1757.144	2305.16
1760.361	2359.38
1763.578	2337.16
1766.795	2287.63
1770.011	2277.33
1773.227	2301.49
1776.443	2343.54
1779.658	2385.78
1782.874	2325.51
1786.089	2317.34
1789.303	2320.39
1792.518	2317.7
1795.732	2305.96
1798.945	2321.45
1802.159	2361.92
1805.372	2304.23
1808.585	2301.36
1811.797	2302.79
1815.01	2323.71
1818.222	2346.7
1821.434	2303.53
1824.645	2346.73
1827.856	2357.62
1831.067	2386.84
1834.278	2326.81
1837.488	2310.36
1840.698	2433.09
1843.908	2373.25
1847.117	2341.91
1850.326	2267.1
1853.535	2331.31
1856.744	2369.08
1859.952	2290.48
1863.16	2292.41
1866.368	2308.32
1869.575	2421.16
1872.782	2306.61
1875.989	2242.79
1879.196	2292.13
1882.402	2282.63
1885.608	2319.69
1888.814	2258.23
1892.019	2168.33
1895.224	2221.67
1898.429	2186.68
1901.634	2172.46
1904.838	2143.16
1908.042	2201.75
1911.246	2214.09
1914.449	2178.21
1917.652	2160.94
1920.855	2140.13
1924.058	2165.39
1927.26	2210.42
1930.462	2231.55
1933.664	2272.42
1936.865	2212.04
1940.066	2233.07
1943.267	2176
1946.467	2184.34
1949.668	2202.01
1952.868	2273.83
1956.067	2263.35
1959.267	2205.4
1962.466	2228.75
1965.665	2210.49
1968.863	2203.23
1972.061	2207.3
1975.259	2200.09
1978.457	2275.45
1981.654	2234.4
1984.852	2240.2
1988.048	2191.43
1991.245	2179.38
1994.441	2266.53
1997.637	2226.37
2000.833	2209.13
2004.028	2245.32
2007.223	2308.62
2010.418	2295.76
2013.613	2246.74
2016.807	2242.51
2020.001	2236.72
2023.194	2258.23
2026.388	2244.46
2029.581	2186.64
2032.774	2249.37
2035.966	2263.25
2039.158	2205.96
2042.35	2224.08
2045.542	2152.01
2048.733	2232.75
2051.924	2225.65
2055.115	2239.37
2058.306	2205.34
2061.496	2259.92
2064.686	2310.87
2067.875	2216.82
2071.065	2219
2074.254	2238.2
2077.442	2192.87
2080.631	2274.92
2083.819	2206.05
2087.007	2198.38
2090.195	2184.36
2093.382	2200.1
2096.569	2183.08
2099.756	2144.91
2102.942	2193.69
2106.128	2203.81
2109.314	2193.82
2112.5	2179.23
2115.685	2146.37
2118.87	2155.23
2122.055	2214.96
2125.239	2193.18
2128.424	2182.8
2131.608	2242.72
2134.791	2228.25
2137.974	2264.16
2141.157	2256.38
2144.34	2227.03
2147.523	2216.59
2150.705	2242.81
2153.887	2210.17
2157.068	2182.77
2160.25	2166.02
2163.431	2186.83
2166.611	2157.23
2169.792	2177.11
2172.972	2089.24
2176.152	2139.14
2179.331	2166.26
2182.511	2169.73
2185.69	2191.27
2188.868	2196.49
2192.047	2233.17
2195.225	2247.66
2198.403	2196.38
2201.58	2185.78
2204.758	2171.55
2207.935	2245.98
2211.111	2163.41
2214.288	2152.92
2217.464	2186.71
2220.64	2142.91
2223.815	2193.27
2226.991	2125.87
2230.166	2141.26
2233.34	2186.54
2236.515	2198.08
2239.689	2262.03
2242.863	2214.24
2246.036	2266.27
2249.209	2249.04
2252.382	2270.34
2255.555	2277.01
2258.727	2225.51
2261.9	2254.5
2265.071	2247.22
2268.243	2242.44
2271.414	2188.11
2274.585	2173.72
2277.756	2233.62
2280.926	2190.17
2284.096	2220.3
2287.266	2149.24
2290.436	2199.01
2293.605	2218.61
2296.774	2254.86
2299.942	2259.27
2303.111	2277.3
2306.279	2332.42
2309.447	2314.98
2312.614	2285.5
2315.781	2310.6
2318.948	2287.39
2322.115	2323.32
2325.281	2222.27
2328.447	2231.63
2331.613	2203.08
2334.779	2195.56
2337.944	2189.03
2341.109	2190.54
2344.274	2179.61
2347.438	2147.82
2350.602	2168.76
2353.766	2177.52
2356.929	2166.16
2360.092	2204.88
2363.255	2175.07
2366.418	2139.44
2369.58	2207.27
2372.742	2078.19
2375.904	2073.63
2379.066	2058.96
2382.227	2084.65
2385.388	2046.44
2388.548	1996.36
2391.709	2040.45
2394.869	2027.08
2398.029	2083.71
2401.188	2081.11
2404.347	2042.96
2407.506	2126.05
2410.665	2162.46
2413.823	2150.42
2416.981	2128.37
2420.139	2146.46
2423.296	2189.37
2426.453	2158.45
2429.61	2181.58
2432.767	2150.51
2435.923	2190.03
2439.079	2137.17
2442.235	2172.04
2445.391	2113.87
2448.546	2153.93
2451.701	2190.14
2454.855	2184.6
2458.009	2210.92
2461.163	2203.85
2464.317	2173.74
2467.471	2200.36
2470.624	2228.73
2473.777	2219.8
2476.929	2235.27
2480.082	2258.46
2483.234	2232.35
2486.385	2170.49
2489.537	2164.11
2492.688	2155.51
2495.839	2169.46
2498.989	2186.47
2502.14	2172.83
2505.29	2164.76
2508.439	2186.86
2511.589	2127.22
2514.738	2129.49
2517.887	2152.29
2521.035	2229.33
2524.183	2189.41
2527.331	2176.9
2530.479	2171.87
2533.627	2172.92
