Data from N_2_DEC_NC_4N_Splice17_12-25-24-343.txt Node
Date: Sat Mar 14 12:25:24 EDT 2020
User: sa697716
Spectrometer: FLMS03696
Trigger mode: 0
Integration Time (sec): 3.180400E-1
Scans to average: 20
Electric dark correction enabled: true
Nonlinearity correction enabled: true
Boxcar width: 5
XAxis mode: Wavelengths
Number of Pixels in Spectrum: 2048
>>>>>Begin Spectral Data<<<<<
187.83	-378166.56
188.298	2727.87
188.766	1431.05
189.233	1303.17
189.701	1853.23
190.169	2482.27
190.636	903.11
191.104	735.59
191.571	68.44
192.039	-61.02
192.506	-68.5
192.974	408.43
193.441	-571.93
193.908	-24.09
194.375	-40.92
194.842	60.55
195.31	156.21
195.777	149.94
196.244	399.57
196.711	426.31
197.177	549.5
197.644	786.7
198.111	1368.16
198.578	1909.39
199.045	1521.99
199.511	2491.34
199.978	2901.04
200.445	2466.85
200.911	2745.4
201.378	3028.97
201.844	2748.7
202.31	4701.41
202.777	4902.14
203.243	2720.48
203.709	2580.64
204.176	3106.54
204.642	2566.91
205.108	2398.74
205.574	1950.52
206.04	1787.29
206.506	1680.5
206.972	1590.36
207.438	1546.48
207.903	1763.57
208.369	1543.9
208.835	1555.94
209.301	1605.28
209.766	1645.95
210.232	1617.41
210.697	1980.69
211.163	2424.32
211.628	3655.46
212.094	3080.04
212.559	3759.13
213.024	2318.5
213.49	2839.57
213.955	2745.32
214.42	2691.96
214.885	2527.04
215.35	2434.17
215.815	2362.71
216.28	2512.42
216.745	2051.27
217.21	2216.62
217.675	2019.98
218.14	2280.24
218.604	2525.7
219.069	2868.37
219.534	3010.01
219.998	3462.36
220.463	4184.59
220.927	5105.37
221.392	4783.61
221.856	4828.25
222.32	6050.12
222.785	7479.54
223.249	9376.92
223.713	10453.8
224.177	10439.68
224.642	13292.05
225.106	16341.25
225.57	17813.74
226.034	13290.57
226.497	20236.09
226.961	18232.19
227.425	21215.85
227.889	23449.12
228.353	23429.3
228.816	48273.63
229.28	46224.28
229.744	39037.26
230.207	23775.56
230.671	23382.52
231.134	38513.65
231.597	44322.11
232.061	44273.99
232.524	43084.72
232.987	29673.96
233.45	26675.31
233.914	23939.45
234.377	24470.96
234.84	22384.41
235.303	26299.31
235.766	29299.32
236.229	30252.55
236.691	19013.84
237.154	21333.15
237.617	16062.39
238.08	16432.92
238.542	19192.23
239.005	13683.34
239.468	13550.91
239.93	12756.22
240.393	11584.79
240.855	10149.54
241.317	10376.35
241.78	12611.99
242.242	13027.34
242.704	14047.64
243.166	12222.25
243.629	11101.84
244.091	12783.03
244.553	14000.7
245.015	15017.4
245.477	19393.78
245.939	28407.41
246.4	30100.84
246.862	29224.18
247.324	27517.36
247.786	30717.81
248.247	40183.87
248.709	41340.22
249.17	30864.94
249.632	29076.94
250.093	33686.55
250.555	29051.75
251.016	17703.4
251.477	16756.73
251.939	18069.93
252.4	18920.95
252.861	22463.57
253.322	20873.48
253.783	24844.43
254.244	32180.91
254.705	25339.64
255.166	22476.18
255.627	22114.48
256.088	31192.07
256.549	33144.82
257.009	28502.24
257.47	34583.26
257.931	28138.97
258.391	21073.48
258.852	21702.66
259.312	22724.88
259.773	28042.53
260.233	23708.74
260.694	19967.74
261.154	22591.28
261.614	18135.5
262.074	16187.92
262.534	16802.13
262.994	15838.43
263.455	21059.78
263.915	17722.74
264.374	16668.71
264.834	18161.48
265.294	20102.77
265.754	20822.16
266.214	19697.99
266.673	18411.88
267.133	23219.01
267.593	23020.18
268.052	28122.41
268.512	24439.39
268.971	29440.51
269.431	32270.6
269.89	28872.76
270.349	43216.71
270.809	48130.92
271.268	43258.9
271.727	97001.8
272.186	62766.99
272.645	46982.2
273.104	33855.73
273.563	49030.18
274.022	38511.24
274.481	32773.45
274.94	25228.36
275.399	18741.58
275.857	21804.57
276.316	29422.95
276.775	26153.63
277.233	25760.76
277.692	24107.54
278.15	27240.31
278.609	27991.53
279.067	25914.86
279.525	24071.32
279.984	31074.02
280.442	37319.31
280.9	36800.05
281.358	24229.41
281.816	22588.83
282.274	22098.28
282.732	22828.8
283.19	22941.65
283.648	19807.34
284.106	21067.76
284.564	21418.35
285.021	19875.7
285.479	14826.6
285.937	13463.74
286.394	11813.16
286.852	12154.27
287.309	12778.66
287.767	12351.32
288.224	11741.04
288.682	12864.98
289.139	14125.92
289.596	12890.21
290.053	13363.43
290.511	16829.93
290.968	20397.57
291.425	27632.34
291.882	22979.47
292.339	19967.71
292.796	19772.94
293.252	18643.21
293.709	14805.77
294.166	13250.31
294.623	14642.23
295.079	14040.05
295.536	14097.11
295.992	12787.97
296.449	12629.15
296.905	13132.57
297.362	12624.44
297.818	13277.53
298.274	13786.84
298.731	14027.27
299.187	13881.55
299.643	14879.93
300.099	17993.88
300.555	19723.73
301.011	16483.6
301.467	15930.18
301.923	18605.86
302.379	18106.08
302.835	17775.17
303.291	17725.72
303.746	20173.62
304.202	25475.11
304.658	25575.11
305.113	17184.09
305.569	16826.58
306.024	17926.34
306.479	16991.09
306.935	14337.83
307.39	15674.58
307.845	14459.83
308.301	14553.41
308.756	14163.48
309.211	13636.29
309.666	13967.01
310.121	17368.24
310.576	17630.16
311.031	17469.7
311.486	19998.08
311.94	19924.51
312.395	26606
312.85	49974.76
313.305	245501.25
313.759	1272087.39
314.214	92229.14
314.668	73267.6
315.123	61648.78
315.577	22067.07
316.032	19658.3
316.486	24685.19
316.94	19549.74
317.394	13615.12
317.849	10588.57
318.303	10019.45
318.757	9456.5
319.211	10429.94
319.665	9104.23
320.119	9194.17
320.572	13184.52
321.026	12312.24
321.48	10223.71
321.934	11101.78
322.387	11114.93
322.841	11954.33
323.295	10751.09
323.748	12353.31
324.202	12523.62
324.655	15033.82
325.108	21025.5
325.562	14827.81
326.015	17568.29
326.468	13301.3
326.921	14888.07
327.374	13866.49
327.827	14476.66
328.28	16356.33
328.733	10963.64
329.186	9664.34
329.639	9211.42
330.092	7748.47
330.545	7386.2
330.997	7465.49
331.45	8157.25
331.903	9552.88
332.355	16398.96
332.808	15910.48
333.26	13136.57
333.713	14260.57
334.165	14333.85
334.617	19102.68
335.069	15418.06
335.522	27867.57
335.974	30847.07
336.426	28067.43
336.878	19399.82
337.33	9850.29
337.782	9622.55
338.234	12055.71
338.686	14404.31
339.137	17013.74
339.589	16015
340.041	12546.12
340.493	10783.85
340.944	11027.98
341.396	11923.31
341.847	10047.1
342.299	11873.81
342.75	14505.33
343.201	12645.73
343.653	14560.86
344.104	17948.79
344.555	14132.35
345.006	21952.4
345.457	16849.95
345.908	13364.69
346.359	12540.06
346.81	10186.65
347.261	10710.93
347.712	10531.36
348.163	11293.58
348.613	11453.04
349.064	10660.25
349.515	9306.96
349.965	9553.87
350.416	11455.94
350.866	12544.16
351.317	14165.45
351.767	23493.15
352.217	29651.7
352.668	24625.12
353.118	22539.6
353.568	21659.38
354.018	17136.52
354.468	18111.91
354.918	13031.45
355.368	11427.28
355.818	16165.02
356.268	46531.21
356.718	195279.11
357.168	48802.51
357.617	24492.87
358.067	27227.21
358.517	25519.87
358.966	30014.44
359.416	33725.53
359.865	36325.37
360.315	43260.98
360.764	20211.93
361.213	11338.58
361.663	10708.42
362.112	13195.21
362.561	21324.58
363.01	16061.98
363.459	13502.36
363.908	14593.2
364.357	12391.26
364.806	20922.81
365.255	14386
365.703	13200.6
366.152	13201.2
366.601	10704.47
367.05	8684.07
367.498	7903.95
367.947	8281.53
368.395	8610.44
368.844	7627.33
369.292	9185.74
369.74	6378.94
370.189	9744.06
370.637	11434.38
371.085	9872.75
371.533	12020.62
371.981	11573.06
372.429	11033.91
372.877	11475.13
373.325	9619.01
373.773	9792.97
374.221	8701.34
374.669	10747.89
375.116	9292.54
375.564	9350.16
376.012	10440.48
376.459	8601.11
376.907	10241.07
377.354	12362.98
377.801	11559.8
378.249	13274.33
378.696	16967.12
379.143	20582.07
379.591	21959.71
380.038	37223.21
380.485	26938.58
380.932	29128.21
381.379	26757.14
381.826	19780.27
382.273	14030.26
382.72	12231.86
383.166	11915.74
383.613	7730.53
384.06	6973.48
384.506	8055.24
384.953	5915.18
385.4	5947.5
385.846	5198.14
386.292	5035.39
386.739	4922.59
387.185	4868.89
387.631	4882.13
388.078	4756.66
388.524	5088.34
388.97	4694.94
389.416	3922.71
389.862	4167.42
390.308	3949.8
390.754	4031.72
391.2	4389.97
391.645	4501.42
392.091	4335.37
392.537	4199.22
392.983	4197.66
393.428	4151
393.874	4471.94
394.319	4511.77
394.765	4302
395.21	4423.97
395.655	4151.9
396.101	3906.5
396.546	3539.83
396.991	3567.46
397.436	3323.47
397.881	3235.79
398.326	3068.21
398.771	2915.05
399.216	2555.64
399.661	2315.78
400.106	2328.89
400.551	2402.98
400.995	2160.17
401.44	2143.8
401.885	2020.93
402.329	2046.62
402.774	1963.66
403.218	1913.67
403.663	1844.72
404.107	1900.65
404.551	1916.8
404.995	1761.43
405.44	1695.42
405.884	1728.61
406.328	1673.05
406.772	1676.71
407.216	1532.51
407.66	1484.62
408.104	1408.24
408.547	1322.47
408.991	1283.74
409.435	1235.18
409.879	1220.54
410.322	1206.19
410.766	1166.84
411.209	1113.15
411.653	1068.84
412.096	1049.7
412.54	1050.65
412.983	1046.35
413.426	1052.25
413.869	1052.13
414.312	1037.32
414.756	1000.86
415.199	958.39
415.642	931.45
416.085	934.38
416.527	929.02
416.97	944.37
417.413	898.05
417.856	885.92
418.298	876.77
418.741	871.06
419.184	867.79
419.626	899.81
420.069	901
420.511	907.34
420.953	891.67
421.396	884.68
421.838	860.17
422.28	879.89
422.722	889.06
423.164	899.58
423.606	884.44
424.048	881.51
424.49	840.48
424.932	834.57
425.374	820.94
425.816	833.88
426.258	848.61
426.699	860.2
427.141	848.65
427.582	858.84
428.024	855.42
428.465	849.79
428.907	828.84
429.348	819.67
429.789	819.46
430.231	806.49
430.672	817.41
431.113	798.87
431.554	788.99
431.995	770.35
432.436	744.45
432.877	727.16
433.318	717.4
433.759	714.67
434.2	714.62
434.64	707.99
435.081	709.46
435.522	672.77
435.962	647.92
436.403	634.29
436.843	641.19
437.284	627.88
437.724	612.09
438.164	612.21
438.604	600.98
439.045	581.33
439.485	560.54
439.925	549.05
440.365	535.92
440.805	529.79
441.245	524.69
441.685	507.36
442.125	504.69
442.564	509.23
443.004	501.59
443.444	502.04
443.883	503.05
444.323	499.57
444.762	500.19
445.202	508.68
445.641	521.32
446.081	520.02
446.52	527.2
446.959	525.4
447.398	515.49
447.837	510.93
448.276	503.34
448.716	510.92
449.154	516.5
449.593	507.58
450.032	507.99
450.471	500.06
450.91	503.05
451.349	504.41
451.787	503.49
452.226	513.62
452.664	514.25
453.103	516.77
453.541	517.55
453.98	520.12
454.418	525.99
454.856	519.74
455.295	519.99
455.733	525.62
456.171	529.11
456.609	532.23
457.047	531.86
457.485	540.79
457.923	543.32
458.361	536.34
458.798	538.03
459.236	536.02
459.674	539.7
460.111	543.1
460.549	537.29
460.987	534.73
461.424	531.83
461.862	530.11
462.299	522.2
462.736	522.44
463.173	524.05
463.611	519.84
464.048	519.87
464.485	524.88
464.922	520.02
465.359	516.83
465.796	514.34
466.233	512
466.67	508.64
467.106	508.97
467.543	504.22
467.98	498.33
468.416	485.28
468.853	481.48
469.29	466.96
469.726	461.81
470.162	450.55
470.599	441.98
471.035	437.52
471.471	426.97
471.907	423.41
472.344	420.78
472.78	422.54
473.216	427.73
473.652	423.78
474.088	423
474.523	423.31
474.959	426.76
475.395	423.25
475.831	421.24
476.266	423.81
476.702	423.07
477.138	418.51
477.573	417.53
478.008	416.2
478.444	418.65
478.879	423.38
479.314	425.13
479.75	426.36
480.185	429.38
480.62	434.14
481.055	437.2
481.49	441.25
481.925	448.37
482.36	456.88
482.795	470.7
483.229	483.27
483.664	493.76
484.099	496.01
484.534	504.04
484.968	509.79
485.403	512.05
485.837	511.51
486.271	512.24
486.706	513.97
487.14	508.65
487.574	501.66
488.009	498.36
488.443	495.23
488.877	502.18
489.311	505.49
489.745	513.37
490.179	520.48
490.613	533.33
491.046	539.77
491.48	545.65
491.914	549.21
492.348	556.17
492.781	562.9
493.215	567.91
493.648	571.78
494.082	579.4
494.515	583.44
494.948	593.68
495.382	600.87
495.815	608.88
496.248	618.06
496.681	633.22
497.114	647.55
497.547	660.74
497.98	677.23
498.413	688.03
498.846	701.62
499.279	714.45
499.711	723.28
500.144	731.43
500.577	746.11
501.009	762.18
501.442	778.2
501.874	785.53
502.306	793.91
502.739	808.07
503.171	828.93
503.603	839.3
504.036	855.03
504.468	866.83
504.9	884.54
505.332	898.12
505.764	909.02
506.196	922.45
506.627	943.57
507.059	964.07
507.491	978.9
507.923	983.04
508.354	1004.72
508.786	1022.16
509.217	1048.23
509.649	1070.25
510.08	1096.76
510.512	1120.09
510.943	1141.63
511.374	1159.1
511.805	1185.87
512.237	1212.75
512.668	1254.53
513.099	1289.35
513.53	1323.47
513.961	1350.37
514.391	1389.63
514.822	1429.64
515.253	1474.43
515.684	1507.1
516.114	1543.66
516.545	1570.53
516.975	1601.05
517.406	1622.74
517.836	1628.31
518.267	1637.28
518.697	1658.35
519.127	1664.27
519.558	1674.16
519.988	1678.86
520.418	1691.19
520.848	1712.46
521.278	1723.03
521.708	1740.06
522.138	1754.24
522.567	1789.66
522.997	1820.2
523.427	1837.42
523.857	1856.73
524.286	1868.81
524.716	1885.31
525.145	1906.76
525.575	1918.21
526.004	1934.32
526.433	1930.79
526.863	1930.68
527.292	1918.04
527.721	1922.01
528.15	1929.27
528.579	1929.18
529.008	1941.08
529.437	1966.92
529.866	1981.66
530.295	2000.96
530.724	2014.5
531.152	2044.7
531.581	2059.57
532.01	2079.18
532.438	2089.95
532.867	2106.17
533.295	2127.18
533.723	2133.13
534.152	2131.22
534.58	2131.53
535.008	2113.93
535.436	2116.67
535.865	2125.5
536.293	2143.19
536.721	2161.5
537.149	2189.88
537.576	2191.37
538.004	2205.06
538.432	2214.25
538.86	2211.98
539.287	2219.11
539.715	2234.55
540.143	2236.73
540.57	2232
540.998	2228.28
541.425	2202.55
541.852	2177.82
542.28	2176.17
542.707	2158.18
543.134	2141.45
543.561	2136.29
543.988	2127.49
544.415	2125.57
544.842	2118.85
545.269	2109.42
545.696	2110.4
546.123	2124.32
546.549	2113.1
546.976	2099.1
547.403	2098.49
547.829	2100.37
548.256	2101.71
548.682	2096.71
549.108	2089.18
549.535	2088.54
549.961	2091.56
550.387	2076.87
550.813	2070.18
551.24	2076.93
551.666	2077.36
552.092	2066.07
552.518	2057.76
552.943	2051.57
553.369	2061.51
553.795	2066.33
554.221	2067.66
554.646	2063.19
555.072	2074.32
555.498	2079.1
555.923	2089.91
556.349	2107.23
556.774	2116.77
557.199	2119.22
557.625	2125.97
558.05	2118.81
558.475	2132.08
558.9	2131.21
559.325	2122.72
559.75	2115.81
560.175	2109.65
560.6	2102.45
561.025	2100.79
561.449	2103.4
561.874	2111.25
562.299	2116.92
562.723	2126.16
563.148	2114.94
563.572	2120.6
563.997	2133.11
564.421	2141.14
564.846	2143.12
565.27	2147.9
565.694	2145.4
566.118	2159.5
566.542	2168.83
566.966	2162.51
567.39	2157.92
567.814	2147.11
568.238	2147.69
568.662	2155.72
569.086	2159.65
569.509	2169.24
569.933	2152.35
570.357	2146.6
570.78	2123.14
571.204	2108.84
571.627	2097.64
572.05	2097.24
572.474	2097.99
572.897	2084.28
573.32	2075.56
573.743	2064.74
574.166	2042.99
574.589	2045.04
575.012	2036.17
575.435	2035.78
575.858	2025.6
576.281	2012.82
576.704	1993.58
577.126	1979.47
577.549	1966.47
577.972	1954.68
578.394	1941.52
578.817	1933.87
579.239	1910.84
579.661	1894.49
580.084	1875.12
580.506	1859.23
580.928	1853.77
581.35	1840.88
581.772	1835.03
582.194	1819.37
582.616	1805.2
583.038	1788.39
583.46	1776.5
583.882	1773.08
584.303	1778.35
584.725	1774.45
585.147	1776.56
585.568	1789.66
585.99	1804.32
586.411	1812.57
586.833	1829.71
587.254	1831.6
587.675	1850.01
588.096	1865.49
588.518	1858.56
588.939	1839.85
589.36	1838.33
589.781	1827.37
590.202	1794.09
590.623	1783.34
591.043	1781.51
591.464	1767.07
591.885	1761.78
592.305	1755.78
592.726	1738.81
593.147	1741.46
593.567	1734.83
593.987	1725.19
594.408	1718.95
594.828	1716.65
595.248	1709.74
595.669	1687.15
596.089	1678.48
596.509	1671.79
596.929	1654.62
597.349	1656.07
597.769	1644.06
598.189	1637.11
598.608	1638.94
599.028	1640.7
599.448	1641.49
599.867	1626.45
600.287	1621.65
600.706	1617.49
601.126	1605.49
601.545	1604.5
601.965	1601.87
602.384	1595.31
602.803	1597.58
603.222	1591.69
603.641	1583.93
604.061	1577.83
604.48	1572.95
604.898	1581.68
605.317	1585.86
605.736	1588.12
606.155	1584.49
606.574	1572.99
606.992	1579.59
607.411	1573.75
607.829	1562.43
608.248	1557.6
608.666	1554.32
609.085	1553.01
609.503	1541.25
609.921	1533.27
610.339	1534.42
610.758	1531.63
611.176	1525.96
611.594	1513.61
612.012	1507.76
612.43	1510.18
612.847	1517.44
613.265	1518.04
613.683	1522.1
614.101	1523.69
614.518	1517.26
614.936	1503.64
615.353	1485.53
615.771	1480.75
616.188	1479.42
616.606	1474.79
617.023	1465.77
617.44	1447.51
617.857	1437.67
618.274	1426.01
618.691	1417.35
619.108	1407.04
619.525	1400.45
619.942	1408.11
620.359	1410.7
620.776	1404.16
621.192	1399.62
621.609	1397.05
622.026	1404.54
622.442	1411.65
622.859	1414.5
623.275	1406.9
623.691	1412.79
624.108	1424.51
624.524	1440.08
624.94	1440.01
625.356	1451.41
625.772	1466.26
626.188	1479.73
626.604	1480.02
627.02	1474.75
627.436	1474.04
627.852	1481.28
628.268	1494.95
628.683	1485.49
629.099	1475.41
629.514	1468.97
629.93	1472.28
630.345	1476.52
630.761	1471.16
631.176	1476.07
631.591	1469.43
632.007	1461.47
632.422	1458.41
632.837	1444.78
633.252	1441.5
633.667	1430.43
634.082	1420.46
634.497	1405.56
634.911	1382.29
635.326	1376.97
635.741	1357.02
636.155	1344.37
636.57	1345.13
636.984	1344.62
637.399	1344.71
637.813	1343.19
638.228	1340.32
638.642	1343.03
639.056	1330.48
639.47	1329.19
639.884	1318.82
640.298	1309.11
640.712	1306.73
641.126	1290.87
641.54	1278
641.954	1270.15
642.368	1253.77
642.781	1242.29
643.195	1220.36
643.609	1218.4
644.022	1208.65
644.436	1200.98
644.849	1185.08
645.262	1168.84
645.676	1167.09
646.089	1159.14
646.502	1141.04
646.915	1132.41
647.328	1111.15
647.741	1105.15
648.154	1088.37
648.567	1082.27
648.98	1064.65
649.393	1062.11
649.805	1054.13
650.218	1042.35
650.631	1022.85
651.043	1012.56
651.456	1002.59
651.868	999.78
652.28	1014.19
652.693	1024.25
653.105	1027.67
653.517	1034.47
653.929	1031.21
654.341	1034.1
654.753	1018.46
655.165	1019.61
655.577	1012.95
655.989	1004.45
656.401	991.81
656.813	951.81
657.224	926.47
657.636	893.01
658.047	870.56
658.459	845.35
658.87	831.15
659.282	814.64
659.693	789.96
660.104	770.05
660.515	750.95
660.926	743.32
661.338	733.76
661.749	721.8
662.159	707.02
662.57	695.94
662.981	686.67
663.392	673.74
663.803	669.87
664.213	660.9
664.624	651.7
665.035	647.6
665.445	629.89
665.855	618.73
666.266	606.74
666.676	599.83
667.086	587.36
667.497	582.26
667.907	572.27
668.317	560.89
668.727	555.66
669.137	551.22
669.547	546.26
669.956	543.91
670.366	542.34
670.776	541.75
671.186	542.39
671.595	542.97
672.005	542.11
672.414	540.04
672.824	537.58
673.233	537.54
673.642	537.98
674.052	538.3
674.461	540.58
674.87	542.95
675.279	540.41
675.688	539.71
676.097	539.83
676.506	536.9
676.915	547.29
677.323	549.64
677.732	549.68
678.141	550.1
678.549	545.36
678.958	545.01
679.366	545.32
679.775	550.19
680.183	561.5
680.592	568.89
681	577.08
681.408	575.31
681.816	585.28
682.224	597.34
682.632	611.8
683.04	640.08
683.448	666.44
683.856	698.25
684.264	735.45
684.671	772.16
685.079	817.38
685.487	867.88
685.894	935.43
686.302	994.29
686.709	1045.9
687.116	1106.52
687.524	1160.89
687.931	1210.95
688.338	1258.1
688.745	1298.91
689.152	1341.99
689.559	1397.89
689.966	1453.52
690.373	1486.85
690.78	1538.48
691.187	1612.3
691.593	1671.39
692	1722.4
692.407	1794.59
692.813	1880.46
693.22	1951.16
693.626	2023.63
694.032	2080.82
694.439	2163.47
694.845	2227.45
695.251	2308.28
695.657	2380.52
696.063	2486.12
696.469	2564.81
696.875	2637.34
697.281	2677.9
697.687	2726.99
698.093	2768.04
698.498	2845.5
698.904	2905.26
699.31	2996.74
699.715	3061.87
700.12	3157.5
700.526	3175.51
700.931	3248.1
701.337	3300.08
701.742	3330.03
702.147	3415.4
702.552	3442.39
702.957	3502.82
703.362	3519.77
703.767	3546.81
704.172	3585.2
704.577	3530.47
704.981	3574.11
705.386	3584.98
705.791	3572.85
706.195	3649.03
706.6	3654.31
707.004	3735.08
707.408	3697.75
707.813	3722.47
708.217	3706.44
708.621	3704.25
709.025	3800.82
709.43	3796.65
709.834	3855.25
710.237	3922.72
710.641	3901.67
711.045	3917.51
711.449	3905.51
711.853	3929.77
712.256	3967.24
712.66	3999.5
713.064	4073.68
713.467	4111.46
713.87	4225.02
714.274	4270.59
714.677	4377.94
715.08	4541.18
715.484	4713.09
715.887	4916.46
716.29	5115.2
716.693	5323.87
717.096	5566.04
717.499	5695.54
717.901	5718.12
718.304	5739.18
718.707	5757.35
719.109	5650.02
719.512	5611.52
719.915	5467.08
720.317	5407.78
720.719	5449.26
721.122	5417.01
721.524	5359.48
721.926	5310.57
722.328	5405.73
722.731	5390.32
723.133	5412.65
723.535	5601.36
723.937	5617.14
724.338	5667.15
724.74	5699.86
725.142	5627.71
725.544	5620.98
725.945	5648.22
726.347	5640.12
726.748	5630.13
727.15	5644.06
727.551	5603.09
727.952	5571.19
728.354	5539.64
728.755	5537.21
729.156	5492.7
729.557	5481.8
729.958	5357.06
730.359	5296.36
730.76	5278.63
731.161	5218.24
731.562	5190.14
731.962	5192.54
732.363	5128.94
732.763	5063.23
733.164	5095.84
733.564	5027.16
733.965	4931.51
734.365	4897.21
734.766	4924.28
735.166	4881.32
735.566	4825.42
735.966	4797.22
736.366	4788.88
736.766	4723.88
737.166	4750.25
737.566	4707.09
737.966	4681.27
738.365	4717.99
738.765	4707.74
739.165	4634.77
739.564	4608.39
739.964	4651.12
740.363	4604.24
740.763	4601.27
741.162	4590.84
741.561	4560.95
741.96	4515.35
742.36	4534.39
742.759	4540.79
743.158	4580.37
743.557	4592.62
743.955	4631.49
744.354	4586.34
744.753	4640.93
745.152	4600.56
745.55	4652.86
745.949	4646.01
746.348	4647.14
746.746	4663.42
747.144	4621.59
747.543	4597.25
747.941	4643.3
748.339	4575.4
748.737	4568.81
749.136	4560.4
749.534	4622.42
749.932	4596.29
750.33	4619.39
750.727	4673.64
751.125	4650.11
751.523	4635.83
751.921	4680.34
752.318	4648.13
752.716	4704.81
753.113	4718.29
753.511	4742.53
753.908	4740.67
754.305	4723.59
754.703	4783.82
755.1	4843.12
755.497	4901.54
755.894	5086
756.291	5260.17
756.688	5582.43
757.085	6010.63
757.482	6612.67
757.878	7273.26
758.275	7874.62
758.672	8692.81
759.068	9361.52
759.465	10317.2
759.861	11548.39
760.258	12981.84
760.654	13719.71
761.05	13614.58
761.447	12996.23
761.843	12096.14
762.239	11169.68
762.635	10746.31
763.031	10344.84
763.427	9764.44
763.822	9153.95
764.218	8552.87
764.614	7769.87
765.01	7245.49
765.405	6905.32
765.801	6646.4
766.196	6319.7
766.592	6136.66
766.987	5830.96
767.382	5623.46
767.778	5534.2
768.173	5405.64
768.568	5334.16
768.963	5211.99
769.358	5231.13
769.753	5182.61
770.148	5102.66
770.542	5101.43
770.937	5066.24
771.332	5152.58
771.726	5167.97
772.121	5108.43
772.515	5162.48
772.91	5146.13
773.304	5214.75
773.699	5148.95
774.093	5203.15
774.487	5255.02
774.881	5298.05
775.275	5299.23
775.669	5260.66
776.063	5305.75
776.457	5341.31
776.851	5266.57
777.245	5260.34
777.638	5290.6
778.032	5404.06
778.425	5367.33
778.819	5409.08
779.212	5367.38
779.606	5328.37
779.999	5348.65
780.392	5336.61
780.786	5417.43
781.179	5440.87
781.572	5484.26
781.965	5498.86
782.358	5442.67
782.751	5500.74
783.143	5454.3
783.536	5524.12
783.929	5566.85
784.322	5679.2
784.714	5705.94
785.107	5700.7
785.499	5767.26
785.891	5745.67
786.284	5726.71
786.676	5863.99
787.068	5844.6
787.46	5894.93
787.852	5914.45
788.245	5998.45
788.636	6023.27
789.028	6090.72
789.42	6130.45
789.812	6141.36
790.204	6235.13
790.595	6331.04
790.987	6141.36
791.378	6161.57
791.77	6284.93
792.161	6418.42
792.553	6470.02
792.944	6362.36
793.335	6294.66
793.726	6362.51
794.117	6452.38
794.508	6583.78
794.899	6556.82
795.29	6691.96
795.681	6748.21
796.072	6609.84
796.463	6428.7
796.853	6437.25
797.244	6593.16
797.634	6624.71
798.025	6626.29
798.415	6634.54
798.806	6718.36
799.196	6800.08
799.586	6849.5
799.976	6812.96
800.366	7038.26
800.756	7268.01
801.146	7228.2
801.536	7251.85
801.926	7322.98
802.316	7345.81
802.706	7415.55
803.095	7299.19
803.485	7394.38
803.874	7432.95
804.264	7685.89
804.653	7660.4
805.043	7806
805.432	7917.87
805.821	7924.24
806.21	7945.97
806.599	8062.87
806.988	8105.82
807.377	8208.05
807.766	8336.32
808.155	8611.73
808.544	8356.28
808.933	8369.12
809.321	8348.19
809.71	8633.36
810.098	8782.22
810.487	9233.44
810.875	9700.42
811.264	9725.86
811.652	10010.94
812.04	10151.38
812.428	10309.64
812.816	11048.08
813.204	11460.98
813.592	11997.44
813.98	12320.73
814.368	12233.91
814.756	12698.58
815.144	12620.37
815.531	13069.36
815.919	12996.22
816.306	13299.12
816.694	13002.09
817.081	13054.87
817.469	13388.56
817.856	13388.16
818.243	13650.83
818.63	14034.06
819.017	13624.19
819.404	13681.54
819.791	14055.23
820.178	14658.68
820.565	14899.42
820.952	15806.86
821.339	15330.87
821.725	15510.66
822.112	14790.62
822.498	14763.94
822.885	14882.49
823.271	14792.15
823.657	15202.07
824.044	15207.35
824.43	15270.65
824.816	15239.78
825.202	14821.92
825.588	15809.57
825.974	15832.2
826.36	16336.78
826.746	16355.16
827.132	16709.66
827.517	16685.37
827.903	15925.21
828.289	15971.32
828.674	15213.36
829.06	15112.4
829.445	15490.22
829.83	15845.02
830.216	16300.34
830.601	16650.4
830.986	16260.44
831.371	16128.82
831.756	16661.37
832.141	16246.01
832.526	16229.12
832.911	16508.34
833.295	16394.84
833.68	16847.81
834.065	16239.14
834.449	15353.58
834.834	15282.11
835.218	15278.33
835.603	15607.98
835.987	15411.85
836.371	16220.13
836.755	16122
837.139	16506.48
837.524	16738.73
837.908	16561.23
838.291	16616.22
838.675	16683.31
839.059	16886.74
839.443	16869.83
839.827	16646.16
840.21	17107.27
840.594	16962.31
840.977	17160.87
841.361	17142.04
841.744	17507.31
842.127	17363.9
842.511	17602.22
842.894	18180.65
843.277	18551.62
843.66	19085.83
844.043	19167.28
844.426	18385.94
844.809	18083.01
845.191	18111.71
845.574	17674.19
845.957	17320.82
846.339	17213.18
846.722	16711.34
847.104	16776.18
847.487	16613.1
847.869	16621.53
848.252	16888.52
848.634	17212.22
849.016	17468.31
849.398	17591.99
849.78	18415.95
850.162	18422.96
850.544	18830.76
850.926	19434.92
851.307	19344.15
851.689	19618.48
852.071	20054.08
852.452	20371.47
852.834	20348.74
853.215	20731.2
853.597	20886.98
853.978	21166.35
854.359	21602.95
854.741	20638.92
855.122	20546.77
855.503	20264.9
855.884	20385.08
856.265	20325.19
856.646	20434.72
857.026	20055.62
857.407	19999.23
857.788	20151.26
858.169	20421.14
858.549	19603.41
858.93	20206.73
859.31	20252.49
859.69	20462.73
860.071	20065.21
860.451	19850.5
860.831	19127.96
861.211	20251.52
861.591	20781.36
861.971	20753.28
862.351	20947.57
862.731	21322.09
863.111	21579.52
863.491	21903.5
863.87	22754.3
864.25	23093.31
864.629	22718.75
865.009	23215.6
865.388	24040.83
865.768	25765.92
866.147	25665.06
866.526	24240.37
866.905	24534.45
867.284	25909.07
867.663	24590.79
868.042	23570.96
868.421	23508.64
868.8	23897.21
869.179	24136.13
869.558	22724.35
869.936	20950.68
870.315	21319.86
870.693	21842.56
871.072	23544.36
871.45	22434.98
871.828	22726.93
872.207	23882.4
872.585	23509.65
872.963	24140.9
873.341	23312.31
873.719	23040.2
874.097	22752.22
874.475	23183.05
874.853	23712.03
875.23	22730.23
875.608	23668.7
875.986	25596.25
876.363	24487.71
876.741	25237.69
877.118	24605.09
877.495	25811.73
877.873	26235.07
878.25	27610.06
878.627	26477.86
879.004	26843.58
879.381	26710.42
879.758	26010.93
880.135	24207.96
880.512	25594.48
880.889	24916.25
881.265	24652.88
881.642	24450.4
882.019	24862.05
882.395	24347.58
882.772	25314.73
883.148	24221
883.524	24117.24
883.901	23984.35
884.277	24357.89
884.653	24203.29
885.029	24898.65
885.405	27590.37
885.781	27372.96
886.157	26251.21
886.532	26573.66
886.908	26562.16
887.284	29527.3
887.659	30498.36
888.035	31427.51
888.411	32227.93
888.786	32649.07
889.161	33775.06
889.537	33138.64
889.912	34205.96
890.287	34174.99
890.662	35057.89
891.037	34438.09
891.412	32111.35
891.787	31788.11
892.162	30688.21
892.536	31398.84
892.911	30229.1
893.286	29592.48
893.66	28406.69
894.035	29136.18
894.409	31724.34
894.784	30458.87
895.158	30958.86
895.532	32800.67
895.906	33693.93
896.281	34498.39
896.655	33943.11
897.029	38774.06
897.402	40385.63
897.776	44942.42
898.15	44785.57
898.524	44313.71
898.898	44877.68
899.271	50236.7
899.645	43526.9
900.018	41826.63
900.392	43368.67
900.765	43747.89
901.138	40504.99
901.511	39894.53
901.884	36641.81
902.258	33792.09
902.631	34916.92
903.003	40194.08
903.376	36283.14
903.749	40682.97
904.122	43550
904.495	47958.59
904.867	48570.49
905.24	42154.01
905.612	39226.48
905.985	40107.42
906.357	41951.11
906.729	40033.21
907.102	34194.27
907.474	32883.28
907.846	33080.83
908.218	32640.26
908.59	28837.8
908.962	27889.26
909.334	30036.15
909.705	31569.82
910.077	30644.47
910.449	31871.89
910.82	32779.88
911.192	36062.23
911.563	37460.27
911.935	40095.12
912.306	40124.92
912.677	41438.27
913.048	41011.11
913.419	44487.14
913.79	44728.93
914.161	47957.16
914.532	45873.37
914.903	42132.3
915.274	40009.13
915.645	39398.05
916.015	34666.71
916.386	33064.09
916.756	35182
917.127	36310.75
917.497	32431.19
917.868	35292.76
918.238	33555.45
918.608	34511.07
918.978	35228.83
919.348	37337.13
919.718	38603
920.088	37193.29
920.458	38647.03
920.828	40673.61
921.198	38540.93
921.567	41204.77
921.937	31916.44
922.306	32209.94
922.676	34730.51
923.045	28974.33
923.415	27523.87
923.784	25052.33
924.153	25776.78
924.522	25741.51
924.891	24207.19
925.26	25931.06
925.629	25298.28
925.998	29095.47
926.367	28410.81
926.736	27036.99
927.104	32206.17
927.473	34610.03
927.842	41836.8
928.21	41405.37
928.578	43546.97
928.947	41177.87
929.315	41426.26
929.683	48626.53
930.051	48969.12
930.42	56839.57
930.788	48631.49
931.156	48303.16
931.523	45271.63
931.891	41819.6
932.259	40179.72
932.627	46582.69
932.994	65879.06
933.362	54451.47
933.729	47269.58
934.097	45289.71
934.464	38340.02
934.831	44240.18
935.199	43566.75
935.566	42268.95
935.933	42915.58
936.3	52002.87
936.667	40470.71
937.034	36525.25
937.401	36161.34
937.767	31243.05
938.134	27800.08
938.501	39232.38
938.867	41831.45
939.234	70736.14
939.6	60319.72
939.967	66313.15
940.333	44413.89
940.699	37807.91
941.065	30367.86
941.431	39822.32
941.798	38355.04
942.163	50387.87
942.529	31461.06
942.895	28961.45
943.261	18752.52
943.627	24654.54
943.992	21586.64
944.358	21615.2
944.723	21717.7
945.089	21128.27
945.454	19489.08
945.82	20816.51
946.185	20031.63
946.55	23218.82
946.915	20828.49
947.28	24422.75
947.645	21495.6
948.01	19856.1
948.375	20674.07
948.74	24756.77
949.104	28887.19
949.469	41753.61
949.834	73754.49
950.198	69827.14
950.562	41859.74
950.927	34820.35
951.291	41948.81
951.655	35719.46
952.02	33514.03
952.384	25357.2
952.748	22082.48
953.112	21568.6
953.476	18759.65
953.839	17356.03
954.203	17186.37
954.567	21479.33
954.931	33882.61
955.294	28974.82
955.658	29118.11
956.021	49538.83
956.385	84012.62
956.748	124042.71
957.111	192228.74
957.474	215927.85
957.837	242966.24
958.2	183708.98
958.563	66118.3
958.926	44680.3
959.289	67784.32
959.652	75786.06
960.015	56836.1
960.377	81571.86
960.74	93057.1
961.102	160693.06
961.465	172443.71
961.827	92469.67
962.189	177577.49
962.552	123117.84
962.914	98722.76
963.276	64027.89
963.638	52918.86
964	52431.76
964.362	35439.64
964.724	34236.69
965.085	24433.05
965.447	20049.61
965.809	22853.3
966.17	22870.18
966.532	24720.08
966.893	22687.44
967.255	20675.91
967.616	24397.46
967.977	19534.27
968.338	21344.38
968.699	17544.25
969.061	17525.37
969.421	17630.22
969.782	19765.59
970.143	16710.88
970.504	17347.07
970.865	19726.78
971.225	20157.05
971.586	19712.04
971.946	28116.18
972.307	24375.81
972.667	31882.1
973.027	32833.32
973.388	39799.36
973.748	27079.34
974.108	29476.94
974.468	39807.85
974.828	30668.42
975.188	23594.73
975.548	21702.43
975.907	18202.82
976.267	20422.02
976.627	17166.55
976.986	17805.83
977.346	16983.71
977.705	16353.66
978.064	14885.03
978.424	12407.05
978.783	12834.61
979.142	14659.1
979.501	14031.22
979.86	14856.25
980.219	14325.59
980.578	18480.97
980.937	20652.86
981.296	18404.45
981.654	18911.47
982.013	29460.2
982.371	38199.76
982.73	35685.28
983.088	40356.64
983.447	43048.04
983.805	61509.25
984.163	128497.81
984.521	142454.37
984.879	209309.43
985.237	-340781.57
985.595	328603.22
985.953	81613.4
986.311	47204.21
986.669	27381.63
987.026	23654.94
987.384	31870.9
987.741	32937.6
988.099	23543.74
988.456	18771.05
988.814	17564.38
989.171	15245.5
989.528	15051.02
989.885	15885.88
990.242	12569.55
990.599	15666.08
990.956	12801.13
991.313	8953.26
991.67	7348.72
992.027	7782.53
992.383	6916.98
992.74	6059.66
993.096	6358.94
993.453	6585.07
993.809	6829.83
994.165	9092.72
994.522	8334.07
994.878	9196.31
995.234	11522.84
995.59	11383.18
995.946	10792.6
996.302	12298.71
996.658	14244.41
997.013	15712.36
997.369	18643.78
997.725	23897.3
998.08	15476.47
998.436	23853.08
998.791	32887.5
999.147	32799.53
999.502	35728.74
999.857	25922.87
1000.212	42329.8
1000.567	60276.9
1000.922	34684.3
1001.277	22044.65
1001.632	16360.91
1001.987	21066.13
1002.342	15112.68
1002.696	12071.21
1003.051	9647.22
1003.406	11677.18
1003.76	11648.04
1004.114	11474.37
1004.469	9640.76
1004.823	7995.15
1005.177	8620.04
1005.531	6823.58
1005.885	6063.57
1006.239	6854.25
1006.593	8616.7
1006.947	11500.99
1007.301	8641.31
1007.655	9434.4
1008.008	6949.53
1008.362	7807.94
1008.715	11139.77
1009.069	10123.38
1009.422	15225.25
1009.776	30506.31
1010.129	20209.66
1010.482	16855.85
1010.835	14322.7
1011.188	29815.03
1011.541	27980.86
1011.894	-170426.71
1012.247	502870.11
1012.6	34304.91
1012.952	21730.04
1013.305	11204.55
1013.657	8086.05
1014.01	7669.79
1014.362	6344.55
1014.715	5623.38
1015.067	4884.95
1015.419	4790.21
1015.771	4256.89
1016.123	3780.72
1016.475	3875.18
1016.827	4109.45
1017.179	4423.98
1017.531	4452.13
1017.883	4553.71
1018.234	4384.98
1018.586	5540.6
1018.938	5867.25
1019.289	8080.55
1019.64	9257.41
1019.992	8636.49
1020.343	7914.15
1020.694	6251.9
1021.045	5505.75
1021.396	6281.38
1021.747	6727.95
1022.098	8104.93
1022.449	5887.63
1022.8	5499.96
1023.151	3843.09
1023.501	3411.04
1023.852	3704.99
1024.202	3839.79
1024.553	4217.16
1024.903	4125.15
1025.253	3540.88
1025.604	3187.16
1025.954	3954.93
1026.304	4811
1026.654	5602.53
1027.004	8187.12
1027.354	13177.77
1027.703	12407.89
1028.053	16334.41
1028.403	23770.33
1028.753	34264.87
1029.102	46582.9
1029.452	239663.92
1029.801	10306.99
1030.15	6647.26
1030.499	5595.5
897.758	2583.2
901.051	2539.74
904.343	2574.78
907.636	2574.58
910.928	2639.44
914.22	2551.55
917.511	2558.61
920.803	2621.43
924.094	2635.81
927.384	2624.29
930.675	2587.68
933.965	2542.28
937.255	2555.69
940.544	2521.97
943.834	2475.73
947.123	2416.63
950.411	2510.3
953.7	2484.02
956.988	2453.61
960.276	2395.4
963.563	2471.21
966.851	2469.45
970.138	2524.49
973.424	2516.23
976.711	2470.45
979.997	2585.24
983.283	2623.1
986.568	2533.31
989.853	2545.79
993.138	2571.75
996.423	2653.74
999.708	2591.21
1002.992	2650.19
1006.275	2501.19
1009.559	2540.79
1012.842	2647.75
1016.125	2584.49
1019.408	2565.66
1022.69	2648.82
1025.972	2668.78
1029.254	2644.17
1032.536	2581.08
1035.817	2606.59
1039.098	2553.73
1042.379	2681.62
1045.659	2687.14
1048.939	2624.03
1052.219	2640.67
1055.498	2649.12
1058.778	2634.49
1062.057	2618.9
1065.335	2642.46
1068.614	2659.33
1071.892	2645.6
1075.17	2718.59
1078.447	2710.72
1081.724	2697.21
1085.001	2732.4
1088.278	2710.25
1091.554	2719.69
1094.83	2717.63
1098.106	2746.23
1101.382	2787.36
1104.657	2788.81
1107.932	2782.4
1111.206	2751.42
1114.481	2707.61
1117.755	2711.46
1121.029	2693.37
1124.302	2746.78
1127.575	2702.36
1130.848	2690.1
1134.121	2652.07
1137.393	2603.32
1140.665	2668.76
1143.937	2645.96
1147.208	2603.59
1150.48	2645.07
1153.75	2633.35
1157.021	2661.07
1160.291	2632.13
1163.561	2678.78
1166.831	2666.22
1170.101	2698.15
1173.37	2671.4
1176.639	2617.81
1179.907	2675.5
1183.176	2681.45
1186.444	2689.89
1189.711	2716.85
1192.979	2732.53
1196.246	2686.38
1199.513	2703
1202.78	2701.36
1206.046	2708.71
1209.312	2734.88
1212.578	2757.97
1215.843	2711.93
1219.108	2688.79
1222.373	2711.84
1225.638	2675.95
1228.902	2659.17
1232.166	2625.5
1235.43	2608.37
1238.693	2633.03
1241.956	2629.85
1245.219	2670.5
1248.482	2660.68
1251.744	2655.08
1255.006	2798.21
1258.268	2751.11
1261.529	2697.88
1264.79	2703.44
1268.051	2809.18
1271.312	2826.23
1274.572	2787.04
1277.832	2777.35
1281.092	2766.17
1284.351	2742.56
1287.61	2723.44
1290.869	2639.32
1294.128	2619.02
1297.386	2703.82
1300.644	2694.51
1303.902	2702.7
1307.159	2563.54
1310.416	2618.54
1313.673	2642.41
1316.93	2630.81
1320.186	2674.61
1323.442	2716.48
1326.697	2710.76
1329.953	2696.51
1333.208	2718.94
1336.463	2697.78
1339.717	2640.68
1342.972	2769.71
1346.226	2745.2
1349.479	2680.18
1352.733	2651.75
1355.986	2672.72
1359.238	2648.77
1362.491	2648.4
1365.743	2656.02
1368.995	2652.48
1372.247	2663.74
1375.498	2687.26
1378.749	2705.77
1382	2661.62
1385.251	2715.75
1388.501	2673.09
1391.751	2661.59
1395	2631.52
1398.25	2664.39
1401.499	2673.53
1404.748	2603.5
1407.996	2591.79
1411.244	2578.62
1414.492	2559.85
1417.74	2540.39
1420.987	2547.27
1424.234	2606.81
1427.481	2580.86
1430.728	2639.51
1433.974	2613.93
1437.22	2625.38
1440.465	2624.72
1443.711	2595.62
1446.956	2629.45
1450.201	2613.69
1453.445	2658.08
1456.689	2637.37
1459.933	2647.87
1463.177	2682.21
1466.42	2655.39
1469.663	2635.61
1472.906	2631.25
1476.148	2698.1
1479.391	2671.15
1482.633	2637.77
1485.874	2650.04
1489.115	2639.25
1492.356	2643.02
1495.597	2620.97
1498.838	2623.03
1502.078	2593.67
1505.318	2547.35
1508.557	2587.87
1511.797	2571.01
1515.036	2627.63
1518.274	2618.79
1521.513	2588.34
1524.751	2609.96
1527.989	2622.01
1531.227	2636.17
1534.464	2630.91
1537.701	2647.56
1540.938	2665.55
1544.174	2617.22
1547.41	2615.9
1550.646	2654.74
1553.882	2693.11
1557.117	2748.64
1560.352	2758.53
1563.587	2720.53
1566.821	2680.47
1570.055	2713.58
1573.289	2684.58
1576.523	2756.06
1579.756	2767.96
1582.989	2785.53
1586.222	2746.15
1589.454	2784.63
1592.686	2755.85
1595.918	2783.79
1599.15	2773.06
1602.381	2843
1605.612	2801.08
1608.843	2900
1612.073	2818.25
1615.303	2798.61
1618.533	2791.01
1621.762	2790.6
1624.992	2775.06
1628.221	2766.9
1631.449	2752
1634.678	2803.76
1637.906	2759.71
1641.134	2798.74
1644.361	2754.1
1647.588	2740.14
1650.815	2758.67
1654.042	2736.66
1657.269	2769.71
1660.495	2723.67
1663.72	2741.74
1666.946	2705.43
1670.171	2652.52
1673.396	2628.96
1676.621	2614.75
1679.845	2631.75
1683.069	2653.07
1686.293	2691.14
1689.517	2667.36
1692.74	2599.7
1695.963	2626.91
1699.185	2645.94
1702.408	2622.17
1705.63	2661.54
1708.852	2671.88
1712.073	2646.91
1715.294	2635.69
1718.515	2690.34
1721.736	2641.96
1724.956	2630.94
1728.176	2655.43
1731.396	2679.25
1734.616	2666.68
1737.835	2695.03
1741.054	2675.4
1744.272	2668.81
1747.491	2698.65
1750.709	2748.93
1753.927	2661.45
1757.144	2703.31
1760.361	2746.58
1763.578	2737.01
1766.795	2679.5
1770.011	2681.9
1773.227	2720.85
1776.443	2755.72
1779.658	2800.72
1782.874	2740.81
1786.089	2722.37
1789.303	2723.47
1792.518	2730.45
1795.732	2718.08
1798.945	2727.93
1802.159	2778.81
1805.372	2687.13
1808.585	2671.92
1811.797	2674.27
1815.01	2718.8
1818.222	2726.93
1821.434	2706.53
1824.645	2762.77
1827.856	2749.79
1831.067	2787.6
1834.278	2739.77
1837.488	2721.48
1840.698	2868.39
1843.908	2795.86
1847.117	2759.04
1850.326	2651.52
1853.535	2745.43
1856.744	2761.88
1859.952	2679.37
1863.16	2680.53
1866.368	2698.6
1869.575	2805.45
1872.782	2691.68
1875.989	2628.55
1879.196	2709.29
1882.402	2699.75
1885.608	2738.18
1888.814	2647.38
1892.019	2544.49
1895.224	2595.9
1898.429	2577.13
1901.634	2556.05
1904.838	2531.96
1908.042	2580.52
1911.246	2590.96
1914.449	2524.95
1917.652	2518.52
1920.855	2502.91
1924.058	2547.97
1927.26	2585.83
1930.462	2613.09
1933.664	2640.1
1936.865	2577.51
1940.066	2587.05
1943.267	2535.25
1946.467	2547.87
1949.668	2573.74
1952.868	2641.77
1956.067	2619.17
1959.267	2554.25
1962.466	2580.6
1965.665	2564.04
1968.863	2558.74
1972.061	2572.84
1975.259	2571.69
1978.457	2650.7
1981.654	2607.69
1984.852	2610.36
1988.048	2547.53
1991.245	2550.85
1994.441	2636.64
1997.637	2616.55
2000.833	2600.32
2004.028	2637.54
2007.223	2696.89
2010.418	2672.87
2013.613	2630.25
2016.807	2605.52
2020.001	2611.77
2023.194	2650.83
2026.388	2625.33
2029.581	2569.63
2032.774	2621.36
2035.966	2624.66
2039.158	2560.21
2042.35	2583.11
2045.542	2515.08
2048.733	2610.67
2051.924	2633.19
2055.115	2656.29
2058.306	2603.7
2061.496	2665.42
2064.686	2728.05
2067.875	2640.99
2071.065	2655
2074.254	2680.09
2077.442	2632.67
2080.631	2719.89
2083.819	2620.35
2087.007	2601.4
2090.195	2573.73
2093.382	2605.55
2096.569	2583.67
2099.756	2540.33
2102.942	2569.25
2106.128	2576.3
2109.314	2565.35
2112.5	2532.58
2115.685	2507.37
2118.87	2518.17
2122.055	2581.53
2125.239	2550.67
2128.424	2528.26
2131.608	2624.77
2134.791	2605.4
2137.974	2661.47
2141.157	2646.07
2144.34	2602.24
2147.523	2614.34
2150.705	2630.15
2153.887	2608.63
2157.068	2561.97
2160.25	2561.04
2163.431	2596.27
2166.611	2545.78
2169.792	2562.85
2172.972	2458.76
2176.152	2533.38
2179.331	2568.74
2182.511	2551.38
2185.69	2579.61
2188.868	2573.13
2192.047	2624.42
2195.225	2619.22
2198.403	2569.12
2201.58	2558.66
2204.758	2555.41
2207.935	2636.58
2211.111	2527.36
2214.288	2510.98
2217.464	2552.06
2220.64	2519.52
2223.815	2574.12
2226.991	2498.16
2230.166	2516.99
2233.34	2549.33
2236.515	2571.61
2239.689	2640.52
2242.863	2587.9
2246.036	2645.65
2249.209	2643.61
2252.382	2675.35
2255.555	2666.27
2258.727	2604.75
2261.9	2644.55
2265.071	2636.52
2268.243	2636.26
2271.414	2573.87
2274.585	2537.54
2277.756	2601.67
2280.926	2557.32
2284.096	2596.13
2287.266	2507.66
2290.436	2561.34
2293.605	2591.27
2296.774	2618.43
2299.942	2635.22
2303.111	2654.35
2306.279	2701.67
2309.447	2690.68
2312.614	2667.04
2315.781	2687.01
2318.948	2659.22
2322.115	2697.17
2325.281	2598.74
2328.447	2616.69
2331.613	2592.85
2334.779	2570.97
2337.944	2569.05
2341.109	2568.01
2344.274	2549.47
2347.438	2514.34
2350.602	2541.46
2353.766	2556.15
2356.929	2541.96
2360.092	2585.02
2363.255	2538.34
2366.418	2476.6
2369.58	2583.2
2372.742	2385.05
2375.904	2396.8
2379.066	2375.75
2382.227	2408.38
2385.388	2371.54
2388.548	2301.16
2391.709	2354.06
2394.869	2332.82
2398.029	2425.5
2401.188	2437.41
2404.347	2375.12
2407.506	2507.88
2410.665	2539.14
2413.823	2540.9
2416.981	2501.67
2420.139	2530.38
2423.296	2577.85
2426.453	2550.08
2429.61	2573.47
2432.767	2511.39
2435.923	2547.92
2439.079	2511.17
2442.235	2557.34
2445.391	2485.25
2448.546	2517.36
2451.701	2564.06
2454.855	2537.81
2458.009	2589.97
2461.163	2586.62
2464.317	2550.21
2467.471	2584.13
2470.624	2621.29
2473.777	2592.1
2476.929	2604.78
2480.082	2633.07
2483.234	2597.37
2486.385	2548.03
2489.537	2541.27
2492.688	2506.23
2495.839	2527.41
2498.989	2537.67
2502.14	2522.34
2505.29	2508.83
2508.439	2531.78
2511.589	2459.57
2514.738	2467.01
2517.887	2498.58
2521.035	2566.93
2524.183	2546.05
2527.331	2525.63
2530.479	2502.78
2533.627	2512.56
