Data from N_2_DEC_VA_2N_Splice17_12-07-26-921.txt Node
Date: Sat Mar 14 12:07:26 EDT 2020
User: sa697716
Spectrometer: FLMS03696
Trigger mode: 0
Integration Time (sec): 3.180400E-1
Scans to average: 20
Electric dark correction enabled: true
Nonlinearity correction enabled: true
Boxcar width: 5
XAxis mode: Wavelengths
Number of Pixels in Spectrum: 2048
>>>>>Begin Spectral Data<<<<<
187.83	-232565.43
188.298	1677.9
188.766	925.23
189.233	891.91
189.701	1291.52
190.169	1781.91
190.636	655.03
191.104	505.12
191.571	60.08
192.039	-73.18
192.506	-67.43
192.974	491
193.441	-996.32
193.908	-357.27
194.375	-80.14
194.842	32.35
195.31	58.34
195.777	99.57
196.244	346.77
196.711	535.18
197.177	729
197.644	1076.18
198.111	1891.82
198.578	2682.83
199.045	2157.24
199.511	3572.25
199.978	4224.84
200.445	3592.62
200.911	4027.59
201.378	4540.17
201.844	4102.95
202.31	7048.42
202.777	7361.21
203.243	4088.37
203.709	3938.91
204.176	4697.17
204.642	3868.81
205.108	3599.54
205.574	2963.17
206.04	2726.18
206.506	2549.59
206.972	2420.82
207.438	2338.75
207.903	2657.95
208.369	2327.26
208.835	2305.41
209.301	2423.3
209.766	2485.43
210.232	2445.16
210.697	3024.1
211.163	3743.96
211.628	5688.92
212.094	4763.4
212.559	5796.66
213.024	3621.91
213.49	4426.43
213.955	4319.08
214.42	4258.56
214.885	3977.57
215.35	3824.96
215.815	3622.78
216.28	3829.84
216.745	3133.24
217.21	3394.23
217.675	3144.12
218.14	3546.22
218.604	3984.98
219.069	4570.26
219.534	4764.86
219.998	5563.41
220.463	6793.5
220.927	8463.97
221.392	8008.08
221.856	8116.67
222.32	10274.19
222.785	12691.85
223.249	16009.11
223.713	17904.58
224.177	17929.33
224.642	23105.07
225.106	28479.65
225.57	31133.36
226.034	23075.56
226.497	35120.03
226.961	31644.67
227.425	36776.98
227.889	40824.95
228.353	40772.3
228.816	84127.18
229.28	80380.94
229.744	67702.36
230.207	41095.13
230.671	40340.49
231.134	66780.5
231.597	76857.68
232.061	76882.22
232.524	75028.46
232.987	51617.03
233.45	46387.09
233.914	41548.92
234.377	42542
234.84	38883.64
235.303	45811.5
235.766	51080.67
236.229	52733.85
236.691	33196.88
237.154	37271.47
237.617	27995.6
238.08	28680.48
238.542	33566.36
239.005	23965.48
239.468	23777.21
239.93	22389.23
240.393	20304.95
240.855	17795.99
241.317	18235.02
241.78	22186.11
242.242	22902.43
242.704	24653.63
243.166	21416.11
243.629	19401.37
244.091	22331.17
244.553	24420.69
245.015	26195.17
245.477	33864.7
245.939	49663.54
246.4	52602.19
246.862	51032.2
247.324	48024.36
247.786	53783.33
248.247	70420.78
248.709	72669.49
249.17	54285.83
249.632	51094.41
250.093	59172.4
250.555	51074.06
251.016	31092.43
251.477	29436.52
251.939	31723.98
252.4	33251.37
252.861	39461.59
253.322	36662.77
253.783	43579.84
254.244	56432.38
254.705	44474.5
255.166	39543.5
255.627	38872.18
256.088	54755.96
256.549	58192.85
257.009	50090.78
257.47	60781.24
257.931	49512.02
258.391	37112.45
258.852	38246.26
259.312	40121.67
259.773	49575.29
260.233	41826.38
260.694	35296.58
261.154	40062.04
261.614	32102.55
262.074	28720.74
262.534	29840.07
262.994	28106.96
263.455	37418.36
263.915	31526.39
264.374	29649.68
264.834	32371.19
265.294	35926.65
265.754	37169.23
266.214	35134.7
266.673	32912.5
267.133	41512.93
267.593	41143.71
268.052	50334.26
268.512	43777.78
268.971	52725.42
269.431	57826.85
269.89	51702.97
270.349	77438.53
270.809	86315.64
271.268	77604.77
271.727	174044.87
272.186	112641.8
272.645	84451.8
273.104	60913.47
273.563	88187.36
274.022	69417.17
274.481	59036.07
274.94	45500.22
275.399	33822.46
275.857	39383.16
276.316	53278.01
276.775	47398.34
277.233	46651.2
277.692	43663.54
278.15	49341.47
278.609	50706.55
279.067	46895.91
279.525	43540.1
279.984	56166.69
280.442	67454.82
280.9	66465.82
281.358	43692.11
281.816	40713.05
282.274	39883.03
282.732	41218.37
283.19	41454.87
283.648	35810.35
284.106	38157.53
284.564	38841.96
285.021	36025.58
285.479	26874.32
285.937	24472.69
286.394	21470.2
286.852	22108.76
287.309	23250.38
287.767	22464.93
288.224	21355.46
288.682	23416
289.139	25683.12
289.596	23471.9
290.053	24388.31
290.511	30722.33
290.968	37204.83
291.425	50436.4
291.882	41915.31
292.339	36403.47
292.796	36058.83
293.252	33943.81
293.709	26886.74
294.166	24083.06
294.623	26606.48
295.079	25515.15
295.536	25605.78
295.992	23250.21
296.449	22994.48
296.905	23880.88
297.362	22881.88
297.818	24067.45
298.274	24963.39
298.731	25485.49
299.187	25199.48
299.643	27056.11
300.099	32722.83
300.555	35908.35
301.011	29986.82
301.467	28855.06
301.923	33762.53
302.379	32970.95
302.835	32377.84
303.291	32426.1
303.746	36907.6
304.202	46639.6
304.658	46829.92
305.113	31489.8
305.569	30856.86
306.024	32902.99
306.479	31397.91
306.935	26494.88
307.39	28966.29
307.845	26774.23
308.301	26928.61
308.756	26233.48
309.211	25284.12
309.666	25889.07
310.121	32111.46
310.576	32600.2
311.031	32363.45
311.486	37071.53
311.94	37015.93
312.395	49516.49
312.85	93011.99
313.305	457108.4
313.759	2363296.23
314.214	171275.23
314.668	135831.22
315.123	114412.87
315.577	40964.74
316.032	36431.76
316.486	45631.52
316.94	36014.69
317.394	25072.09
317.849	19483.59
318.303	18450.99
318.757	17395.13
319.211	19214.97
319.665	16799.26
320.119	16970.14
320.572	24351.67
321.026	22719.77
321.48	18896.09
321.934	20616.29
322.387	20665.7
322.841	22304.03
323.295	20001.33
323.748	23088.56
324.202	23448.44
324.655	28139.42
325.108	39340.11
325.562	27789.78
326.015	33048.69
326.468	24960.35
326.921	27863.23
327.374	25938.5
327.827	27014.09
328.28	30631.44
328.733	20505.27
329.186	18011.1
329.639	17174.2
330.092	14464.65
330.545	13782.68
330.997	13892.12
331.45	15171.08
331.903	17788.64
332.355	30625.08
332.808	29776.76
333.26	24578.48
333.713	26704.4
334.165	26892.54
334.617	35934.48
335.069	29082.9
335.522	52585.06
335.974	58213.88
336.426	53310.13
336.878	36959.65
337.33	18738.7
337.782	18295.93
338.234	22885.68
338.686	27382.78
339.137	32485.39
339.589	30581.31
340.041	23950.5
340.493	20597.54
340.944	21099.06
341.396	22696.77
341.847	19058.68
342.299	22478.83
342.75	27392.51
343.201	23953.46
343.653	27507.73
344.104	33804.28
344.555	26592.71
345.006	41355.76
345.457	31598.06
345.908	25101.74
346.359	23601.7
346.81	19250.97
347.261	20266.83
347.712	19999.19
348.163	21461.31
348.613	21716.68
349.064	20267.85
349.515	17755.3
349.965	18234.96
350.416	21968.74
350.866	24099.34
351.317	27282.1
351.767	45135.63
352.217	57100.16
352.668	47365.24
353.118	43337.63
353.568	41841.82
354.018	33050.3
354.468	34859.14
354.918	25002.27
355.368	21885.92
355.818	30954.43
356.268	89160.55
356.718	373397.12
357.168	92871
357.617	46590.6
358.067	51924.94
358.517	48650.76
358.966	57108.19
359.416	64066.49
359.865	69248.91
360.315	82518.71
360.764	38514.36
361.213	21555.51
361.663	20435.3
362.112	25239.18
362.561	40792.12
363.01	30746.11
363.459	25892.97
363.908	27990.64
364.357	23762.48
364.806	40178.42
365.255	27615.01
365.703	25304.24
366.152	25316.68
366.601	20521.85
367.05	16666.92
367.498	15151.75
367.947	15833.1
368.395	16467.15
368.844	14605.38
369.292	17626.47
369.74	12179.12
370.189	18665.11
370.637	21896.98
371.085	18916.32
371.533	23068.43
371.981	22250.34
372.429	21238.43
372.877	22154.69
373.325	18579.37
373.773	18955.37
374.221	16932.22
374.669	21036.05
375.116	18238.88
375.564	18421.19
376.012	20678.81
376.459	17110.78
376.907	20525.42
377.354	24906.74
377.801	23266.44
378.249	26816.9
378.696	34419.95
379.143	41837.11
379.591	44859.05
380.038	76236.36
380.485	55406.39
380.932	60149.85
381.379	55271.27
381.826	40896.85
382.273	29223.65
382.72	25731.29
383.166	25223.47
383.613	16447.24
384.06	14900.87
384.506	17338.56
384.953	12830.65
385.4	13011.99
385.846	11483.38
386.292	11288.71
386.739	11136.05
387.185	11090.2
387.631	11200.03
388.078	10943.18
388.524	11820.76
388.97	11013.17
389.416	9252.15
389.862	9904.77
390.308	9457.88
390.754	9663.29
391.2	10563.51
391.645	10904.38
392.091	10494.87
392.537	10211.7
392.983	10323.24
393.428	10193.97
393.874	11002.95
394.319	11097.18
394.765	10580.84
395.21	10948.04
395.655	10343.92
396.101	9750.93
396.546	8832.99
396.991	8954.27
397.436	8344.71
397.881	8089.04
398.326	7710.64
398.771	7314.54
399.216	6433.1
399.661	5822.56
400.106	5811.19
400.551	5949.96
400.995	5335.54
401.44	5286.03
401.885	4971.25
402.329	5023.97
402.774	4820.34
403.218	4651.36
403.663	4479.9
404.107	4593.39
404.551	4616.65
404.995	4230.14
405.44	4076.25
405.884	4135.59
406.328	3997.73
406.772	3983.15
407.216	3622.6
407.66	3498.77
408.104	3324.78
408.547	3107.67
408.991	3008.05
409.435	2892.92
409.879	2850.76
410.322	2806.68
410.766	2705.66
411.209	2568.99
411.653	2464.13
412.096	2409.45
412.54	2407.24
412.983	2388.05
413.426	2390.56
413.869	2386.95
414.312	2337.73
414.756	2247.53
415.199	2144.98
415.642	2080.14
416.085	2077.53
416.527	2061.56
416.97	2093.58
417.413	1984.49
417.856	1962.78
418.298	1939.99
418.741	1925.36
419.184	1920.25
419.626	2001.03
420.069	1997.4
420.511	2001.79
420.953	1958.52
421.396	1936.2
421.838	1886.29
422.28	1924.83
422.722	1931.29
423.164	1956.88
423.606	1917.54
424.048	1910.25
424.49	1807.92
424.932	1795.38
425.374	1772.34
425.816	1800.08
426.258	1833.23
426.699	1848.19
427.141	1814.79
427.582	1838.39
428.024	1825.14
428.465	1811.74
428.907	1765.6
429.348	1745
429.789	1741.18
430.231	1696.44
430.672	1714.91
431.113	1669.33
431.554	1642.27
431.995	1603.42
432.436	1542.97
432.877	1507.83
433.318	1479.28
433.759	1473.48
434.2	1472.35
434.64	1456.82
435.081	1462.84
435.522	1388.62
435.962	1340.29
436.403	1310.94
436.843	1329.97
437.284	1303.02
437.724	1271.91
438.164	1282.04
438.604	1256.02
439.045	1212.29
439.485	1166.54
439.925	1147.41
440.365	1122.86
440.805	1113.89
441.245	1106.86
441.685	1071.42
442.125	1072.09
442.564	1085.41
443.004	1066.67
443.444	1071.21
443.883	1079.72
444.323	1080.89
444.762	1093.48
445.202	1118.56
445.641	1144.16
446.081	1146.55
446.52	1164.13
446.959	1158.91
447.398	1137.89
447.837	1132.22
448.276	1119.77
448.716	1139.62
449.154	1158
449.593	1136.21
450.032	1139.02
450.471	1127.55
450.91	1136.11
451.349	1137.92
451.787	1140.34
452.226	1163.42
452.664	1168.49
453.103	1175.27
453.541	1178.39
453.98	1178.98
454.418	1190.75
454.856	1172.6
455.295	1174.16
455.733	1185.27
456.171	1196.55
456.609	1201.07
457.047	1204.3
457.485	1223.41
457.923	1227.72
458.361	1213.01
458.798	1219.36
459.236	1219.56
459.674	1232.36
460.111	1239.36
460.549	1228.75
460.987	1225.61
461.424	1222.32
461.862	1216.14
462.299	1199.21
462.736	1196.67
463.173	1201.79
463.611	1184.83
464.048	1180.34
464.485	1188.99
464.922	1179.07
465.359	1173.68
465.796	1150.12
466.233	1140.19
466.67	1127.82
467.106	1123.02
467.543	1113.12
467.98	1099.89
468.416	1076.4
468.853	1070.76
469.29	1039.32
469.726	1027.77
470.162	1000.76
470.599	996.51
471.035	989.82
471.471	968.22
471.907	965.57
472.344	961.1
472.78	963.2
473.216	976.12
473.652	965.27
474.088	964.54
474.523	961.95
474.959	972.72
475.395	965.36
475.831	960.76
476.266	967.68
476.702	966.16
477.138	957.36
477.573	954.93
478.008	951.69
478.444	955.78
478.879	964.16
479.314	969.61
479.75	970.25
480.185	975.41
480.62	986.26
481.055	992.97
481.49	999.9
481.925	1015.19
482.36	1033.63
482.795	1066.07
483.229	1097.11
483.664	1123.24
484.099	1129.74
484.534	1149.84
484.968	1163.49
485.403	1170.7
485.837	1172.6
486.271	1176.79
486.706	1182.47
487.14	1174.76
487.574	1158.9
488.009	1154.26
488.443	1149.23
488.877	1165.23
489.311	1174.64
489.745	1193.88
490.179	1209.42
490.613	1236.84
491.046	1253.24
491.48	1269.21
491.914	1276.89
492.348	1294.77
492.781	1308.75
493.215	1319.84
493.648	1331.37
494.082	1348.93
494.515	1357.56
494.948	1380.41
495.382	1399.15
495.815	1416.82
496.248	1435.57
496.681	1471.75
497.114	1504.52
497.547	1533.82
497.98	1568.76
498.413	1589.81
498.846	1619.15
499.279	1648.22
499.711	1668.22
500.144	1685.16
500.577	1714.54
501.009	1748.69
501.442	1776.37
501.874	1787.17
502.306	1801.27
502.739	1823.89
503.171	1865.84
503.603	1881.14
504.036	1910.07
504.468	1931.06
504.9	1962.05
505.332	1986.14
505.764	2001.82
506.196	2025.53
506.627	2063.34
507.059	2099.12
507.491	2128.28
507.923	2126.82
508.354	2164.6
508.786	2191.01
509.217	2232
509.649	2266.63
510.08	2310.34
510.512	2346.76
510.943	2378.61
511.374	2403.41
511.805	2446.36
512.237	2487.31
512.668	2557.88
513.099	2615.27
513.53	2672.58
513.961	2711.42
514.391	2774.94
514.822	2837.8
515.253	2909.5
515.684	2957.77
516.114	3011.51
516.545	3048.09
516.975	3093.17
517.406	3120.57
517.836	3115.89
518.267	3116.05
518.697	3141.96
519.127	3139.64
519.558	3145.83
519.988	3141.96
520.418	3152.7
520.848	3178.98
521.278	3184.36
521.708	3161.79
522.138	3173.79
522.567	3226.53
522.997	3267
523.427	3289.13
523.857	3311.94
524.286	3320.14
524.716	3338.57
525.145	3364.52
525.575	3374.35
526.004	3393.21
526.433	3410.73
526.863	3403.03
527.292	3371.3
527.721	3372.33
528.15	3374.65
528.579	3366.57
529.008	3378.77
529.437	3417.89
529.866	3438.91
530.295	3467.06
530.724	3484.26
531.152	3533.4
531.581	3554.48
532.01	3582.57
532.438	3595.23
532.867	3619.09
533.295	3650.81
533.723	3659.4
534.152	3649.21
534.58	3642.57
535.008	3608
535.436	3606.86
535.865	3618.84
536.293	3646.52
536.721	3675.75
537.149	3722.93
537.576	3726.22
538.004	3750.53
538.432	3765.2
538.86	3761.56
539.287	3776.3
539.715	3802.9
540.143	3810.79
540.57	3801.84
540.998	3792.27
541.425	3744.08
541.852	3701.86
542.28	3696.88
542.707	3662.89
543.134	3633.43
543.561	3623.45
543.988	3606.96
544.415	3604.54
544.842	3591.58
545.269	3576.76
545.696	3578.89
546.123	3603.63
546.549	3582.61
546.976	3555.65
547.403	3553.33
547.829	3556.06
548.256	3559.59
548.682	3550.41
549.108	3531.28
549.535	3528.12
549.961	3530.42
550.387	3504.11
550.813	3490.5
551.24	3499.7
551.666	3501.21
552.092	3482.35
552.518	3468.99
552.943	3456.32
553.369	3471.65
553.795	3484.79
554.221	3486.55
554.646	3481.5
555.072	3500.99
555.498	3515.45
555.923	3537.49
556.349	3569.49
556.774	3587.73
557.199	3593.37
557.625	3608.86
558.05	3597.87
558.475	3621.04
558.9	3622.61
559.325	3608.72
559.75	3600.41
560.175	3590.56
560.6	3580.4
561.025	3580.11
561.449	3587.13
561.874	3604.22
562.299	3616.47
562.723	3636.54
563.148	3623.33
563.572	3639.95
563.997	3666.88
564.421	3687.31
564.846	3696.44
565.27	3711.75
565.694	3715.35
566.118	3748.04
566.542	3770.26
566.966	3765.53
567.39	3765.83
567.814	3751.98
568.238	3758.8
568.662	3780.66
569.086	3794.97
569.509	3819.11
569.933	3794.6
570.357	3789.5
570.78	3753.69
571.204	3734.09
571.627	3723.42
572.05	3729.46
572.474	3739.44
572.897	3723.05
573.32	3714.02
573.743	3703.24
574.166	3673.11
574.589	3684.16
575.012	3676.15
575.435	3682.88
575.858	3672.68
576.281	3654.72
576.704	3628.47
577.126	3608.19
577.549	3591.89
577.972	3578.13
578.394	3560.65
578.817	3547.9
579.239	3511.58
579.661	3486.98
580.084	3456.95
580.506	3433.12
580.928	3431.42
581.35	3413.9
581.772	3410.75
582.194	3386.75
582.616	3364.77
583.038	3340.21
583.46	3326.25
583.882	3324.75
584.303	3340.11
584.725	3336.71
585.147	3338.68
585.568	3364.28
585.99	3393.94
586.411	3410.08
586.833	3444.68
587.254	3450.6
587.675	3484.6
588.096	3514.77
588.518	3506.85
588.939	3471.2
589.36	3470.07
589.781	3458
590.202	3394.31
590.623	3376.39
591.043	3375.77
591.464	3349.75
591.885	3342.57
592.305	3330.33
592.726	3302.61
593.147	3306.75
593.567	3298.25
593.987	3282.72
594.408	3273.48
594.828	3275.2
595.248	3263.06
595.669	3221.42
596.089	3208.47
596.509	3196.26
596.929	3167.7
597.349	3168.91
597.769	3149.17
598.189	3135.69
598.608	3139.56
599.028	3145.96
599.448	3148.57
599.867	3123.09
600.287	3116.3
600.706	3105.82
601.126	3085.23
601.545	3083.81
601.965	3083.24
602.384	3072.94
602.803	3082.29
603.222	3073.18
603.641	3059.46
604.061	3052.61
604.48	3045.14
604.898	3066.53
605.317	3083.62
605.736	3091.52
606.155	3087.51
606.574	3069.9
606.992	3086.07
607.411	3077.36
607.829	3064.35
608.248	3061.88
608.666	3060.95
609.085	3064.84
609.503	3049.81
609.921	3037.5
610.339	3047
610.758	3051.31
611.176	3045.59
611.594	3028.52
612.012	3026.23
612.43	3036.45
612.847	3056.74
613.265	3062.35
613.683	3077.37
614.101	3084.13
614.518	3081.17
614.936	3061.95
615.353	3032.94
615.771	3030.96
616.188	3035.54
616.606	3032.84
617.023	3019.89
617.44	2988.88
617.857	2978.53
618.274	2961.8
618.691	2949.85
619.108	2932.33
619.525	2921.21
619.942	2939.55
620.359	2946.88
620.776	2938.42
621.192	2929.1
621.609	2928.57
622.026	2946.11
622.442	2959.37
622.859	2969.76
623.275	2955
623.691	2969.72
624.108	2998.04
624.524	3033.83
624.94	3037.22
625.356	3062.53
625.772	3096.62
626.188	3125.19
626.604	3130.88
627.02	3124.16
627.436	3119.35
627.852	3135.11
628.268	3163
628.683	3143.6
629.099	3123.54
629.514	3113.19
629.93	3122.37
630.345	3134.56
630.761	3127.77
631.176	3137.7
631.591	3121.38
632.007	3108.26
632.422	3106.73
632.837	3082.3
633.252	3076.06
633.667	3052.3
634.082	3031.03
634.497	2999.1
634.911	2949.07
635.326	2940.65
635.741	2900.32
636.155	2880.77
636.57	2882.63
636.984	2882.49
637.399	2883.55
637.813	2884.37
638.228	2882.83
638.642	2891.86
639.056	2869.24
639.47	2870.76
639.884	2847.24
640.298	2830.72
640.712	2823.34
641.126	2793.26
641.54	2771.92
641.954	2760.65
642.368	2726.82
642.781	2699.1
643.195	2655.97
643.609	2652.28
644.022	2635.08
644.436	2623.62
644.849	2592.8
645.262	2562.9
645.676	2563.28
646.089	2546.6
646.502	2505.34
646.915	2491.84
647.328	2453.19
647.741	2443.28
648.154	2409.34
648.567	2395.77
648.98	2360.15
649.393	2357.7
649.805	2347.03
650.218	2327.79
650.631	2288.09
651.043	2272.69
651.456	2255.32
651.868	2257.16
652.28	2297.83
652.693	2329.67
653.105	2347
653.517	2369.4
653.929	2368.41
654.341	2379.46
654.753	2349.31
655.165	2363.43
655.577	2355.84
655.989	2343.85
656.401	2324.47
656.813	2236.82
657.224	2189.05
657.636	2123.55
658.047	2078.72
658.459	2030.52
658.87	2006.84
659.282	1975.48
659.693	1922.32
660.104	1882.79
660.515	1847.2
660.926	1833.63
661.338	1821.98
661.749	1800.26
662.159	1769.7
662.57	1753.66
662.981	1735.38
663.392	1709.61
663.803	1709.51
664.213	1696.32
664.624	1678.74
665.035	1675.41
665.445	1639.13
665.855	1610.43
666.266	1581.78
666.676	1566.89
667.086	1538.55
667.497	1525.45
667.907	1504.53
668.317	1476.03
668.727	1456.04
669.137	1449.56
669.547	1436.82
669.956	1433.15
670.366	1430.43
670.776	1427.56
671.186	1428.66
671.595	1427.74
672.005	1429.9
672.414	1421.75
672.824	1413.65
673.233	1421.94
673.642	1421.69
674.052	1422.02
674.461	1422.63
674.87	1429.23
675.279	1422
675.688	1425.08
676.097	1424.57
676.506	1418.54
676.915	1448.66
677.323	1455.52
677.732	1455.29
678.141	1457.76
678.549	1444
678.958	1448.36
679.366	1453.12
679.775	1471.58
680.183	1497.21
680.592	1521.07
681	1544.3
681.408	1544.26
681.816	1575.38
682.224	1610.2
682.632	1647.72
683.04	1728.87
683.448	1802.4
683.856	1891.47
684.264	1992.68
684.671	2094.1
685.079	2211.63
685.487	2342.52
685.894	2512
686.302	2661.47
686.709	2785.37
687.116	2929.75
687.524	3046.98
687.931	3147.38
688.338	3236.85
688.745	3309.05
689.152	3387.08
689.559	3486.6
689.966	3575.53
690.373	3612.47
690.78	3689.83
691.187	3819.9
691.593	3904.35
692	3975.18
692.407	4088.09
692.813	4220.34
693.22	4319.09
693.626	4421.18
694.032	4488.72
694.439	4613.87
694.845	4694.35
695.251	4808.69
695.657	4899.61
696.063	5064.87
696.469	5168.8
696.875	5259.11
697.281	5289.47
697.687	5332.35
698.093	5355.99
698.498	5453.68
698.904	5518.65
699.31	5646.23
699.715	5713.45
700.12	5842.84
700.526	5824.59
700.931	5905.74
701.337	5953.5
701.742	5966.13
702.147	6079.66
702.552	6091.16
702.957	6160.11
703.362	6153.53
703.767	6162.6
704.172	6195.15
704.577	6066.33
704.981	6111.32
705.386	6101.08
705.791	6050.06
706.195	6147.78
706.6	6127.03
707.004	6230.55
707.408	6141.93
707.813	6150.89
708.217	6096.62
708.621	6067.52
709.025	6202.01
709.43	6171.21
709.834	6243.6
710.237	6328.69
710.641	6270.35
711.045	6275.28
711.449	6237.59
711.853	6251.79
712.256	6294.32
712.66	6329.51
713.064	6427.66
713.467	6467.9
713.87	6626.88
714.274	6675.43
714.677	6829.26
715.08	7063.95
715.484	7309.72
715.887	7603.07
716.29	7898.45
716.693	8199.84
717.096	8549.48
717.499	8725.04
717.901	8740.79
718.304	8753.19
718.707	8762.24
719.109	8576.11
719.512	8501.39
719.915	8264.7
720.317	8157.26
720.719	8203.96
721.122	8142.4
721.524	8044.3
721.926	7960.47
722.328	8092.5
722.731	8061.24
723.133	8086.59
723.535	8361.22
723.937	8375.44
724.338	8439.41
724.74	8484.05
725.142	8325.39
725.544	8303.95
725.945	8318.28
726.347	8303.83
726.748	8280.47
727.15	8284.55
727.551	8215.91
727.952	8161.93
728.354	8108.63
728.755	8097.7
729.156	8025.94
729.557	8037.71
729.958	7849.43
730.359	7765.46
730.76	7728.05
731.161	7630.58
731.562	7585.22
731.962	7582.74
732.363	7480.14
732.763	7378.51
733.164	7425.3
733.564	7318.47
733.965	7173.79
734.365	7116.84
734.766	7151.17
735.166	7087.55
735.566	7002.76
735.966	6960.61
736.366	6950.27
736.766	6854.25
737.166	6895.94
737.566	6828.96
737.966	6789.86
738.365	6841.34
738.765	6827.07
739.165	6720.07
739.564	6676.54
739.964	6737.86
740.363	6669.04
740.763	6659.38
741.162	6640.22
741.561	6592.27
741.96	6522.92
742.36	6546.12
742.759	6551.4
743.158	6605.85
743.557	6619.48
743.955	6676.69
744.354	6610.59
744.753	6689.7
745.152	6629.52
745.55	6707.83
745.949	6692.54
746.348	6694.63
746.746	6717
747.144	6657.09
747.543	6626.76
747.941	6699.29
748.339	6598.34
748.737	6583.41
749.136	6570.45
749.534	6659.78
749.932	6616.44
750.33	6649.45
750.727	6725.18
751.125	6688.84
751.523	6665.63
751.921	6720.67
752.318	6668.84
752.716	6745.66
753.113	6763.11
753.511	6795.64
753.908	6795.29
754.305	6769.71
754.703	6855.43
755.1	6937.44
755.497	7021.79
755.894	7289.04
756.291	7541.85
756.688	8007.27
757.085	8627.62
757.482	9495.82
757.878	10441.16
758.275	11293.8
758.672	12475.27
759.068	13439.34
759.465	14812.21
759.861	16581.19
760.258	18628.92
760.654	19684.71
761.05	19513.62
761.447	18618.11
761.843	17330.66
762.239	15998.83
762.635	15400.38
763.031	14824.64
763.427	13994.17
763.822	13124.36
764.218	12260.23
764.614	11142.75
765.01	10388.52
765.405	9905.91
765.801	9531.68
766.196	9061.26
766.592	8801.32
766.987	8358.45
767.382	8058.52
767.778	7929.94
768.173	7745.51
768.568	7642.16
768.963	7466.51
769.358	7488.82
769.753	7421.16
770.148	7306.8
770.542	7304.17
770.937	7259.27
771.332	7386.47
771.726	7412.41
772.121	7320.72
772.515	7397.15
772.91	7374.51
773.304	7469.34
773.699	7379.98
774.093	7455.96
774.487	7532.94
774.881	7594.36
775.275	7590.54
775.669	7534.6
776.063	7598.33
776.457	7652.03
776.851	7550.65
777.245	7541.23
777.638	7591.21
778.032	7751.55
778.425	7699.04
778.819	7756.72
779.212	7698.15
779.606	7637.69
779.999	7662.48
780.392	7636.85
780.786	7755.86
781.179	7782.3
781.572	7846.28
781.965	7863.67
782.358	7784.73
782.751	7866.73
783.143	7802.62
783.536	7903.95
783.929	7968.85
784.322	8127.9
784.714	8171.24
785.107	8163.18
785.499	8262.8
785.891	8225.78
786.284	8200.5
786.676	8399.4
787.068	8367.75
787.46	8440.21
787.852	8468.12
788.245	8584.63
788.636	8628.3
789.028	8721.35
789.42	8773.62
789.812	8783.45
790.204	8921.76
790.595	9053.72
790.987	8780.78
791.378	8814.8
791.77	8994.53
792.161	9180.64
792.553	9257.7
792.944	9102.57
793.335	9009.24
793.726	9109.03
794.117	9236.17
794.508	9425.77
794.899	9391.1
795.29	9587.55
795.681	9669.73
796.072	9470.16
796.463	9201.73
796.853	9214.79
797.244	9430.66
797.634	9475.34
798.025	9473.98
798.415	9487.46
798.806	9611.9
799.196	9727.04
799.586	9795.53
799.976	9737.68
800.366	10059.02
800.756	10409.6
801.146	10354.43
801.536	10398.26
801.926	10501.67
802.316	10535.01
802.706	10635.94
803.095	10459.64
803.485	10603.96
803.874	10660.55
804.264	11021.63
804.653	10983.24
805.043	11178.64
805.432	11326.73
805.821	11322.74
806.21	11351.63
806.599	11517.99
806.988	11579.04
807.377	11735.67
807.766	11910.29
808.155	12303.19
808.544	11940.7
808.933	11963.61
809.321	11934.78
809.71	12349.85
810.098	12571.72
810.487	13217.55
810.875	13886.6
811.264	13919.35
811.652	14307.8
812.04	14516.23
812.428	14741.25
812.816	15806.05
813.204	16379.04
813.592	17146.03
813.98	17614.76
814.368	17478.53
814.756	18134.76
815.144	18014.47
815.531	18661.4
815.919	18568.36
816.306	18981.1
816.694	18546.78
817.081	18606.12
817.469	19087.71
817.856	19075.64
818.243	19439.41
818.63	19985.75
819.017	19405.41
819.404	19505.61
819.791	20033.28
820.178	20885.35
820.565	21239.12
820.952	22534.93
821.339	21860.26
821.725	22112.33
822.112	21097.25
822.498	21039.11
822.885	21220.58
823.271	21088.72
823.657	21658.78
824.044	21666.09
824.43	21768.03
824.816	21709.7
825.202	21107.04
825.588	22513.35
825.974	22540.21
826.36	23250.3
826.746	23304.15
827.132	23792.3
827.517	23759.71
827.903	22680.72
828.289	22729.83
828.674	21651.67
829.06	21513.81
829.445	22065.53
829.83	22562.52
830.216	23215.99
830.601	23718.1
830.986	23146.91
831.371	22968.77
831.756	23729.76
832.141	23122.86
832.526	23118.51
832.911	23513.46
833.295	23352.06
833.68	23995.77
834.065	23131.81
834.449	21877.83
834.834	21779.14
835.218	21774.18
835.603	22237.25
835.987	21952.3
836.371	23106.96
836.755	22955.28
837.139	23504.84
837.524	23854.55
837.908	23614.82
838.291	23696.41
838.675	23787.26
839.059	24079.65
839.443	24068.67
839.827	23747.95
840.21	24414.01
840.594	24210.16
840.977	24498.04
841.361	24468.22
841.744	24978.79
842.127	24759.96
842.511	25095.78
842.894	25928.73
843.277	26451.61
843.66	27212.21
844.043	27338.52
844.426	26226.77
844.809	25803.65
845.191	25858.01
845.574	25229.94
845.957	24727.14
846.339	24575.46
846.722	23870.8
847.104	23958.89
847.487	23729.44
847.869	23737.34
848.252	24131.04
848.634	24589.04
849.016	24967.87
849.398	25149.77
849.78	26330.01
850.162	26344.22
850.544	26925.63
850.926	27788.91
851.307	27667.28
851.689	28047.98
852.071	28686.04
852.452	29129.87
852.834	29110.17
853.215	29640.66
853.597	29841.81
853.978	30251.6
854.359	30870.08
854.741	29491.09
855.122	29357.32
855.503	28956.07
855.884	29134.47
856.265	29039.02
856.646	29197.14
857.026	28638.73
857.407	28553.9
857.788	28775.62
858.169	29164.83
858.549	27988.33
858.93	28849.35
859.31	28907.45
859.69	29189.39
860.071	28629.16
860.451	28330.73
860.831	27308.34
861.211	28915.41
861.591	29683.88
861.971	29643.12
862.351	29910.98
862.731	30443.3
863.111	30809.06
863.491	31260.1
863.87	32472.57
864.25	32962.67
864.629	32412.21
865.009	33112.33
865.388	34292.35
865.768	36735.03
866.147	36588.36
866.526	34548.56
866.905	34957.11
867.284	36906.05
867.663	35051.85
868.042	33607.71
868.421	33482.54
868.8	34023.77
869.179	34353.82
869.558	32352.96
869.936	29815.18
870.315	30344.32
870.693	31087.76
871.072	33538.8
871.45	31962.78
871.828	32358.89
872.207	33994.49
872.585	33487.89
872.963	34402.51
873.341	33209.05
873.719	32797.13
874.097	32406.27
874.475	33014.98
874.853	33775.03
875.23	32362.08
875.608	33707
875.986	36448.06
876.363	34883.29
876.741	35961.8
877.118	35053.81
877.495	36792.35
877.873	37406.48
878.25	39357.53
878.627	37754.54
879.004	38285.23
879.381	38098.3
879.758	37083.85
880.135	34540.58
880.512	36510.44
880.889	35536.21
881.265	35175.79
881.642	34880.46
882.019	35485.61
882.395	34765.74
882.772	36146.99
883.148	34573.22
883.524	34441.3
883.901	34257.55
884.277	34777.14
884.653	34564.58
885.029	35539.69
885.405	39350.18
885.781	39055.14
886.157	37446.38
886.532	37902.08
886.908	37882.81
887.284	42132.33
887.659	43503.63
888.035	44864.94
888.411	46022.61
888.786	46627.01
889.161	48263.94
889.537	47384.73
889.912	48915.08
890.287	48860.68
890.662	50137.07
891.037	49247.78
891.412	45916.26
891.787	45480.75
892.162	43889.1
892.536	44926.35
892.911	43248.01
893.286	42331.56
893.66	40620.75
894.035	41638.98
894.409	45361.77
894.784	43525.67
895.158	44229.97
895.532	46853.07
895.906	48106.53
896.281	49234.64
896.655	48432.94
897.029	55338.96
897.402	57642.29
897.776	64185.11
898.15	63978.19
898.524	63296.87
898.898	64148.48
899.271	71848.6
899.645	62244.25
900.018	59806.51
900.392	62041.97
900.765	62546.51
901.138	57884.08
901.511	57022.38
901.884	52361.53
902.258	48307.54
902.631	49874.99
903.003	57409.71
903.376	51795.28
903.749	58065.58
904.122	62151.09
904.495	68438.38
904.867	69310.42
905.24	60176.68
905.612	56015.17
905.985	57272.08
906.357	59875.04
906.729	57188.43
907.102	48840.95
907.474	46958.05
907.846	47261.51
908.218	46630.19
908.59	41190.71
908.962	39833.53
909.334	42896.08
909.705	45036.41
910.077	43719.19
910.449	45492.63
910.82	46774.15
911.192	51468.93
911.563	53490.5
911.935	57222.2
912.306	57312.41
912.677	59189.52
913.048	58596.08
913.419	63567.32
913.79	63951.88
914.161	68602.92
914.532	65554.83
914.903	60226.62
915.274	57198.62
915.645	56372.84
916.015	49644.3
916.386	47326.36
916.756	50349.39
917.127	51932.95
917.497	46408.79
917.868	50489.63
918.238	47944.46
918.608	49351.73
918.978	50359.67
919.348	53327.06
919.718	55070.91
920.088	53040.87
920.458	55093.09
920.828	57991.16
921.198	54990.72
921.567	58742.01
921.937	45506.07
922.306	45957.48
922.676	49538.44
923.045	41308.28
923.415	39243
923.784	35754.94
924.153	36746.48
924.522	36715.01
924.891	34506.8
925.26	36949.29
925.629	36054.78
925.998	41448.93
926.367	40458.13
926.736	38511.37
927.104	45890.95
927.473	49312.1
927.842	59538.83
928.21	58991.66
928.578	61982.43
928.947	58612.23
929.315	58968.72
929.683	69166.3
930.051	69736.06
930.42	80974.78
930.788	69240.39
931.156	68692.06
931.523	64388.29
931.891	59511.78
932.259	57126.49
932.627	66219.88
932.994	93693.35
933.362	77416.33
933.729	67205.82
934.097	64268.97
934.464	54385.76
934.831	62722.68
935.199	61870.35
935.566	59986.23
935.933	60821.45
936.3	73665.04
936.667	57341.45
937.034	51684.55
937.401	51125.48
937.767	44145.03
938.134	39324.19
938.501	55463.15
938.867	59126.74
939.234	99983.3
939.6	85367.61
939.967	93958.32
940.333	62868.44
940.699	53540.73
941.065	43020.5
941.431	56412.31
941.798	54323.29
942.163	71301.21
942.529	44570.79
942.895	41039.36
943.261	26503.75
943.627	34748.63
943.992	30408.55
944.358	30491.06
944.723	30595.77
945.089	29812.7
945.454	27546.5
945.82	29454.69
946.185	28314.72
946.55	32788.79
946.915	29414.39
947.28	34532.34
947.645	30416.72
948.01	28076.31
948.375	29253.84
948.74	35063.98
949.104	40926.06
949.469	59162.17
949.834	104485.64
950.198	99006.58
950.562	59320.83
950.927	49400.14
951.291	59472.29
951.655	50672.93
952.02	47621.19
952.384	36033.65
952.748	31356.81
953.112	30531.47
953.476	26547.58
953.839	24575.92
954.203	24323.76
954.567	30425.26
954.931	47952.07
955.294	40972.64
955.658	41252.65
956.021	70156.47
956.385	119043.76
956.748	175865.06
957.111	273246.38
957.474	306616.91
957.837	345409.06
958.2	261683.05
958.563	94238.5
958.926	63750.29
959.289	96857.57
959.652	108078.14
960.015	81081.73
960.377	116304.18
960.74	132732.42
961.102	229265.98
961.465	246255.97
961.827	131540.36
962.189	252237.53
962.552	174693.26
962.914	140017.98
963.276	90888.28
963.638	75218.29
964	74529.25
964.362	50379.65
964.724	48689.93
965.085	34717.24
965.447	28473.2
965.809	32501.86
966.17	32551.52
966.532	35255.25
966.893	32342.31
967.255	29428.18
967.616	34724.65
967.977	27794.5
968.338	30359.54
968.699	24940.21
969.061	24933.77
969.421	25083.54
969.782	28157.89
970.143	23780.98
970.504	24604.95
970.865	27966.82
971.225	28559.95
971.586	27924.06
971.946	39844.12
972.307	34605.25
972.667	45291.19
973.027	46663.29
973.388	56631.45
973.748	38536.19
974.108	41998.19
974.468	56890.75
974.828	43878.11
975.188	33799.92
975.548	31074.66
975.907	26072.71
976.267	29239.18
976.627	24537.19
976.986	25422.94
977.346	24237.83
977.705	23312.29
978.064	21229.53
978.424	17662.5
978.783	18283.74
979.142	20870.9
979.501	19968.5
979.86	21091.85
980.219	20331.26
980.578	26247.87
980.937	29431.42
981.296	26225.56
981.654	26982.36
982.013	41985.61
982.371	54489.79
982.73	50817.94
983.088	57562.71
983.447	61444.18
983.805	87940.45
984.163	183913.36
984.521	204179.56
984.879	299344.36
985.237	-487365.98
985.595	469935.33
985.953	116799.7
986.311	67514.8
986.669	39255.33
987.026	33915.65
987.384	45667.3
987.741	47234.67
988.099	33684.91
988.456	26862.55
988.814	25123.3
989.171	21844.8
989.528	21573.83
989.885	22820.58
990.242	18055.06
990.599	22482.18
990.956	18379.88
991.313	12846.89
991.67	10536.9
992.027	11141.19
992.383	9881.36
992.74	8656.27
993.096	9069.08
993.453	9409.68
993.809	9740.57
994.165	12997.45
994.522	11878.09
994.878	13096.26
995.234	16437.56
995.59	16214.78
995.946	15426.56
996.302	17609.91
996.658	20418.1
997.013	22510.58
997.369	26620
997.725	33999.42
998.08	21983.4
998.436	34065.64
998.791	46983.58
999.147	46933.05
999.502	51194.78
999.857	37177.62
1000.212	60677.97
1000.567	86249.46
1000.922	49714.85
1001.277	31619.41
1001.632	23512.03
1001.987	30280.88
1002.342	21687.82
1002.696	17350.88
1003.051	13823.82
1003.406	16739.06
1003.76	16677.83
1004.114	16409.87
1004.469	13792.37
1004.823	11442.41
1005.177	12364.13
1005.531	9802
1005.885	8693.37
1006.239	9812.22
1006.593	12274.25
1006.947	16434.87
1007.301	12337.33
1007.655	13456.62
1008.008	9883.53
1008.362	11101.97
1008.715	15797.87
1009.069	14329.11
1009.422	21482.9
1009.776	43243.53
1010.129	28724.01
1010.482	24024.53
1010.835	20315.47
1011.188	42323.98
1011.541	39846.52
1011.894	-244121.02
1012.247	719256.43
1012.6	49040.76
1012.952	30925.92
1013.305	16036.74
1013.657	11510.05
1014.01	10893
1014.362	9004.55
1014.715	7981.2
1015.067	6937.19
1015.419	6781.93
1015.771	5997.15
1016.123	5328.28
1016.475	5472.85
1016.827	5839.54
1017.179	6252.82
1017.531	6305.17
1017.883	6439.39
1018.234	6170.61
1018.586	7796.89
1018.938	8218.11
1019.289	11306.52
1019.64	12962.93
1019.992	12090.61
1020.343	11055.07
1020.694	8718.69
1021.045	7698.44
1021.396	8826.03
1021.747	9449.05
1022.098	11417.49
1022.449	8300.3
1022.8	7768.02
1023.151	5412.48
1023.501	4798.73
1023.852	5218.61
1024.202	5401.59
1024.553	5950.73
1024.903	5809.31
1025.253	4936.99
1025.604	4450.65
1025.954	5536.83
1026.304	6759.24
1026.654	7861.1
1027.004	11595.21
1027.354	18747.73
1027.703	17607.53
1028.053	23268.45
1028.403	33881.09
1028.753	49389.99
1029.102	67519.66
1029.452	347483.79
1029.801	14964.58
1030.15	9657.52
1030.499	8207.38
897.758	2253.17
901.051	2186
904.343	2223.56
907.636	2230.17
910.928	2293.69
914.22	2211.18
917.511	2215.15
920.803	2267.15
924.094	2267.04
927.384	2268.83
930.675	2232.28
933.965	2194.82
937.255	2224.74
940.544	2189.38
943.834	2188.84
947.123	2126.62
950.411	2218.1
953.7	2199.75
956.988	2181.78
960.276	2119.68
963.563	2172.02
966.851	2183.14
970.138	2226.63
973.424	2229.14
976.711	2184.31
979.997	2234.5
983.283	2279.45
986.568	2207.73
989.853	2200.55
993.138	2228.94
996.423	2313.5
999.708	2268.41
1002.992	2300.69
1006.275	2206.97
1009.559	2213.99
1012.842	2314.33
1016.125	2265.89
1019.408	2246.69
1022.69	2307.15
1025.972	2340.2
1029.254	2313.81
1032.536	2273.39
1035.817	2288.07
1039.098	2257.13
1042.379	2318.33
1045.659	2346.93
1048.939	2293.33
1052.219	2302.94
1055.498	2300.32
1058.778	2298.17
1062.057	2274.08
1065.335	2299.48
1068.614	2312.34
1071.892	2306.14
1075.17	2364.52
1078.447	2368.66
1081.724	2361.87
1085.001	2389.48
1088.278	2367.56
1091.554	2372.32
1094.83	2366.26
1098.106	2404.83
1101.382	2435.9
1104.657	2437.73
1107.932	2436.43
1111.206	2410.41
1114.481	2365.62
1117.755	2364.85
1121.029	2357.07
1124.302	2420.92
1127.575	2385.84
1130.848	2380.23
1134.121	2349.09
1137.393	2310.9
1140.665	2372.54
1143.937	2351.56
1147.208	2302.09
1150.48	2357.65
1153.75	2349.7
1157.021	2355.88
1160.291	2329.86
1163.561	2385
1166.831	2354.48
1170.101	2383.37
1173.37	2341.96
1176.639	2294.97
1179.907	2341.52
1183.176	2366.63
1186.444	2366.71
1189.711	2392.66
1192.979	2414.08
1196.246	2369.14
1199.513	2382.57
1202.78	2388.2
1206.046	2396.15
1209.312	2425.25
1212.578	2446.99
1215.843	2410.82
1219.108	2373.53
1222.373	2400.48
1225.638	2372.33
1228.902	2364.83
1232.166	2319.14
1235.43	2306.06
1238.693	2329.01
1241.956	2322.68
1245.219	2371.73
1248.482	2350.2
1251.744	2349.86
1255.006	2479.83
1258.268	2425.14
1261.529	2377.31
1264.79	2376.85
1268.051	2481.11
1271.312	2492.03
1274.572	2464.52
1277.832	2450.66
1281.092	2430.51
1284.351	2420.88
1287.61	2405.34
1290.869	2337.1
1294.128	2333.31
1297.386	2384.83
1300.644	2376.61
1303.902	2386.55
1307.159	2251.43
1310.416	2303.75
1313.673	2333.3
1316.93	2332.29
1320.186	2364.4
1323.442	2400.03
1326.697	2397.81
1329.953	2369.67
1333.208	2406.34
1336.463	2381.44
1339.717	2338.77
1342.972	2446.9
1346.226	2417.7
1349.479	2361.54
1352.733	2339.27
1355.986	2346.89
1359.238	2326.54
1362.491	2333.33
1365.743	2335.07
1368.995	2324.4
1372.247	2337.4
1375.498	2356.72
1378.749	2397.01
1382	2348.13
1385.251	2387.58
1388.501	2340.17
1391.751	2339.19
1395	2301.1
1398.25	2326.94
1401.499	2347.18
1404.748	2296.42
1407.996	2270.16
1411.244	2258.36
1414.492	2243.68
1417.74	2225.47
1420.987	2232.07
1424.234	2291.12
1427.481	2253.74
1430.728	2314.55
1433.974	2288.55
1437.22	2289.4
1440.465	2286.71
1443.711	2284.78
1446.956	2309.02
1450.201	2281.28
1453.445	2325.89
1456.689	2311.97
1459.933	2324.68
1463.177	2366.17
1466.42	2336.83
1469.663	2322.71
1472.906	2337.03
1476.148	2387.1
1479.391	2365.34
1482.633	2339.88
1485.874	2365.46
1489.115	2369.15
1492.356	2357.68
1495.597	2335.06
1498.838	2331.22
1502.078	2315.26
1505.318	2282.34
1508.557	2319.02
1511.797	2316.35
1515.036	2359.9
1518.274	2334.95
1521.513	2292.7
1524.751	2306.11
1527.989	2327.55
1531.227	2349.3
1534.464	2361.68
1537.701	2356.99
1540.938	2372.37
1544.174	2319.79
1547.41	2311.03
1550.646	2348.3
1553.882	2400.32
1557.117	2457.22
1560.352	2467.75
1563.587	2431.2
1566.821	2393.68
1570.055	2411.27
1573.289	2393.93
1576.523	2455.2
1579.756	2467.15
1582.989	2490.39
1586.222	2452.48
1589.454	2482.74
1592.686	2464.66
1595.918	2493.18
1599.15	2488.55
1602.381	2539.84
1605.612	2517.99
1608.843	2615.97
1612.073	2535.31
1615.303	2524.63
1618.533	2522.79
1621.762	2519.83
1624.992	2493.4
1628.221	2495.24
1631.449	2483.37
1634.678	2513.57
1637.906	2480.01
1641.134	2510.82
1644.361	2474.55
1647.588	2461.82
1650.815	2484.11
1654.042	2445.44
1657.269	2474.53
1660.495	2453.18
1663.72	2439.35
1666.946	2406.5
1670.171	2377.69
1673.396	2349.88
1676.621	2329.8
1679.845	2327.72
1683.069	2337.3
1686.293	2368.31
1689.517	2358.1
1692.74	2307.61
1695.963	2328.38
1699.185	2370.46
1702.408	2341.28
1705.63	2370.36
1708.852	2388.46
1712.073	2359.36
1715.294	2368.36
1718.515	2412.99
1721.736	2370.36
1724.956	2346.53
1728.176	2367.49
1731.396	2391.96
1734.616	2376
1737.835	2412.85
1741.054	2385.45
1744.272	2371.86
1747.491	2413.56
1750.709	2438.25
1753.927	2380.87
1757.144	2407.43
1760.361	2468.13
1763.578	2443.37
1766.795	2389.68
1770.011	2377.19
1773.227	2404.87
1776.443	2446.58
1779.658	2494.3
1782.874	2429.15
1786.089	2422.41
1789.303	2423.51
1792.518	2421.64
1795.732	2406.77
1798.945	2424.66
1802.159	2465.59
1805.372	2405.11
1808.585	2399.68
1811.797	2397.66
1815.01	2420.52
1818.222	2442.73
1821.434	2399.2
1824.645	2442.61
1827.856	2450.56
1831.067	2484.81
1834.278	2418.18
1837.488	2401.43
1840.698	2529.73
1843.908	2465.27
1847.117	2433.77
1850.326	2354.28
1853.535	2419.19
1856.744	2453.01
1859.952	2375.38
1863.16	2374.3
1866.368	2384.56
1869.575	2499.55
1872.782	2379.58
1875.989	2308.47
1879.196	2361.52
1882.402	2349.98
1885.608	2384.94
1888.814	2318.66
1892.019	2223.01
1895.224	2272.5
1898.429	2241.25
1901.634	2223.83
1904.838	2195.31
1908.042	2251.18
1911.246	2262.48
1914.449	2219.79
1917.652	2201.25
1920.855	2180.28
1924.058	2207.75
1927.26	2251.4
1930.462	2275
1933.664	2308.54
1936.865	2252.14
1940.066	2269.42
1943.267	2214.83
1946.467	2225.53
1949.668	2245.73
1952.868	2318.68
1956.067	2306.61
1959.267	2247.38
1962.466	2270.72
1965.665	2252.64
1968.863	2249.82
1972.061	2252.86
1975.259	2247.09
1978.457	2321.96
1981.654	2280.08
1984.852	2285.29
1988.048	2235.35
1991.245	2226.2
1994.441	2315.12
1997.637	2275.44
2000.833	2258.03
2004.028	2292.94
2007.223	2356.32
2010.418	2342.77
2013.613	2294.78
2016.807	2288.41
2020.001	2280.29
2023.194	2305.83
2026.388	2290.44
2029.581	2233.44
2032.774	2297.59
2035.966	2306.68
2039.158	2252.13
2042.35	2271.24
2045.542	2194.88
2048.733	2282.93
2051.924	2275.99
2055.115	2296.11
2058.306	2257.76
2061.496	2311.38
2064.686	2364.17
2067.875	2272.1
2071.065	2275.6
2074.254	2294.24
2077.442	2247.15
2080.631	2332.51
2083.819	2256.43
2087.007	2250.83
2090.195	2232.34
2093.382	2251.63
2096.569	2234.62
2099.756	2194.66
2102.942	2238.21
2106.128	2252.59
2109.314	2240.94
2112.5	2224.52
2115.685	2195.36
2118.87	2202.47
2122.055	2264.35
2125.239	2242.73
2128.424	2227.55
2131.608	2292.4
2134.791	2275.85
2137.974	2316.8
2141.157	2305.71
2144.34	2275
2147.523	2268.19
2150.705	2292.02
2153.887	2262.01
2157.068	2231.8
2160.25	2216.32
2163.431	2239.73
2166.611	2206.57
2169.792	2226.81
2172.972	2136.07
2176.152	2189.08
2179.331	2217.16
2182.511	2217.6
2185.69	2241.67
2188.868	2240.91
2192.047	2280.36
2195.225	2292.51
2198.403	2243.45
2201.58	2229.67
2204.758	2220.11
2207.935	2294.54
2211.111	2207.88
2214.288	2198.31
2217.464	2231.37
2220.64	2186.55
2223.815	2241.44
2226.991	2168.08
2230.166	2183.77
2233.34	2223.84
2236.515	2240.23
2239.689	2302.23
2242.863	2253.34
2246.036	2306.2
2249.209	2286.25
2252.382	2308.51
2255.555	2315.83
2258.727	2262.24
2261.9	2295.13
2265.071	2285.14
2268.243	2283.43
2271.414	2229.8
2274.585	2212.91
2277.756	2272.92
2280.926	2226.28
2284.096	2258.42
2287.266	2187.74
2290.436	2231.88
2293.605	2254.3
2296.774	2289.86
2299.942	2295.81
2303.111	2311.77
2306.279	2361.8
2309.447	2344.29
2312.614	2315.71
2315.781	2342.66
2318.948	2318.85
2322.115	2354.25
2325.281	2256.44
2328.447	2264.18
2331.613	2233.41
2334.779	2224.21
2337.944	2221.36
2341.109	2222.59
2344.274	2211.6
2347.438	2180.16
2350.602	2202.73
2353.766	2211.05
2356.929	2198.37
2360.092	2237.78
2363.255	2206.22
2366.418	2169.8
2369.58	2242.58
2372.742	2104.73
2375.904	2102.72
2379.066	2087.08
2382.227	2112.79
2385.388	2072.88
2388.548	2021.65
2391.709	2067.88
2394.869	2050.56
2398.029	2113.83
2401.188	2110.24
2404.347	2069.62
2407.506	2156.46
2410.665	2193.3
2413.823	2180.99
2416.981	2157.73
2420.139	2175.73
2423.296	2219.17
2426.453	2189.06
2429.61	2213.41
2432.767	2176.15
2435.923	2217.51
2439.079	2167.05
2442.235	2203.53
2445.391	2142.12
2448.546	2184.7
2451.701	2219.79
2454.855	2213.39
2458.009	2243.81
2461.163	2235.38
2464.317	2205.71
2467.471	2232.63
2470.624	2263.42
2473.777	2250.91
2476.929	2266.12
2480.082	2288.1
2483.234	2260.01
2486.385	2202.54
2489.537	2197.35
2492.688	2184.89
2495.839	2201.14
2498.989	2215.05
2502.14	2203.16
2505.29	2192.34
2508.439	2216.4
2511.589	2155.58
2514.738	2158.39
2517.887	2183.31
2521.035	2254.62
2524.183	2217.77
2527.331	2203.25
2530.479	2194.53
2533.627	2198.78
