Data from N_2_DEC_CT_2N_Splice17_12-27-55-731.txt Node
Date: Sat Mar 14 12:27:55 EDT 2020
User: sa697716
Spectrometer: FLMS03696
Trigger mode: 0
Integration Time (sec): 3.180400E-1
Scans to average: 20
Electric dark correction enabled: true
Nonlinearity correction enabled: true
Boxcar width: 5
XAxis mode: Wavelengths
Number of Pixels in Spectrum: 2048
>>>>>Begin Spectral Data<<<<<
187.83	-349889.45
188.298	2431.67
188.766	1276.72
189.233	1153.39
189.701	1548.06
190.169	2175.63
190.636	772.83
191.104	596.99
191.571	37.72
192.039	-96.52
192.506	-87.83
192.974	359.13
193.441	-719.46
193.908	-313.63
194.375	-81.87
194.842	-63.25
195.31	-5.66
195.777	125.98
196.244	368.61
196.711	493.93
197.177	648.86
197.644	956.78
198.111	1659.72
198.578	2350.54
199.045	1906.62
199.511	3141.1
199.978	3664.44
200.445	3111.25
200.911	3406.69
201.378	3808.3
201.844	3432.52
202.31	5810.02
202.777	6016.81
203.243	3309.69
203.709	3163.3
204.176	3764.13
204.642	3081.9
205.108	2876.3
205.574	2324.65
206.04	2151.59
206.506	2029.09
206.972	1930.1
207.438	1887.03
207.903	2136.36
208.369	1880.26
208.835	1864.59
209.301	1943.58
209.766	1985.35
210.232	1962.58
210.697	2442
211.163	3005.76
211.628	4529.03
212.094	3805.91
212.559	4659.77
213.024	2899.99
213.49	3535.61
213.955	3454.37
214.42	3394.59
214.885	3170.49
215.35	3042.79
215.815	2950.63
216.28	3120.23
216.745	2546.02
217.21	2760.28
217.675	2549.91
218.14	2894.48
218.604	3274.14
219.069	3774.82
219.534	3992.88
219.998	4680.27
220.463	5727.2
220.927	7131.97
221.392	6752.71
221.856	6881.31
222.32	8717.04
222.785	10803.46
223.249	13665.26
223.713	15280.46
224.177	15303.77
224.642	19687.36
225.106	24260.28
225.57	26557.63
226.034	19684.63
226.497	30064.84
226.961	27164.91
227.425	31620.39
227.889	35127.18
228.353	35083.5
228.816	72526.83
229.28	69352.05
229.744	58418.07
230.207	35544.24
230.671	34978.09
231.134	57976.1
231.597	66739.11
232.061	66768.77
232.524	65119.22
232.987	44867.68
233.45	40414.2
233.914	36206.91
234.377	37127.37
234.84	34003.66
235.303	40083.73
235.766	44677.8
236.229	46129.82
236.691	29053.89
237.154	32650.75
237.617	24559.76
238.08	25133.82
238.542	29411.44
239.005	21024.55
239.468	20839.1
239.93	19612.87
240.393	17820.6
240.855	15647.46
241.317	16034.76
241.78	19525.41
242.242	20161.97
242.704	21766.79
243.166	18941.05
243.629	17206.36
244.091	19838.99
244.553	21755.96
245.015	23417.47
245.477	30295.03
245.939	44385.1
246.4	47091.83
246.862	45769
247.324	43159.98
247.786	48303.63
248.247	63388.43
248.709	65452.42
249.17	48935.37
249.632	46126.71
250.093	53495.88
250.555	46188.58
251.016	28183.98
251.477	26740.91
251.939	28869.18
252.4	30316.79
252.861	36034.28
253.322	33518.64
253.783	39932.46
254.244	51819.05
254.705	40854.82
255.166	36339.68
255.627	35814.96
256.088	50494.86
256.549	53669.77
257.009	46224.84
257.47	56093.6
257.931	45756.16
258.391	34267.88
258.852	35288.28
259.312	36983.82
259.773	45702.23
260.233	38620.3
260.694	32557.83
261.154	36961.31
261.614	29657.46
262.074	26524.53
262.534	27549.03
262.994	25987.52
263.455	34635.37
263.915	29194.13
264.374	27512.32
264.834	30044.4
265.294	33287.31
265.754	34495.16
266.214	32696.13
266.673	30607.56
267.133	38654.99
267.593	38384.75
268.052	46953.1
268.512	40852.18
268.971	49240.34
269.431	54021.56
269.89	48394.7
270.349	72594.51
270.809	81022.62
271.268	72792.46
271.727	163636.6
272.186	106044.93
272.645	79525.5
273.104	57375.25
273.563	83118.23
274.022	65436.05
274.481	55708.9
274.94	42914.41
275.399	31918.42
275.857	37179.71
276.316	50366.47
276.775	44778.08
277.233	44108.22
277.692	41283.96
278.15	46714.35
278.609	48088.44
279.067	44545.45
279.525	41331.53
279.984	53434.75
280.442	64215.87
280.9	63242.87
281.358	41564.32
281.816	38738.06
282.274	37933.35
282.732	39226.31
283.19	39450.92
283.648	34063.22
284.106	36271.47
284.564	36910.09
285.021	34215.1
285.479	25493.17
285.937	23199.47
286.394	20347.56
286.852	20943.96
287.309	22005.89
287.767	21248.28
288.224	20190.29
288.682	22131.76
289.139	24300.13
289.596	22254.95
290.053	23120.63
290.511	29185.29
290.968	35384.8
291.425	48025.98
291.882	40025.26
292.339	34838.06
292.796	34558.22
293.252	32592.02
293.709	25895.08
294.166	23208.32
294.623	25665.8
295.079	24641.17
295.536	24777.17
295.992	22514.67
296.449	22277.25
296.905	23142.28
297.362	22199.74
297.818	23381.38
298.274	24270.77
298.731	24747.7
299.187	24497.36
299.643	26294.84
300.099	31831.38
300.555	34909.24
301.011	29174.73
301.467	28151.48
301.923	32963.58
302.379	32208.17
302.835	31611.2
303.291	31658.94
303.746	36047.87
304.202	45517.31
304.658	45727.51
305.113	30779.33
305.569	30169.54
306.024	32164.47
306.479	30624.93
306.935	25831.37
307.39	28205.21
307.845	26107.56
308.301	26248.54
308.756	25573.02
309.211	24623.76
309.666	25250.88
310.121	31303.07
310.576	31765.88
311.031	31553.52
311.486	36164.9
311.94	36139.25
312.395	48339.85
312.85	90789.35
313.305	446064.13
313.759	2313154.76
314.214	167978.5
314.668	132999.17
315.123	111917.04
315.577	40134.53
316.032	35705.91
316.486	44703.05
316.94	35234.88
317.394	24527
317.849	19048.55
318.303	18052.29
318.757	17010.39
319.211	18821.48
319.665	16477.87
320.119	16669.62
320.572	23930.85
321.026	22359.99
321.48	18609.61
321.934	20329.61
322.387	20372.32
322.841	22016.4
323.295	19780.95
323.748	22819.23
324.202	23155.83
324.655	27842.68
325.108	38924.24
325.562	27481.08
326.015	32657.55
326.468	24698.53
326.921	27628.32
327.374	25746.45
327.827	26804
328.28	30361.38
328.733	20336.38
329.186	17865.8
329.639	17006.08
330.092	14336.91
330.545	13656.7
330.997	13775.29
331.45	15063.18
331.903	17622.65
332.355	30355.82
332.808	29497.41
333.26	24360.14
333.713	26445.46
334.165	26631.53
334.617	35620.44
335.069	28778.2
335.522	52015.67
335.974	57627.46
336.426	52687.12
336.878	36578.5
337.33	18569.14
337.782	18124.84
338.234	22660.08
338.686	27105.26
339.137	32149.69
339.589	30248.07
340.041	23713.19
340.493	20378.67
340.944	20832.88
341.396	22386.14
341.847	18814.59
342.299	22159.95
342.75	27025.62
343.201	23622.89
343.653	27147.8
344.104	33319.7
344.555	26223.04
345.006	40834.74
345.457	31264.17
345.908	24868.71
346.359	23418.72
346.81	19052.4
347.261	20088.63
347.712	19816.34
348.163	21274.83
348.613	21538.26
349.064	20112.68
349.515	17613.07
349.965	18063.93
350.416	21759.72
350.866	23887.85
351.317	27042.73
351.767	44814.4
352.217	56699.46
352.668	47092.73
353.118	43110.04
353.568	41559.65
354.018	32881.66
354.468	34697.01
354.918	24882.23
355.368	21793.17
355.818	30800.64
356.268	88534.23
356.718	370755.91
357.168	92200.31
357.617	46243.45
358.067	51470.28
358.517	48236.83
358.966	56524.04
359.416	63315.48
359.865	68475.81
360.315	81514.65
360.764	37997.77
361.213	21284.24
361.663	20170.88
362.112	24906.28
362.561	40253.3
363.01	30382.94
363.459	25587.64
363.908	27704.52
364.357	23529.39
364.806	39793.48
365.255	27365.39
365.703	25137.31
366.152	25170.14
366.601	20396.13
367.05	16554.28
367.498	15032.83
367.947	15703.52
368.395	16325.64
368.844	14459.22
369.292	17430.51
369.74	12030.39
370.189	18444.78
370.637	21569.69
371.085	18646.21
371.533	22722.64
371.981	21884.05
372.429	20867.8
372.877	21720.78
373.325	18198.83
373.773	18556.35
374.221	16537.94
374.669	20537.31
375.116	17751.11
375.564	17921.84
376.012	20038.02
376.459	16531.71
376.907	19791.41
377.354	23942.53
377.801	22359.39
378.249	25713.25
378.696	32900.7
379.143	39938
379.591	42606.28
380.038	72123.95
380.485	52226.01
380.932	56501.28
381.379	51768.07
381.826	38210.96
382.273	27236.21
382.72	23843.32
383.166	23327.16
383.613	15171.38
384.06	13701.21
384.506	15926.35
384.953	11755.18
385.4	11893.16
385.846	10458.53
386.292	10255.61
386.739	10105.28
387.185	10060.06
387.631	10138.11
388.078	9891.28
388.524	10658.76
388.97	9920.66
389.416	8315.31
389.862	8887.03
390.308	8448.94
390.754	8638.95
391.2	9434.17
391.645	9745
392.091	9398.69
392.537	9170.16
392.983	9277.64
393.428	9181.84
393.874	9901.38
394.319	10042.1
394.765	9636.33
395.21	10077.18
395.655	9613.95
396.101	9171.55
396.546	8412.29
396.991	8642.85
397.436	8174.21
397.881	8043.87
398.326	7797.69
398.771	7542.46
399.216	6734.91
399.661	6191.95
400.106	6270.49
400.551	6505.24
400.995	5914.99
401.44	5910.54
401.885	5611.84
402.329	5726.02
402.774	5535.36
403.218	5381.58
403.663	5224.05
404.107	5409.8
404.551	5488.18
404.995	5083.36
405.44	4958.3
405.884	5087.04
406.328	4980.8
406.772	5008.81
407.216	4596.87
407.66	4490.09
408.104	4330.35
408.547	4104.31
408.991	4019.31
409.435	3911.92
409.879	3883.39
410.322	3854.65
410.766	3743.21
411.209	3586.21
411.653	3479.23
412.096	3440.43
412.54	3477.16
412.983	3479.61
413.426	3509.61
413.869	3532.19
414.312	3481.89
414.756	3381.62
415.199	3250.43
415.642	3174.63
416.085	3194.06
416.527	3186.89
416.97	3253.76
417.413	3095.32
417.856	3072.5
418.298	3047.66
418.741	3031.37
419.184	3032.27
419.626	3165.23
420.069	3166.67
420.511	3188.44
420.953	3127.58
421.396	3108.84
421.838	3042.79
422.28	3121.63
422.722	3149.53
423.164	3215.11
423.606	3178.54
424.048	3197.4
424.49	3054.23
424.932	3061.33
425.374	3038.59
425.816	3097.96
426.258	3147.02
426.699	3159.32
427.141	3077.73
427.582	3094.38
428.024	3060.18
428.465	3041.4
428.907	2978.76
429.348	2969.22
429.789	2987.11
430.231	2938.59
430.672	2998.4
431.113	2959.41
431.554	2964.33
431.995	2959.14
432.436	2916.61
432.877	2908.29
433.318	2902.16
433.759	2925.13
434.2	2951.81
434.64	2946.24
435.081	2982.41
435.522	2854.53
435.962	2783.62
436.403	2750.05
436.843	2821.22
437.284	2791.2
437.724	2743.31
438.164	2777.91
438.604	2736.83
439.045	2649.44
439.485	2562.28
439.925	2538.02
440.365	2506.74
440.805	2499.99
441.245	2487.41
441.685	2411.82
442.125	2411.19
442.564	2438.43
443.004	2389.92
443.444	2395.64
443.883	2411.11
444.323	2417.29
444.762	2446.05
445.202	2497.02
445.641	2552.61
446.081	2561.75
446.52	2598.52
446.959	2588.74
447.398	2544.29
447.837	2540.05
448.276	2519.55
448.716	2559.16
449.154	2593.5
449.593	2529.96
450.032	2521.51
450.471	2483.33
450.91	2489.58
451.349	2481.01
451.787	2472.95
452.226	2508.3
452.664	2503.66
453.103	2504.81
453.541	2509.82
453.98	2499.73
454.418	2523.49
454.856	2483.01
455.295	2477.44
455.733	2492.12
456.171	2507.03
456.609	2504.54
457.047	2503.2
457.485	2532.86
457.923	2531.89
458.361	2498.63
458.798	2510.1
459.236	2508.42
459.674	2535.76
460.111	2555.58
460.549	2538.27
460.987	2538.42
461.424	2542.12
461.862	2536.31
462.299	2508.25
462.736	2513.03
463.173	2527.08
463.611	2494.91
464.048	2490.85
464.485	2516.54
464.922	2506.96
465.359	2508.3
465.796	2463.3
466.233	2457.7
466.67	2443.79
467.106	2446.74
467.543	2441.2
467.98	2427.94
468.416	2396.51
468.853	2404.03
469.29	2356.14
469.726	2347.37
470.162	2302.04
470.599	2313.62
471.035	2311.68
471.471	2279.04
471.907	2291.73
472.344	2292.93
472.78	2307.41
473.216	2346.93
473.652	2321.86
474.088	2323.04
474.523	2318.37
474.959	2348.43
475.395	2331.87
475.831	2317.99
476.266	2331.94
476.702	2326.82
477.138	2302.19
477.573	2294.34
478.008	2283.39
478.444	2288.76
478.879	2300.01
479.314	2303.19
479.75	2292.45
480.185	2296.42
480.62	2308.98
481.055	2309.01
481.49	2309.86
481.925	2324.75
482.36	2334.62
482.795	2371.26
483.229	2405.41
483.664	2423.64
484.099	2408.53
484.534	2420.04
484.968	2420
485.403	2410.09
485.837	2395.94
486.271	2380.11
486.706	2376.36
487.14	2355.03
487.574	2320.54
488.009	2305.23
488.443	2290.05
488.877	2307.56
489.311	2311.75
489.745	2333.07
490.179	2346.69
490.613	2376.66
491.046	2390.76
491.48	2401.47
491.914	2397.7
492.348	2409.2
492.781	2417.53
493.215	2420.28
493.648	2426.63
494.082	2446.05
494.515	2444.68
494.948	2464.96
495.382	2480.13
495.815	2487.57
496.248	2497.13
496.681	2533.08
497.114	2563.95
497.547	2586.44
497.98	2614.32
498.413	2616.18
498.846	2630.78
499.279	2647.55
499.711	2653.11
500.144	2650.53
500.577	2671.13
501.009	2695.59
501.442	2711.61
501.874	2702.86
502.306	2703.53
502.739	2714.45
503.171	2758.95
503.603	2762.56
504.036	2782.5
504.468	2789.03
504.9	2812.13
505.332	2822.7
505.764	2823.19
506.196	2833.57
506.627	2865.41
507.059	2889.73
507.491	2908.36
507.923	2882.8
508.354	2910.93
508.786	2925.87
509.217	2960.51
509.649	2985.13
510.08	3020.46
510.512	3045.69
510.943	3065.63
511.374	3074.03
511.805	3107.96
512.237	3137.68
512.668	3204.96
513.099	3253.43
513.53	3295.67
513.961	3314.63
514.391	3362.46
514.822	3410.18
515.253	3469.7
515.684	3502.62
516.114	3546.91
516.545	3569.67
516.975	3608.3
517.406	3627.34
517.836	3607.51
518.267	3601.84
518.697	3629.92
519.127	3625.69
519.558	3628.59
519.988	3620.01
520.418	3629.29
520.848	3654.53
521.278	3657.31
521.708	3619.85
522.138	3629.12
522.567	3684.45
522.997	3721.77
523.427	3732.01
523.857	3744.08
524.286	3743.59
524.716	3755.58
525.145	3775.75
525.575	3780.7
526.004	3795.2
526.433	3814.87
526.863	3799.24
527.292	3756.87
527.721	3757.57
528.15	3762.86
528.579	3756.43
529.008	3772.73
529.437	3814.57
529.866	3832.36
530.295	3855.37
530.724	3865.42
531.152	3908.83
531.581	3924.81
532.01	3952.62
532.438	3959.91
532.867	3981.35
533.295	4012.2
533.723	4014.37
534.152	4000.03
534.58	3993.01
535.008	3953.67
535.436	3952.14
535.865	3963.05
536.293	3987.51
536.721	4014.35
537.149	4057.77
537.576	4051.28
538.004	4067.28
538.432	4079.17
538.86	4070.83
539.287	4082.37
539.715	4106.77
540.143	4111.67
540.57	4101.29
540.998	4095.32
541.425	4044.47
541.852	4003.98
542.28	4006.1
542.707	3978.62
543.134	3955.18
543.561	3949.04
543.988	3936.55
544.415	3939.77
544.842	3930.67
545.269	3918.14
545.696	3921.15
546.123	3954.74
546.549	3935.63
546.976	3910.99
547.403	3912.82
547.829	3919.54
548.256	3928.31
548.682	3923.32
549.108	3910.55
549.535	3914.03
549.961	3921.97
550.387	3897.39
550.813	3886.28
551.24	3904.2
551.666	3910.41
552.092	3892.75
552.518	3881.18
552.943	3870.86
553.369	3889.04
553.795	3902.1
554.221	3904.35
554.646	3899.23
555.072	3922.74
555.498	3935.61
555.923	3952.5
556.349	3980.88
556.774	3996.01
557.199	3996.58
557.625	4011.2
558.05	3999.74
558.475	4024.23
558.9	4023.88
559.325	4007.69
559.75	3996.05
560.175	3985.21
560.6	3977.11
561.025	3978.84
561.449	3987.04
561.874	4003.36
562.299	4011.27
562.723	4027.73
563.148	4006.09
563.572	4015.74
563.997	4039.32
564.421	4053.76
564.846	4056.06
565.27	4062.02
565.694	4056.64
566.118	4082.74
566.542	4098.11
566.966	4085.92
567.39	4076.5
567.814	4052.92
568.238	4052.45
568.662	4068.12
569.086	4077.47
569.509	4098.32
569.933	4070.32
570.357	4063.78
570.78	4025.24
571.204	4004.08
571.627	3990.26
572.05	3997.11
572.474	4006.64
572.897	3991.13
573.32	3982.68
573.743	3972.23
574.166	3940.42
574.589	3951.63
575.012	3943.09
575.435	3949.96
575.858	3940.28
576.281	3924.94
576.704	3900.78
577.126	3886.74
577.549	3873.81
577.972	3864.29
578.394	3850.63
578.817	3843.97
579.239	3814.55
579.661	3794.22
580.084	3770.17
580.506	3753.32
580.928	3761.55
581.35	3750.54
581.772	3754.5
582.194	3735.42
582.616	3715.81
583.038	3696.2
583.46	3685.12
583.882	3687.06
584.303	3711.2
584.725	3713.22
585.147	3716.83
585.568	3744.83
585.99	3772.35
586.411	3784.89
586.833	3820.52
587.254	3826.68
587.675	3864.54
588.096	3899.91
588.518	3894.04
588.939	3857.99
589.36	3858.72
589.781	3853.71
590.202	3789.63
590.623	3783.93
591.043	3796.93
591.464	3779.59
591.885	3781.29
592.305	3777.13
592.726	3754.06
593.147	3765.83
593.567	3760.21
593.987	3746.97
594.408	3738.31
594.828	3745.24
595.248	3734.21
595.669	3687.34
596.089	3673.56
596.509	3663.16
596.929	3630.65
597.349	3631.83
597.769	3606.1
598.189	3590.41
598.608	3593.59
599.028	3597.6
599.448	3597.71
599.867	3564.62
600.287	3556.11
600.706	3542.95
601.126	3516.11
601.545	3512.19
601.965	3510.26
602.384	3497.7
602.803	3505.76
603.222	3494.61
603.641	3481.01
604.061	3471.5
604.48	3464.7
604.898	3488.05
605.317	3506.15
605.736	3516.78
606.155	3512.99
606.574	3494.31
606.992	3512.36
607.411	3504.8
607.829	3491.42
608.248	3490.21
608.666	3492.45
609.085	3496.78
609.503	3481.35
609.921	3470.96
610.339	3482.99
610.758	3489.49
611.176	3483.92
611.594	3466.63
612.012	3465.94
612.43	3479
612.847	3502.57
613.265	3508.27
613.683	3526.41
614.101	3537.52
614.518	3535.09
614.936	3515.46
615.353	3484.94
615.771	3485.57
616.188	3495.53
616.606	3493.42
617.023	3483.81
617.44	3454.59
617.857	3448.07
618.274	3434.2
618.691	3424.51
619.108	3407.8
619.525	3399.83
619.942	3421.02
620.359	3431.85
620.776	3422.68
621.192	3413.67
621.609	3411.18
622.026	3427.95
622.442	3444.92
622.859	3456.73
623.275	3439.62
623.691	3456.62
624.108	3486.87
624.524	3529.55
624.94	3531.41
625.356	3560.01
625.772	3599.89
626.188	3633.8
626.604	3639.82
627.02	3630.72
627.436	3626.04
627.852	3643.49
628.268	3676.97
628.683	3655.06
629.099	3633.38
629.514	3624.28
629.93	3637.36
630.345	3651.39
630.761	3645.29
631.176	3660.2
631.591	3645.04
632.007	3633.66
632.422	3638.48
632.837	3614.79
633.252	3613.92
633.667	3594
634.082	3576.15
634.497	3548.29
634.911	3501.18
635.326	3501.41
635.741	3464.84
636.155	3451.9
636.57	3465.39
636.984	3475.68
637.399	3489.51
637.813	3503.21
638.228	3513.6
638.642	3540.44
639.056	3524.98
639.47	3542.37
639.884	3531.31
640.298	3528.86
640.712	3539.41
641.126	3518.51
641.54	3510.89
641.954	3517.75
642.368	3497.2
642.781	3482.34
643.195	3443.62
643.609	3459.3
644.022	3454.95
644.436	3457.13
644.849	3432.39
645.262	3409.25
645.676	3428.37
646.089	3422.58
646.502	3379.81
646.915	3372.95
647.328	3335.04
647.741	3339.57
648.154	3308.29
648.567	3302.16
648.98	3265.58
649.393	3275.32
649.805	3273.1
650.218	3257.23
650.631	3212
651.043	3201.84
651.456	3188.03
651.868	3196.16
652.28	3255.31
652.693	3298.2
653.105	3316.52
653.517	3338.9
653.929	3330.63
654.341	3341.8
654.753	3299.46
655.165	3322.25
655.577	3317.65
655.989	3310.59
656.401	3296.6
656.813	3185.7
657.224	3137.41
657.636	3069.05
658.047	3034.07
658.459	2993.17
658.87	2987.91
659.282	2969.44
659.693	2914.08
660.104	2878.45
660.515	2845.54
660.926	2851.04
661.338	2855.41
661.749	2845.15
662.159	2821.27
662.57	2819.27
662.981	2814.14
663.392	2794.83
663.803	2814.22
664.213	2814.47
664.624	2807.87
665.035	2825.18
665.445	2781.5
665.855	2759.03
666.266	2734.09
666.676	2730.27
667.086	2701.36
667.497	2698.53
667.907	2678.74
668.317	2647.63
668.727	2625.07
669.137	2628.01
669.547	2616.38
669.956	2624.9
670.366	2628.66
670.776	2630.17
671.186	2640.74
671.595	2645.84
672.005	2654.97
672.414	2643.21
672.824	2628.38
673.233	2648.34
673.642	2649.27
674.052	2649.79
674.461	2645.4
674.87	2656.08
675.279	2637.26
675.688	2637.98
676.097	2631.48
676.506	2611.7
676.915	2655.77
677.323	2659.16
677.732	2645.37
678.141	2635.08
678.549	2595.26
678.958	2589.44
679.366	2581.05
679.775	2594.2
680.183	2612.24
680.592	2626.59
681	2636.21
681.408	2603.72
681.816	2619.86
682.224	2638.23
682.632	2653.83
683.04	2735.7
683.448	2791.6
683.856	2854.13
684.264	2920.42
684.671	2981.64
685.079	3059.65
685.487	3148.57
685.894	3285.47
686.302	3386.13
686.709	3454.18
687.116	3541.73
687.524	3596.27
687.931	3639.09
688.338	3677.68
688.745	3712.6
689.152	3755.49
689.559	3820.67
689.966	3871.74
690.373	3862.3
690.78	3900.06
691.187	3990.02
691.593	4035.46
692	4066.18
692.407	4140.27
692.813	4239.86
693.22	4303.15
693.626	4372.35
694.032	4409
694.439	4508.61
694.845	4573.01
695.251	4667.98
695.657	4739.82
696.063	4885.47
696.469	4973.58
696.875	5047.2
697.281	5061.5
697.687	5090.28
698.093	5101.79
698.498	5184.01
698.904	5230.56
699.31	5332.71
699.715	5382.61
700.12	5496.43
700.526	5471.13
700.931	5543.14
701.337	5585.29
701.742	5596.93
702.147	5702.3
702.552	5709.19
702.957	5772.5
703.362	5768.06
703.767	5780.6
704.172	5815.59
704.577	5697.36
704.981	5745.5
705.386	5737.2
705.791	5688.2
706.195	5779.84
706.6	5760.22
707.004	5861.66
707.408	5778.56
707.813	5790.12
708.217	5738.81
708.621	5713.49
709.025	5843.39
709.43	5813.72
709.834	5880.29
710.237	5965.68
710.641	5912.74
711.045	5917.85
711.449	5877.56
711.853	5892.22
712.256	5930.68
712.66	5960.51
713.064	6043.7
713.467	6070.67
713.87	6199.35
714.274	6219.05
714.677	6327.72
715.08	6508.66
715.484	6693.97
715.887	6922.18
716.29	7145.98
716.693	7371.6
717.096	7638.11
717.499	7756.03
717.901	7738.03
718.304	7740.65
718.707	7759.63
719.109	7617.26
719.512	7574.2
719.915	7392.82
720.317	7318.76
720.719	7376.8
721.122	7337.6
721.524	7268.49
721.926	7207.9
722.328	7334
722.731	7299.89
723.133	7313.87
723.535	7546.21
723.937	7545.09
724.338	7587.88
724.74	7620.58
725.142	7492.32
725.544	7473.87
725.945	7489.95
726.347	7473.5
726.748	7451.66
727.15	7459.91
727.551	7398.22
727.952	7350.39
728.354	7302.76
728.755	7296.08
729.156	7240.12
729.557	7251.19
729.958	7094.49
730.359	7032.09
730.76	7014.1
731.161	6947.01
731.562	6926.96
731.962	6940.81
732.363	6865.8
732.763	6788.21
733.164	6843.33
733.564	6755.46
733.965	6624.72
734.365	6574.38
734.766	6610.57
735.166	6553.76
735.566	6470.77
735.966	6425.06
736.366	6411.59
736.766	6324.89
737.166	6362.11
737.566	6303.29
737.966	6265.21
738.365	6314.61
738.765	6303.24
739.165	6198.8
739.564	6158.97
739.964	6218.04
740.363	6157.83
740.763	6152.88
741.162	6131.72
741.561	6087.87
741.96	6025.3
742.36	6048.38
742.759	6050.69
743.158	6102.47
743.557	6119.26
743.955	6171.23
744.354	6108.5
744.753	6183.62
745.152	6126.04
745.55	6197.21
745.949	6185.17
746.348	6181.31
746.746	6201.58
747.144	6142.71
747.543	6105.61
747.941	6165.64
748.339	6065.98
748.737	6051.58
749.136	6034.12
749.534	6113.21
749.932	6072.15
750.33	6099.72
750.727	6170.51
751.125	6133.46
751.523	6109.85
751.921	6163.39
752.318	6116.24
752.716	6191.24
753.113	6203.16
753.511	6230.98
753.908	6229.14
754.305	6201
754.703	6273.5
755.1	6345.47
755.497	6416.33
755.894	6654.94
756.291	6860.21
756.688	7238.77
757.085	7728.52
757.482	8417.45
757.878	9148.45
758.275	9782.49
758.672	10691.37
759.068	11403.15
759.465	12437.1
759.861	13781.21
760.258	15329.74
760.654	16072.83
761.05	15865.2
761.447	15135.38
761.843	14123.04
762.239	13089.56
762.635	12659.09
763.031	12234.31
763.427	11594.64
763.822	10923.99
764.218	10268.07
764.614	9390.4
765.01	8823.44
765.405	8472.43
765.801	8210.78
766.196	7855.74
766.592	7669.65
766.987	7321.36
767.382	7091.81
767.778	7005.16
768.173	6867.24
768.568	6790.66
768.963	6646.93
769.358	6679.36
769.753	6625.89
770.148	6527.51
770.542	6525.33
770.937	6489.14
771.332	6600.87
771.726	6624.61
772.121	6544.95
772.515	6610.93
772.91	6591.98
773.304	6679.83
773.699	6593.65
774.093	6661.85
774.487	6724.86
774.881	6778.52
775.275	6772.79
775.669	6720.7
776.063	6771.38
776.457	6812.6
776.851	6717.53
777.245	6705.22
777.638	6742.93
778.032	6883.98
778.425	6831.99
778.819	6879.63
779.212	6823.27
779.606	6766.52
779.999	6789.43
780.392	6768.16
780.786	6868.69
781.179	6888.73
781.572	6936.43
781.965	6948.36
782.358	6871.06
782.751	6940.61
783.143	6876.69
783.536	6962.85
783.929	7010.8
784.322	7143.04
784.714	7171.21
785.107	7163.7
785.499	7246.69
785.891	7213.46
786.284	7182.73
786.676	7347.73
787.068	7310.05
787.46	7362.82
787.852	7376.58
788.245	7473.32
788.636	7499.18
789.028	7571.94
789.42	7605.55
789.812	7608.64
790.204	7714.79
790.595	7825.77
790.987	7582.78
791.378	7606.1
791.77	7758.96
792.161	7919.29
792.553	7981.6
792.944	7842.22
793.335	7753.31
793.726	7835.61
794.117	7932.51
794.508	8091.34
794.899	8048.26
795.29	8211.37
795.681	8274.04
796.072	8099.86
796.463	7866.19
796.853	7871.42
797.244	8050.76
797.634	8087.31
798.025	8080.01
798.415	8086.42
798.806	8187.18
799.196	8278.81
799.586	8333.73
799.976	8276.99
800.366	8533.78
800.756	8809.65
801.146	8751.2
801.536	8777.24
801.926	8852.48
802.316	8873.61
802.706	8951.77
803.095	8798.1
803.485	8914.15
803.874	8950.13
804.264	9249.85
804.653	9214.92
805.043	9380.63
805.432	9502.61
805.821	9493.38
806.21	9511.23
806.599	9638.75
806.988	9684.85
807.377	9799.28
807.766	9931.16
808.155	10244.39
808.544	9923.54
808.933	9927.89
809.321	9886.28
809.71	10213.69
810.098	10383.7
810.487	10896.63
810.875	11424.65
811.264	11424.52
811.652	11724.56
812.04	11866.14
812.428	12023.58
812.816	12857.21
813.204	13291.08
813.592	13881.11
813.98	14215.94
814.368	14083.12
814.756	14585.9
815.144	14470.34
815.531	14966.96
815.919	14875.24
816.306	15199.55
816.694	14849.98
817.081	14902.55
817.469	15291.84
817.856	15293.14
818.243	15599.88
818.63	16040.04
819.017	15575.86
819.404	15643.93
819.791	16048.92
820.178	16709.2
820.565	16975.57
820.952	17992.51
821.339	17440.07
821.725	17631.92
822.112	16800.23
822.498	16746.96
822.885	16873.65
823.271	16762.58
823.657	17221.1
824.044	17240.25
824.43	17327.76
824.816	17286.35
825.202	16803.92
825.588	17919.65
825.974	17921.71
826.36	18475.37
826.746	18495.47
827.132	18876.41
827.517	18840.92
827.903	17964.61
828.289	17994.6
828.674	17130.24
829.06	17022.09
829.445	17440.69
829.83	17817.51
830.216	18331.64
830.601	18719.74
830.986	18262.54
831.371	18103.27
831.756	18695.51
832.141	18227.36
832.526	18217.11
832.911	18521.32
833.295	18380.26
833.68	18895.93
834.065	18219.13
834.449	17222.95
834.834	17140.28
835.218	17136.92
835.603	17505.27
835.987	17276.65
836.371	18173.24
836.755	18051.59
837.139	18476.46
837.524	18740.08
837.908	18543.13
838.291	18605.66
838.675	18690.5
839.059	18911.78
839.443	18891.16
839.827	18634.71
840.21	19145.14
840.594	18980.33
840.977	19196.72
841.361	19172.87
841.744	19572.08
842.127	19396.82
842.511	19652.31
842.894	20278.13
843.277	20684.15
843.66	21272.73
844.043	21356.61
844.426	20485.68
844.809	20147.56
845.191	20181.07
845.574	19682.88
845.957	19281.15
846.339	19155.3
846.722	18590.53
847.104	18660.46
847.487	18471.33
847.869	18476.59
848.252	18777.92
848.634	19123.66
849.016	19402.5
849.398	19536.46
849.78	20443.45
850.162	20454.84
850.544	20894.96
850.926	21563.16
851.307	21463.32
851.689	21757.35
852.071	22237.85
852.452	22571.21
852.834	22542.05
853.215	22962.38
853.597	23118.52
853.978	23424.44
854.359	23907.73
854.741	22838.31
855.122	22730.33
855.503	22416.13
855.884	22565.52
856.265	22501.73
856.646	22641.78
857.026	22236.53
857.407	22169.44
857.788	22334.65
858.169	22649.79
858.549	21732.92
858.93	22404.03
859.31	22455.79
859.69	22676.94
860.071	22236.37
860.451	22003.87
860.831	21191.1
861.211	22415.12
861.591	23000.25
861.971	22973.51
862.351	23172.05
862.731	23573.59
863.111	23844.56
863.491	24191.24
863.87	25117.4
864.25	25473.37
864.629	25025.8
865.009	25565.21
865.388	26467.33
865.768	28352.42
866.147	28225.87
866.526	26656.06
866.905	26970.16
867.284	28484.93
867.663	27028.76
868.042	25907.32
868.421	25828.59
868.8	26255.71
869.179	26513.56
869.558	24971.76
869.936	23002.18
870.315	23409.45
870.693	23968.86
871.072	25839.28
871.45	24614.92
871.828	24931.4
872.207	26204.64
872.585	25792.19
872.963	26494.25
873.341	25567.25
873.719	25254.04
874.097	24945.42
874.475	25416.46
874.853	26009.32
875.23	24913.78
875.608	25938.95
875.986	28050.37
876.363	26810.69
876.741	27631.99
877.118	26929.22
877.495	28255.68
877.873	28728.37
878.25	30237.02
878.627	28988.52
879.004	29369.51
879.381	29234.65
879.758	28462.04
880.135	26496.61
880.512	28019.44
880.889	27264.65
881.265	26973.06
881.642	26737.4
882.019	27172.64
882.395	26622.65
882.772	27676.37
883.148	26480.45
883.524	26370.6
883.901	26217.67
884.277	26603.99
884.653	26436.04
885.029	27197.51
885.405	30121.54
885.781	29884.45
886.157	28659.83
886.532	28994.37
886.908	28980.88
887.284	32233.98
887.659	33279.25
888.035	34318.85
888.411	35199.91
888.786	35650.48
889.161	36879.01
889.537	36198.06
889.912	37356.46
890.287	37309.33
890.662	38279.87
891.037	37585.97
891.412	35043.38
891.787	34698.02
892.162	33481.63
892.536	34265.47
892.911	32979.17
893.286	32280.96
893.66	30967.86
894.035	31741.23
894.409	34556.42
894.784	33137.11
895.158	33679.51
895.532	35645.05
895.906	36599.53
896.281	37435.75
896.655	36831.96
897.029	42080.19
897.402	43801.12
897.776	48739.93
898.15	48573.83
898.524	48053.01
898.898	48698.76
899.271	54493.97
899.645	47198.92
900.018	45328.1
900.392	47022.21
900.765	47381.4
901.138	43840.91
901.511	43197.4
901.884	39671.54
902.258	36610.75
902.631	37822.8
903.003	43522.09
903.376	39284.37
903.749	44050.53
904.122	47160.31
904.495	51901.93
904.867	52560.65
905.24	45624.94
905.612	42445.57
905.985	43379.16
906.357	45330.33
906.729	43250.83
907.102	36940.91
907.474	35502.98
907.846	35705.49
908.218	35215.43
908.59	31105.77
908.962	30073.7
909.334	32389.49
909.705	34019.18
910.077	33023.78
910.449	34358.56
910.82	35315.44
911.192	38865.64
911.563	40394.01
911.935	43274.74
912.306	43334.9
912.677	44765.93
913.048	44322.59
913.419	48062.27
913.79	48311.98
914.161	51800.54
914.532	49507.07
914.903	45485.77
915.274	43158.5
915.645	42513.09
916.015	37385.15
916.386	35636.72
916.756	37922.14
917.127	39100.35
917.497	34928.86
917.868	38024.85
918.238	36134.13
918.608	37162.36
918.978	37942.4
919.348	40199.83
919.718	41508.05
920.088	39970.89
920.458	41531.87
920.828	43678.51
921.198	41418.67
921.567	44212.13
921.937	34248.77
922.306	34573.67
922.676	37279.3
923.045	31085.4
923.415	29524.19
923.784	26879.25
924.153	27635.59
924.522	27605.36
924.891	25952.97
925.26	27777.84
925.629	27125.43
925.998	31165.35
926.367	30415.09
926.736	28944.16
927.104	34460.02
927.473	37039.2
927.842	44737.61
928.21	44303.63
928.578	46550.9
928.947	44011.47
929.315	44285.68
929.683	51915.6
930.051	52282.82
930.42	60706.9
930.788	51921.92
931.156	51510.29
931.523	48246.85
931.891	44587.73
932.259	42801.26
932.627	49581.46
932.994	70143.27
933.362	57969.23
933.729	50343.35
934.097	48220.39
934.464	40793.25
934.831	47083.57
935.199	46435.61
935.566	45045.57
935.933	45614.4
936.3	55282.21
936.667	43036.22
937.034	38805.43
937.401	38387.78
937.767	33148.33
938.134	29510.95
938.501	41637.04
938.867	44342.65
939.234	75045.08
939.6	64074.67
939.967	70710.72
940.333	47351.56
940.699	40347.08
941.065	32422.7
941.431	42476.74
941.798	40937.08
942.163	53811.62
942.529	33616.18
942.895	31001.93
943.261	20036.51
943.627	26298.5
943.992	22999.21
944.358	23010.45
944.723	23083.73
945.089	22473.76
945.454	20781.62
945.82	22219.58
946.185	21335.52
946.55	24728.01
946.915	22176.81
947.28	26028.47
947.645	22909.71
948.01	21142.71
948.375	22064.02
948.74	26463.26
949.104	30895.08
949.469	44618.19
949.834	78824.13
950.198	74726.87
950.562	44768.78
950.927	37273.33
951.291	44824.9
951.655	38201.81
952.02	35904.66
952.384	27133.08
952.748	23610.59
953.112	23006.25
953.476	20017.02
953.839	18501.06
954.203	18311.78
954.567	22910.12
954.931	36037.14
955.294	30817.59
955.658	30985.73
956.021	52603.15
956.385	89291.05
956.748	131710.2
957.111	204415.96
957.474	229257.21
957.837	258269.57
958.2	195250.53
958.563	70219.08
958.926	47488.66
959.289	72051.73
959.652	80442.15
960.015	60407.02
960.377	86627.5
960.74	98918.62
961.102	170729.36
961.465	183301.39
961.827	98150.71
962.189	188392.84
962.552	130570.48
962.914	104692.75
963.276	67975.35
963.638	56157.85
964	55651.83
964.362	37574.57
964.724	36305.57
965.085	25896.88
965.447	21235.87
965.809	24205.16
966.17	24245.5
966.532	26244.37
966.893	24102.62
967.255	21938.66
967.616	25907.53
967.977	20744.76
968.338	22683.16
968.699	18638.66
969.061	18645.12
969.421	18761.85
969.782	21053.08
970.143	17778.27
970.504	18414.09
970.865	20914.3
971.225	21355.61
971.586	20905.26
971.946	29786.69
972.307	25853.38
972.667	33806.18
973.027	34787.72
973.388	42218.56
973.748	28707.22
974.108	31270.82
974.468	42253.1
974.828	32545.91
975.188	25056.59
975.548	22997.11
975.907	19311.86
976.267	21657.42
976.627	18206.12
976.986	18871.66
977.346	17977.03
977.705	17295.61
978.064	15756.38
978.424	13128.53
978.783	13601.97
979.142	15528.54
979.501	14859.84
979.86	15715.95
980.219	15138.94
980.578	19513.33
980.937	21849.12
981.296	19448.46
981.654	20004.89
982.013	31141.11
982.371	40408.35
982.73	37701.41
983.088	42734.12
983.447	45647.4
983.805	65167.37
984.163	136316.53
984.521	151170.5
984.879	221654.51
985.237	-360968.52
985.595	347742.17
985.953	86403.39
986.311	49909.24
986.669	29013.31
987.026	25029.92
987.384	33693.59
987.741	34873.16
988.099	24907.16
988.456	19864.9
988.814	18603.24
989.171	16188.66
989.528	16001.19
989.885	16892.29
990.242	13381.1
990.599	16651.77
990.956	13613.05
991.313	9510.87
991.67	7807.65
992.027	8272.85
992.383	7356.33
992.74	6451.26
993.096	6765.63
993.453	7015.24
993.809	7270.68
994.165	9672.63
994.522	8887.61
994.878	9798.07
995.234	12314.81
995.59	12137.09
995.946	11492.94
996.302	13123.91
996.658	15190.76
997.013	16747.55
997.369	19848.17
997.725	25396.31
998.08	16476.49
998.436	25358.97
998.791	34977.77
999.147	34904.28
999.502	38162.26
999.857	27753.82
1000.212	45299.4
1000.567	64515.13
1000.922	37227.84
1001.277	23636.27
1001.632	17548.21
1001.987	22616.67
1002.342	16223.75
1002.696	12997.08
1003.051	10360.67
1003.406	12527.92
1003.76	12488.14
1004.114	12300.02
1004.469	10341.72
1004.823	8569.1
1005.177	9260.56
1005.531	7343.93
1005.885	6511.34
1006.239	7351.5
1006.593	9217.67
1006.947	12347.61
1007.301	9261.74
1007.655	10099.73
1008.008	7405.66
1008.362	8326.78
1008.715	11886.08
1009.069	10814.76
1009.422	16238.17
1009.776	32569.24
1010.129	21568.6
1010.482	18006.78
1010.835	15248.89
1011.188	31762.97
1011.541	29909.65
1011.894	-182825.01
1012.247	535833.71
1012.6	36420.9
1012.952	22946.19
1013.305	11819.15
1013.657	8533.9
1014.01	8104.15
1014.362	6694
1014.715	5925.3
1015.067	5162.18
1015.419	5042.67
1015.771	4475.31
1016.123	3982.87
1016.475	4102.32
1016.827	4376.83
1017.179	4715.13
1017.531	4749.46
1017.883	4840.15
1018.234	4656.91
1018.586	5881.55
1018.938	6232.64
1019.289	8590.44
1019.64	9840.43
1019.992	9185.39
1020.343	8436.56
1020.694	6658.37
1021.045	5884.8
1021.396	6716.41
1021.747	7216.7
1022.098	8668.83
1022.449	6322.07
1022.8	5888.18
1023.151	4108.95
1023.501	3637.22
1023.852	3958.95
1024.202	4086.87
1024.553	4498.99
1024.903	4421.97
1025.253	3792.45
1025.604	3415.59
1025.954	4260.41
1026.304	5188.36
1026.654	6073.26
1027.004	8884.46
1027.354	14304.75
1027.703	13465.03
1028.053	17672.65
1028.403	25757.87
1028.753	37423.96
1029.102	50892
1029.452	262453.29
1029.801	11326.1
1030.15	7312.18
1030.499	6157.25
897.758	2660.01
901.051	2618.55
904.343	2652.6
907.636	2655.05
910.928	2720.23
914.22	2626.33
917.511	2633.05
920.803	2697.4
924.094	2717.2
927.384	2696.33
930.675	2661.46
933.965	2614.11
937.255	2626.26
940.544	2594.23
943.834	2534.79
947.123	2477.6
950.411	2577.09
953.7	2550.61
956.988	2516.16
960.276	2459.12
963.563	2541.97
966.851	2539.44
970.138	2594.92
973.424	2584.99
976.711	2535.59
979.997	2669.05
983.283	2704.7
986.568	2610.16
989.853	2629.31
993.138	2655.31
996.423	2737.22
999.708	2672.94
1002.992	2737.74
1006.275	2576.98
1009.559	2621.9
1012.842	2738.5
1016.125	2668.75
1019.408	2648.14
1022.69	2735.28
1025.972	2753.38
1029.254	2729.94
1032.536	2661.24
1035.817	2688.15
1039.098	2632.44
1042.379	2776.12
1045.659	2775.72
1048.939	2707.59
1052.219	2728.78
1055.498	2740.87
1058.778	2726.35
1062.057	2709.62
1065.335	2733.82
1068.614	2752.27
1071.892	2737.12
1075.17	2812.14
1078.447	2803.53
1081.724	2792.8
1085.001	2830.33
1088.278	2805.84
1091.554	2818.75
1094.83	2815.63
1098.106	2844.72
1101.382	2889.36
1104.657	2892.92
1107.932	2884.75
1111.206	2849.37
1114.481	2807.16
1117.755	2810.66
1121.029	2791.94
1124.302	2844.5
1127.575	2795.6
1130.848	2782.78
1134.121	2744.76
1137.393	2694.05
1140.665	2762.56
1143.937	2737.17
1147.208	2698.24
1150.48	2737.48
1153.75	2722.72
1157.021	2754.24
1160.291	2724.6
1163.561	2772.18
1166.831	2763.13
1170.101	2795.09
1173.37	2770.28
1176.639	2712.02
1179.907	2773.42
1183.176	2777.71
1186.444	2785.14
1189.711	2817.26
1192.979	2828.34
1196.246	2782.42
1199.513	2800.85
1202.78	2795.78
1206.046	2805.36
1209.312	2828.4
1212.578	2854.04
1215.843	2805.75
1219.108	2783.26
1222.373	2805.24
1225.638	2766.64
1228.902	2750.94
1232.166	2714.36
1235.43	2696.44
1238.693	2721.66
1241.956	2715.91
1245.219	2757
1248.482	2747.85
1251.744	2744.53
1255.006	2889.68
1258.268	2846.73
1261.529	2790.07
1264.79	2795.81
1268.051	2907.62
1271.312	2923.19
1274.572	2881.68
1277.832	2875.89
1281.092	2867.12
1284.351	2841.19
1287.61	2818.09
1290.869	2734.91
1294.128	2711.61
1297.386	2802.54
1300.644	2789.88
1303.902	2799.62
1307.159	2657.9
1310.416	2716.59
1313.673	2737.77
1316.93	2721.99
1320.186	2768
1323.442	2812.95
1326.697	2800.84
1329.953	2790.34
1333.208	2811.57
1336.463	2792.65
1339.717	2729.19
1342.972	2862.69
1346.226	2841.13
1349.479	2772.94
1352.733	2742.19
1355.986	2765.46
1359.238	2740.22
1362.491	2743.09
1365.743	2746.84
1368.995	2741.32
1372.247	2755.91
1375.498	2781.49
1378.749	2795.36
1382	2747.62
1385.251	2801.42
1388.501	2765
1391.751	2747.22
1395	2716.74
1398.25	2749.31
1401.499	2755.25
1404.748	2682.22
1407.996	2672.17
1411.244	2654.52
1414.492	2637.57
1417.74	2615.51
1420.987	2625.68
1424.234	2679.33
1427.481	2660.25
1430.728	2721.52
1433.974	2695.93
1437.22	2710.3
1440.465	2712.88
1443.711	2675.34
1446.956	2712.63
1450.201	2698.52
1453.445	2744.8
1456.689	2722.42
1459.933	2737.45
1463.177	2770.32
1466.42	2741.53
1469.663	2721.8
1472.906	2716.49
1476.148	2792.26
1479.391	2753.76
1482.633	2723.77
1485.874	2734.13
1489.115	2720.3
1492.356	2730.14
1495.597	2703.68
1498.838	2707.15
1502.078	2675.29
1505.318	2624.36
1508.557	2667.99
1511.797	2645.32
1515.036	2714.64
1518.274	2706.63
1521.513	2678.89
1524.751	2701.82
1527.989	2714.66
1531.227	2727.54
1534.464	2722.31
1537.701	2742.71
1540.938	2763.42
1544.174	2714.92
1547.41	2712.72
1550.646	2754.78
1553.882	2791.14
1557.117	2845.84
1560.352	2860.6
1563.587	2815.69
1566.821	2776.93
1570.055	2811.95
1573.289	2783.53
1576.523	2860.85
1579.756	2870.07
1582.989	2888.57
1586.222	2849.34
1589.454	2883.04
1592.686	2857.26
1595.918	2884.16
1599.15	2874.63
1602.381	2949.52
1605.612	2904.54
1608.843	3005.13
1612.073	2914.3
1615.303	2896.92
1618.533	2890.03
1621.762	2888.73
1624.992	2883.31
1628.221	2869.54
1631.449	2854.43
1634.678	2909.92
1637.906	2865.05
1641.134	2906.04
1644.361	2858.53
1647.588	2847.65
1650.815	2865.74
1654.042	2841.96
1657.269	2875.54
1660.495	2824.1
1663.72	2846.01
1666.946	2806.96
1670.171	2749.72
1673.396	2725.61
1676.621	2711.18
1679.845	2732.13
1683.069	2753.95
1686.293	2795.67
1689.517	2767.52
1692.74	2696.13
1695.963	2727.61
1699.185	2743.8
1702.408	2721.21
1705.63	2761.88
1708.852	2772.27
1712.073	2746.3
1715.294	2730.81
1718.515	2789.99
1721.736	2737.83
1724.956	2731.46
1728.176	2757.57
1731.396	2777.66
1734.616	2765.33
1737.835	2791.97
1741.054	2773.77
1744.272	2767.05
1747.491	2796.62
1750.709	2852.29
1753.927	2757.04
1757.144	2800.61
1760.361	2841.6
1763.578	2836.5
1766.795	2777.64
1770.011	2781.94
1773.227	2823.62
1776.443	2858.1
1779.658	2902
1782.874	2845.58
1786.089	2823.31
1789.303	2825.2
1792.518	2834.1
1795.732	2819.54
1798.945	2827.44
1802.159	2878.86
1805.372	2781.72
1808.585	2764.87
1811.797	2766.7
1815.01	2814.98
1818.222	2815.45
1821.434	2787.12
1824.645	2846.7
1827.856	2827.97
1831.067	2865.98
1834.278	2823.01
1837.488	2804.65
1840.698	2956.32
1843.908	2879.14
1847.117	2842.26
1850.326	2723.28
1853.535	2827.93
1856.744	2852.69
1859.952	2764.77
1863.16	2768.12
1866.368	2789.78
1869.575	2892.48
1872.782	2778.78
1875.989	2716.05
1879.196	2800.34
1882.402	2791.18
1885.608	2831.54
1888.814	2735.21
1892.019	2627.89
1895.224	2681.52
1898.429	2662.3
1901.634	2640.44
1904.838	2616.3
1908.042	2662.36
1911.246	2671.28
1914.449	2602
1917.652	2594.08
1920.855	2580.54
1924.058	2628.31
1927.26	2664.36
1930.462	2690.98
1933.664	2718.41
1936.865	2655.43
1940.066	2662.72
1943.267	2610.66
1946.467	2624.48
1949.668	2650.69
1952.868	2721.4
1956.067	2696.73
1959.267	2628.77
1962.466	2657.03
1965.665	2641.53
1968.863	2632.23
1972.061	2650.5
1975.259	2647.12
1978.457	2728.19
1981.654	2686.29
1984.852	2688.61
1988.048	2621.46
1991.245	2624.04
1994.441	2708.88
1997.637	2696.28
2000.833	2679.72
2004.028	2721.08
2007.223	2774.99
2010.418	2751.32
2013.613	2711.67
2016.807	2680.57
2020.001	2689.69
2023.194	2732.95
2026.388	2711.88
2029.581	2657.36
2032.774	2703.48
2035.966	2707.56
2039.158	2638.86
2042.35	2664.6
2045.542	2595.42
2048.733	2695.69
2051.924	2721.16
2055.115	2746.67
2058.306	2690.51
2061.496	2749.54
2064.686	2812.02
2067.875	2725.57
2071.065	2742.16
2074.254	2769.29
2077.442	2719.56
2080.631	2809.84
2083.819	2699.48
2087.007	2682.93
2090.195	2654.39
2093.382	2687.78
2096.569	2666.41
2099.756	2620.51
2102.942	2646.15
2106.128	2650.29
2109.314	2642.47
2112.5	2604.84
2115.685	2581.99
2118.87	2592.69
2122.055	2655.77
2125.239	2621.88
2128.424	2598.78
2131.608	2701.92
2134.791	2684.43
2137.974	2743.65
2141.157	2727.88
2144.34	2677.4
2147.523	2695.55
2150.705	2708.03
2153.887	2689.42
2157.068	2637.76
2160.25	2640.71
2163.431	2675.94
2166.611	2623.93
2169.792	2640.17
2172.972	2532.33
2176.152	2612.05
2179.331	2649.26
2182.511	2627.67
2185.69	2656.17
2188.868	2649.22
2192.047	2705.21
2195.225	2693
2198.403	2645.11
2201.58	2637.54
2204.758	2632.12
2207.935	2716.31
2211.111	2603.48
2214.288	2586.64
2217.464	2626.25
2220.64	2598.39
2223.815	2654.91
2226.991	2574.24
2230.166	2595.93
2233.34	2624.84
2236.515	2648.57
2239.689	2723.71
2242.863	2666.86
2246.036	2722
2249.209	2722.35
2252.382	2760.18
2255.555	2746.2
2258.727	2681.31
2261.9	2724
2265.071	2714.54
2268.243	2716.99
2271.414	2644.4
2274.585	2604.48
2277.756	2671.01
2280.926	2629.92
2284.096	2670.31
2287.266	2573.37
2290.436	2632.21
2293.605	2659.79
2296.774	2687.82
2299.942	2708.33
2303.111	2726.43
2306.279	2776.72
2309.447	2763.17
2312.614	2740.78
2315.781	2760.05
2318.948	2729.26
2322.115	2769.55
2325.281	2668.15
2328.447	2691.17
2331.613	2665.98
2334.779	2639.69
2337.944	2640.3
2341.109	2639.2
2344.274	2621.28
2347.438	2586.53
2350.602	2610.36
2353.766	2628.73
2356.929	2614.2
2360.092	2656.72
2363.255	2608.46
2366.418	2540.99
2369.58	2654.14
2372.742	2442.08
2375.904	2455.69
2379.066	2431.5
2382.227	2464.73
2385.388	2429.81
2388.548	2353.16
2391.709	2409.22
2394.869	2386.5
2398.029	2484.43
2401.188	2499.43
2404.347	2434.5
2407.506	2574.72
2410.665	2603
2413.823	2610.52
2416.981	2567.38
2420.139	2597.87
2423.296	2647.98
2426.453	2618.74
2429.61	2646.07
2432.767	2578.12
2435.923	2613.73
2439.079	2579.55
2442.235	2627.22
2445.391	2555.99
2448.546	2582.84
2451.701	2632.57
2454.855	2604.11
2458.009	2658.73
2461.163	2660.33
2464.317	2616.07
2467.471	2651.37
2470.624	2691
2473.777	2658.45
2476.929	2673.17
2480.082	2699.61
2483.234	2663.65
2486.385	2619.37
2489.537	2611.2
2492.688	2571.41
2495.839	2591.39
2498.989	2602.9
2502.14	2585.63
2505.29	2568.73
2508.439	2594.31
2511.589	2518.6
2514.738	2530.53
2517.887	2559.84
2521.035	2622.67
2524.183	2606.76
2527.331	2585.78
2530.479	2559.37
2533.627	2570.83
