Data from N_2_DEC_ON_6N_Splice17_12-15-10-524.txt Node
Date: Sat Mar 14 12:15:10 EDT 2020
User: sa697716
Spectrometer: FLMS03696
Trigger mode: 0
Integration Time (sec): 3.180400E-1
Scans to average: 20
Electric dark correction enabled: true
Nonlinearity correction enabled: true
Boxcar width: 5
XAxis mode: Wavelengths
Number of Pixels in Spectrum: 2048
>>>>>Begin Spectral Data<<<<<
187.83	-277762.5
188.298	2180.92
188.766	1191.29
189.233	1095.11
189.701	1501.42
190.169	2101.83
190.636	898.19
191.104	694.37
191.571	139.98
192.039	-13.18
192.506	66.04
192.974	580.46
193.441	-609.82
193.908	-91.13
194.375	32.1
194.842	74.23
195.31	188.83
195.777	240.88
196.244	437.31
196.711	557.83
197.177	693.43
197.644	988.49
198.111	1674.51
198.578	2357.9
199.045	1906.83
199.511	3085.25
199.978	3600.18
200.445	3044.18
200.911	3364.3
201.378	3768.94
201.844	3363.63
202.31	5801.5
202.777	6043.61
203.243	3363.58
203.709	3175.83
204.176	3775.21
204.642	3139.77
205.108	2940.09
205.574	2407.29
206.04	2202.09
206.506	2053.2
206.972	1970.95
207.438	1887.29
207.903	2153.91
208.369	1897.84
208.835	1875.29
209.301	1966.37
209.766	1998.87
210.232	1968.2
210.697	2430.68
211.163	2989.82
211.628	4522.58
212.094	3748.12
212.559	4583.44
213.024	2843.5
213.49	3439.62
213.955	3384.67
214.42	3293.33
214.885	3054.13
215.35	2930.19
215.815	2776.54
216.28	2964.68
216.745	2401.49
217.21	2586.48
217.675	2367.46
218.14	2631.09
218.604	2910
219.069	3278.94
219.534	3400.98
219.998	3918.94
220.463	4704.23
220.927	5757.7
221.392	5371.07
221.856	5428.93
222.32	6804.48
222.785	8343.54
223.249	10477
223.713	11666.7
224.177	11613.73
224.642	14859.9
225.106	18246.74
225.57	19883.14
226.034	14790.4
226.497	22456.35
226.961	20204.19
227.425	23475.36
227.889	25990.43
228.353	25890.68
228.816	53315.42
229.28	51019.46
229.744	42945.72
230.207	26076.79
230.671	25609.93
231.134	42256.34
231.597	48575.12
232.061	48476.04
232.524	47186.86
232.987	32429.96
233.45	29191.38
233.914	26143.66
234.377	26726.64
234.84	24458.55
235.303	28799.44
235.766	32096.59
236.229	33132.17
236.691	20882.56
237.154	23441.33
237.617	17656.44
238.08	18085.22
238.542	21146.21
239.005	15111.28
239.468	14984.3
239.93	14106.16
240.393	12818.2
240.855	11239.53
241.317	11497.48
241.78	13967.43
242.242	14441.4
242.704	15556.11
243.166	13529.75
243.629	12273.07
244.091	14119.79
244.553	15468.53
245.015	16603.49
245.477	21443.8
245.939	31396.06
246.4	33259.3
246.862	32294.18
247.324	30382.12
247.786	33966.73
248.247	44477.86
248.709	45887.46
249.17	34295.59
249.632	32268.38
250.093	37370.97
250.555	32215.81
251.016	19631.61
251.477	18611.41
251.939	20060.04
252.4	20997.2
252.861	24917.09
253.322	23145.89
253.783	27475.02
254.244	35524.88
254.705	27953.48
255.166	24778.96
255.627	24360.61
256.088	34305.32
256.549	36349.65
257.009	31211.75
257.47	37790.15
257.931	30739.23
258.391	22965.66
258.852	23631.95
259.312	24748.18
259.773	30499.36
260.233	25763.48
260.694	21695.7
261.154	24560
261.614	19683.52
262.074	17582.2
262.534	18235.88
262.994	17139.62
263.455	22818.28
263.915	19183.65
264.374	17998.17
264.834	19601.71
265.294	21649.6
265.754	22351.25
266.214	21095.11
266.673	19714.85
267.133	24774.91
267.593	24539.23
268.052	29948.82
268.512	25971.02
268.971	31270.9
269.431	34232.74
269.89	30608.63
270.349	45799.93
270.809	51011.75
271.268	45816.55
271.727	102568.26
272.186	66443.52
272.645	49757.64
273.104	35878.59
273.563	51868.79
274.022	40722.77
274.481	34668.14
274.94	26685.27
275.399	19844.05
275.857	23074.56
276.316	31194.04
276.775	27742.29
277.233	27310.65
277.692	25577.79
278.15	28887.65
278.609	29724.23
279.067	27514.35
279.525	25565.07
279.984	32992.82
280.442	39595.51
280.9	39139.13
281.358	25730.56
281.816	24009.29
282.274	23507.36
282.732	24306.04
283.19	24444.02
283.648	21110.32
284.106	22503.89
284.564	22901.69
285.021	21278.71
285.479	15880.07
285.937	14416.51
286.394	12674.3
286.852	13039
287.309	13710.1
287.767	13247.23
288.224	12620.89
288.682	13860.96
289.139	15221.87
289.596	13936.83
290.053	14482.29
290.511	18245.7
290.968	22135.17
291.425	30000.33
291.882	24986.98
292.339	21734.75
292.796	21571.62
293.252	20323.35
293.709	16136.76
294.166	14458.46
294.623	15961.36
295.079	15321.35
295.536	15425.6
295.992	14026.49
296.449	13890.94
296.905	14423.79
297.362	13854.2
297.818	14560.27
298.274	15127.27
298.731	15433.28
299.187	15291.04
299.643	16434.05
300.099	19881.86
300.555	21803.57
301.011	18230.61
301.467	17580.81
301.923	20604.21
302.379	20142.77
302.835	19807.71
303.291	19868.18
303.746	22626.05
304.202	28581.62
304.658	28735.32
305.113	19330.82
305.569	18973.8
306.024	20250.72
306.479	19301.18
306.935	16317.41
307.39	17856.46
307.845	16534.78
308.301	16640.96
308.756	16249.79
309.211	15688.43
309.666	16090.57
310.121	20062.62
310.576	20404.65
311.031	20257.52
311.486	23244.04
311.94	23266
312.395	31156.28
312.85	58631.81
313.305	288277.19
313.759	1495701.23
314.214	108567.94
314.668	86223.84
315.123	72494.93
315.577	26045.02
316.032	23214.98
316.486	29125.62
316.94	22982.16
317.394	16024.68
317.849	12462.06
318.303	11799.86
318.757	11125.44
319.211	12318.97
319.665	10784.27
320.119	10912.61
320.572	15623.24
321.026	14577.35
321.48	12136.84
321.934	13229.67
322.387	13256.61
322.841	14315.79
323.295	12873.13
323.748	14825.55
324.202	15031.01
324.655	18054.24
325.108	25261.71
325.562	17851.74
326.015	21265.35
326.468	16051.4
326.921	17980.23
327.374	16748.48
327.827	17432.9
328.28	19750.99
328.733	13249.66
329.186	11655.42
329.639	11103.37
330.092	9352.16
330.545	8924.69
330.997	8999.61
331.45	9864.35
331.903	11572.07
332.355	19892.23
332.808	19309.7
333.26	15917.24
333.713	17273.67
334.165	17403.97
334.617	23239.59
335.069	18790.17
335.522	33929.2
335.974	37565.63
336.426	34324.78
336.878	23752.45
337.33	12076.2
337.782	11826.38
338.234	14846.4
338.686	17783.66
339.137	21098.53
339.589	19894.35
340.041	15608.71
340.493	13446.83
340.944	13792.86
341.396	14838.69
341.847	12472.94
342.299	14699.92
342.75	17941.62
343.201	15670.86
343.653	17984.02
344.104	22061.64
344.555	17316.3
345.006	26937.82
345.457	20594.63
345.908	16312.18
346.359	15350.09
346.81	12488.57
347.261	13167.69
347.712	12968.4
348.163	13888.91
348.613	14078.62
349.064	13124.28
349.515	11495.9
349.965	11792.95
350.416	14195.94
350.866	15569.28
351.317	17610.91
351.767	29238.67
352.217	36922.51
352.668	30670.49
353.118	28115.39
353.568	27074.79
354.018	21459.82
354.468	22670.43
354.918	16237.75
355.368	14228.46
355.818	20159.18
356.268	57948.57
356.718	242669.18
357.168	60460.05
357.617	30269.55
358.067	33649.41
358.517	31573.01
358.966	37127.22
359.416	41668.56
359.865	45051.9
360.315	53621.06
360.764	25071.86
361.213	14066.41
361.663	13333.53
362.112	16456.78
362.561	26573.89
363.01	20119.51
363.459	16933.64
363.908	18266.17
364.357	15516.48
364.806	26202.28
365.255	18040.91
365.703	16515.12
366.152	16544.07
366.601	13375.16
367.05	10878.36
367.498	9936.31
367.947	10344.14
368.395	10772.06
368.844	9557.82
369.292	11530.46
369.74	7983.4
370.189	12213.04
370.637	14297.47
371.085	12317.81
371.533	15023.31
371.981	14417.71
372.429	13700.32
372.877	14296.3
373.325	11961.37
373.773	12176.58
374.221	10839.05
374.669	13454.29
375.116	11629.12
375.564	11707.28
376.012	13099.47
376.459	10801.44
376.907	12921.19
377.354	15617.73
377.801	14570.35
378.249	16745.42
378.696	21396.34
379.143	25870.04
379.591	27534.18
380.038	46595.23
380.485	33743.78
380.932	36493.87
381.379	33395.29
381.826	24640.6
382.273	17512.38
382.72	15308.9
383.166	14912.15
383.613	9681.75
384.06	8738.78
384.506	10111.56
384.953	7416.96
385.4	7460.48
385.846	6523.21
386.292	6357.56
386.739	6219.41
387.185	6158.78
387.631	6168.54
388.078	6014.71
388.524	6453.12
388.97	5973.24
389.416	4992.94
389.862	5319.5
390.308	5050.58
390.754	5135.51
391.2	5566.96
391.645	5707.7
392.091	5469.92
392.537	5296.29
392.983	5299.65
393.428	5218.53
393.874	5597.7
394.319	5626.8
394.765	5351.87
395.21	5512.49
395.655	5175.81
396.101	4873.31
396.546	4401.78
396.991	4452.64
397.436	4134.2
397.881	4003.9
398.326	3792.24
398.771	3593.91
399.216	3152.72
399.661	2846.05
400.106	2840.04
400.551	2919.68
400.995	2617.93
401.44	2595.98
401.885	2440.2
402.329	2467.77
402.774	2364.85
403.218	2292.58
403.663	2208.61
404.107	2271.92
404.551	2291.9
404.995	2101.72
405.44	2026.39
405.884	2059.13
406.328	1993.47
406.772	1990.98
407.216	1819.88
407.66	1763.85
408.104	1676.93
408.547	1574.52
408.991	1525.42
409.435	1463.92
409.879	1445.8
410.322	1427.59
410.766	1382.88
411.209	1317.19
411.653	1263.6
412.096	1238.81
412.54	1238.78
412.983	1233.66
413.426	1238.15
413.869	1238.62
414.312	1219.02
414.756	1175.26
415.199	1123.68
415.642	1092.71
416.085	1096.02
416.527	1090.31
416.97	1107.27
417.413	1053.53
417.856	1040.42
418.298	1029.81
418.741	1021.07
419.184	1018.02
419.626	1059.97
420.069	1057.73
420.511	1063.35
420.953	1039.62
421.396	1030.8
421.838	1005.29
422.28	1026.98
422.722	1034.16
423.164	1048.64
423.606	1031.59
424.048	1032.07
424.49	983.26
424.932	981.49
425.374	966.99
425.816	984.04
426.258	1000.27
426.699	1009.51
427.141	993.9
427.582	1007.58
428.024	1000.34
428.465	995.16
428.907	969.8
429.348	960.23
429.789	958.64
430.231	938.8
430.672	949.67
431.113	929.45
431.554	919.83
431.995	899.79
432.436	871.37
432.877	857.74
433.318	845.07
433.759	843.18
434.2	843.48
434.64	836.69
435.081	842.71
435.522	803.25
435.962	776.58
436.403	760.65
436.843	771.62
437.284	754.75
437.724	733.6
438.164	735.45
438.604	722.04
439.045	695.38
439.485	667.63
439.925	653.59
440.365	639.81
440.805	631.87
441.245	624.33
441.685	603.17
442.125	599.68
442.564	604.06
443.004	593.09
443.444	592.72
443.883	594.6
444.323	591.83
444.762	592.62
445.202	600.46
445.641	614.09
446.081	611.7
446.52	618.11
446.959	614.73
447.398	603.13
447.837	598.58
448.276	589.46
448.716	599.22
449.154	606.69
449.593	595.69
450.032	594.94
450.471	584.34
450.91	588.13
451.349	588.68
451.787	586.72
452.226	595.44
452.664	595.87
453.103	597.69
453.541	596.62
453.98	596
454.418	601.99
454.856	592.85
455.295	593.77
455.733	597.69
456.171	601.03
456.609	603.31
457.047	604.5
457.485	613.85
457.923	615.53
458.361	606.87
458.798	609.04
459.236	605.83
459.674	611.06
460.111	612.4
460.549	606.99
460.987	604.57
461.424	602.56
461.862	599.16
462.299	589.41
462.736	589.24
463.173	592.17
463.611	586.35
464.048	585.96
464.485	591.7
464.922	587.59
465.359	584.67
465.796	578.56
466.233	574.32
466.67	569.19
467.106	567.81
467.543	561.74
467.98	554.18
468.416	540.23
468.853	536.43
469.29	518.92
469.726	513.05
470.162	499.08
470.599	492.05
471.035	487.3
471.471	477.11
471.907	474.19
472.344	471.35
472.78	472.26
473.216	477.62
473.652	471.81
474.088	471.13
474.523	469.78
474.959	474.47
475.395	469.58
475.831	466.85
476.266	467.44
476.702	465.84
477.138	461.25
477.573	459.8
478.008	458.68
478.444	461.15
478.879	465.16
479.314	467.48
479.75	467.48
480.185	470.01
480.62	474.5
481.055	477.92
481.49	481.75
481.925	488.95
482.36	498.84
482.795	512.02
483.229	525.01
483.664	536.01
484.099	537.72
484.534	546.33
484.968	551.96
485.403	553.09
485.837	552.34
486.271	552.01
486.706	552.55
487.14	545.61
487.574	538.2
488.009	533.87
488.443	529.84
488.877	536.64
489.311	539.5
489.745	545.94
490.179	552.45
490.613	564.74
491.046	569.77
491.48	575.42
491.914	577.9
492.348	583.13
492.781	588.12
493.215	591.35
493.648	593.44
494.082	598.94
494.515	602.02
494.948	610.43
495.382	615.4
495.815	622.44
496.248	629.15
496.681	642.74
497.114	654.77
497.547	667.01
497.98	681.88
498.413	691.63
498.846	703.6
499.279	714.62
499.711	722.19
500.144	727.44
500.577	740.56
501.009	755.3
501.442	768
501.874	774.56
502.306	780.9
502.739	792.32
503.171	809.79
503.603	817.92
504.036	831.44
504.468	841.8
504.9	858.95
505.332	871.45
505.764	880.21
506.196	892.89
506.627	912.18
507.059	930.19
507.491	944.75
507.923	948.17
508.354	968.8
508.786	985.31
509.217	1008.77
509.649	1029.81
510.08	1054.32
510.512	1077.45
510.943	1098.29
511.374	1116.1
511.805	1143.42
512.237	1169.35
512.668	1210.51
513.099	1245.46
513.53	1281.55
513.961	1311.44
514.391	1350.49
514.822	1393.09
515.253	1438.25
515.684	1472.18
516.114	1511.13
516.545	1540.15
516.975	1574.85
517.406	1599.67
517.836	1607.37
518.267	1618.11
518.697	1641.48
519.127	1652.45
519.558	1664.82
519.988	1673.89
520.418	1690.29
520.848	1715.42
521.278	1730.23
521.708	1747.72
522.138	1765.88
522.567	1806.18
522.997	1840.47
523.427	1862.55
523.857	1885.52
524.286	1900.59
524.716	1920.84
525.145	1944.92
525.575	1958.98
526.004	1978.51
526.433	1980.62
526.863	1983.97
527.292	1974.34
527.721	1981.88
528.15	1991.19
528.579	1994.16
529.008	2009.2
529.437	2038.63
529.866	2057.26
530.295	2080.38
530.724	2096.46
531.152	2131.55
531.581	2149.57
532.01	2171.82
532.438	2184.76
532.867	2204.22
533.295	2227.37
533.723	2236.07
534.152	2234.45
534.58	2234.92
535.008	2218.16
535.436	2221.56
535.865	2232.34
536.293	2252.81
536.721	2273.48
537.149	2305.35
537.576	2309.16
538.004	2326
538.432	2337.19
538.86	2337.2
539.287	2348.33
539.715	2364.72
540.143	2369.89
540.57	2365.82
540.998	2360.12
541.425	2333.52
541.852	2307.52
542.28	2307.03
542.707	2286.58
543.134	2269.76
543.561	2262.9
543.988	2253.07
544.415	2251.74
544.842	2244.73
545.269	2235.14
545.696	2238.39
546.123	2253.63
546.549	2241.19
546.976	2223.78
547.403	2223.89
547.829	2225.64
548.256	2229
548.682	2224.64
549.108	2216.34
549.535	2215.69
549.961	2217.5
550.387	2199.64
550.813	2192.15
551.24	2198.64
551.666	2199.9
552.092	2187.96
552.518	2179.13
552.943	2170.66
553.369	2179.44
553.795	2184.4
554.221	2184.09
554.646	2180.02
555.072	2191.64
555.498	2197.34
555.923	2209.38
556.349	2226.84
556.774	2236.61
557.199	2238.89
557.625	2247.06
558.05	2239.16
558.475	2251.93
558.9	2251.6
559.325	2241.93
559.75	2234.59
560.175	2225.27
560.6	2216.4
561.025	2214.22
561.449	2214.89
561.874	2220.19
562.299	2223.94
562.723	2230.99
563.148	2218.39
563.572	2221.48
563.997	2231.26
564.421	2238.09
564.846	2237.55
565.27	2239.69
565.694	2234.2
566.118	2247.73
566.542	2255.67
566.966	2247.24
567.39	2241.03
567.814	2224.71
568.238	2223.08
568.662	2228.34
569.086	2228.79
569.509	2236.33
569.933	2216.84
570.357	2207.4
570.78	2178.75
571.204	2161.7
571.627	2147.13
572.05	2143.71
572.474	2143.47
572.897	2127.1
573.32	2116.63
573.743	2104.05
574.166	2080.68
574.589	2080.03
575.012	2068.62
575.435	2065.9
575.858	2052.51
576.281	2037.59
576.704	2017.48
577.126	2001.29
577.549	1985.89
577.972	1972.2
578.394	1956.89
578.817	1946.87
579.239	1922.7
579.661	1906.07
580.084	1886.24
580.506	1870.12
580.928	1863.98
581.35	1848.87
581.772	1841.98
582.194	1825.25
582.616	1808.88
583.038	1792.42
583.46	1779.05
583.882	1774.77
584.303	1778.21
584.725	1772.31
585.147	1772.71
585.568	1784.91
585.99	1798.81
586.411	1805.27
586.833	1822.66
587.254	1824.52
587.675	1840.7
588.096	1855.18
588.518	1848.41
588.939	1827.81
589.36	1824.84
589.781	1812.77
590.202	1777.06
590.623	1766.02
591.043	1762.96
591.464	1746.61
591.885	1740.25
592.305	1732.9
592.726	1716.23
593.147	1716.78
593.567	1710.38
593.987	1701.53
594.408	1694.13
594.828	1692.04
595.248	1684.19
595.669	1662.68
596.089	1654.74
596.509	1647.86
596.929	1631.24
597.349	1631.05
597.769	1617.85
598.189	1610.08
598.608	1611.58
599.028	1614.36
599.448	1613.95
599.867	1598.77
600.287	1592.42
600.706	1586.22
601.126	1574.82
601.545	1572.91
601.965	1570.77
602.384	1564.9
602.803	1567.73
603.222	1560.2
603.641	1551.92
604.061	1546.68
604.48	1542.31
604.898	1550.74
605.317	1555.85
605.736	1556.51
606.155	1551.82
606.574	1540.79
606.992	1545.47
607.411	1539.29
607.829	1529.95
608.248	1524.37
608.666	1521.43
609.085	1518.71
609.503	1507.46
609.921	1498.99
610.339	1500.11
610.758	1497.44
611.176	1490.81
611.594	1480.33
612.012	1473.77
612.43	1475.52
612.847	1481.54
613.265	1480.16
613.683	1483.99
614.101	1484.96
614.518	1478.26
614.936	1466.03
615.353	1449.99
615.771	1444.65
616.188	1442.4
616.606	1438.5
617.023	1430.31
617.44	1412.7
617.857	1404.53
618.274	1394.26
618.691	1386.39
619.108	1376.19
619.525	1368.45
619.942	1374.35
620.359	1377.06
620.776	1370.61
621.192	1365.01
621.609	1361.97
622.026	1369.47
622.442	1374.94
622.859	1378.11
623.275	1370.03
623.691	1375.77
624.108	1388.56
624.524	1403.04
624.94	1402.06
625.356	1412.74
625.772	1427.15
626.188	1438.32
626.604	1439.67
627.02	1435.44
627.436	1432.62
627.852	1439.74
628.268	1453.83
628.683	1443.08
629.099	1433.59
629.514	1428.37
629.93	1432.56
630.345	1435.77
630.761	1432.23
631.176	1434.67
631.591	1426.67
632.007	1418.4
632.422	1415.28
632.837	1400.37
633.252	1395.23
633.667	1383.1
634.082	1371.07
634.497	1354.79
634.911	1332.11
635.326	1324.6
635.741	1304.05
636.155	1291.24
636.57	1289.83
636.984	1286.68
637.399	1286.1
637.813	1283.57
638.228	1279.25
638.642	1282.52
639.056	1269.27
639.47	1267.6
639.884	1257.62
640.298	1248.68
640.712	1245.12
641.126	1230.43
641.54	1217.87
641.954	1208.69
642.368	1193.74
642.781	1182.7
643.195	1161.23
643.609	1159.3
644.022	1150.36
644.436	1141.67
644.849	1126.45
645.262	1111.01
645.676	1108.87
646.089	1102.08
646.502	1083.49
646.915	1074.82
647.328	1055.34
647.741	1050.18
648.154	1032.89
648.567	1026.75
648.98	1011.01
649.393	1008.72
649.805	1002.42
650.218	992.66
650.631	974.58
651.043	967.32
651.456	959.61
651.868	959.05
652.28	973.88
652.693	985.53
653.105	989.69
653.517	997.61
653.929	995.32
654.341	998.43
654.753	983.88
655.165	987.06
655.577	981.34
655.989	974.56
656.401	963.87
656.813	925.97
657.224	903.72
657.636	873.99
658.047	855.11
658.459	833.73
658.87	822.02
659.282	808.35
659.693	785.8
660.104	770.39
660.515	754.62
660.926	748.27
661.338	743.19
661.749	735.19
662.159	723.68
662.57	715.73
662.981	709.26
663.392	699.05
663.803	699.65
664.213	694.35
664.624	686.78
665.035	686.55
665.445	672.86
665.855	663.26
666.266	654.11
666.676	650.11
667.086	640.52
667.497	637.77
667.907	631.77
668.317	622.52
668.727	619.56
669.137	618.12
669.547	614.4
669.956	614.86
670.366	615.64
670.776	616.08
671.186	616.85
671.595	618.34
672.005	620
672.414	619
672.824	616.78
673.233	618.32
673.642	620.71
674.052	622.99
674.461	625.71
674.87	628.87
675.279	626.28
675.688	628.4
676.097	629.94
676.506	628.19
676.915	639.61
677.323	643.63
677.732	643.17
678.141	642.85
678.549	635.39
678.958	635.73
679.366	636.11
679.775	641.94
680.183	652.49
680.592	658.7
681	665.32
681.408	662.45
681.816	671.12
682.224	682.6
682.632	695.82
683.04	725.26
683.448	750.29
683.856	782.39
684.264	819.92
684.671	854.53
685.079	896.91
685.487	943.28
685.894	1007.38
686.302	1063.55
686.709	1110.29
687.116	1166.78
687.524	1216.03
687.931	1260.53
688.338	1302.53
688.745	1337.5
689.152	1377.67
689.559	1430.01
689.966	1482.22
690.373	1512.55
690.78	1561.87
691.187	1636.76
691.593	1694.81
692	1746.58
692.407	1819.76
692.813	1906.79
693.22	1979.29
693.626	2053.51
694.032	2114.07
694.439	2204.23
694.845	2277.59
695.251	2367.19
695.657	2447.7
696.063	2564.16
696.469	2653.32
696.875	2738.67
697.281	2791.12
697.687	2853.39
698.093	2908.34
698.498	3004.08
698.904	3080.64
699.31	3190.31
699.715	3270.54
700.12	3384.26
700.526	3415.1
700.931	3502.53
701.337	3572.01
701.742	3617.59
702.147	3723.11
702.552	3766.11
702.957	3845.92
703.362	3875.01
703.767	3916.57
704.172	3972.23
704.577	3922.82
704.981	3983.61
705.386	4012.06
705.791	4006.51
706.195	4104.35
706.6	4122.94
707.004	4224.18
707.408	4193.42
707.813	4232.72
708.217	4222.68
708.621	4229.58
709.025	4353.91
709.43	4361.09
709.834	4437.66
710.237	4528.85
710.641	4512.66
711.045	4543.71
711.449	4540.79
711.853	4576.26
712.256	4631.65
712.66	4682.01
713.064	4777.9
713.467	4830.18
713.87	4970.64
714.274	5031.53
714.677	5168.72
715.08	5369.99
715.484	5577.97
715.887	5828.52
716.29	6079.9
716.693	6338.77
717.096	6637.2
717.499	6802.36
717.901	6839.89
718.304	6877.46
718.707	6911.36
719.109	6788.3
719.512	6753.56
719.915	6589.83
720.317	6522.2
720.719	6580.3
721.122	6546.57
721.524	6485.65
721.926	6435.32
722.328	6561.5
722.731	6552.86
723.133	6589.85
723.535	6829.38
723.937	6856.56
724.338	6920.86
724.74	6975.33
725.142	6873.21
725.544	6871.38
725.945	6903.04
726.347	6900.63
726.748	6889.03
727.15	6907.2
727.551	6860.82
727.952	6828.38
728.354	6795.76
728.755	6799.96
729.156	6751.02
729.557	6758.64
729.958	6609.5
730.359	6547.88
730.76	6527.95
731.161	6458.26
731.562	6427.36
731.962	6434.47
732.363	6357.7
732.763	6280.03
733.164	6324.82
733.564	6242.6
733.965	6128.91
734.365	6087.34
734.766	6122.2
735.166	6072.29
735.566	6005.49
735.966	5972.53
736.366	5967.87
736.766	5894.85
737.166	5934.28
737.566	5884.45
737.966	5853.85
738.365	5899.67
738.765	5894.78
739.165	5802.72
739.564	5770.99
739.964	5826.54
740.363	5772.74
740.763	5766.31
741.162	5751.81
741.561	5712.21
741.96	5653.84
742.36	5677.7
742.759	5684.6
743.158	5731.17
743.557	5750.41
743.955	5801.16
744.354	5747.11
744.753	5820.91
745.152	5771.62
745.55	5836.42
745.949	5829.4
746.348	5834.25
746.746	5858.05
747.144	5806.7
747.543	5779.17
747.941	5837.29
748.339	5750
748.737	5738.54
749.136	5724.66
749.534	5806.12
749.932	5768.67
750.33	5795.32
750.727	5861.96
751.125	5827.62
751.523	5809.62
751.921	5861.46
752.318	5818.84
752.716	5892.18
753.113	5907.42
753.511	5938.78
753.908	5935.2
754.305	5913.6
754.703	5989.43
755.1	6062.79
755.497	6136.34
755.894	6372.14
756.291	6590.58
756.688	6997.23
757.085	7534.1
757.482	8293.44
757.878	9115.9
758.275	9869.04
758.672	10902.68
759.068	11745.98
759.465	12944.29
759.861	14494.4
760.258	16279.56
760.654	17214.96
761.05	17072.75
761.447	16302.49
761.843	15176.63
762.239	14021.71
762.635	13497.6
763.031	12993.74
763.427	12265.43
763.822	11504.9
764.218	10750.15
764.614	9772.19
765.01	9112.56
765.405	8692.8
765.801	8366.92
766.196	7958.3
766.592	7732.18
766.987	7347.47
767.382	7087.36
767.778	6978.17
768.173	6819.01
768.568	6728.78
768.963	6573.46
769.358	6596.81
769.753	6537.14
770.148	6436.04
770.542	6434.94
770.937	6395.09
771.332	6507
771.726	6532.7
772.121	6454.65
772.515	6522.42
772.91	6504.54
773.304	6594.72
773.699	6514.73
774.093	6580.9
774.487	6647.64
774.881	6699.9
775.275	6693.6
775.669	6639.24
776.063	6689.84
776.457	6732.81
776.851	6637.54
777.245	6629.37
777.638	6666.38
778.032	6806.74
778.425	6763
778.819	6814.7
779.212	6762.39
779.606	6713.97
779.999	6737.82
780.392	6717.94
780.786	6819.39
781.179	6846.68
781.572	6896.93
781.965	6911.27
782.358	6839.88
782.751	6904.57
783.143	6843.67
783.536	6932.23
783.929	6983.77
784.322	7122.96
784.714	7161.86
785.107	7153.28
785.499	7240.53
785.891	7212.69
786.284	7194.76
786.676	7366.12
787.068	7342.67
787.46	7405.43
787.852	7429.84
788.245	7536.18
788.636	7572.07
789.028	7654.62
789.42	7704.94
789.812	7714.19
790.204	7831.98
790.595	7951.68
790.987	7714.37
791.378	7745.49
791.77	7906.47
792.161	8073.11
792.553	8139.64
792.944	8004.58
793.335	7918.24
793.726	8006.06
794.117	8119.73
794.508	8291.51
794.899	8253.87
795.29	8430.22
795.681	8503.25
796.072	8327
796.463	8093.05
796.853	8099.69
797.244	8290.49
797.634	8334.61
798.025	8334.52
798.415	8345.5
798.806	8453.3
799.196	8558.65
799.586	8616.11
799.976	8565.96
800.366	8849.51
800.756	9152
801.146	9108.87
801.536	9148.42
801.926	9238
802.316	9266.87
802.706	9355.49
803.095	9203.17
803.485	9326.67
803.874	9375.73
804.264	9692.97
804.653	9662.07
805.043	9837.96
805.432	9967.09
805.821	9965.08
806.21	9993.62
806.599	10143.35
806.988	10200.09
807.377	10333.22
807.766	10490.58
808.155	10839.87
808.544	10520.5
808.933	10535.56
809.321	10509.8
809.71	10875.1
810.098	11070.9
810.487	11636.77
810.875	12223.83
811.264	12248.12
811.652	12599.26
812.04	12780.37
812.428	12979.38
812.816	13909.77
813.204	14424.82
813.592	15102.1
813.98	15503.85
814.368	15386.39
814.756	15963.79
815.144	15862.3
815.531	16429.62
815.919	16335.69
816.306	16700.65
816.694	16317.8
817.081	16380.7
817.469	16796.88
817.856	16792.11
818.243	17123.04
818.63	17598.26
819.017	17088.34
819.404	17161.14
819.791	17624.96
820.178	18367.86
820.565	18671.16
820.952	19803.11
821.339	19200.48
821.725	19421.81
822.112	18514.58
822.498	18468.27
822.885	18627.25
823.271	18513.35
823.657	19024.92
824.044	19029.12
824.43	19121.87
824.816	19080.64
825.202	18549.07
825.588	19789.07
825.974	19808.86
826.36	20433.91
826.746	20482.59
827.132	20917.51
827.517	20887.76
827.903	19934.6
828.289	19987.11
828.674	19048.37
829.06	18922.91
829.445	19410.29
829.83	19844.8
830.216	20422.79
830.601	20875.62
830.986	20360.79
831.371	20193.82
831.756	20867.65
832.141	20340.2
832.526	20333.74
832.911	20674.54
833.295	20540.2
833.68	21117.88
834.065	20370.64
834.449	19269.69
834.834	19178.35
835.218	19184
835.603	19599.64
835.987	19345.25
836.371	20371.23
836.755	20253.74
837.139	20746.65
837.524	21053.44
837.908	20839.13
838.291	20911.81
838.675	20999.71
839.059	21248.15
839.443	21232.97
839.827	20953.65
840.21	21541.49
840.594	21356.44
840.977	21595.7
841.361	21565.12
841.744	22016.33
842.127	21822.86
842.511	22118.18
842.894	22842.54
843.277	23315.17
843.66	23980.08
844.043	24087.69
844.426	23108.69
844.809	22737.4
845.191	22792.03
845.574	22237.41
845.957	21790.15
846.339	21668.28
846.722	21035.87
847.104	21116.61
847.487	20914.48
847.869	20937.07
848.252	21270.07
848.634	21670.99
849.016	22000.4
849.398	22149.47
849.78	23182.1
850.162	23196.68
850.544	23697.44
850.926	24464.43
851.307	24361.25
851.689	24699.59
852.071	25252.57
852.452	25653.94
852.834	25623.2
853.215	26094.58
853.597	26270.87
853.978	26636.88
854.359	27186.43
854.741	25968.65
855.122	25842.56
855.503	25485.91
855.884	25644.34
856.265	25560.61
856.646	25703.01
857.026	25230.45
857.407	25150.81
857.788	25353.31
858.169	25697.68
858.549	24659.31
858.93	25418.42
859.31	25479.09
859.69	25730.56
860.071	25238.9
860.451	24967.56
860.831	24060.75
861.211	25472.93
861.591	26131.68
861.971	26094.4
862.351	26333.04
862.731	26795.32
863.111	27111.59
863.491	27507.83
863.87	28569.57
864.25	28994.47
864.629	28511.13
865.009	29136.92
865.388	30165.47
865.768	32342.05
866.147	32216.03
866.526	30428.62
866.905	30804.25
867.284	32527.6
867.663	30878.1
868.042	29601.51
868.421	29499.91
868.8	29997.01
869.179	30287.42
869.558	28531.99
869.936	26296.59
870.315	26765.85
870.693	27422.72
871.072	29558.23
871.45	28167.61
871.828	28546.29
872.207	30001.43
872.585	29548.65
872.963	30349.75
873.341	29302.96
873.719	28945.17
874.097	28595.63
874.475	29146.54
874.853	29815.54
875.23	28577.66
875.608	29780.99
875.986	32190.99
876.363	30802.75
876.741	31738.12
877.118	30954.53
877.495	32487.5
877.873	33052.14
878.25	34789.26
878.627	33365.22
879.004	33826.57
879.381	33681.17
879.758	32795.04
880.135	30543.49
880.512	32291.87
880.889	31448.21
881.265	31115.49
881.642	30870.04
882.019	31390.07
882.395	30748.61
882.772	31969.35
883.148	30596.81
883.524	30474.59
883.901	30299.73
884.277	30770.19
884.653	30576.32
885.029	31456.25
885.405	34850.56
885.781	34587.92
886.157	33164.87
886.532	33572.01
886.908	33551.39
887.284	37303.29
887.659	38537.44
888.035	39746.71
888.411	40773.8
888.786	41316.76
889.161	42760.74
889.537	41973.83
889.912	43312.95
890.287	43268.28
890.662	44380.71
891.037	43608.58
891.412	40672.46
891.787	40257.11
892.162	38846.75
892.536	39738.84
892.911	38242.01
893.286	37420.28
893.66	35901.86
894.035	36806.31
894.409	40087.54
894.784	38483.9
895.158	39105.42
895.532	41409.86
895.906	42543.19
896.281	43547.38
896.655	42856.97
897.029	49000.05
897.402	51042.53
897.776	56811.92
898.15	56626.15
898.524	56019.61
898.898	56752.32
899.271	63523.13
899.645	55019.81
900.018	52841.11
900.392	54793.03
900.765	55258.76
901.138	51112.98
901.511	50347.41
901.884	46242.24
902.258	42650.3
902.631	44067.07
903.003	50725.2
903.376	45792.91
903.749	51345.67
904.122	54959.48
904.495	60519.45
904.867	61263.03
905.24	53184.33
905.612	49501.33
905.985	50619.69
906.357	52938.03
906.729	50520.31
907.102	43153.15
907.474	41484
907.846	41782.66
908.218	41246.64
908.59	36442.61
908.962	35260.68
909.334	37981.32
909.705	39905.78
910.077	38747.98
910.449	40334.97
910.82	41466.27
911.192	45641.5
911.563	47458.86
911.935	50795.5
912.306	50850.4
912.677	52511.05
913.048	51986.82
913.419	56400.77
913.79	56741.49
914.161	60833
914.532	58129.46
914.903	53425.22
915.274	50735
915.645	49967.12
916.015	43938.56
916.386	41886.59
916.756	44576.08
917.127	45962.35
917.497	41066.29
917.868	44682.86
918.238	42466.35
918.608	43693.11
918.978	44572.17
919.348	47182.89
919.718	48756.04
920.088	46975.75
920.458	48800.29
920.828	51347.05
921.198	48670.66
921.567	52004.19
921.937	40266.18
922.306	40660.45
922.676	43860.9
923.045	36610.77
923.415	34779.63
923.784	31674.68
924.153	32574.73
924.522	32537.34
924.891	30596.91
925.26	32793.95
925.629	32021.96
925.998	36830.41
926.367	35943.76
926.736	34207.79
927.104	40739.38
927.473	43817.55
927.842	52921.62
928.21	52403.88
928.578	55136.79
928.947	52162.82
929.315	52463.02
929.683	61503.65
930.051	61969.62
930.42	71991.33
930.788	61559.95
931.156	61113.39
931.523	57285.74
931.891	52913
932.259	50830.68
932.627	58870.06
932.994	83287.26
933.362	68838.21
933.729	59808.41
934.097	57258.14
934.464	48448.77
934.831	55911.4
935.199	55119.13
935.566	53478.26
935.933	54210.14
936.3	65659.79
936.667	51141.08
937.034	46102.27
937.401	45608.64
937.767	39366.77
938.134	35069.24
938.501	49481.56
938.867	52742.72
939.234	89173.13
939.6	76041.06
939.967	83815.15
940.333	56112.64
940.699	47803.94
941.065	38405.04
941.431	50358.07
941.798	48531.25
942.163	63621.93
942.529	39734.4
942.895	36571.67
943.261	23641.12
943.627	31008.28
943.992	27169.47
944.358	27201.49
944.723	27295.23
945.089	26606.9
945.454	24578.93
945.82	26236.27
946.185	25257.13
946.55	29274.66
946.915	26257.43
947.28	30835.57
947.645	27168.24
948.01	25034.36
948.375	26114.32
948.74	31275.12
949.104	36461.59
949.469	52673.95
949.834	93145.8
950.198	88239.1
950.562	52846.1
950.927	44023.98
951.291	52956.66
951.655	45123.23
952.02	42445.25
952.384	32108.09
952.748	27975.44
953.112	27273.78
953.476	23727.41
953.839	21938.93
954.203	21711.51
954.567	27143.56
954.931	42790.13
955.294	36609.09
955.658	36820.77
956.021	62589.65
956.385	106194.3
956.748	156710.05
957.111	243382.02
957.474	273290.13
957.837	308179.86
958.2	233409.89
958.563	83992.92
958.926	56769.27
959.289	86228.52
959.652	96312.95
960.015	72308.27
960.377	103677.69
960.74	118362.8
961.102	204293.67
961.465	219132.63
961.827	117055.73
962.189	224637.29
962.552	155813.29
962.914	124939.04
963.276	81027.79
963.638	66996.39
964	66322.08
964.362	44842.86
964.724	43334.46
965.085	30915.76
965.447	25364.45
965.809	28963.65
966.17	29004.33
966.532	31400.78
966.893	28825.28
967.255	26245.27
967.616	30983.15
967.977	24804.38
968.338	27108.18
968.699	22266.81
969.061	22257.56
969.421	22410.26
969.782	25152.96
970.143	21229.78
970.504	21972.01
970.865	24955.43
971.225	25496.42
971.586	24932.76
971.946	35568.6
972.307	30862.29
972.667	40351.63
973.027	41592.04
973.388	50467.68
973.748	34322.67
974.108	37393.64
974.468	50640.87
974.828	39036.75
975.188	30057.73
975.548	27630.64
975.907	23192.45
976.267	26035.36
976.627	21878.29
976.986	22655.24
977.346	21581.83
977.705	20759.44
978.064	18906.23
978.424	15743.7
978.783	16300.34
979.142	18610.19
979.501	17805
979.86	18812.75
980.219	18111.53
980.578	23404.74
980.937	26241.41
981.296	23424.13
981.654	24093.78
982.013	37535.96
982.371	48673.52
982.73	45478.22
983.088	51503.99
983.447	55019.29
983.805	78746.1
984.163	164795.7
984.521	182761.13
984.879	267785.08
985.237	-434992.92
985.595	419448.09
985.953	104166.26
986.311	60152.87
986.669	34887.17
987.026	30152.04
987.384	40565.64
987.741	41967.54
988.099	29952.47
988.456	23877.6
988.814	22344.6
989.171	19440.18
989.528	19185.49
989.885	20289.58
990.242	16067.62
990.599	20029.69
990.956	16374.83
991.313	11447.2
991.67	9390.34
992.027	9931.45
992.383	8833.42
992.74	7753.18
993.096	8121.93
993.453	8431.3
993.809	8731.54
994.165	11632.54
994.522	10642.49
994.878	11722.89
995.234	14699.99
995.59	14512.33
995.946	13773.12
996.302	15682.15
996.658	18126.2
997.013	19990.63
997.369	23679.99
997.725	30323.62
998.08	19674.32
998.436	30420.07
998.791	41957.51
999.147	41889.94
999.502	45601.56
999.857	33211.14
1000.212	54166.04
1000.567	77077.5
1000.922	44438.16
1001.277	28262.15
1001.632	20933.25
1001.987	26939.68
1002.342	19303.47
1002.696	15445.16
1003.051	12334.01
1003.406	14947.84
1003.76	14857.01
1004.114	14633.96
1004.469	12321.25
1004.823	10217.21
1005.177	11017.28
1005.531	8738.24
1005.885	7729.53
1006.239	8704.37
1006.593	10904.65
1006.947	14612.83
1007.301	10976.83
1007.655	11988.4
1008.008	8816.48
1008.362	9888.53
1008.715	14095.3
1009.069	12810.44
1009.422	19252.25
1009.776	38719.41
1010.129	25790.59
1010.482	21533.12
1010.835	18213.88
1011.188	37923.59
1011.541	35619.4
1011.894	-217283.57
1012.247	640422.58
1012.6	43628.88
1012.952	27518.69
1013.305	14219.72
1013.657	10241.1
1014.01	9664.33
1014.362	7982.82
1014.715	7063.44
1015.067	6137.06
1015.419	6013.81
1015.771	5338.67
1016.123	4743.94
1016.475	4867.37
1016.827	5192.83
1017.179	5573.85
1017.531	5616.04
1017.883	5774.68
1018.234	5556.33
1018.586	7044.92
1018.938	7452.95
1019.289	10252.65
1019.64	11754.71
1019.992	10975.2
1020.343	10073.15
1020.694	7934.26
1021.045	7017.03
1021.396	8021.23
1021.747	8570.77
1022.098	10333.22
1022.449	7472.69
1022.8	6929.51
1023.151	4827.51
1023.501	4263.03
1023.852	4636.9
1024.202	4797.43
1024.553	5291.57
1024.903	5148.83
1025.253	4382.78
1025.604	3943.86
1025.954	4894.59
1026.304	5985.68
1026.654	6986.41
1027.004	10266.09
1027.354	16577.33
1027.703	15591.94
1028.053	20540.14
1028.403	29748.26
1028.753	43208.5
1029.102	58990.19
1029.452	302685.59
1029.801	13021.98
1030.15	8378.22
1030.499	7113.3
897.758	2421.64
901.051	2367.03
904.343	2399.86
907.636	2406.4
910.928	2469.42
914.22	2381.54
917.511	2386.13
920.803	2441.45
924.094	2451.57
927.384	2443.04
930.675	2406.84
933.965	2365.8
937.255	2384.14
940.544	2349.39
943.834	2323.92
947.123	2261.01
950.411	2354.31
953.7	2331.03
956.988	2307.61
960.276	2249.47
963.563	2312.96
966.851	2316
970.138	2366.06
973.424	2364.28
976.711	2320.02
979.997	2405.35
983.283	2449.13
986.568	2369.43
989.853	2374.48
993.138	2402.91
996.423	2481.5
999.708	2430.97
1002.992	2476.51
1006.275	2355.18
1009.559	2378.66
1012.842	2482.27
1016.125	2424.95
1019.408	2406.85
1022.69	2478.77
1025.972	2505.32
1029.254	2480.34
1032.536	2428.92
1035.817	2449.74
1039.098	2407.64
1042.379	2503.63
1045.659	2519.99
1048.939	2463.88
1052.219	2476.27
1055.498	2480.82
1058.778	2472.01
1062.057	2451.42
1065.335	2474.48
1068.614	2490.16
1071.892	2477.62
1075.17	2545.78
1078.447	2541.01
1081.724	2535.24
1085.001	2568.14
1088.278	2543.95
1091.554	2554.1
1094.83	2550.63
1098.106	2580.89
1101.382	2619.27
1104.657	2622.33
1107.932	2620.34
1111.206	2591.19
1114.481	2548.16
1117.755	2547.44
1121.029	2533.31
1124.302	2592.13
1127.575	2549.57
1130.848	2540.29
1134.121	2507.89
1137.393	2462.98
1140.665	2523.19
1143.937	2501.87
1147.208	2455.81
1150.48	2505.89
1153.75	2494.18
1157.021	2513.34
1160.291	2486.59
1163.561	2535.18
1166.831	2515.65
1170.101	2545.54
1173.37	2513.12
1176.639	2463.76
1179.907	2515.9
1183.176	2534.03
1186.444	2534.19
1189.711	2564.02
1192.979	2578.95
1196.246	2534.47
1199.513	2550.87
1202.78	2552.06
1206.046	2562.72
1209.312	2588.34
1212.578	2611.5
1215.843	2568.79
1219.108	2535.4
1222.373	2563.58
1225.638	2528.34
1228.902	2516.86
1232.166	2479.27
1235.43	2463.83
1238.693	2486.47
1241.956	2480.01
1245.219	2524
1248.482	2509.89
1251.744	2507.89
1255.006	2644.28
1258.268	2594.92
1261.529	2544
1264.79	2548.35
1268.051	2653.14
1271.312	2664.12
1274.572	2633.5
1277.832	2621.33
1281.092	2609.8
1284.351	2591.82
1287.61	2573.15
1290.869	2497.61
1294.128	2485.15
1297.386	2555.19
1300.644	2545.19
1303.902	2554.26
1307.159	2418.7
1310.416	2471.2
1313.673	2498.38
1316.93	2487.15
1320.186	2528.02
1323.442	2564.31
1326.697	2562.63
1329.953	2542.19
1333.208	2572.34
1336.463	2549.76
1339.717	2497.24
1342.972	2618.92
1346.226	2590.6
1349.479	2530.28
1352.733	2506.33
1355.986	2521.2
1359.238	2499.86
1362.491	2500.73
1365.743	2502.66
1368.995	2496.62
1372.247	2511.14
1375.498	2534.84
1378.749	2560.98
1382	2516.46
1385.251	2561.4
1388.501	2515.39
1391.751	2504.11
1395	2470.61
1398.25	2501.57
1401.499	2515.9
1404.748	2451.09
1407.996	2430.47
1411.244	2416.9
1414.492	2399.49
1417.74	2376.97
1420.987	2385.28
1424.234	2442.69
1427.481	2415.02
1430.728	2475.41
1433.974	2449.2
1437.22	2456.66
1440.465	2453.96
1443.711	2436.66
1446.956	2464.73
1450.201	2448.48
1453.445	2490.38
1456.689	2472.99
1459.933	2486.98
1463.177	2523.98
1466.42	2496.31
1469.663	2475.43
1472.906	2478.83
1476.148	2540.95
1479.391	2533.01
1482.633	2502.85
1485.874	2517.09
1489.115	2518.81
1492.356	2512.54
1495.597	2489.17
1498.838	2487.97
1502.078	2465.21
1505.318	2429.19
1508.557	2468.26
1511.797	2457.43
1515.036	2489.11
1518.274	2476.92
1521.513	2442.9
1524.751	2459.18
1527.989	2478.5
1531.227	2495.29
1534.464	2498.7
1537.701	2506.1
1540.938	2522.81
1544.174	2474.09
1547.41	2469.2
1550.646	2509.59
1553.882	2552.45
1557.117	2605.77
1560.352	2619.73
1563.587	2580.65
1566.821	2542.97
1570.055	2569.14
1573.289	2543.79
1576.523	2612.76
1579.756	2623.7
1582.989	2643.72
1586.222	2604.64
1589.454	2638.71
1592.686	2619.26
1595.918	2646.69
1599.15	2638.11
1602.381	2700.11
1605.612	2668.45
1608.843	2766.5
1612.073	2682.73
1615.303	2667.33
1618.533	2662.54
1621.762	2663.84
1624.992	2646.5
1628.221	2639.88
1631.449	2625.51
1634.678	2668.48
1637.906	2630.66
1641.134	2663.39
1644.361	2625.73
1647.588	2614.03
1650.815	2634.42
1654.042	2606.29
1657.269	2633.91
1660.495	2596.35
1663.72	2603.24
1666.946	2569.26
1670.171	2528.04
1673.396	2500.84
1676.621	2482.53
1679.845	2493.05
1683.069	2507.26
1686.293	2542.56
1689.517	2524.25
1692.74	2464.12
1695.963	2491.35
1699.185	2518.55
1702.408	2488.9
1705.63	2526.94
1708.852	2540.22
1712.073	2517.02
1715.294	2512.38
1718.515	2562.79
1721.736	2516.92
1724.956	2499.98
1728.176	2524.29
1731.396	2546.3
1734.616	2531.25
1737.835	2566.12
1741.054	2539.53
1744.272	2531.74
1747.491	2563.91
1750.709	2603.76
1753.927	2530.42
1757.144	2563.11
1760.361	2615.52
1763.578	2600.24
1766.795	2542.42
1770.011	2542.63
1773.227	2575.16
1776.443	2612.2
1779.658	2657.03
1782.874	2595.98
1786.089	2582.35
1789.303	2584.21
1792.518	2585.97
1795.732	2572.72
1798.945	2583.71
1802.159	2632.35
1805.372	2550.66
1808.585	2540.49
1811.797	2541.9
1815.01	2577.73
1818.222	2592.08
1821.434	2561.22
1824.645	2611.24
1827.856	2608.73
1831.067	2641.21
1834.278	2587.01
1837.488	2570.82
1840.698	2708.14
1843.908	2639.49
1847.117	2603.43
1850.326	2506.05
1853.535	2589.54
1856.744	2611.72
1859.952	2528.67
1863.16	2531.19
1866.368	2546.73
1869.575	2655.83
1872.782	2537.24
1875.989	2471.49
1879.196	2537.52
1882.402	2526.24
1885.608	2564.51
1888.814	2484.32
1892.019	2381.27
1895.224	2433.09
1898.429	2405.09
1901.634	2386.37
1904.838	2359.06
1908.042	2411.11
1911.246	2421.28
1914.449	2367.77
1917.652	2357.68
1920.855	2338.38
1924.058	2375.45
1927.26	2418.72
1930.462	2443.35
1933.664	2474.1
1936.865	2416.92
1940.066	2429.76
1943.267	2372.09
1946.467	2385.89
1949.668	2409.37
1952.868	2479.37
1956.067	2462.79
1959.267	2399.18
1962.466	2424.63
1965.665	2408.85
1968.863	2403.83
1972.061	2411.47
1975.259	2405.69
1978.457	2485
1981.654	2443.39
1984.852	2445.78
1988.048	2387.83
1991.245	2384.7
1994.441	2468.31
1997.637	2441.11
2000.833	2423.21
2004.028	2459.97
2007.223	2518.57
2010.418	2501.56
2013.613	2459.57
2016.807	2440.92
2020.001	2440.35
2023.194	2476.35
2026.388	2455.86
2029.581	2402.97
2032.774	2459.67
2035.966	2467.74
2039.158	2408.11
2042.35	2429.68
2045.542	2356.55
2048.733	2448.33
2051.924	2457.15
2055.115	2481.89
2058.306	2433.39
2061.496	2490.2
2064.686	2548
2067.875	2454.77
2071.065	2463.08
2074.254	2485.35
2077.442	2437.75
2080.631	2527.68
2083.819	2436.98
2087.007	2422.92
2090.195	2400.57
2093.382	2425.73
2096.569	2408.56
2099.756	2365.28
2102.942	2403.74
2106.128	2412.17
2109.314	2404.51
2112.5	2379.79
2115.685	2350.34
2118.87	2359.85
2122.055	2423.58
2125.239	2395.14
2128.424	2377.1
2131.608	2458.19
2134.791	2442.34
2137.974	2491.05
2141.157	2480.72
2144.34	2439.91
2147.523	2444.29
2150.705	2463.49
2153.887	2436.86
2157.068	2397.76
2160.25	2389.59
2163.431	2418.06
2166.611	2376.95
2169.792	2393.29
2172.972	2296.44
2176.152	2359.31
2179.331	2391.57
2182.511	2381.14
2185.69	2408.34
2188.868	2406.48
2192.047	2453.11
2195.225	2454.55
2198.403	2408.6
2201.58	2394.83
2204.758	2388
2207.935	2466.07
2211.111	2366.8
2214.288	2354.14
2217.464	2391.62
2220.64	2353.78
2223.815	2406.89
2226.991	2334.52
2230.166	2352.21
2233.34	2384.07
2236.515	2403.27
2239.689	2470.87
2242.863	2417.79
2246.036	2473.58
2249.209	2464.85
2252.382	2492.02
2255.555	2491.2
2258.727	2435.19
2261.9	2468.12
2265.071	2460.76
2268.243	2461.09
2271.414	2401.93
2274.585	2373.58
2277.756	2437.78
2280.926	2393.72
2284.096	2428.35
2287.266	2346.06
2290.436	2396.34
2293.605	2422.41
2296.774	2454.1
2299.942	2464.8
2303.111	2483.11
2306.279	2533.55
2309.447	2519.39
2312.614	2491.66
2315.781	2513.52
2318.948	2486.44
2322.115	2523.45
2325.281	2423.68
2328.447	2436.76
2331.613	2409.86
2334.779	2393.31
2337.944	2393.64
2341.109	2392.52
2344.274	2379.83
2347.438	2344.39
2350.602	2367.22
2353.766	2380.82
2356.929	2369.44
2360.092	2409.17
2363.255	2368.58
2366.418	2319.57
2369.58	2408.24
2372.742	2238.3
2375.904	2243.88
2379.066	2222.34
2382.227	2257.06
2385.388	2219.42
2388.548	2158.01
2391.709	2204.83
2394.869	2188.98
2398.029	2266.55
2401.188	2272.66
2404.347	2221.01
2407.506	2329.83
2410.665	2364.9
2413.823	2361.29
2416.981	2328.08
2420.139	2353.23
2423.296	2397.18
2426.453	2370.49
2429.61	2393.89
2432.767	2346.53
2435.923	2382.27
2439.079	2339.7
2442.235	2380.09
2445.391	2312.87
2448.546	2347.67
2451.701	2389.23
2454.855	2372.09
2458.009	2411.79
2461.163	2409.13
2464.317	2372.56
2467.471	2398.82
2470.624	2434.65
2473.777	2413.48
2476.929	2429.09
2480.082	2453.44
2483.234	2422.7
2486.385	2371.94
2489.537	2364.23
2492.688	2342.95
2495.839	2358.21
2498.989	2372.85
2502.14	2359.43
2505.29	2344.2
2508.439	2368.98
2511.589	2302.35
2514.738	2307.84
2517.887	2333.4
2521.035	2402.16
2524.183	2377.21
2527.331	2358.07
2530.479	2342.31
2533.627	2347.9
