Data from N_2_DIV_WI_4N_Splice17_12-17-49-537.txt Node
Date: Sat Mar 14 12:17:49 EDT 2020
User: sa697716
Spectrometer: FLMS03696
Trigger mode: 0
Integration Time (sec): 3.180400E-1
Scans to average: 20
Electric dark correction enabled: true
Nonlinearity correction enabled: true
Boxcar width: 5
XAxis mode: Wavelengths
Number of Pixels in Spectrum: 2048
>>>>>Begin Spectral Data<<<<<
187.83	-250265.07
188.298	1807.84
188.766	993.45
189.233	959.22
189.701	1380.69
190.169	1863.38
190.636	675.78
191.104	525.6
191.571	38.99
192.039	-108.34
192.506	-79.04
192.974	469.88
193.441	-657.28
193.908	-233.11
194.375	3.51
194.842	35.86
195.31	106.42
195.777	137.79
196.244	350.58
196.711	437.52
197.177	575.78
197.644	835.03
198.111	1452.56
198.578	1977.56
199.045	1616.75
199.511	2625.27
199.978	3073.68
200.445	2593.83
200.911	2880.19
201.378	3205.75
201.844	2903.22
202.31	4904.09
202.777	5088.19
203.243	2800.75
203.709	2674.99
204.176	3138.13
204.642	2600.4
205.108	2432.22
205.574	1973.53
206.04	1801.43
206.506	1685.29
206.972	1575.22
207.438	1530.36
207.903	1749.38
208.369	1556.59
208.835	1557.65
209.301	1646.2
209.766	1686.9
210.232	1687.23
210.697	2096.58
211.163	2599.81
211.628	3940.75
212.094	3352.04
212.559	4135.84
213.024	2589.59
213.49	3146.61
213.955	3088.96
214.42	3042.77
214.885	2839.92
215.35	2732.89
215.815	2653.83
216.28	2844.6
216.745	2344.24
217.21	2576.37
217.675	2402.54
218.14	2747.41
218.604	3132.8
219.069	3680.17
219.534	3941.74
219.998	4680.45
220.463	5766.46
220.927	7240.52
221.392	6914.05
221.856	7075.34
222.32	9011.51
222.785	11221.33
223.249	14212.63
223.713	15942.94
224.177	15961.79
224.642	20537.8
225.106	25331.39
225.57	27759.08
226.034	20645.47
226.497	31418.02
226.961	28364.91
227.425	33005.92
227.889	36717.38
228.353	36742.64
228.816	75905.6
229.28	72685.31
229.744	61384.64
230.207	37325.03
230.671	36691.26
231.134	60793.07
231.597	70065.49
232.061	70107.87
232.524	68436
232.987	47045.95
233.45	42325.54
233.914	37943
234.377	38855.67
234.84	35507.67
235.303	41813.11
235.766	46625.82
236.229	48102.18
236.691	30269.65
237.154	33981.28
237.617	25516
238.08	26114.74
238.542	30549.15
239.005	21811.21
239.468	21623.24
239.93	20365.57
240.393	18489.25
240.855	16211.04
241.317	16591.73
241.78	20182.59
242.242	20825.91
242.704	22457.11
243.166	19521.48
243.629	17693.53
244.091	20367.47
244.553	22281.39
245.015	23898.71
245.477	30899.89
245.939	45274.12
246.4	47960.85
246.862	46545.71
247.324	43881.88
247.786	49072.6
248.247	64327.93
248.709	66402.24
249.17	49643.66
249.632	46724.94
250.093	54084.91
250.555	46670.88
251.016	28430.98
251.477	26952.84
251.939	29056.34
252.4	30437.25
252.861	36179.82
253.322	33599.52
253.783	39927.41
254.244	51686.19
254.705	40707.61
255.166	36195.51
255.627	35584.57
256.088	50093.4
256.549	53177.78
257.009	45762.39
257.47	55447.08
257.931	45072.68
258.391	33717.87
258.852	34745.94
259.312	36417.31
259.773	44960.21
260.233	37958.87
260.694	31989.96
261.154	36282.09
261.614	29089.72
262.074	26014.74
262.534	27003.13
262.994	25436.06
263.455	33874.54
263.915	28511.8
264.374	26840.09
264.834	29302.43
265.294	32464.16
265.754	33589.24
266.214	31781.07
266.673	29742.4
267.133	37508.44
267.593	37220.71
268.052	45512.77
268.512	39607.52
268.971	47719.66
269.431	52289.44
269.89	46818.93
270.349	70121.3
270.809	78161.78
271.268	70196.15
271.727	157383.88
272.186	101790.02
272.645	76227.31
273.104	54922.85
273.563	79395.52
274.022	62432.41
274.481	53094.65
274.94	40852.42
275.399	30373.16
275.857	35327.68
276.316	47771.89
276.775	42489.28
277.233	41810.06
277.692	39136.16
278.15	44285.26
278.609	45530.92
279.067	42094.95
279.525	39045.95
279.984	50366.9
280.442	60415.38
280.9	59450.16
281.358	39047.39
281.816	36349.62
282.274	35539.78
282.732	36672.58
283.19	36804.97
283.648	31699.31
284.106	33715.69
284.564	34265.79
285.021	31746.14
285.479	23633.61
285.937	21512.6
286.394	18869.14
286.852	19400.97
287.309	20389.09
287.767	19676.48
288.224	18695.14
288.682	20511.14
289.139	22494.26
289.596	20560.77
290.053	21356.46
290.511	26931.13
290.968	32582.22
291.425	44162.79
291.882	36712.77
292.339	31923.34
292.796	31663.76
293.252	29802.84
293.709	23667.93
294.166	21199.34
294.623	23406.32
295.079	22436.74
295.536	22522.9
295.992	20443.73
296.449	20187.71
296.905	20949.97
297.362	20055.89
297.818	21085.34
298.274	21854.57
298.731	22237.07
299.187	21986.32
299.643	23586.35
300.099	28468.03
300.555	31193.94
301.011	26033.06
301.467	25074.38
301.923	29340.96
302.379	28659.48
302.835	28094.76
303.291	28088.32
303.746	31924.9
304.202	40244.88
304.658	40344.4
305.113	27119.89
305.569	26533.65
306.024	28275.91
306.479	26896.83
306.935	22628.59
307.39	24693.71
307.845	22807.87
308.301	22940.32
308.756	22351.18
309.211	21540.04
309.666	22054.17
310.121	27345.67
310.576	27734.62
311.031	27481.87
311.486	31444.49
311.94	31417.05
312.395	41908.03
312.85	78635.02
313.305	385821.09
313.759	1995269.47
314.214	144440.45
314.668	114433.9
315.123	96094.29
315.577	34402.16
316.032	30552.16
316.486	38230.82
316.94	30085.13
317.394	20927.29
317.849	16242.07
318.303	15380.44
318.757	14469.48
319.211	15965.06
319.665	13937.4
320.119	14094.66
320.572	20207.25
321.026	18884.96
321.48	15694.08
321.934	17117.2
322.387	17168.11
322.841	18526.14
323.295	16597.47
323.748	19123.35
324.202	19402.21
324.655	23304.74
325.108	32541.45
325.562	22958.46
326.015	27258.38
326.468	20602.59
326.921	23025.32
327.374	21443.27
327.827	22312.65
328.28	25306.58
328.733	16942.42
329.186	14895.37
329.639	14185.8
330.092	11971.45
330.545	11386.94
330.997	11468.08
331.45	12524.99
331.903	14663.38
332.355	25207.67
332.808	24487
333.26	20181.14
333.713	21904.39
334.165	22012.06
334.617	29348.59
335.069	23698.45
335.522	42812.54
335.974	47438.28
336.426	43298
336.878	30026.19
337.33	15222.68
337.782	14859.22
338.234	18591.01
338.686	22228.14
339.137	26333.5
339.589	24803.21
340.041	19418.37
340.493	16697.08
340.944	17065.73
341.396	18424.12
341.847	15489.3
342.299	18267.83
342.75	22245.97
343.201	19433.33
343.653	22316.36
344.104	27435.47
344.555	21578.24
345.006	33583.96
345.457	25724.53
345.908	20478.19
346.359	19203.39
346.81	15640.01
347.261	16467.69
347.712	16225.02
348.163	17365.13
348.613	17571.43
349.064	16406.83
349.515	14379.07
349.965	14714.22
350.416	17701.82
350.866	19412.64
351.317	21957.23
351.767	36377.38
352.217	45903.61
352.668	38094.33
353.118	34915.37
353.568	33735.88
354.018	26655.44
354.468	28131.87
354.918	20216.15
355.368	17685.6
355.818	24973.07
356.268	71905.3
356.718	300213.79
357.168	74779.58
357.617	37538.62
358.067	41766.75
358.517	39041
358.966	45764.29
359.416	51185.14
359.865	55178.89
360.315	65734.87
360.764	30647.71
361.213	17169.61
361.663	16260.1
362.112	20082.87
362.561	32464.67
363.01	24466.24
363.459	20586.39
363.908	22243.63
364.357	18877.41
364.806	31901.18
365.255	21941.86
365.703	20086.5
366.152	20100.31
366.601	16280.76
367.05	13189.26
367.498	11969.14
367.947	12505.65
368.395	13002.63
368.844	11507.02
369.292	13871.92
369.74	9585.52
370.189	14645.46
370.637	17158.01
371.085	14776.71
371.533	17961.94
371.981	17301.39
372.429	16460.25
372.877	17134.24
373.325	14330.85
373.773	14582.41
374.221	12964.51
374.669	16043.8
375.116	13878.62
375.564	13991.19
376.012	15625.09
376.459	12894.54
376.907	15363.47
377.354	18550.84
377.801	17289.05
378.249	19880.27
378.696	25385.6
379.143	30733.83
379.591	32760.82
380.038	55218.66
380.485	39839.08
380.932	42971.11
381.379	39259.51
381.826	28951.25
382.273	20570.2
382.72	17943.38
383.166	17437.39
383.613	11308.39
384.06	10157.13
384.506	11735.32
384.953	8603.44
385.4	8641.6
385.846	7569.52
386.292	7356.38
386.739	7173.53
387.185	7096.07
387.631	7102.19
388.078	6895.73
388.524	7376.41
388.97	6820.26
389.416	5678.9
389.862	6027.45
390.308	5706.21
390.754	5785.2
391.2	6272.63
391.645	6427.55
392.091	6135.69
392.537	5912.58
392.983	5901.05
393.428	5797.64
393.874	6211.59
394.319	6222.22
394.765	5903.38
395.21	6061.98
395.655	5676.01
396.101	5309.81
396.546	4765.92
396.991	4796.72
397.436	4453.61
397.881	4295.02
398.326	4056.82
398.771	3828.8
399.216	3344.32
399.661	3007.04
400.106	2991.82
400.551	3056.31
400.995	2736.71
401.44	2712.45
401.885	2544.12
402.329	2561.55
402.774	2456.1
403.218	2374.71
403.663	2283.73
404.107	2346.31
404.551	2362.5
404.995	2157.7
405.44	2073.07
405.884	2103.57
406.328	2030.7
406.772	2019.09
407.216	1837.05
407.66	1772.55
408.104	1679
408.547	1568.14
408.991	1513.42
409.435	1455
409.879	1438.76
410.322	1419.02
410.766	1366.04
411.209	1297.39
411.653	1245.36
412.096	1218.75
412.54	1215.78
412.983	1206.71
413.426	1209.49
413.869	1205.93
414.312	1177.61
414.756	1132.53
415.199	1076.81
415.642	1045.8
416.085	1045.92
416.527	1040.09
416.97	1053.94
417.413	999.67
417.856	985.94
418.298	976.13
418.741	966.03
419.184	964.08
419.626	999.21
420.069	1003.73
420.511	1008.19
420.953	986.47
421.396	973.27
421.838	948.79
422.28	969.9
422.722	977.28
423.164	988.1
423.606	973.69
424.048	971.22
424.49	925.21
424.932	915.63
425.374	901.81
425.816	917.13
426.258	935.18
426.699	944.13
427.141	931.18
427.582	946.29
428.024	941.1
428.465	936.85
428.907	916.6
429.348	906.49
429.789	910.14
430.231	893.16
430.672	902.99
431.113	881.61
431.554	870.97
431.995	848.18
432.436	817.14
432.877	799.64
433.318	784.86
433.759	778.87
434.2	777.67
434.64	766.19
435.081	767.94
435.522	729.68
435.962	703.26
436.403	689.61
436.843	698.09
437.284	682.22
437.724	663.44
438.164	665.15
438.604	650.53
439.045	625.34
439.485	600.86
439.925	587.52
440.365	571.83
440.805	563.02
441.245	554.92
441.685	535.79
442.125	531.4
442.564	533.78
443.004	522.45
443.444	521.15
443.883	521.4
444.323	517.77
444.762	516.19
445.202	523.08
445.641	534.08
446.081	529.58
446.52	532.6
446.959	528.75
447.398	517.41
447.837	510.89
448.276	501.17
448.716	505.72
449.154	509.56
449.593	498.71
450.032	495.61
450.471	485.25
450.91	484.75
451.349	484.06
451.787	479.65
452.226	485.58
452.664	484
453.103	484.99
453.541	482.78
453.98	482.47
454.418	485.8
454.856	479.3
455.295	477.54
455.733	480.63
456.171	483.04
456.609	485.76
457.047	486.55
457.485	495.24
457.923	496.67
458.361	491.37
458.798	492.81
459.236	491.78
459.674	494.57
460.111	496.89
460.549	492.43
460.987	489.77
461.424	486
461.862	482.87
462.299	474.83
462.736	474.93
463.173	475.64
463.611	470.37
464.048	469.48
464.485	474.04
464.922	470.87
465.359	468.64
465.796	466.56
466.233	463.92
466.67	460.08
467.106	459.44
467.543	454.24
467.98	449.29
468.416	437.75
468.853	433.17
469.29	419.13
469.726	414.02
470.162	403.06
470.599	394.98
471.035	390.15
471.471	380.63
471.907	377.06
472.344	374.06
472.78	374.5
473.216	378.03
473.652	373.97
474.088	372
474.523	371.34
474.959	373.67
475.395	369.27
475.831	368.26
476.266	370.16
476.702	368.56
477.138	364.23
477.573	362.49
478.008	360.82
478.444	361.68
478.879	365.66
479.314	366.07
479.75	365.95
480.185	367.55
480.62	369.32
481.055	369.82
481.49	372.52
481.925	377.34
482.36	384.58
482.795	395.3
483.229	405.65
483.664	414.39
484.099	416.26
484.534	421.9
484.968	426.68
485.403	428.07
485.837	428.19
486.271	427.36
486.706	428.71
487.14	424.05
487.574	417.13
488.009	413.23
488.443	408.87
488.877	412.86
489.311	414.96
489.745	420.11
490.179	424.97
490.613	433.6
491.046	437.03
491.48	439.54
491.914	440.25
492.348	444.06
492.781	447.23
493.215	449.51
493.648	450.28
494.082	454.25
494.515	454.62
494.948	459.89
495.382	463.51
495.815	467.91
496.248	473.83
496.681	483.3
497.114	492.94
497.547	501.88
497.98	512.63
498.413	519.66
498.846	528.31
499.279	535.88
499.711	540.95
500.144	544.32
500.577	554.3
501.009	563.32
501.442	572.36
501.874	574.67
502.306	577.82
502.739	585.95
503.171	598.81
503.603	604.2
504.036	613.97
504.468	620.94
504.9	632.4
505.332	639.43
505.764	645.9
506.196	654.29
506.627	668.67
507.059	682.88
507.491	692.48
507.923	694.65
508.354	708.81
508.786	720.79
509.217	738.08
509.649	753.43
510.08	772.25
510.512	789.51
510.943	805.32
511.374	818.49
511.805	838.69
512.237	858.2
512.668	887.95
513.099	914.4
513.53	940.85
513.961	962.38
514.391	992.65
514.822	1024.53
515.253	1058.1
515.684	1083.44
516.114	1112.53
516.545	1134.37
516.975	1160.51
517.406	1180.26
517.836	1186.32
518.267	1195.46
518.697	1215.68
519.127	1223.78
519.558	1233.93
519.988	1240.73
520.418	1253.83
520.848	1273.13
521.278	1284.55
521.708	1308.41
522.138	1322.92
522.567	1353.42
522.997	1379.62
523.427	1396.14
523.857	1413.89
524.286	1426.14
524.716	1443.33
525.145	1462.23
525.575	1473.22
526.004	1487.91
526.433	1479.67
526.863	1481.33
527.292	1474.97
527.721	1481.82
528.15	1488.12
528.579	1490.74
529.008	1501.29
529.437	1522.46
529.866	1536.37
530.295	1553.34
530.724	1566.25
531.152	1592.15
531.581	1606.68
532.01	1624.69
532.438	1633.88
532.867	1648.43
533.295	1665.88
533.723	1672.03
534.152	1671.06
534.58	1670.48
535.008	1657.18
535.436	1658.61
535.865	1665.91
536.293	1679.44
536.721	1693.3
537.149	1715.75
537.576	1719.49
538.004	1730.76
538.432	1738.65
538.86	1737.93
539.287	1745.57
539.715	1757.85
540.143	1761.58
540.57	1758.14
540.998	1754.23
541.425	1733.01
541.852	1713.66
542.28	1710.18
542.707	1695.12
543.134	1682.22
543.561	1677.49
543.988	1670.54
544.415	1670.43
544.842	1664.28
545.269	1658
545.696	1660.51
546.123	1672.21
546.549	1662.81
546.976	1651.79
547.403	1652.2
547.829	1654.61
548.256	1655.27
548.682	1651.6
549.108	1643.69
549.535	1643.54
549.961	1644.57
550.387	1631.77
550.813	1626.16
551.24	1631.03
551.666	1629.8
552.092	1618.94
552.518	1612.3
552.943	1607.47
553.369	1614.26
553.795	1619.22
554.221	1619.86
554.646	1617.66
555.072	1627.09
555.498	1630.5
555.923	1637.66
556.349	1652.47
556.774	1661.03
557.199	1661.16
557.625	1666.36
558.05	1659.44
558.475	1667.59
558.9	1665.1
559.325	1656.37
559.75	1649.36
560.175	1643
560.6	1637.06
561.025	1633.96
561.449	1633.55
561.874	1636.34
562.299	1637.66
562.723	1642.15
563.148	1632.09
563.572	1634.19
563.997	1641.44
564.421	1644.61
564.846	1642.3
565.27	1643.12
565.694	1636.89
566.118	1643.15
566.542	1648.53
566.966	1640.69
567.39	1634.15
567.814	1621.98
568.238	1619.15
568.662	1619.93
569.086	1619.53
569.509	1624
569.933	1607.15
570.357	1599.23
570.78	1579.55
571.204	1566.07
571.627	1553.99
572.05	1550.85
572.474	1549.1
572.897	1535.48
573.32	1526.66
573.743	1514.91
574.166	1496.97
574.589	1495.57
575.012	1485.97
575.435	1482.55
575.858	1470.79
576.281	1458.77
576.704	1442.39
577.126	1428.16
577.549	1417.06
577.972	1406.84
578.394	1395.82
578.817	1387.85
579.239	1369.33
579.661	1356.39
580.084	1341.22
580.506	1328.52
580.928	1323.12
581.35	1312.05
581.772	1307.43
582.194	1293.61
582.616	1280.95
583.038	1267.47
583.46	1256.1
583.882	1252
584.303	1253.93
584.725	1247.8
585.147	1248.74
585.568	1257.31
585.99	1265.35
586.411	1267.87
586.833	1280.07
587.254	1280.19
587.675	1289.61
588.096	1298.66
588.518	1293.15
588.939	1278.78
589.36	1277.28
589.781	1265.82
590.202	1240.96
590.623	1232.72
591.043	1230.43
591.464	1217.59
591.885	1213.19
592.305	1207.63
592.726	1195.39
593.147	1195.95
593.567	1190.6
593.987	1183.52
594.408	1178.73
594.828	1175.72
595.248	1170.63
595.669	1154.98
596.089	1149.36
596.509	1143.61
596.929	1132.27
597.349	1132.89
597.769	1123.86
598.189	1117.95
598.608	1117.44
599.028	1119.54
599.448	1119.38
599.867	1108.36
600.287	1105.4
600.706	1101.1
601.126	1091.45
601.545	1090.69
601.965	1087.99
602.384	1084.57
602.803	1086.39
603.222	1082.11
603.641	1075.62
604.061	1071.94
604.48	1068.01
604.898	1072.93
605.317	1076.45
605.736	1077.58
606.155	1074.69
606.574	1067.06
606.992	1068.44
607.411	1063.48
607.829	1056.23
608.248	1052.38
608.666	1048.94
609.085	1047.6
609.503	1038.61
609.921	1031.46
610.339	1032.73
610.758	1030.19
611.176	1024.8
611.594	1017.14
612.012	1012.04
612.43	1012.68
612.847	1015.75
613.265	1014.87
613.683	1015.51
614.101	1015.33
614.518	1010.91
614.936	1001.66
615.353	988.97
615.771	984.88
616.188	981.78
616.606	977.88
617.023	970.97
617.44	958.94
617.857	951.81
618.274	944.65
618.691	938.28
619.108	929.95
619.525	922.52
619.942	926.13
620.359	926.83
620.776	923.02
621.192	918.96
621.609	916.48
622.026	920.14
622.442	923.93
622.859	925.07
623.275	918.87
623.691	921.54
624.108	930.17
624.524	939.68
624.94	939.34
625.356	946.19
625.772	955.62
626.188	962.7
626.604	963.97
627.02	960.26
627.436	958.56
627.852	964.22
628.268	972.78
628.683	965.08
629.099	959.69
629.514	955.61
629.93	957.79
630.345	959.69
630.761	956.78
631.176	958.31
631.591	954.14
632.007	949.66
632.422	947.18
632.837	939.12
633.252	937.5
633.667	926.48
634.082	919.06
634.497	907.68
634.911	893.3
635.326	889.05
635.741	874.75
636.155	864.54
636.57	863.33
636.984	860.76
637.399	859.63
637.813	855.75
638.228	853.95
638.642	854.53
639.056	845.23
639.47	842.17
639.884	833.38
640.298	826.61
640.712	823.64
641.126	811.6
641.54	801.87
641.954	794.13
642.368	783.92
642.781	776.75
643.195	762.34
643.609	760.04
644.022	752.49
644.436	746.75
644.849	736.17
645.262	725.01
645.676	723.39
646.089	717.92
646.502	707.23
646.915	700.94
647.328	686.63
647.741	683.83
648.154	673.38
648.567	672.29
648.98	662.96
649.393	661.72
649.805	659.42
650.218	653.93
650.631	642.63
651.043	636.93
651.456	632.93
651.868	632.55
652.28	641.2
652.693	648.85
653.105	650.39
653.517	655.05
653.929	654.48
654.341	657.15
654.753	648.59
655.165	651.27
655.577	648.47
655.989	644.76
656.401	636.95
656.813	613.83
657.224	599.71
657.636	581.5
658.047	569.32
658.459	555.55
658.87	547.26
659.282	538.34
659.693	525.9
660.104	516.17
660.515	505.52
660.926	503.34
661.338	500.14
661.749	495.3
662.159	488.72
662.57	484.05
662.981	480.46
663.392	475.3
663.803	476.75
664.213	473.4
664.624	469.83
665.035	469.96
665.445	461.74
665.855	456.99
666.266	452.48
666.676	449.94
667.086	445.48
667.497	445.4
667.907	441.99
668.317	436.45
668.727	437.19
669.137	437.05
669.547	436.38
669.956	438.63
670.366	439.49
670.776	441.15
671.186	444.37
671.595	447.7
672.005	449.07
672.414	449.56
672.824	449.47
673.233	450.24
673.642	452.16
674.052	455.7
674.461	457.52
674.87	461.32
675.279	460.52
675.688	461.29
676.097	462.88
676.506	462.61
676.915	471.91
677.323	473.81
677.732	473.62
678.141	474.48
678.549	468.19
678.958	468.64
679.366	469.09
679.775	472.02
680.183	480.4
680.592	483.66
681	488.47
681.408	485.94
681.816	492.12
682.224	497.94
682.632	505.64
683.04	525.15
683.448	540.6
683.856	561.31
684.264	585.19
684.671	605.22
685.079	632.41
685.487	661.31
685.894	701.35
686.302	735.03
686.709	766.81
687.116	801.23
687.524	832.68
687.931	861.71
688.338	886.44
688.745	908.57
689.152	934.27
689.559	968.35
689.966	1004.52
690.373	1026.45
690.78	1062.79
691.187	1115.13
691.593	1158.47
692	1196.23
692.407	1249.92
692.813	1314.91
693.22	1370.16
693.626	1429.16
694.032	1478.37
694.439	1545.11
694.845	1602.59
695.251	1672.79
695.657	1734.43
696.063	1824.39
696.469	1895.18
696.875	1961.94
697.281	2006.91
697.687	2058.52
698.093	2103.13
698.498	2177.6
698.904	2240.9
699.31	2328.09
699.715	2394.96
700.12	2486.68
700.526	2515.93
700.931	2589.52
701.337	2648.29
701.742	2688.32
702.147	2774.57
702.552	2814.99
702.957	2882.14
703.362	2911.91
703.767	2948.13
704.172	2993.72
704.577	2962.58
704.981	3014.97
705.386	3040.21
705.791	3042.63
706.195	3121.59
706.6	3139.46
707.004	3220.14
707.408	3200.7
707.813	3234.62
708.217	3233.51
708.621	3245.25
709.025	3344.37
709.43	3353.01
709.834	3418.37
710.237	3493.87
710.641	3487.47
711.045	3517.62
711.449	3520.53
711.853	3555.09
712.256	3603.4
712.66	3645.91
713.064	3725.58
713.467	3772.42
713.87	3888.32
714.274	3939.56
714.677	4051.78
715.08	4213.92
715.484	4379.5
715.887	4583.59
716.29	4781.98
716.693	4990.56
717.096	5231.36
717.499	5367.98
717.901	5401.91
718.304	5435.99
718.707	5468.93
719.109	5375.29
719.512	5353.28
719.915	5229.81
720.317	5180.9
720.719	5231.39
721.122	5207.4
721.524	5163.32
721.926	5125.74
722.328	5227.47
722.731	5223.49
723.133	5255.77
723.535	5450.87
723.937	5475.29
724.338	5531.62
724.74	5576.42
725.142	5517.29
725.544	5520.34
725.945	5550.08
726.347	5551.29
726.748	5551.06
727.15	5569.89
727.551	5536.6
727.952	5515.94
728.354	5493.43
728.755	5500.35
729.156	5462.45
729.557	5455.28
729.958	5336.47
730.359	5286.45
730.76	5270.88
731.161	5211.88
731.562	5189.87
731.962	5196.27
732.363	5130.47
732.763	5067.13
733.164	5102.21
733.564	5036.1
733.965	4942
734.365	4911
734.766	4939.27
735.166	4902.95
735.566	4850.06
735.966	4824.19
736.366	4818.51
736.766	4759.09
737.166	4791.98
737.566	4751.92
737.966	4727.74
738.365	4769.92
738.765	4765.74
739.165	4693.87
739.564	4667.98
739.964	4713.78
740.363	4668.15
740.763	4666.56
741.162	4656.8
741.561	4627.34
741.96	4582.68
742.36	4602.8
742.759	4608.92
743.158	4646.66
743.557	4663.76
743.955	4702.79
744.354	4659.97
744.753	4719.32
745.152	4679.36
745.55	4735.14
745.949	4728.04
746.348	4732.6
746.746	4752.29
747.144	4711.23
747.543	4689.81
747.941	4737.45
748.339	4669.29
748.737	4659.1
749.136	4650.65
749.534	4716.62
749.932	4688.71
750.33	4711.67
750.727	4766.17
751.125	4741.97
751.523	4726.35
751.921	4769.14
752.318	4734.73
752.716	4791.69
753.113	4807.89
753.511	4832.63
753.908	4831.03
754.305	4813.45
754.703	4875.82
755.1	4936.98
755.497	4995.36
755.894	5187.74
756.291	5369.1
756.688	5698.91
757.085	6142.14
757.482	6761.61
757.878	7433.77
758.275	8046.37
758.672	8886.22
759.068	9572.25
759.465	10551.94
759.861	11811.3
760.258	13271.95
760.654	14022.06
761.05	13911.56
761.447	13277.5
761.843	12357.34
762.239	11417.18
762.635	10986.76
763.031	10579.46
763.427	9988.42
763.822	9362.43
764.218	8748.43
764.614	7947.57
765.01	7414.44
765.405	7068.21
765.801	6805.85
766.196	6473.93
766.592	6290.45
766.987	5975.82
767.382	5761.28
767.778	5671.72
768.173	5543.17
768.568	5473.89
768.963	5350.53
769.358	5367.17
769.753	5320.4
770.148	5233.26
770.542	5230.53
770.937	5196.77
771.332	5289.42
771.726	5309.78
772.121	5246.98
772.515	5297.35
772.91	5281.19
773.304	5351.23
773.699	5287
774.093	5340.13
774.487	5396.52
774.881	5438.62
775.275	5433.46
775.669	5391.26
776.063	5436.18
776.457	5470.95
776.851	5399.57
777.245	5389.49
777.638	5421.12
778.032	5532.75
778.425	5494.21
778.819	5536.12
779.212	5495.06
779.606	5456.08
779.999	5471.86
780.392	5453.03
780.786	5535.29
781.179	5553.77
781.572	5594.16
781.965	5609.54
782.358	5553.1
782.751	5611.65
783.143	5562.23
783.536	5634.48
783.929	5676.41
784.322	5794.69
784.714	5826.36
785.107	5819.91
785.499	5893.81
785.891	5876.92
786.284	5855.29
786.676	5999.39
787.068	5981.95
787.46	6035.16
787.852	6051.68
788.245	6134.79
788.636	6162.64
789.028	6229.9
789.42	6272.76
789.812	6282.62
790.204	6377.16
790.595	6477.53
790.987	6279.28
791.378	6301.76
791.77	6429.25
792.161	6568.54
792.553	6629.64
792.944	6519.93
793.335	6453.24
793.726	6523.49
794.117	6611.6
794.508	6748.87
794.899	6718.06
795.29	6861.84
795.681	6918.68
796.072	6778.42
796.463	6591.26
796.853	6595.37
797.244	6749.97
797.634	6781.73
798.025	6781.75
798.415	6791.39
798.806	6882.96
799.196	6968.26
799.586	7016.48
799.976	6977.55
800.366	7208.52
800.756	7447.96
801.146	7411.56
801.536	7442.23
801.926	7519.41
802.316	7545.99
802.706	7620.44
803.095	7493.81
803.485	7597.36
803.874	7638.2
804.264	7898.63
804.653	7871.65
805.043	8017.55
805.432	8125.56
805.821	8127.29
806.21	8147.14
806.599	8260.69
806.988	8305.79
807.377	8412.06
807.766	8538.36
808.155	8821.12
808.544	8555.88
808.933	8572.71
809.321	8547.09
809.71	8841.21
810.098	8998.21
810.487	9457.32
810.875	9937.93
811.264	9955.98
811.652	10249.49
812.04	10394.04
812.428	10552.15
812.816	11311.92
813.204	11725.66
813.592	12289.08
813.98	12630.34
814.368	12539.06
814.756	13016.86
815.144	12933.52
815.531	13403.2
815.919	13320.2
816.306	13628.55
816.694	13322.82
817.081	13374.23
817.469	13713.65
817.856	13704.51
818.243	13970.2
818.63	14358.32
819.017	13939.96
819.404	14011.07
819.791	14392.62
820.178	15007.78
820.565	15256.12
820.952	16188.24
821.339	15708.65
821.725	15897.26
822.112	15155.27
822.498	15113.65
822.885	15242.8
823.271	15146.36
823.657	15564.68
824.044	15565.64
824.43	15635.21
824.816	15601
825.202	15164.98
825.588	16168.43
825.974	16185.09
826.36	16704.62
826.746	16730.63
827.132	17082.33
827.517	17057.54
827.903	16266.52
828.289	16310.36
828.674	15547.54
829.06	15443.71
829.445	15840.48
829.83	16196.58
830.216	16671.5
830.601	17033.52
830.986	16639.99
831.371	16507.3
831.756	17064.38
832.141	16642.37
832.526	16633.79
832.911	16907.93
833.295	16795.67
833.68	17269.71
834.065	16658.79
834.449	15749.39
834.834	15685.17
835.218	15678.18
835.603	16018.75
835.987	15811.01
836.371	16649.34
836.755	16548.73
837.139	16955.51
837.524	17200.89
837.908	17017.46
838.291	17082.01
838.675	17152.06
839.059	17350.37
839.443	17345.04
839.827	17120.51
840.21	17596.8
840.594	17449.86
840.977	17655.75
841.361	17633.35
841.744	18009.25
842.127	17859.01
842.511	18103.91
842.894	18693.33
843.277	19079.28
843.66	19614.85
844.043	19710.26
844.426	18904.98
844.809	18593.68
845.191	18629.87
845.574	18177.59
845.957	17815.38
846.339	17709.71
846.722	17182.74
847.104	17263.17
847.487	17088.3
847.869	17098.25
848.252	17367.59
848.634	17695.89
849.016	17959.5
849.398	18087.1
849.78	18932.48
850.162	18935.85
850.544	19345.02
850.926	19963.29
851.307	19867.62
851.689	20145.44
852.071	20596.74
852.452	20912.41
852.834	20891.17
853.215	21281.24
853.597	21420.04
853.978	21705.26
854.359	22150.52
854.741	21159.08
855.122	21062.31
855.503	20771.4
855.884	20903.02
856.265	20844.29
856.646	20964.56
857.026	20580.45
857.407	20512.24
857.788	20680.91
858.169	20970.85
858.549	20131.15
858.93	20750.06
859.31	20799.51
859.69	21012.72
860.071	20609.54
860.451	20388.91
860.831	19644.88
861.211	20795.27
861.591	21345.99
861.971	21312.42
862.351	21501.07
862.731	21880.55
863.111	22139.41
863.491	22466.97
863.87	23336.96
864.25	23679.16
864.629	23284.81
865.009	23802.97
865.388	24651.66
865.768	26401.26
866.147	26297.12
866.526	24835.03
866.905	25133.09
867.284	26549.46
867.663	25208.65
868.042	24155.38
868.421	24078.96
868.8	24474.43
869.179	24707.05
869.558	23262.91
869.936	21456.11
870.315	21835.27
870.693	22362.97
871.072	24104.99
871.45	22968.41
871.828	23262.47
872.207	24457.51
872.585	24093.37
872.963	24747.47
873.341	23893.2
873.719	23611.69
874.097	23334.98
874.475	23782.74
874.853	24338.76
875.23	23329.13
875.608	24302.78
875.986	26288.8
876.363	25149.3
876.741	25904.71
877.118	25252.3
877.495	26499.84
877.873	26945.06
878.25	28341.75
878.627	27194.87
879.004	27581.95
879.381	27467.19
879.758	26745.33
880.135	24912.47
880.512	26329.68
880.889	25649.06
881.265	25395.99
881.642	25180.08
882.019	25595.38
882.395	25069.58
882.772	26056.32
883.148	24917.64
883.524	24802.27
883.901	24658.05
884.277	25025.15
884.653	24875.55
885.029	25587.72
885.405	28341.53
885.781	28125.56
886.157	26987.1
886.532	27325.63
886.908	27310.21
887.284	30377.14
887.659	31378.85
888.035	32373.31
888.411	33198.66
888.786	33629.81
889.161	34799.55
889.537	34146.21
889.912	35252.71
890.287	35204.7
890.662	36109.32
891.037	35450.92
891.412	33055.86
891.787	32730.59
892.162	31576.48
892.536	32318.5
892.911	31113.77
893.286	30446.32
893.66	29218.72
894.035	29957.63
894.409	32628.29
894.784	31313.55
895.158	31839.3
895.532	33721.9
895.906	34645.95
896.281	35448.76
896.655	34894.12
897.029	39863.19
897.402	41528.98
897.776	46240.02
898.15	46070.54
898.524	45562.42
898.898	46168.99
899.271	51672.4
899.645	44767.21
900.018	42995.9
900.392	44593.5
900.765	44951.87
901.138	41603.49
901.511	40966.28
901.884	37593.94
902.258	34688
902.631	35833.33
903.003	41233.82
903.376	37217.75
903.749	41714.31
904.122	44663.76
904.495	49181.23
904.867	49784.23
905.24	43227.92
905.612	40221.63
905.985	41139.78
906.357	42989.94
906.729	41041.69
907.102	35053.08
907.474	33700.66
907.846	33925.08
908.218	33443.12
908.59	29557.03
908.962	28586.08
909.334	30777.55
909.705	32336.74
910.077	31401.09
910.449	32672.71
910.82	33582.57
911.192	36965.43
911.563	38400.24
911.935	41060.94
912.306	41120.08
912.677	42440.45
913.048	41993.44
913.419	45535.18
913.79	45804.06
914.161	49109.71
914.532	46965.8
914.903	43163.33
915.274	40989.07
915.645	40415.69
916.015	35582.4
916.386	33944.8
916.756	36122.83
917.127	37272.31
917.497	33310.42
917.868	36246.94
918.238	34441.57
918.608	35429.65
918.978	36172.37
919.348	38316.05
919.718	39575.31
920.088	38117.35
920.458	39597.68
920.828	41689.01
921.198	39505.15
921.567	42199.5
921.937	32684.67
922.306	32997.55
922.676	35589.24
923.045	29676.68
923.415	28172.07
923.784	25649.1
924.153	26370.54
924.522	26335.04
924.891	24735.55
925.26	26503.39
925.629	25878.12
925.998	29756.22
926.367	29039.52
926.736	27633.54
927.104	32920.08
927.473	35398.46
927.842	42746.73
928.21	42329.57
928.578	44498.3
928.947	42111.93
929.315	42340.7
929.683	49649.62
930.051	50040.21
930.42	58122.82
930.788	49722.27
931.156	49334.08
931.523	46225.16
931.891	42717.32
932.259	41049.41
932.627	47597.31
932.994	67371.08
933.362	55739.58
933.729	48435.63
934.097	46353.44
934.464	39240.39
934.831	45275
935.199	44633.02
935.566	43293.05
935.933	43919.27
936.3	53192.9
936.667	41405.41
937.034	37342.72
937.401	36930.47
937.767	31870.42
938.134	28373.38
938.501	39999.47
938.867	42645.09
939.234	72180.63
939.6	61604.53
939.967	67839.38
940.333	45423.79
940.699	38664.42
941.065	31034.59
941.431	40677.02
941.798	39186.42
942.163	51463.02
942.529	32161.5
942.895	29584.09
943.261	19127
943.627	25097.29
943.992	21957.48
944.358	21991.44
944.723	22090.56
945.089	21537.36
945.454	19906.06
945.82	21252.95
946.185	20418.81
946.55	23649.81
946.915	21219.05
947.28	24904.47
947.645	21913.77
948.01	20236.9
948.375	21087.72
948.74	25243.38
949.104	29420.52
949.469	42451.78
949.834	75115.5
950.198	71243.99
950.562	42698.49
950.927	35536.61
951.291	42763.54
951.655	36494.63
952.02	34287.97
952.384	25929.78
952.748	22597.83
953.112	22052.72
953.476	19204.18
953.839	17745.67
954.203	17541.39
954.567	21935.66
954.931	34565.09
955.294	29542.81
955.658	29675.81
956.021	50433.46
956.385	85530.9
956.748	126049.3
957.111	195330.33
957.474	219014.65
957.837	246726.71
958.2	186827.78
958.563	67221.59
958.926	45460.67
959.289	68991
959.652	77086.23
960.015	57866.88
960.377	83038.23
960.74	94861.57
961.102	163817.09
961.465	175779.23
961.827	94027.88
962.189	180376.03
962.552	125006.82
962.914	100210.31
963.276	65024.11
963.638	53770.87
964	53249.12
964.362	35996
964.724	34769.47
965.085	24788.82
965.447	20344.21
965.809	23209.12
966.17	23268.27
966.532	25181.44
966.893	23139.56
967.255	21068.23
967.616	24865.11
967.977	19904.74
968.338	21749.07
968.699	17875.62
969.061	17887.29
969.421	18004.48
969.782	20190.61
970.143	17032.61
970.504	17644.8
970.865	20011.98
971.225	20423.78
971.586	19956.48
971.946	28437.4
972.307	24692.19
972.667	32285.81
973.027	33228.39
973.388	40295.61
973.748	27400.41
974.108	29824.74
974.468	40314.57
974.828	31093.63
975.188	23979.45
975.548	22041.98
975.907	18515.25
976.267	20745.57
976.627	17425.75
976.986	18066.55
977.346	17228.16
977.705	16582.73
978.064	15110.94
978.424	12579.6
978.783	13027.31
979.142	14861.19
979.501	14225.69
979.86	15021.3
980.219	14473.83
980.578	18668.43
980.937	20917.77
981.296	18651.09
981.654	19216.11
982.013	29898.47
982.371	38801.34
982.73	36190.99
983.088	40998.22
983.447	43743.24
983.805	62631.33
984.163	130990.82
984.521	145229.53
984.879	212617.69
985.237	-345222.95
985.595	332469.95
985.953	82668.41
986.311	47701.15
986.669	27702.47
987.026	23899.96
987.384	32148.21
987.741	33153.71
988.099	23686.57
988.456	18902.22
988.814	17724.18
989.171	15395.93
989.528	15170.97
989.885	15999.82
990.242	12680.71
990.599	15776.73
990.956	12891.85
991.313	9009.14
991.67	7403.1
992.027	7848.27
992.383	6956.57
992.74	6097
993.096	6410.39
993.453	6656.77
993.809	6919.49
994.165	9229.51
994.522	8472.6
994.878	9331.42
995.234	11729.44
995.59	11582.38
995.946	10964.72
996.302	12553.85
996.658	14497.46
997.013	15986.56
997.369	18912.45
997.725	24160.03
998.08	15643.48
998.436	24157.28
998.791	33417.86
999.147	33363.1
999.502	36417.84
999.857	26459.92
1000.212	43112.88
1000.567	61407.54
1000.922	35400.38
1001.277	22573.06
1001.632	16758.93
1001.987	21565.94
1002.342	15438.86
1002.696	12327.63
1003.051	9836.2
1003.406	11915.67
1003.76	11851.71
1004.114	11671.23
1004.469	9818.61
1004.823	8126.19
1005.177	8769.75
1005.531	6948.8
1005.885	6167.74
1006.239	6953.44
1006.593	8723.24
1006.947	11667.09
1007.301	8737.88
1007.655	9525.37
1008.008	6990.65
1008.362	7867.18
1008.715	11245.03
1009.069	10176.48
1009.422	15289.37
1009.776	30681.31
1010.129	20393.28
1010.482	17005.42
1010.835	14363.01
1011.188	29937.54
1011.541	28268.66
1011.894	-172700.85
1012.247	506467.17
1012.6	34356.83
1012.952	21697
1013.305	11189.02
1013.657	8063.95
1014.01	7626.46
1014.362	6283.14
1014.715	5582.35
1015.067	4855
1015.419	4757.6
1015.771	4218.43
1016.123	3756.38
1016.475	3859.35
1016.827	4121.99
1017.179	4423.95
1017.531	4452.92
1017.883	4558.27
1018.234	4419.6
1018.586	5582.47
1018.938	5904.1
1019.289	8106.35
1019.64	9311.13
1019.992	8647.39
1020.343	7955.14
1020.694	6258.72
1021.045	5527.92
1021.396	6299.49
1021.747	6745.12
1022.098	8078.48
1022.449	5872.37
1022.8	5463.63
1023.151	3806.51
1023.501	3378.49
1023.852	3690.82
1024.202	3832.23
1024.553	4227.87
1024.903	4158.41
1025.253	3553.58
1025.604	3204.32
1025.954	3973.24
1026.304	4830.89
1026.654	5628.26
1027.004	8234.35
1027.354	13247.05
1027.703	12444.2
1028.053	16253.46
1028.403	23559.9
1028.753	34169.89
1029.102	46745.79
1029.452	239971.43
1029.801	10389.08
1030.15	6719.39
1030.499	5691.73
897.758	2472.37
901.051	2423.89
904.343	2455.61
907.636	2458.96
910.928	2521.69
914.22	2434.83
917.511	2440.35
920.803	2499.11
924.094	2509.18
927.384	2500.04
930.675	2464.39
933.965	2419.38
937.255	2434.28
940.544	2400.16
943.834	2369.21
947.123	2307.94
950.411	2400.27
953.7	2377.24
956.988	2350.18
960.276	2290.09
963.563	2358.66
966.851	2360.38
970.138	2413.03
973.424	2408.41
976.711	2363.06
979.997	2458.52
983.283	2501.74
986.568	2418.14
989.853	2425.55
993.138	2452.92
996.423	2534.21
999.708	2478.77
1002.992	2526.9
1006.275	2396.84
1009.559	2424.32
1012.842	2533.71
1016.125	2470.56
1019.408	2450.66
1022.69	2525.53
1025.972	2550.38
1029.254	2525.38
1032.536	2469.3
1035.817	2491.4
1039.098	2447.68
1042.379	2553.02
1045.659	2565.51
1048.939	2502.27
1052.219	2520.8
1055.498	2524.46
1058.778	2515.46
1062.057	2494.51
1065.335	2516.37
1068.614	2533.55
1071.892	2519.03
1075.17	2589.07
1078.447	2581.3
1081.724	2574.77
1085.001	2607.15
1088.278	2584.01
1091.554	2592.64
1094.83	2588.97
1098.106	2618.57
1101.382	2656.27
1104.657	2658.87
1107.932	2656.42
1111.206	2624.11
1114.481	2582.74
1117.755	2584.47
1121.029	2568.5
1124.302	2622.07
1127.575	2585.26
1130.848	2573.91
1134.121	2539.51
1137.393	2494.04
1140.665	2556.2
1143.937	2533.63
1147.208	2489.53
1150.48	2535
1153.75	2522.95
1157.021	2545.64
1160.291	2517.43
1163.561	2560.3
1166.831	2544.11
1170.101	2573.82
1173.37	2546.14
1176.639	2494.56
1179.907	2549.86
1183.176	2562.17
1186.444	2565.95
1189.711	2590.57
1192.979	2607.3
1196.246	2563
1199.513	2579.41
1202.78	2576.23
1206.046	2585.51
1209.312	2610.55
1212.578	2633.07
1215.843	2587.93
1219.108	2560.8
1222.373	2584.55
1225.638	2553.08
1228.902	2538.4
1232.166	2501.33
1235.43	2486.93
1238.693	2513.91
1241.956	2507.55
1245.219	2551.96
1248.482	2537.49
1251.744	2534.48
1255.006	2672.53
1258.268	2625.68
1261.529	2573.58
1264.79	2577.76
1268.051	2681.72
1271.312	2695.35
1274.572	2660.11
1277.832	2651.63
1281.092	2634.89
1284.351	2617.49
1287.61	2599.35
1290.869	2521.82
1294.128	2506.82
1297.386	2580.69
1300.644	2572.46
1303.902	2580.64
1307.159	2443.77
1310.416	2497.64
1313.673	2523.65
1316.93	2514.39
1320.186	2555.11
1323.442	2592.83
1326.697	2588.82
1329.953	2572.62
1333.208	2598.49
1336.463	2578
1339.717	2525.82
1342.972	2650.13
1346.226	2624.68
1349.479	2562.39
1352.733	2536.37
1355.986	2554.09
1359.238	2531.84
1362.491	2532.16
1365.743	2532.47
1368.995	2531.23
1372.247	2541.57
1375.498	2563.16
1378.749	2584.83
1382	2539.77
1385.251	2586.73
1388.501	2545.91
1391.751	2534.35
1395	2503.94
1398.25	2534.62
1401.499	2547.16
1404.748	2478.93
1407.996	2464.86
1411.244	2454.14
1414.492	2437
1417.74	2415.34
1420.987	2423.85
1424.234	2479.29
1427.481	2453.2
1430.728	2510.63
1433.974	2486.18
1437.22	2497.18
1440.465	2497.28
1443.711	2474.28
1446.956	2500.87
1450.201	2486.51
1453.445	2531.04
1456.689	2510.9
1459.933	2523.77
1463.177	2556.14
1466.42	2529.85
1469.663	2509.79
1472.906	2509.01
1476.148	2568.05
1479.391	2557.67
1482.633	2527.23
1485.874	2536.21
1489.115	2529.58
1492.356	2530.42
1495.597	2505.92
1498.838	2507.46
1502.078	2481.9
1505.318	2440.52
1508.557	2479.75
1511.797	2470.74
1515.036	2504.56
1518.274	2495.2
1521.513	2465.98
1524.751	2482.43
1527.989	2498.39
1531.227	2514.78
1534.464	2514.83
1537.701	2527.31
1540.938	2544.82
1544.174	2496.4
1547.41	2490.46
1550.646	2529.67
1553.882	2572.66
1557.117	2623.73
1560.352	2637.12
1563.587	2595.87
1566.821	2557.7
1570.055	2588.11
1573.289	2560.92
1576.523	2627.73
1579.756	2638.73
1582.989	2659.78
1586.222	2619.57
1589.454	2653.05
1592.686	2633.71
1595.918	2659.78
1599.15	2650.56
1602.381	2717.55
1605.612	2680.65
1608.843	2775.81
1612.073	2693.74
1615.303	2678.56
1618.533	2669.65
1621.762	2674.2
1624.992	2656.5
1628.221	2646.39
1631.449	2633.37
1634.678	2678.4
1637.906	2639.24
1641.134	2672.53
1644.361	2633.91
1647.588	2622.2
1650.815	2641.19
1654.042	2616.28
1657.269	2644.2
1660.495	2605.67
1663.72	2616.96
1666.946	2584.45
1670.171	2541.05
1673.396	2512.06
1676.621	2499.61
1679.845	2511.88
1683.069	2528.38
1686.293	2565.21
1689.517	2543.3
1692.74	2482.24
1695.963	2507.04
1699.185	2531.06
1702.408	2503.45
1705.63	2541.54
1708.852	2555.59
1712.073	2529.07
1715.294	2521.69
1718.515	2574.83
1721.736	2526.93
1724.956	2515.47
1728.176	2539.75
1731.396	2563.19
1734.616	2548.71
1737.835	2580.85
1741.054	2556.95
1744.272	2549.46
1747.491	2581.37
1750.709	2623.62
1753.927	2545.7
1757.144	2584.72
1760.361	2630.65
1763.578	2616.78
1766.795	2561.06
1770.011	2563.37
1773.227	2596.52
1776.443	2632.68
1779.658	2675.32
1782.874	2616.45
1786.089	2598.69
1789.303	2599.54
1792.518	2602.09
1795.732	2590.33
1798.945	2602.91
1802.159	2650.32
1805.372	2565.65
1808.585	2553.61
1811.797	2554.25
1815.01	2594.79
1818.222	2604.72
1821.434	2582.54
1824.645	2635.42
1827.856	2628.41
1831.067	2661.34
1834.278	2612.03
1837.488	2595.9
1840.698	2734.62
1843.908	2667.23
1847.117	2632.18
1850.326	2531.95
1853.535	2617.56
1856.744	2635.03
1859.952	2555.45
1863.16	2555.61
1866.368	2576.39
1869.575	2679.19
1872.782	2566.91
1875.989	2505.33
1879.196	2575.85
1882.402	2565.62
1885.608	2605.46
1888.814	2523.6
1892.019	2427.38
1895.224	2477.51
1898.429	2455.64
1901.634	2434.09
1904.838	2410.86
1908.042	2460.63
1911.246	2469.29
1914.449	2413.61
1917.652	2409
1920.855	2388.49
1924.058	2429.05
1927.26	2468.77
1930.462	2494.49
1933.664	2521.72
1936.865	2465.3
1940.066	2476.18
1943.267	2420.71
1946.467	2434.47
1949.668	2456.31
1952.868	2522.95
1956.067	2506.34
1959.267	2441.38
1962.466	2466.22
1965.665	2450.5
1968.863	2445.45
1972.061	2455.19
1975.259	2452.33
1978.457	2532.03
1981.654	2490.05
1984.852	2492.16
1988.048	2430.88
1991.245	2430.5
1994.441	2516.14
1997.637	2491.87
2000.833	2472.08
2004.028	2511.61
2007.223	2568.39
2010.418	2549.03
2013.613	2507.97
2016.807	2486.46
2020.001	2489.72
2023.194	2527.9
2026.388	2505.37
2029.581	2451.29
2032.774	2504.83
2035.966	2514.28
2039.158	2450.39
2042.35	2473.83
2045.542	2401.46
2048.733	2492.93
2051.924	2507.04
2055.115	2531.49
2058.306	2480.7
2061.496	2537.69
2064.686	2594.25
2067.875	2507.07
2071.065	2517.67
2074.254	2543.38
2077.442	2495.45
2080.631	2582.67
2083.819	2488.28
2087.007	2473.58
2090.195	2451.18
2093.382	2479.9
2096.569	2461.25
2099.756	2420.12
2102.942	2453.2
2106.128	2458.93
2109.314	2449.54
2112.5	2422.24
2115.685	2394.83
2118.87	2403.94
2122.055	2466.92
2125.239	2436.29
2128.424	2416.33
2131.608	2503.81
2134.791	2484.88
2137.974	2535.59
2141.157	2524.33
2144.34	2481.85
2147.523	2489.86
2150.705	2507.93
2153.887	2484.77
2157.068	2442.14
2160.25	2436.6
2163.431	2469.05
2166.611	2424.79
2169.792	2439.59
2172.972	2341.05
2176.152	2409.27
2179.331	2441.02
2182.511	2427.6
2185.69	2454.6
2188.868	2452
2192.047	2498.4
2195.225	2497.96
2198.403	2449.83
2201.58	2438.31
2204.758	2434.34
2207.935	2513.17
2211.111	2412.75
2214.288	2398.42
2217.464	2436.59
2220.64	2403.39
2223.815	2457.1
2226.991	2383.62
2230.166	2401.25
2233.34	2432.67
2236.515	2455.02
2239.689	2522.28
2242.863	2469.27
2246.036	2523.87
2249.209	2519.61
2252.382	2546.59
2255.555	2542.55
2258.727	2484.15
2261.9	2521.13
2265.071	2513
2268.243	2512.63
2271.414	2451.65
2274.585	2422.87
2277.756	2487.39
2280.926	2442.52
2284.096	2477.91
2287.266	2396.9
2290.436	2444.43
2293.605	2472.12
2296.774	2504.47
2299.942	2517.82
2303.111	2537.9
2306.279	2584.18
2309.447	2569.61
2312.614	2542.82
2315.781	2565.13
2318.948	2541.14
2322.115	2575.47
2325.281	2481.67
2328.447	2494.27
2331.613	2468.99
2334.779	2450.28
2337.944	2447.32
2341.109	2448.18
2344.274	2434.54
2347.438	2401.22
2350.602	2422.75
2353.766	2437.17
2356.929	2424.75
2360.092	2464.43
2363.255	2423.25
2366.418	2368.42
2369.58	2464.69
2372.742	2287.4
2375.904	2292.84
2379.066	2272.7
2382.227	2303.57
2385.388	2270.09
2388.548	2203.21
2391.709	2253.29
2394.869	2233.13
2398.029	2318.18
2401.188	2323.97
2404.347	2269.44
2407.506	2385.29
2410.665	2416.94
2413.823	2418.7
2416.981	2384.93
2420.139	2407.5
2423.296	2455.3
2426.453	2429.06
2429.61	2453.59
2432.767	2399.06
2435.923	2437.7
2439.079	2394.79
2442.235	2439.38
2445.391	2373.93
2448.546	2403.46
2451.701	2446.55
2454.855	2427.32
2458.009	2469.45
2461.163	2465.99
2464.317	2430.86
2467.471	2460.88
2470.624	2497.08
2473.777	2476.25
2476.929	2488.99
2480.082	2513.76
2483.234	2481.49
2486.385	2430.25
2489.537	2424.6
2492.688	2395.97
2495.839	2415.29
2498.989	2427.8
2502.14	2411.78
2505.29	2398.73
2508.439	2419.19
2511.589	2349.5
2514.738	2353.93
2517.887	2381.31
2521.035	2452.57
2524.183	2428.95
2527.331	2411.06
2530.479	2390.62
2533.627	2396.8
