Data from N_2_DEC_CT_2N_Splice17_12-28-22-443.txt Node
Date: Sat Mar 14 12:28:22 EDT 2020
User: sa697716
Spectrometer: FLMS03696
Trigger mode: 0
Integration Time (sec): 3.180400E-1
Scans to average: 20
Electric dark correction enabled: true
Nonlinearity correction enabled: true
Boxcar width: 5
XAxis mode: Wavelengths
Number of Pixels in Spectrum: 2048
>>>>>Begin Spectral Data<<<<<
187.83	-296939.86
188.298	2185.87
188.766	1237.73
189.233	1104.06
189.701	1547.38
190.169	2182.96
190.636	906.96
191.104	804.78
191.571	186.1
192.039	27.09
192.506	-60.36
192.974	487.2
193.441	-904.36
193.908	-34.62
194.375	32.44
194.842	58.45
195.31	236.7
195.777	263.02
196.244	491.62
196.711	576.77
197.177	714.64
197.644	999.33
198.111	1761.72
198.578	2482
199.045	1977.24
199.511	3221.94
199.978	3776.96
200.445	3153.8
200.911	3502.41
201.378	3933.22
201.844	3557.52
202.31	6079.01
202.777	6334.96
203.243	3487.37
203.709	3326.46
204.176	3950.75
204.642	3250.43
205.108	3026.37
205.574	2492.05
206.04	2261.96
206.506	2151.1
206.972	2042.97
207.438	1986.5
207.903	2274.53
208.369	2003.1
208.835	2003.12
209.301	2112.43
209.766	2178.76
210.232	2178.27
210.697	2706.41
211.163	3380.79
211.628	5083.17
212.094	4302.28
212.559	5271.32
213.024	3299.24
213.49	4044.58
213.955	3966.09
214.42	3905.79
214.885	3661.64
215.35	3552.46
215.815	3400.41
216.28	3610.54
216.745	2958.24
217.21	3235.51
217.675	3055.49
218.14	3485.88
218.604	3974.58
219.069	4634.07
219.534	4940
219.998	5858.78
220.463	7233.29
220.927	9148.42
221.392	8757.33
221.856	8976.15
222.32	11456.33
222.785	14224.41
223.249	18078
223.713	20304.97
224.177	20407.32
224.642	26359.36
225.106	32570.64
225.57	35706.28
226.034	26541.93
226.497	40483.04
226.961	36624.85
227.425	42722.69
227.889	47583.66
228.353	47643.84
228.816	98680.2
229.28	94514.64
229.744	79810.81
230.207	48522.99
230.671	47742.28
231.134	79317.38
231.597	91430.51
232.061	91564.78
232.524	89510.52
232.987	61687.42
233.45	55486.79
233.914	49794.27
234.377	51147.25
234.84	46827.04
235.303	55311.35
235.766	61804.56
236.229	63849.23
236.691	40255.8
237.154	45267.34
237.617	34045.31
238.08	34912.49
238.542	40957.02
239.005	29275.25
239.468	29044.95
239.93	27392.76
240.393	24896.76
240.855	21850.53
241.317	22400.52
241.78	27292.2
242.242	28206.2
242.704	30422.63
243.166	26456.13
243.629	23995.35
244.091	27664.99
244.553	30362.4
245.015	32660.69
245.477	42263.55
245.939	62011.71
246.4	65837.33
246.862	64037.93
247.324	60462.32
247.786	67769.41
248.247	89001.68
248.709	92083.92
249.17	68925.14
249.632	64909.28
250.093	75212.19
250.555	65068.63
251.016	39729.1
251.477	37718.46
251.939	40785.32
252.4	42839.95
252.861	51016.34
253.322	47484.58
253.783	56656.36
254.244	73624.84
254.705	58179.58
255.166	51846.45
255.627	51094.71
256.088	72116.24
256.549	76662.18
257.009	66061.51
257.47	80259.71
257.931	65408.48
258.391	49027.11
258.852	50510.55
259.312	52969.77
259.773	65453.04
260.233	55318.33
260.694	46667.34
261.154	53022.68
261.614	42564.64
262.074	38120.96
262.534	39625.03
262.994	37381.51
263.455	49899.85
263.915	42077.13
264.374	39670.25
264.834	43387.02
265.294	48171.68
265.754	49951.34
266.214	47321.44
266.673	44374.29
267.133	55999.64
267.593	55608.49
268.052	68100.64
268.512	59268.27
268.971	71514.7
269.431	78522.57
269.89	70309.36
270.349	105461.69
270.809	117637.53
271.268	105799.6
271.727	237666.95
272.186	154112.37
272.645	115735.6
273.104	83595.58
273.563	121110.24
274.022	95358.71
274.481	81087.73
274.94	62542.27
275.399	46574.75
275.857	54298.06
276.316	73500.69
276.775	65381.79
277.233	64401.79
277.692	60282.65
278.15	68198.95
278.609	70110.87
279.067	64903.15
279.525	60321.61
279.984	77967.69
280.442	93640.28
280.9	92276.76
281.358	60718.63
281.816	56609.78
282.274	55446.32
282.732	57328.69
283.19	57655.62
283.648	49834.05
284.106	53085.35
284.564	54008.76
285.021	49996.8
285.479	37237.41
285.937	33897.7
286.394	29740.92
286.852	30629.3
287.309	32176.42
287.767	31024.6
288.224	29437.45
288.682	32272.55
289.139	35412.92
289.596	32397.86
290.053	33692.65
290.511	42557.42
290.968	51617.54
291.425	70119.63
291.882	58297.88
292.339	50770.09
292.796	50481.57
293.252	47688.3
293.709	37942.09
294.166	34034.06
294.623	37658.37
295.079	36203.49
295.536	36385.62
295.992	33066.83
296.449	32714.56
296.905	34052.8
297.362	32684.01
297.818	34426.22
298.274	35722.15
298.731	36429.32
299.187	36076.96
299.643	38780.72
300.099	46925.41
300.555	51497.96
301.011	43045.87
301.467	41442.9
301.923	48612.2
302.379	47501.91
302.835	46674.07
303.291	46759.12
303.746	53252.77
304.202	67321.9
304.658	67616.15
305.113	45490.61
305.569	44589.56
306.024	47604.85
306.479	45446.47
306.935	38307.4
307.39	41923.94
307.845	38713.15
308.301	38953.39
308.756	37982.25
309.211	36603.63
309.666	37514.08
310.121	46525.44
310.576	47294.87
311.031	46914.33
311.486	53743.82
311.94	53707.63
312.395	71716.58
312.85	134809.95
313.305	662707.32
313.759	3422449.23
314.214	247842.73
314.668	196287.8
315.123	165109.17
315.577	59084.45
316.032	52516.96
316.486	65734.68
316.94	51775.85
317.394	36025.93
317.849	28003.74
318.303	26536.44
318.757	25065.98
319.211	27734.28
319.665	24290.63
320.119	24590.48
320.572	35287.14
321.026	32944.69
321.48	27462.21
321.934	30003.5
322.387	30081.92
322.841	32473.1
323.295	29128.32
323.748	33585.16
324.202	34073.24
324.655	40914.89
325.108	57120.69
325.562	40383.32
326.015	48051.32
326.468	36285.87
326.921	40579.5
327.374	37824.8
327.827	39377.28
328.28	44633.78
328.733	29883.53
329.186	26266.98
329.639	25020.21
330.092	21098.75
330.545	20073.03
330.997	20231.09
331.45	22060.73
331.903	25776.62
332.355	44391.13
332.808	43145.6
333.26	35565.13
333.713	38579.56
334.165	38865.51
334.617	51883.86
335.069	41967.02
335.522	75885.51
335.974	83965.28
336.426	76891.82
336.878	53353.51
337.33	26974.46
337.782	26321.78
338.234	32902.39
338.686	39381.43
339.137	46633.69
339.589	43903.97
340.041	34366.41
340.493	29536.21
340.944	30225.39
341.396	32516.26
341.847	27326.74
342.299	32210.41
342.75	39283.72
343.201	34416.81
343.653	39619.35
344.104	48749.14
344.555	38392.51
345.006	59762.88
345.457	45692.23
345.908	36392.54
346.359	34248.93
346.81	27920.28
347.261	29531.62
347.712	29140.17
348.163	31245.72
348.613	31557
349.064	29456.8
349.515	25819.64
349.965	26516.13
350.416	32037.45
350.866	35162.59
351.317	39775.93
351.767	65872.31
352.217	83172.13
352.668	68981.62
353.118	63211.16
353.568	61086.49
354.018	48292.82
354.468	50850.18
354.918	36419.46
355.368	31751.79
355.818	44828.19
356.268	128971.56
356.718	538789.53
357.168	134006.48
357.617	67193.06
358.067	74738.01
358.517	69930.56
358.966	81953.61
359.416	91777.88
359.865	99321.81
360.315	118384.56
360.764	55238.38
361.213	30947.4
361.663	29384.97
362.112	36269.35
362.561	58648.22
363.01	44272.49
363.459	37333.27
363.908	40418.85
364.357	34345.2
364.806	58089.7
365.255	39997.14
365.703	36619.17
366.152	36653.68
366.601	29705.8
367.05	24126.24
367.498	21884.25
367.947	22838.92
368.395	23748.94
368.844	21008.1
369.292	25347.81
369.74	17472.8
370.189	26766.53
370.637	31358.6
371.085	27064.36
371.533	32972.46
371.981	31770.19
372.429	30297.8
372.877	31562.99
373.325	26396.19
373.773	26907.96
374.221	23962.13
374.669	29730.28
375.116	25730.41
375.564	25960.24
376.012	29052.09
376.459	23945.32
376.907	28638.53
377.354	34660.65
377.801	32325.44
378.249	37140.4
378.696	47553.27
379.143	57708.85
379.591	61631.8
380.038	104220.96
380.485	75337.35
380.932	81338.83
381.379	74324.54
381.826	54714.74
382.273	38958.58
382.72	34112.26
383.166	33320.04
383.613	21617.58
384.06	19497.47
384.506	22582.45
384.953	16614.12
385.4	16793.25
385.846	14771.86
386.292	14479.23
386.739	14225.78
387.185	14087.73
387.631	14124.34
388.078	13712.18
388.524	14713.94
388.97	13616.58
389.416	11362.06
389.862	12104.16
390.308	11497.51
390.754	11683.92
391.2	12703.52
391.645	13035.79
392.091	12467.69
392.537	12087.01
392.983	12166.87
393.428	11966.75
393.874	12871.19
394.319	12949.42
394.765	12296.19
395.21	12669.34
395.655	11919.62
396.101	11173.45
396.546	10100.58
396.991	10242.94
397.436	9526.81
397.881	9212.98
398.326	8769.09
398.771	8293.17
399.216	7276.53
399.661	6571.27
400.106	6552.11
400.551	6712.32
400.995	6034.47
401.44	5971.18
401.885	5616.76
402.329	5690.07
402.774	5473.72
403.218	5291.03
403.663	5110.76
404.107	5259.12
404.551	5304.61
404.995	4872.84
405.44	4704.83
405.884	4787.79
406.328	4654.52
406.772	4652.01
407.216	4245.65
407.66	4112.99
408.104	3925.26
408.547	3684.23
408.991	3571.96
409.435	3445.24
409.879	3402.29
410.322	3362.86
410.766	3253.42
411.209	3092.88
411.653	2972.91
412.096	2910.56
412.54	2911.79
412.983	2888.38
413.426	2896.45
413.869	2898.29
414.312	2843.37
414.756	2741.25
415.199	2615.91
415.642	2533.8
416.085	2535.75
416.527	2518.06
416.97	2557.16
417.413	2425.37
417.856	2406.77
418.298	2381.04
418.741	2365.22
419.184	2364.59
419.626	2466.26
420.069	2470.72
420.511	2485.64
420.953	2430.49
421.396	2408.84
421.838	2349.42
422.28	2405.67
422.722	2412.16
423.164	2451.45
423.606	2413.66
424.048	2411
424.49	2291.18
424.932	2280.19
425.374	2255.73
425.816	2302.52
426.258	2348.6
426.699	2375.4
427.141	2337.28
427.582	2379.18
428.024	2370.27
428.465	2360.37
428.907	2304.43
429.348	2282.25
429.789	2279.5
430.231	2227.16
430.672	2256.91
431.113	2206.17
431.554	2177.89
431.995	2128.57
432.436	2046.69
432.877	1997.13
433.318	1957.41
433.759	1945.79
434.2	1943.41
434.64	1924.42
435.081	1929.34
435.522	1823.92
435.962	1755.51
436.403	1712.23
436.843	1736.75
437.284	1703.65
437.724	1659.99
438.164	1668.31
438.604	1633.06
439.045	1571.37
439.485	1505.36
439.925	1476.39
440.365	1443.22
440.805	1427.02
441.245	1413.15
441.685	1363.49
442.125	1358.98
442.564	1373.55
443.004	1346.02
443.444	1345.83
443.883	1351.03
444.323	1349.47
444.762	1359.8
445.202	1384.72
445.641	1413.31
446.081	1413.24
446.52	1427.5
446.959	1416.4
447.398	1382.94
447.837	1369.11
448.276	1352.53
448.716	1370.32
449.154	1387.47
449.593	1358.53
450.032	1357.22
450.471	1338.51
450.91	1343.09
451.349	1343.76
451.787	1342.94
452.226	1369.18
452.664	1373.17
453.103	1376.47
453.541	1377.83
453.98	1372.9
454.418	1385.21
454.856	1363.2
455.295	1361.85
455.733	1372.89
456.171	1382.48
456.609	1385.96
457.047	1388.14
457.485	1406.93
457.923	1410.83
458.361	1394.92
458.798	1404.09
459.236	1402.22
459.674	1415.71
460.111	1423.49
460.549	1411.23
460.987	1408.3
461.424	1404.33
461.862	1396.86
462.299	1377.17
462.736	1375.18
463.173	1378.64
463.611	1359.32
464.048	1353.52
464.485	1363.52
464.922	1352.43
465.359	1345.93
465.796	1317.83
466.233	1306.83
466.67	1292.16
467.106	1288.95
467.543	1277.99
467.98	1263.56
468.416	1234.36
468.853	1227
469.29	1191.16
469.726	1179.25
470.162	1149.49
470.599	1145
471.035	1137.14
471.471	1112.41
471.907	1108.64
472.344	1102.94
472.78	1105.52
473.216	1121.49
473.652	1108.72
474.088	1109.06
474.523	1104.81
474.959	1115.74
475.395	1105.86
475.831	1097.81
476.266	1104.06
476.702	1101.68
477.138	1090.08
477.573	1086.89
478.008	1082.14
478.444	1087.12
478.879	1095.13
479.314	1099.33
479.75	1099.34
480.185	1106.15
480.62	1118
481.055	1124.48
481.49	1133
481.925	1149.85
482.36	1169.09
482.795	1204.62
483.229	1239.04
483.664	1267.37
484.099	1274.89
484.534	1295.75
484.968	1308.13
485.403	1314.2
485.837	1316.16
486.271	1315.45
486.706	1318.52
487.14	1307.12
487.574	1287.14
488.009	1276.36
488.443	1267.07
488.877	1280.05
489.311	1285.67
489.745	1301.96
490.179	1314.58
490.613	1336.78
491.046	1349.1
491.48	1360.45
491.914	1363.1
492.348	1374.48
492.781	1384.2
493.215	1388.83
493.648	1393.65
494.082	1406.41
494.515	1407.92
494.948	1425.26
495.382	1438.36
495.815	1448.82
496.248	1460.9
496.681	1487.97
497.114	1510.73
497.547	1530.76
497.98	1555.99
498.413	1567.61
498.846	1586.4
499.279	1604.69
499.711	1612.89
500.144	1616.9
500.577	1636.49
501.009	1657.51
501.442	1674.81
501.874	1676.47
502.306	1679.97
502.739	1690.2
503.171	1717.32
503.603	1719.86
504.036	1736.51
504.468	1744.1
504.9	1764.43
505.332	1774.72
505.764	1779.56
506.196	1789.52
506.627	1814.29
507.059	1834.76
507.491	1850.93
507.923	1842.67
508.354	1866.23
508.786	1880.01
509.217	1908.31
509.649	1928.8
510.08	1958
510.512	1981.95
510.943	2002.46
511.374	2014.35
511.805	2044.37
512.237	2071.06
512.668	2122.23
513.099	2163.41
513.53	2203.44
513.961	2229.35
514.391	2275.27
514.822	2321.94
515.253	2374.78
515.684	2409.27
516.114	2450.47
516.545	2475.27
516.975	2508.74
517.406	2528.03
517.836	2519.52
518.267	2519.03
518.697	2537.97
519.127	2534.71
519.558	2536.8
519.988	2530.08
520.418	2535.9
520.848	2553.87
521.278	2557.3
521.708	2547.76
522.138	2556.68
522.567	2598.12
522.997	2628.32
523.427	2643.86
523.857	2661.7
524.286	2668.24
524.716	2682.71
525.145	2702.47
525.575	2710.07
526.004	2723.69
526.433	2727.4
526.863	2720.07
527.292	2694.07
527.721	2694.28
528.15	2695.88
528.579	2689.19
529.008	2698.6
529.437	2728.81
529.866	2743.62
530.295	2764.73
530.724	2777.59
531.152	2815.67
531.581	2831.07
532.01	2854.89
532.438	2864.26
532.867	2882.82
533.295	2905.93
533.723	2911.14
534.152	2903.37
534.58	2901.01
535.008	2872.93
535.436	2873.82
535.865	2882.23
536.293	2902.99
536.721	2926.14
537.149	2964.2
537.576	2966.12
538.004	2984.2
538.432	2995.12
538.86	2990.47
539.287	2999.54
539.715	3021.29
540.143	3024.96
540.57	3017.93
540.998	3011.02
541.425	2971.98
541.852	2937.88
542.28	2934.08
542.707	2908.52
543.134	2886.21
543.561	2878.76
543.988	2866.18
544.415	2863.88
544.842	2853.48
545.269	2841.1
545.696	2842.92
546.123	2862.28
546.549	2843.26
546.976	2822.95
547.403	2821.19
547.829	2822.4
548.256	2826.22
548.682	2819.46
549.108	2805.28
549.535	2803.92
549.961	2807.02
550.387	2785.78
550.813	2776.71
551.24	2787.1
551.666	2788.47
552.092	2773.34
552.518	2764.59
552.943	2755.22
553.369	2767.25
553.795	2777.66
554.221	2781
554.646	2776.18
555.072	2793.73
555.498	2805.24
555.923	2821.84
556.349	2845.58
556.774	2861.73
557.199	2865.27
557.625	2876.2
558.05	2869.67
558.475	2888.63
558.9	2890.81
559.325	2881.73
559.75	2876.45
560.175	2868.32
560.6	2862.87
561.025	2864.72
561.449	2869.84
561.874	2883.96
562.299	2894.99
562.723	2912.06
563.148	2900.99
563.572	2911.48
563.997	2934.74
564.421	2949.82
564.846	2956.94
565.27	2966.74
565.694	2968.53
566.118	2994.12
566.542	3011.24
566.966	3008.49
567.39	3007.13
567.814	2997.27
568.238	3004.23
568.662	3019.35
569.086	3031.44
569.509	3051.75
569.933	3034.74
570.357	3031.36
570.78	3004.47
571.204	2990.68
571.627	2980.38
572.05	2985.83
572.474	2990.88
572.897	2976.37
573.32	2969.97
573.743	2959.42
574.166	2934.21
574.589	2941.82
575.012	2934.63
575.435	2938.05
575.858	2928.34
576.281	2915.19
576.704	2894.19
577.126	2880.02
577.549	2867.16
577.972	2855.07
578.394	2839.88
578.817	2831.19
579.239	2804.69
579.661	2785.91
580.084	2761.61
580.506	2743.56
580.928	2743.37
581.35	2727.03
581.772	2724.45
582.194	2704.93
582.616	2688.25
583.038	2669.03
583.46	2655.73
583.882	2652.62
584.303	2665.22
584.725	2664.31
585.147	2668.86
585.568	2689.74
585.99	2714.7
586.411	2729.37
586.833	2758.79
587.254	2764.75
587.675	2794.94
588.096	2822.43
588.518	2816.14
588.939	2789.47
589.36	2790.09
589.781	2780.34
590.202	2730.03
590.623	2717.91
591.043	2717.77
591.464	2698.54
591.885	2692.82
592.305	2683.71
592.726	2660.96
593.147	2666.2
593.567	2658.25
593.987	2645.45
594.408	2638.23
594.828	2640.51
595.248	2630.3
595.669	2597.13
596.089	2586.53
596.509	2578.18
596.929	2557.3
597.349	2561.09
597.769	2545.66
598.189	2537.33
598.608	2541.86
599.028	2546.31
599.448	2547.81
599.867	2528.33
600.287	2522.99
600.706	2517.11
601.126	2501.69
601.545	2500.74
601.965	2499.87
602.384	2492.96
602.803	2500.23
603.222	2493.81
603.641	2485.24
604.061	2480.9
604.48	2477.09
604.898	2494.94
605.317	2507.66
605.736	2513.95
606.155	2511.82
606.574	2497.63
606.992	2509.7
607.411	2504.44
607.829	2492.91
608.248	2489.08
608.666	2487.83
609.085	2489.52
609.503	2478.49
609.921	2469.23
610.339	2476.69
610.758	2478.08
611.176	2473.34
611.594	2459.54
612.012	2455.89
612.43	2464.05
612.847	2480.39
613.265	2484.55
613.683	2496.18
614.101	2500.86
614.518	2497.16
614.936	2481.71
615.353	2457.76
615.771	2455.26
616.188	2459.24
616.606	2455.44
617.023	2446.14
617.44	2422.06
617.857	2413.67
618.274	2399.75
618.691	2390.77
619.108	2376.07
619.525	2367.64
619.942	2382.55
620.359	2390.59
620.776	2383.49
621.192	2377.52
621.609	2375.91
622.026	2389.87
622.442	2402.12
622.859	2412.44
623.275	2401.52
623.691	2415.13
624.108	2437.63
624.524	2467.44
624.94	2467.99
625.356	2488.28
625.772	2515.37
626.188	2539.55
626.604	2543.83
627.02	2538.11
627.436	2534.01
627.852	2546.65
628.268	2568.09
628.683	2552.66
629.099	2537.98
629.514	2530.31
629.93	2538.73
630.345	2549.72
630.761	2544.11
631.176	2552.36
631.591	2540.45
632.007	2529.53
632.422	2529.27
632.837	2510.84
633.252	2506.23
633.667	2487.77
634.082	2471.98
634.497	2450.1
634.911	2413.36
635.326	2408.24
635.741	2377.85
636.155	2363.81
636.57	2371.15
636.984	2375.16
637.399	2381.97
637.813	2388.94
638.228	2394.29
638.642	2410.24
639.056	2395.51
639.47	2402.28
639.884	2392.1
640.298	2386.21
640.712	2391.04
641.126	2372.77
641.54	2362.31
641.954	2361.3
642.368	2342.21
642.781	2327.2
643.195	2296.29
643.609	2302.91
644.022	2297.19
644.436	2294.83
644.849	2276.13
645.262	2256.11
645.676	2264.28
646.089	2257.59
646.502	2228.89
646.915	2220.87
647.328	2191.88
647.741	2189.49
648.154	2165.76
648.567	2159.07
648.98	2131.52
649.393	2133.49
649.805	2126.84
650.218	2112.48
650.631	2078.62
651.043	2066.27
651.456	2054.34
651.868	2057.2
652.28	2096.49
652.693	2124.26
653.105	2140.31
653.517	2161.73
653.929	2162.99
654.341	2172.96
654.753	2146.46
655.165	2161.28
655.577	2155.45
655.989	2146.43
656.401	2130.68
656.813	2052.97
657.224	2011.47
657.636	1953.82
658.047	1915.83
658.459	1875.52
658.87	1860.1
659.282	1836.81
659.693	1793.45
660.104	1764.2
660.515	1736.9
660.926	1733.44
661.338	1728.44
661.749	1716.06
662.159	1694.55
662.57	1685.69
662.981	1674.57
663.392	1656.58
663.803	1662.23
664.213	1655.9
664.624	1645.05
665.035	1648.24
665.445	1617.42
665.855	1598.1
666.266	1577.42
666.676	1570.04
667.086	1549.11
667.497	1543.55
667.907	1527.65
668.317	1506.71
668.727	1493.85
669.137	1492.61
669.547	1484.19
669.956	1485.12
670.366	1485.58
670.776	1485.93
671.186	1491.55
671.595	1494.21
672.005	1498.64
672.414	1494.02
672.824	1486.44
673.233	1495.28
673.642	1495.8
674.052	1497.04
674.461	1497.54
674.87	1503.38
675.279	1493.76
675.688	1493.06
676.097	1491.48
676.506	1482.67
676.915	1508.54
677.323	1511.53
677.732	1505.42
678.141	1502.3
678.549	1482.63
678.958	1481.47
679.366	1479.93
679.775	1490.89
680.183	1509.36
680.592	1521.81
681	1534.4
681.408	1522.73
681.816	1541.06
682.224	1560.84
682.632	1579.89
683.04	1640.31
683.448	1689.76
683.856	1751.87
684.264	1823.16
684.671	1891.32
685.079	1972.93
685.487	2062.93
685.894	2186.08
686.302	2286.08
686.709	2363.88
687.116	2458.85
687.524	2530.6
687.931	2589.85
688.338	2637.11
688.745	2673.09
689.152	2713.66
689.559	2772.78
689.966	2826.15
690.373	2839.06
690.78	2882.77
691.187	2969.96
691.593	3026.19
692	3068.4
692.407	3144.05
692.813	3239.25
693.22	3307.57
693.626	3375.53
694.032	3420.21
694.439	3508
694.845	3567.42
695.251	3654.28
695.657	3724.58
696.063	3847.17
696.469	3925.91
696.875	3997.54
697.281	4021.59
697.687	4060.46
698.093	4086.3
698.498	4169.25
698.904	4225.86
699.31	4325.31
699.715	4385.88
700.12	4489.8
700.526	4482.33
700.931	4554.22
701.337	4596.83
701.742	4612.96
702.147	4704.96
702.552	4720.39
702.957	4777.96
703.362	4779.33
703.767	4792.45
704.172	4821.25
704.577	4728.48
704.981	4772.15
705.386	4769.43
705.791	4732.39
706.195	4815.17
706.6	4801.59
707.004	4889.48
707.408	4825.05
707.813	4839.2
708.217	4802.07
708.621	4784.61
709.025	4895.49
709.43	4873.53
709.834	4936.86
710.237	5012.81
710.641	4972.4
711.045	4983.56
711.449	4957.18
711.853	4973.88
712.256	5011.95
712.66	5043.71
713.064	5124.46
713.467	5162.25
713.87	5291.51
714.274	5333.78
714.677	5459.94
715.08	5647.94
715.484	5845.33
715.887	6086.31
716.29	6327.73
716.693	6572.82
717.096	6859.97
717.499	7008.53
717.901	7024.76
718.304	7044.63
718.707	7059.32
719.109	6918.44
719.512	6869.08
719.915	6686.95
720.317	6603.54
720.719	6641.61
721.122	6596.63
721.524	6523.61
721.926	6460.26
722.328	6571.8
722.731	6550
723.133	6571.43
723.535	6794.51
723.937	6810.57
724.338	6863.5
724.74	6906.52
725.142	6806.96
725.544	6794.01
725.945	6813.63
726.347	6801.48
726.748	6786.87
727.15	6795.23
727.551	6743.72
727.952	6702.88
728.354	6660.4
728.755	6655.03
729.156	6595.51
729.557	6589.38
729.958	6434.36
730.359	6366.46
730.76	6341.19
731.161	6261.31
731.562	6224.51
731.962	6223.17
732.363	6140.91
732.763	6059.02
733.164	6099.43
733.564	6014.33
733.965	5896.14
734.365	5850.42
734.766	5879.36
735.166	5826.37
735.566	5756.35
735.966	5723.66
736.366	5713.58
736.766	5637.79
737.166	5671.03
737.566	5618.31
737.966	5583.63
738.365	5628.07
738.765	5618.94
739.165	5528.56
739.564	5494.83
739.964	5545.48
740.363	5488.19
740.763	5484.45
741.162	5469.2
741.561	5428.24
741.96	5372.32
742.36	5395.18
742.759	5398.7
743.158	5442.63
743.557	5456.6
743.955	5502.78
744.354	5447.3
744.753	5511.21
745.152	5459.48
745.55	5519.92
745.949	5512.53
746.348	5511.94
746.746	5528.67
747.144	5481.56
747.543	5452.42
747.941	5508.12
748.339	5425.27
748.737	5416.71
749.136	5409.85
749.534	5487.24
749.932	5456.47
750.33	5484.12
750.727	5550.3
751.125	5522.3
751.523	5499.47
751.921	5551.39
752.318	5513.43
752.716	5581.91
753.113	5599.31
753.511	5626.33
753.908	5624.74
754.305	5603.54
754.703	5674.99
755.1	5745.21
755.497	5817.43
755.894	6043.31
756.291	6252.44
756.688	6636.82
757.085	7148.62
757.482	7866.12
757.878	8650.21
758.275	9357.99
758.672	10336.53
759.068	11131.66
759.465	12265.69
759.861	13723.23
760.258	15416.14
760.654	16298.5
761.05	16159.26
761.447	15419.22
761.843	14352.82
762.239	13252.14
762.635	12755.79
763.031	12275.53
763.427	11588.33
763.822	10868.02
764.218	10157.06
764.614	9227.47
765.01	8603.3
765.405	8203.15
765.801	7899.63
766.196	7510.64
766.592	7294.22
766.987	6928.45
767.382	6679.6
767.778	6572.98
768.173	6417.83
768.568	6329.92
768.963	6184.96
769.358	6201.96
769.753	6145.21
770.148	6045.3
770.542	6043.12
770.937	6006.97
771.332	6110.32
771.726	6134.03
772.121	6063.06
772.515	6129.76
772.91	6116.35
773.304	6197.91
773.699	6126.9
774.093	6192.96
774.487	6258.64
774.881	6310.62
775.275	6307.19
775.669	6259.78
776.063	6311.71
776.457	6354.42
776.851	6267.27
777.245	6259.53
777.638	6298.82
778.032	6431.25
778.425	6386.88
778.819	6436.11
779.212	6388.03
779.606	6342.95
779.999	6368.63
780.392	6350.67
780.786	6447.8
781.179	6473.21
781.572	6523.18
781.965	6540.69
782.358	6470.61
782.751	6537.58
783.143	6480.12
783.536	6562.4
783.929	6611.42
784.322	6746.12
784.714	6783.76
785.107	6780.73
785.499	6864.91
785.891	6839.88
786.284	6819.57
786.676	6988.52
787.068	6963.7
787.46	7028.91
787.852	7060.13
788.245	7160.19
788.636	7191.48
789.028	7267.66
789.42	7310.28
789.812	7321.59
790.204	7436.03
790.595	7552.61
790.987	7325.66
791.378	7352.85
791.77	7500.51
792.161	7655.44
792.553	7716.42
792.944	7586.81
793.335	7508.3
793.726	7591.44
794.117	7697.4
794.508	7850.37
794.899	7813.82
795.29	7976.88
795.681	8046.96
796.072	7885.42
796.463	7662.19
796.853	7673.64
797.244	7857.14
797.634	7893.67
798.025	7892.71
798.415	7900.13
798.806	8005.04
799.196	8096.5
799.586	8152.16
799.976	8108.9
800.366	8376.27
800.756	8655.14
801.146	8605.54
801.536	8637.11
801.926	8722.28
802.316	8749.69
802.706	8832.2
803.095	8688.35
803.485	8811.9
803.874	8861.49
804.264	9160.24
804.653	9126.83
805.043	9296.52
805.432	9428.96
805.821	9427.4
806.21	9453.42
806.599	9596.11
806.988	9650.39
807.377	9773.6
807.766	9922.8
808.155	10252.96
808.544	9949.35
808.933	9966.47
809.321	9946.18
809.71	10286.76
810.098	10474.37
810.487	11007.69
810.875	11560.69
811.264	11594.43
811.652	11929.69
812.04	12102.49
812.428	12287.87
812.816	13176.5
813.204	13662.98
813.592	14305.79
813.98	14696.36
814.368	14596.21
814.756	15163.97
815.144	15078.31
815.531	15614.89
815.919	15541.03
816.306	15889.57
816.694	15535.2
817.081	15595.1
817.469	16004.6
817.856	16001.65
818.243	16312.58
818.63	16770.43
819.017	16271.83
819.404	16344.82
819.791	16785.89
820.178	17491.4
820.565	17790.04
820.952	18864.43
821.339	18286.04
821.725	18492.23
822.112	17626.92
822.498	17590.15
822.885	17737.01
823.271	17634.55
823.657	18116.1
824.044	18118.88
824.43	18206.13
824.816	18162.95
825.202	17660.63
825.588	18855.26
825.974	18880.12
826.36	19477.04
826.746	19511.85
827.132	19927.11
827.517	19890
827.903	18984.12
828.289	19024.61
828.674	18119.24
829.06	17995.41
829.445	18454.9
829.83	18857.16
830.216	19401.69
830.601	19832.88
830.986	19361.07
831.371	19194.29
831.756	19834.57
832.141	19326.22
832.526	19320.88
832.911	19646.3
833.295	19515.72
833.68	20055.43
834.065	19335.28
834.449	18279.24
834.834	18186.48
835.218	18171.62
835.603	18562.77
835.987	18315.68
836.371	19284.77
836.755	19158.24
837.139	19621.68
837.524	19901.13
837.908	19695.17
838.291	19757.4
838.675	19829.8
839.059	20071.96
839.443	20061.14
839.827	19798.53
840.21	20361.77
840.594	20185.25
840.977	20433.97
841.361	20406.85
841.744	20831.94
842.127	20651.49
842.511	20937.7
842.894	21633.79
843.277	22071.1
843.66	22698.42
844.043	22801.32
844.426	21870.21
844.809	21514.47
845.191	21548.78
845.574	21029.67
845.957	20617.52
846.339	20494.5
846.722	19897.35
847.104	19977.91
847.487	19780.31
847.869	19800.89
848.252	20119.89
848.634	20506.73
849.016	20820.61
849.398	20969.26
849.78	21944.11
850.162	21949.22
850.544	22440.79
850.926	23166.45
851.307	23067.54
851.689	23399.84
852.071	23919.77
852.452	24295.38
852.834	24265.48
853.215	24717.18
853.597	24890.66
853.978	25235.07
854.359	25766.69
854.741	24612.89
855.122	24501.6
855.503	24157.53
855.884	24300.53
856.265	24236.39
856.646	24377.78
857.026	23928.45
857.407	23854.8
857.788	24041.3
858.169	24373.42
858.549	23384.36
858.93	24108.38
859.31	24162.04
859.69	24414.43
860.071	23952.37
860.451	23703.77
860.831	22841.97
861.211	24185.07
861.591	24825.64
861.971	24795.47
862.351	25024.03
862.731	25477.43
863.111	25780.99
863.491	26164.01
863.87	27174.82
864.25	27578.26
864.629	27108.36
865.009	27702.99
865.388	28689.38
865.768	30735.59
866.147	30612.72
866.526	28903.91
866.905	29259.79
867.284	30900.1
867.663	29340.62
868.042	28117.74
868.421	28026.18
868.8	28483.77
869.179	28764.05
869.558	27086.16
869.936	24963.65
870.315	25405.63
870.693	26040.35
871.072	28075.63
871.45	26734.27
871.828	27058.64
872.207	28442
872.585	28001.56
872.963	28755.25
873.341	27746.4
873.719	27415.05
874.097	27085.99
874.475	27596.57
874.853	28213.43
875.23	27026.94
875.608	28158.88
875.986	30457.99
876.363	29125.26
876.741	30014.55
877.118	29266.36
877.495	30715.93
877.873	31224.34
878.25	32859.29
878.627	31519.52
879.004	31965.1
879.381	31808.59
879.758	30972.57
880.135	28840.91
880.512	30479.97
880.889	29664.36
881.265	29356.61
881.642	29114.83
882.019	29597.92
882.395	28983.11
882.772	30134.54
883.148	28812.52
883.524	28702.91
883.901	28526.54
884.277	28954.86
884.653	28785.4
885.029	29617.04
885.405	32805.28
885.781	32546.5
886.157	31216.75
886.532	31602.2
886.908	31572.21
887.284	35104.45
887.659	36245.5
888.035	37390.5
888.411	38352.57
888.786	38868.89
889.161	40224.92
889.537	39477.13
889.912	40740.31
890.287	40696.02
890.662	41746.02
891.037	40995.11
891.412	38247.56
891.787	37870.67
892.162	36548.72
892.536	37407.66
892.911	35999.52
893.286	35236.35
893.66	33824.68
894.035	34689.99
894.409	37789.75
894.784	36271.2
895.158	36879.96
895.532	39055.04
895.906	40121.61
896.281	41069.51
896.655	40424.01
897.029	46193.37
897.402	48120.49
897.776	53558.8
898.15	53371.97
898.524	52785.12
898.898	53495.29
899.271	59903.17
899.645	51899.22
900.018	49843.13
900.392	51697.14
900.765	52085.84
901.138	48193.17
901.511	47465.85
901.884	43580.2
902.258	40191.06
902.631	41525.74
903.003	47794.14
903.376	43121.29
903.749	48339.62
904.122	51752.6
904.495	56973.96
904.867	57699.82
905.24	50107.86
905.612	46643.03
905.985	47706.46
906.357	49890.56
906.729	47617.17
907.102	40667.76
907.474	39093.68
907.846	39350.06
908.218	38829.79
908.59	34295.28
908.962	33176.58
909.334	35714.01
909.705	37493.79
910.077	36389.42
910.449	37867.08
910.82	38916.06
911.192	42810.82
911.563	44515.73
911.935	47623.87
912.306	47681.59
912.677	49220.76
913.048	48699.35
913.419	52842.65
913.79	53121.3
914.161	56947.86
914.532	54422.48
914.903	49996.31
915.274	47457.85
915.645	46733.9
916.015	41116.74
916.386	39182.37
916.756	41712.96
917.127	43042.04
917.497	38416.44
917.868	41841.59
918.238	39771.97
918.608	40926.94
918.978	41778.26
919.348	44268.93
919.718	45746.42
920.088	44052.12
920.458	45751.65
920.828	48115.33
921.198	45611.3
921.567	48754.43
921.937	37743.77
922.306	38095.79
922.676	41071.63
923.045	34255.04
923.415	32526.24
923.784	29607.62
924.153	30450.79
924.522	30427.06
924.891	28610.05
925.26	30625.76
925.629	29900.11
925.998	34377.06
926.367	33544.72
926.736	31936
927.104	38032.14
927.473	40878.81
927.842	49384.65
928.21	48922.89
928.578	51440.1
928.947	48648.18
929.315	48971.75
929.683	57443.38
930.051	57899.26
930.42	67237.99
930.788	57477.2
931.156	57034.55
931.523	53456.68
931.891	49395.13
932.259	47452.86
932.627	55004.75
932.994	77874.07
933.362	64346.68
933.729	55883.16
934.097	53507.06
934.464	45289.71
934.831	52277.38
935.199	51597.18
935.566	50074.42
935.933	50724.23
936.3	61443.13
936.667	47846.64
937.034	43149.2
937.401	42704.09
937.767	36846.37
938.134	32777.66
938.501	46248.29
938.867	49309.92
939.234	83289.98
939.6	71070.04
939.967	78316.41
940.333	52380.54
940.699	44578.52
941.065	35757.85
941.431	46875.23
941.798	45193.73
942.163	59395.07
942.529	37086.81
942.895	34134.1
943.261	22077.66
943.627	28978.45
943.992	25392.8
944.358	25443.98
944.723	25523.2
945.089	24902.72
945.454	23008.48
945.82	24558.88
946.185	23610.03
946.55	27357.7
946.915	24551.84
947.28	28816.66
947.645	25359.14
948.01	23397.41
948.375	24404.91
948.74	29256.36
949.104	34112.71
949.469	49298.79
949.834	87249.71
950.198	82716.2
950.562	49615.26
950.927	41251.92
951.291	49650.62
951.655	42290.08
952.02	39767.02
952.384	30060.08
952.748	26169.98
953.112	25493.57
953.476	22159.15
953.839	20458.59
954.203	20248.17
954.567	25303.26
954.931	39888.05
955.294	34108.81
955.658	34288.31
956.021	58341.14
956.385	98927.15
956.748	146013.27
957.111	226668.82
957.474	254825.01
957.837	287271.17
958.2	217221.25
958.563	78156.67
958.926	52799.71
959.289	80124.29
959.652	89525.91
960.015	67070.78
960.377	96184.39
960.74	109728.07
961.102	189280.64
961.465	202668.48
961.827	108406.3
962.189	207963.65
962.552	144024.82
962.914	115472.17
963.276	74930.35
963.638	61914.06
964	61266.18
964.362	41399.24
964.724	40037.13
965.085	28577.86
965.447	23435.85
965.809	26703.74
966.17	26748.27
966.532	28968.98
966.893	26608.78
967.255	24214.83
967.616	28613.77
967.977	22924.34
968.338	25051.88
968.699	20566.43
969.061	20556.74
969.421	20709.32
969.782	23239.4
970.143	19596.98
970.504	20287.63
970.865	23045.76
971.225	23541.75
971.586	23016.93
971.946	32840.68
972.307	28509.58
972.667	37257.48
973.027	38379.91
973.388	46566.42
973.748	31692.08
974.108	34535.85
974.468	46727.66
974.828	36046.13
975.188	27746.49
975.548	25483.99
975.907	21373.46
976.267	23969.38
976.627	20166.46
976.986	20887.99
977.346	19907.82
977.705	19150.11
978.064	17459.07
978.424	14525.71
978.783	15007.29
979.142	17128.8
979.501	16382.17
979.86	17314.2
980.219	16701.3
980.578	21531.99
980.937	24133.08
981.296	21481.19
981.654	22096.55
982.013	34392.23
982.371	44674.38
982.73	41713.08
983.088	47240.17
983.447	50431.79
983.805	72076.7
984.163	150444.03
984.521	167116.62
984.879	244891.6
985.237	-398555.08
985.595	384272.75
985.953	95478.34
986.311	55121.62
986.669	32031.54
987.026	27654.28
987.384	37201.15
987.741	38474.19
988.099	27483.52
988.456	21881.1
988.814	20465.3
989.171	17800.91
989.528	17587.58
989.885	18566.04
990.242	14680.64
990.599	18289.65
990.956	14957.61
991.313	10458.02
991.67	8576.63
992.027	9074.46
992.383	8060.11
992.74	7062.07
993.096	7398.63
993.453	7664.2
993.809	7938.8
994.165	10593.17
994.522	9694.4
994.878	10694.17
995.234	13423.3
995.59	13264.32
995.946	12579.84
996.302	14346.1
996.658	16605.13
997.013	18315.32
997.369	21695.78
997.725	27781.19
998.08	17972.81
998.436	27807.1
998.791	38281.2
999.147	38226.35
999.502	41689.57
999.857	30311.99
1000.212	49487.13
1000.567	70582.42
1000.922	40729.09
1001.277	25855.56
1001.632	19197.28
1001.987	24728.39
1002.342	17706.82
1002.696	14171.89
1003.051	11297.45
1003.406	13661.12
1003.76	13594.16
1004.114	13394.2
1004.469	11238.43
1004.823	9295.83
1005.177	10063.32
1005.531	7975.55
1005.885	7068.36
1006.239	7968.84
1006.593	10010.04
1006.947	13398.33
1007.301	10075.1
1007.655	11009.05
1008.008	8065.35
1008.362	9062.05
1008.715	12956.73
1009.069	11736.12
1009.422	17623.88
1009.776	35414.35
1010.129	23494.67
1010.482	19590.27
1010.835	16581.05
1011.188	34493.25
1011.541	32445.99
1011.894	-199094.6
1012.247	587633.02
1012.6	39889.75
1012.952	25166.83
1013.305	13000.58
1013.657	9356.82
1014.01	8841.02
1014.362	7306.18
1014.715	6474.77
1015.067	5641.76
1015.419	5522.53
1015.771	4884.54
1016.123	4335.49
1016.475	4462.86
1016.827	4760.25
1017.179	5110.52
1017.531	5160.41
1017.883	5284.81
1018.234	5084.32
1018.586	6440.83
1018.938	6777.06
1019.289	9335.73
1019.64	10711.02
1019.992	9975.58
1020.343	9123.66
1020.694	7218.57
1021.045	6377.94
1021.396	7294.26
1021.747	7851.35
1022.098	9457.07
1022.449	6845.29
1022.8	6401.37
1023.151	4460.46
1023.501	3955.88
1023.852	4301.28
1024.202	4456.65
1024.553	4893.64
1024.903	4783.1
1025.253	4070.36
1025.604	3650.2
1025.954	4522.53
1026.304	5510.37
1026.654	6430.22
1027.004	9440.59
1027.354	15150.16
1027.703	14239.33
1028.053	18788.84
1028.403	27433.6
1028.753	39808.6
1029.102	54357.1
1029.452	279373.89
1029.801	12057.83
1030.15	7805.5
1030.499	6587.17
897.758	2667.67
901.051	2628.25
904.343	2665.57
907.636	2666.48
910.928	2731.24
914.22	2638.62
917.511	2645.06
920.803	2711.78
924.094	2733.11
927.384	2711.56
930.675	2676.77
933.965	2631.42
937.255	2640.8
940.544	2606.95
943.834	2546.78
947.123	2489.28
950.411	2588.15
953.7	2561.09
956.988	2528.13
960.276	2468.81
963.563	2551.95
966.851	2549.26
970.138	2606.87
973.424	2598.15
976.711	2546.9
979.997	2681.4
983.283	2717.48
986.568	2621.15
989.853	2641.92
993.138	2666.01
996.423	2746.86
999.708	2682.31
1002.992	2747.93
1006.275	2583.72
1009.559	2628.88
1012.842	2745.19
1016.125	2677.66
1019.408	2656.63
1022.69	2746.96
1025.972	2759.77
1029.254	2737.53
1032.536	2669.39
1035.817	2698.07
1039.098	2637.21
1042.379	2784.18
1045.659	2782.43
1048.939	2714.96
1052.219	2731.85
1055.498	2747.55
1058.778	2728.53
1062.057	2717.05
1065.335	2737.83
1068.614	2756.49
1071.892	2737.06
1075.17	2816.14
1078.447	2802.92
1081.724	2794.97
1085.001	2830.66
1088.278	2809.2
1091.554	2818.93
1094.83	2816.64
1098.106	2843.17
1101.382	2888.1
1104.657	2888.21
1107.932	2883.81
1111.206	2844.29
1114.481	2805.18
1117.755	2809
1121.029	2790.13
1124.302	2839.94
1127.575	2791.86
1130.848	2778.19
1134.121	2739.75
1137.393	2687.05
1140.665	2757.97
1143.937	2732.29
1147.208	2695.81
1150.48	2733.17
1153.75	2718.15
1157.021	2751.2
1160.291	2721.8
1163.561	2766.59
1166.831	2759.18
1170.101	2790.15
1173.37	2767.87
1176.639	2708.48
1179.907	2769.52
1183.176	2771.4
1186.444	2781.78
1189.711	2808.59
1192.979	2819.55
1196.246	2776.47
1199.513	2795.15
1202.78	2788.48
1206.046	2797.9
1209.312	2821.3
1212.578	2847.19
1215.843	2798.54
1219.108	2776.82
1222.373	2795.91
1225.638	2760.82
1228.902	2742.99
1232.166	2708.04
1235.43	2688.63
1238.693	2715.36
1241.956	2712.32
1245.219	2752.02
1248.482	2743.99
1251.744	2739.79
1255.006	2886.16
1258.268	2842.53
1261.529	2786.06
1264.79	2795.37
1268.051	2902.41
1271.312	2918.02
1274.572	2878.08
1277.832	2868.96
1281.092	2861.09
1284.351	2834.98
1287.61	2811.91
1290.869	2726.83
1294.128	2702.66
1297.386	2795.87
1300.644	2779.95
1303.902	2792.91
1307.159	2650.97
1310.416	2706.21
1313.673	2730.22
1316.93	2713.55
1320.186	2758.61
1323.442	2804.5
1326.697	2793.68
1329.953	2785.53
1333.208	2805.68
1336.463	2788.6
1339.717	2722.53
1342.972	2861.33
1346.226	2841.88
1349.479	2771.75
1352.733	2741.67
1355.986	2767.85
1359.238	2740.01
1362.491	2742.78
1365.743	2748.1
1368.995	2743.17
1372.247	2755.87
1375.498	2780.42
1378.749	2792.18
1382	2744.42
1385.251	2801.92
1388.501	2763.67
1391.751	2746.07
1395	2719.05
1398.25	2753.05
1401.499	2758.23
1404.748	2683.44
1407.996	2676.87
1411.244	2662.39
1414.492	2643.81
1417.74	2622.01
1420.987	2632.22
1424.234	2687.71
1427.481	2669.77
1430.728	2728.58
1433.974	2703.35
1437.22	2719.16
1440.465	2720.73
1443.711	2682.62
1446.956	2718.29
1450.201	2707.06
1453.445	2752.73
1456.689	2730.36
1459.933	2745.04
1463.177	2775.79
1466.42	2747.17
1469.663	2726.07
1472.906	2719.68
1476.148	2798.03
1479.391	2758.84
1482.633	2730.17
1485.874	2735.65
1489.115	2722.55
1492.356	2731.76
1495.597	2705.94
1498.838	2708.83
1502.078	2677.38
1505.318	2626.57
1508.557	2666.6
1511.797	2641.46
1515.036	2712.15
1518.274	2700.27
1521.513	2677.45
1524.751	2700.56
1527.989	2708.5
1531.227	2722.65
1534.464	2714.54
1537.701	2737.68
1540.938	2757.07
1544.174	2711.1
1547.41	2708.43
1550.646	2747.7
1553.882	2786.06
1557.117	2839.17
1560.352	2855.07
1563.587	2810.49
1566.821	2768.79
1570.055	2805.59
1573.289	2773.85
1576.523	2850.9
1579.756	2859.21
1582.989	2878.92
1586.222	2838.87
1589.454	2873.12
1592.686	2847.39
1595.918	2871.11
1599.15	2860.89
1602.381	2938.52
1605.612	2891.47
1608.843	2990.11
1612.073	2900.24
1615.303	2883.35
1618.533	2872.91
1621.762	2875.89
1624.992	2869.14
1628.221	2852.63
1631.449	2837.28
1634.678	2897.9
1637.906	2851.2
1641.134	2890.8
1644.361	2847.09
1647.588	2836.53
1650.815	2852.05
1654.042	2833.26
1657.269	2864.76
1660.495	2812.41
1663.72	2836.13
1666.946	2798
1670.171	2737.46
1673.396	2713.97
1676.621	2703.7
1679.845	2723.73
1683.069	2744.95
1686.293	2791.61
1689.517	2759.8
1692.74	2687.44
1695.963	2719.2
1699.185	2733.7
1702.408	2712.2
1705.63	2754.11
1708.852	2763.17
1712.073	2735.55
1715.294	2719.44
1718.515	2781.41
1721.736	2723.7
1724.956	2720.38
1728.176	2746.96
1731.396	2767.07
1734.616	2755.26
1737.835	2779.54
1741.054	2762.26
1744.272	2759.56
1747.491	2786.51
1750.709	2843.4
1753.927	2745.35
1757.144	2792.24
1760.361	2831.53
1763.578	2826.61
1766.795	2768.36
1770.011	2775.03
1773.227	2815.77
1776.443	2849.65
1779.658	2890.93
1782.874	2839.72
1786.089	2814.38
1789.303	2816.39
1792.518	2825.4
1795.732	2810.45
1798.945	2818.43
1802.159	2870.28
1805.372	2769.55
1808.585	2755.33
1811.797	2756.87
1815.01	2806.81
1818.222	2803.9
1821.434	2779.63
1824.645	2841.08
1827.856	2819.4
1831.067	2860.03
1834.278	2821.05
1837.488	2801.39
1840.698	2953.82
1843.908	2876.53
1847.117	2842.36
1850.326	2723.1
1853.535	2828.85
1856.744	2853.58
1859.952	2768.35
1863.16	2770.93
1866.368	2793.39
1869.575	2892.2
1872.782	2784.5
1875.989	2722.89
1879.196	2809.98
1882.402	2801.08
1885.608	2842.64
1888.814	2745.93
1892.019	2640.03
1895.224	2692.52
1898.429	2675.85
1901.634	2654.78
1904.838	2633.08
1908.042	2679.18
1911.246	2687.5
1914.449	2618.19
1917.652	2612.83
1920.855	2599.04
1924.058	2648.55
1927.26	2684.25
1930.462	2711.24
1933.664	2739.02
1936.865	2674.48
1940.066	2680.81
1943.267	2628.86
1946.467	2645.33
1949.668	2671.75
1952.868	2738.64
1956.067	2712.97
1959.267	2644.88
1962.466	2673.04
1965.665	2657.57
1968.863	2649.35
1972.061	2665.6
1975.259	2666.44
1978.457	2747.33
1981.654	2701.96
1984.852	2701.92
1988.048	2634.52
1991.245	2640.17
1994.441	2721.96
1997.637	2712.38
2000.833	2696.28
2004.028	2737.96
2007.223	2793.2
2010.418	2764.7
2013.613	2725.64
2016.807	2695.52
2020.001	2705.98
2023.194	2750.3
2026.388	2723.2
2029.581	2672.09
2032.774	2718.42
2035.966	2719.82
2039.158	2649.47
2042.35	2677.14
2045.542	2608.58
2048.733	2710.31
2051.924	2736.35
2055.115	2760.04
2058.306	2702.7
2061.496	2765.64
2064.686	2825.74
2067.875	2741.63
2071.065	2757.08
2074.254	2784.8
2077.442	2733.93
2080.631	2823.99
2083.819	2710.6
2087.007	2692.57
2090.195	2666.76
2093.382	2701.11
2096.569	2679.29
2099.756	2633.8
2102.942	2655.29
2106.128	2660.71
2109.314	2651.91
2112.5	2613.91
2115.685	2591.07
2118.87	2602.69
2122.055	2669.02
2125.239	2632.05
2128.424	2608.01
2131.608	2713.36
2134.791	2697.62
2137.974	2755.11
2141.157	2740.81
2144.34	2690.53
2147.523	2709.9
2150.705	2722.7
2153.887	2703.06
2157.068	2649.93
2160.25	2655.91
2163.431	2691.19
2166.611	2636.54
2169.792	2650.29
2172.972	2543.18
2176.152	2624.11
2179.331	2661.03
2182.511	2637.83
2185.69	2667.14
2188.868	2660.34
2192.047	2715.68
2195.225	2701.51
2198.403	2654.33
2201.58	2648.17
2204.758	2644.42
2207.935	2730.29
2211.111	2613.26
2214.288	2595.85
2217.464	2635.77
2220.64	2611.21
2223.815	2666.46
2226.991	2586.79
2230.166	2607.5
2233.34	2636.38
2236.515	2659.09
2239.689	2734.68
2242.863	2677.78
2246.036	2737.64
2249.209	2739.63
2252.382	2775.98
2255.555	2761.32
2258.727	2696.64
2261.9	2740.46
2265.071	2731.55
2268.243	2733.15
2271.414	2664.7
2274.585	2622.91
2277.756	2689.34
2280.926	2643.28
2284.096	2686.28
2287.266	2589.34
2290.436	2643.4
2293.605	2675.15
2296.774	2701.07
2299.942	2724.24
2303.111	2742.68
2306.279	2789.24
2309.447	2778.77
2312.614	2754.83
2315.781	2775.02
2318.948	2743.74
2322.115	2786.03
2325.281	2687.9
2328.447	2706.9
2331.613	2685.29
2334.779	2657.36
2337.944	2657.37
2341.109	2655.82
2344.274	2635.56
2347.438	2601.96
2350.602	2628.78
2353.766	2644.42
2356.929	2629.59
2360.092	2675.39
2363.255	2626.18
2366.418	2555.33
2369.58	2671.04
2372.742	2457.23
2375.904	2472.96
2379.066	2447.99
2382.227	2485.09
2385.388	2448.22
2388.548	2374.27
2391.709	2430.01
2394.869	2404.07
2398.029	2505.06
2401.188	2521.75
2404.347	2454.46
2407.506	2598.35
2410.665	2626.26
2413.823	2634.84
2416.981	2588.86
2420.139	2620.83
2423.296	2669.88
2426.453	2644.1
2429.61	2668.32
2432.767	2599.25
2435.923	2634.72
2439.079	2602.48
2442.235	2649.49
2445.391	2575.89
2448.546	2601.86
2451.701	2652.46
2454.855	2622.34
2458.009	2676.83
2461.163	2676.71
2464.317	2637.85
2467.471	2674.18
2470.624	2713.43
2473.777	2675.97
2476.929	2691.07
2480.082	2718.22
2483.234	2682.77
2486.385	2637.98
2489.537	2630.08
2492.688	2588.69
2495.839	2609.74
2498.989	2618.49
2502.14	2599.52
2505.29	2582.19
2508.439	2610.92
2511.589	2533.9
2514.738	2547.54
2517.887	2578.59
2521.035	2641.08
2524.183	2626.19
2527.331	2606.39
2530.479	2577.03
2533.627	2588.65
