Data from N_2_DEC_OH_4N_Splice17_12-04-08-072.txt Node
Date: Sat Mar 14 12:04:08 EDT 2020
User: sa697716
Spectrometer: FLMS03696
Trigger mode: 0
Integration Time (sec): 3.180400E-1
Scans to average: 20
Electric dark correction enabled: true
Nonlinearity correction enabled: true
Boxcar width: 5
XAxis mode: Wavelengths
Number of Pixels in Spectrum: 2048
>>>>>Begin Spectral Data<<<<<
187.83	-261420.09
188.298	1954.3
188.766	1057.48
189.233	934.19
189.701	1359.79
190.169	1838.68
190.636	695.07
191.104	602.19
191.571	83.81
192.039	-54.2
192.506	-140.28
192.974	284.93
193.441	-533.15
193.908	-144.86
194.375	-45.38
194.842	51.44
195.31	138.7
195.777	183.58
196.244	417.91
196.711	544.02
197.177	690.07
197.644	996.3
198.111	1747.35
198.578	2474.67
199.045	1994.75
199.511	3266.88
199.978	3847.43
200.445	3260.48
200.911	3626.24
201.378	4084.01
201.844	3690.59
202.31	6356.81
202.777	6605.29
203.243	3683.31
203.709	3559.32
204.176	4255.42
204.642	3508.24
205.108	3279.76
205.574	2684.14
206.04	2462.6
206.506	2316.11
206.972	2214.69
207.438	2140.71
207.903	2463.05
208.369	2167.49
208.835	2154.21
209.301	2267.01
209.766	2334.59
210.232	2306.84
210.697	2864.23
211.163	3577.34
211.628	5426.73
212.094	4574.46
212.559	5581.53
213.024	3468.44
213.49	4229.23
213.955	4136.48
214.42	4072.19
214.885	3819.58
215.35	3707.42
215.815	3557.3
216.28	3784.72
216.745	3120.69
217.21	3378.71
217.675	3178.05
218.14	3609.78
218.604	4130.11
219.069	4817.03
219.534	5125.53
219.998	6077.55
220.463	7467.99
220.927	9403.79
221.392	8955.74
221.856	9158.51
222.32	11707.41
222.785	14572.4
223.249	18526.63
223.713	20798.67
224.177	20900.37
224.642	27030.52
225.106	33466.07
225.57	36730.19
226.034	27294.88
226.497	41660.09
226.961	37673.33
227.425	43891.22
227.889	48789.72
228.353	48799.14
228.816	100808.53
229.28	96484.76
229.744	81298.77
230.207	49322.02
230.671	48507.37
231.134	80525.89
231.597	92781.09
232.061	92778.63
232.524	90600.53
232.987	62335.54
233.45	56125.92
233.914	50323.29
234.377	51620.62
234.84	47254.65
235.303	55792.01
235.766	62294.97
236.229	64330.47
236.691	40525.43
237.154	45573.99
237.617	34228.12
238.08	35077.42
238.542	41073.74
239.005	29347.65
239.468	29103.63
239.93	27426.25
240.393	24906.61
240.855	21857.68
241.317	22404.78
241.78	27295.11
242.242	28172.76
242.704	30413.14
243.166	26446.23
243.629	23965.9
244.091	27621.49
244.553	30260.51
245.015	32527.02
245.477	42078.81
245.939	61688.88
246.4	65387.61
246.862	63522.69
247.324	59894.08
247.786	67034.69
248.247	87996.7
248.709	91034.86
249.17	68080.62
249.632	64043.63
250.093	74127.62
250.555	63981.69
251.016	38986.54
251.477	36961.46
251.939	39849.38
252.4	41839.43
252.861	49725.89
253.322	46205.95
253.783	54975.48
254.244	71301.72
254.705	56284.96
255.166	50085.03
255.627	49303.98
256.088	69507.14
256.549	73840.86
257.009	63647.59
257.47	77216.07
257.931	62914.22
258.391	47141.45
258.852	48580.14
259.312	50940.24
259.773	62881.5
260.233	53136.96
260.694	44815.27
261.154	50873.46
261.614	40769.67
262.074	36468.49
262.534	37882.65
262.994	35707.61
263.455	47645.7
263.915	40136.68
264.374	37828.71
264.834	41323.27
265.294	45818.64
265.754	47460.61
266.214	44929.57
266.673	42136.37
267.133	53211.68
267.593	52835.2
268.052	64632.97
268.512	56199.64
268.971	67730.17
269.431	74275.49
269.89	66512.63
270.349	99736.05
270.809	111165.06
271.268	99922.36
271.727	224238.3
272.186	145128
272.645	108813.86
273.104	78638.81
273.563	113886.82
274.022	89691.25
274.481	76239.22
274.94	58729.68
275.399	43685.41
275.857	50938.01
276.316	68910.8
276.775	61335.17
277.233	60433.49
277.692	56551.81
278.15	63946.22
278.609	65733.59
279.067	60844.74
279.525	56543.84
279.984	73071.95
280.442	87750.91
280.9	86399.65
281.358	56873.71
281.816	52975.53
282.274	51855.19
282.732	53639.97
283.19	53883.03
283.648	46510.73
284.106	49540.49
284.564	50409.08
285.021	46758.57
285.479	34824.41
285.937	31706.09
286.394	27803.49
286.852	28662.27
287.309	30139.82
287.767	29076.26
288.224	27643.03
288.682	30361.55
289.139	33292.7
289.596	30434.05
290.053	31630.82
290.511	39946.44
290.968	48418.38
291.425	65741.76
291.882	54575.55
292.339	47465.23
292.796	47133.4
293.252	44427.27
293.709	35234.96
294.166	31590.31
294.623	34941.08
295.079	33529.76
295.536	33648.51
295.992	30554.53
296.449	30201.2
296.905	31393.16
297.362	30083.7
297.818	31656.11
298.274	32814.09
298.731	33477.34
299.187	33156.75
299.643	35587.24
300.099	43028.9
300.555	47234.83
301.011	39456.1
301.467	37973.3
301.923	44507.04
302.379	43448.12
302.835	42608.7
303.291	42654.49
303.746	48539.17
304.202	61263.35
304.658	61544.49
305.113	41395.77
305.569	40539.06
306.024	43228.06
306.479	41187.83
306.935	34696.57
307.39	37905.19
307.845	35010.93
308.301	35199.05
308.756	34281.57
309.211	33006.47
309.666	33774.5
310.121	41840.87
310.576	42462.4
311.031	42123.22
311.486	48281.01
311.94	48196.31
312.395	64458.28
312.85	121176.61
313.305	596528.66
313.759	3081948.29
314.214	223263.3
314.668	176890.5
315.123	148801.99
315.577	53343.99
316.032	47421.9
316.486	59397.46
316.94	46834.89
317.394	32554.97
317.849	25285.02
318.303	23929.12
318.757	22569.64
319.211	24929.44
319.665	21796.96
320.119	22046.31
320.572	31597.51
321.026	29477.02
321.48	24500.41
321.934	26756.29
322.387	26840.37
322.841	28976.11
323.295	25943.35
323.748	29924.03
324.202	30332.93
324.655	36413.42
325.108	50792.63
325.562	35846.84
326.015	42604.05
326.468	32146.08
326.921	35933.52
327.374	33465.17
327.827	34792.23
328.28	39423.48
328.733	26369.17
329.186	23186.33
329.639	22073.02
330.092	18614.63
330.545	17723.67
330.997	17866.63
331.45	19530.48
331.903	22806.32
332.355	39217.28
332.808	38113.84
333.26	31437.32
333.713	34087.51
334.165	34351.86
334.617	45954.34
335.069	37197.15
335.522	67237.13
335.974	74462.04
336.426	68080.28
336.878	47255.38
337.33	23955.66
337.782	23405.91
338.234	29295.76
338.686	35088.22
339.137	41573.07
339.589	39118.33
340.041	30604.09
340.493	26305.79
340.944	26904.52
341.396	28958.92
341.847	24330.22
342.299	28671.68
342.75	34938.75
343.201	30543.4
343.653	35142.71
344.104	43194.74
344.555	33971.55
345.006	52920.41
345.457	40446.66
345.908	32220.35
346.359	30270.62
346.81	24681.41
347.261	26054.16
347.712	25656.99
348.163	27540.13
348.613	27798.13
349.064	25928.94
349.515	22689
349.965	23249.53
350.416	28031.24
350.866	30732.66
351.317	34827.94
351.767	57594.06
352.217	72716.35
352.668	60352.9
353.118	55191
353.568	53292.82
354.018	42140.4
354.468	44429.78
354.918	31840.93
355.368	27852.32
355.818	39323.51
356.268	113011.54
356.718	472825.99
357.168	117546.98
357.617	59039.45
358.067	65741.98
358.517	61668.33
358.966	72236.12
359.416	80963.28
359.865	87587.09
360.315	104280.52
360.764	48676.75
361.213	27270.18
361.663	25850.29
362.112	31983.77
362.561	51634.23
363.01	38922.9
363.459	32707.19
363.908	35393.53
364.357	30019.21
364.806	50705.04
365.255	34877.3
365.703	31907.52
366.152	31909.2
366.601	25844.42
367.05	20927.91
367.498	19002.24
367.947	19867.18
368.395	20673.28
368.844	18294.33
369.292	22102.45
369.74	15240.6
370.189	23342.92
370.637	27357.86
371.085	23629.71
371.533	28795.9
371.981	27787.33
372.429	26460.8
372.877	27564.63
373.325	23084.07
373.773	23546.92
374.221	20967.79
374.669	26048.65
375.116	22519.34
375.564	22701.71
376.012	25394.51
376.459	20921.26
376.907	25019.77
377.354	30279.05
377.801	28180.32
378.249	32368.26
378.696	41280.27
379.143	49947.17
379.591	53254.38
380.038	90012.51
380.485	65088.05
380.932	70186.03
381.379	64117.1
381.826	47061.76
382.273	33463.39
382.72	29290.2
383.166	28472.22
383.613	18476.93
384.06	16644.94
384.506	19228.84
384.953	14129.66
385.4	14213.34
385.846	12469.26
386.292	12165.87
386.739	11912.61
387.185	11770.63
387.631	11750.17
388.078	11396.18
388.524	12188.62
388.97	11234.29
389.416	9358.83
389.862	9923.01
390.308	9389.88
390.754	9505.11
391.2	10300.83
391.645	10512.45
392.091	10011.84
392.537	9660.92
392.983	9668.27
393.428	9462.01
393.874	10131.81
394.319	10125.75
394.765	9574.02
395.21	9799.7
395.655	9156.83
396.101	8538.01
396.546	7691.43
396.991	7755.1
397.436	7189.2
397.881	6937.09
398.326	6569.42
398.771	6183.96
399.216	5397.23
399.661	4849.14
400.106	4821.74
400.551	4918.62
400.995	4404.93
401.44	4346.16
401.885	4075.14
402.329	4106.85
402.774	3921.13
403.218	3778.22
403.663	3637.51
404.107	3729.65
404.551	3745.06
404.995	3425.96
405.44	3300.65
405.884	3340.16
406.328	3227.38
406.772	3205.7
407.216	2912.28
407.66	2812.62
408.104	2671.16
408.547	2492.83
408.991	2407.08
409.435	2314.36
409.879	2280.3
410.322	2243.32
410.766	2163.85
411.209	2053.86
411.653	1967.45
412.096	1925.65
412.54	1922.22
412.983	1905.4
413.426	1908.5
413.869	1904.55
414.312	1863.11
414.756	1790.1
415.199	1704.63
415.642	1653.3
416.085	1651.97
416.527	1639.4
416.97	1660.65
417.413	1570.81
417.856	1553.45
418.298	1534.81
418.741	1523.32
419.184	1518.38
419.626	1580.18
420.069	1580.25
420.511	1586.3
420.953	1547.64
421.396	1531.46
421.838	1490.91
422.28	1524.78
422.722	1530.81
423.164	1552.92
423.606	1528.26
424.048	1526.9
424.49	1450.23
424.932	1441.86
425.374	1422.95
425.816	1451.08
426.258	1478.14
426.699	1493.45
427.141	1471.14
427.582	1493.41
428.024	1488.06
428.465	1476.5
428.907	1439.83
429.348	1424.33
429.789	1423.11
430.231	1390.48
430.672	1410.38
431.113	1378.35
431.554	1359.46
431.995	1326.18
432.436	1279.39
432.877	1248.97
433.318	1227.33
433.759	1220.87
434.2	1220.05
434.64	1209.98
435.081	1214.82
435.522	1151.58
435.962	1109.47
436.403	1085.08
436.843	1101.87
437.284	1076.24
437.724	1049.24
438.164	1053.53
438.604	1032.45
439.045	992.02
439.485	947.55
439.925	928.04
440.365	903.99
440.805	892.65
441.245	880.38
441.685	846.96
442.125	839.88
442.564	844.76
443.004	823.18
443.444	821.4
443.883	822.37
444.323	817.8
444.762	817.24
445.202	826.67
445.641	838.7
446.081	832.74
446.52	837.68
446.959	829.5
447.398	806.17
447.837	796.72
448.276	779.67
448.716	786.05
449.154	792.56
449.593	772.72
450.032	766.8
450.471	752.11
450.91	752.11
451.349	749.08
451.787	745.24
452.226	755.6
452.664	755
453.103	756
453.541	753.61
453.98	747.79
454.418	751.25
454.856	738.5
455.295	736.33
455.733	740.27
456.171	742.82
456.609	743.67
457.047	741.42
457.485	750.53
457.923	750.27
458.361	739.65
458.798	742.79
459.236	741.34
459.674	747.73
460.111	750.55
460.549	742.04
460.987	741.31
461.424	737.93
461.862	735.43
462.299	724.07
462.736	722.25
463.173	724.43
463.611	716.2
464.048	714.53
464.485	718.46
464.922	711.19
465.359	709.02
465.796	697.99
466.233	692.29
466.67	684.44
467.106	683.46
467.543	678.35
467.98	669.14
468.416	652.93
468.853	646.75
469.29	628.65
469.726	622.52
470.162	606.47
470.599	598.7
471.035	592.06
471.471	578.22
471.907	574.25
472.344	569.31
472.78	571.23
473.216	577.57
473.652	571.31
474.088	568.73
474.523	566.37
474.959	570.52
475.395	563.49
475.831	560.22
476.266	563.02
476.702	559.67
477.138	552.85
477.573	549.54
478.008	546.19
478.444	546.89
478.879	549.85
479.314	550.39
479.75	548.38
480.185	550.6
480.62	553.65
481.055	554.64
481.49	558.49
481.925	565.72
482.36	575.03
482.795	590.23
483.229	605.31
483.664	618.37
484.099	620.44
484.534	629.55
484.968	634.36
485.403	636.81
485.837	635.88
486.271	633.3
486.706	633.22
487.14	624.62
487.574	613.31
488.009	607.01
488.443	599.85
488.877	605.3
489.311	605.18
489.745	611.2
490.179	614.63
490.613	624.05
491.046	627.71
491.48	630.69
491.914	630.16
492.348	633.22
492.781	635.17
493.215	635.31
493.648	633.32
494.082	636.09
494.515	634.41
494.948	639.05
495.382	640.65
495.815	641.9
496.248	643.36
496.681	651.95
497.114	659.15
497.547	664.55
497.98	673.22
498.413	676.32
498.846	682.09
499.279	686.12
499.711	686.87
500.144	686.04
500.577	692.08
501.009	698.75
501.442	703.95
501.874	701.72
502.306	700.83
502.739	704.24
503.171	713.29
503.603	713.03
504.036	717.85
504.468	719.74
504.9	726.56
505.332	730.06
505.764	731.41
506.196	734.22
506.627	744.15
507.059	752.39
507.491	756.89
507.923	753.94
508.354	765.24
508.786	773.48
509.217	786.66
509.649	797.95
510.08	812.25
510.512	825.46
510.943	837.63
511.374	846.46
511.805	863.56
512.237	880.53
512.668	906.88
513.099	928.75
513.53	950.83
513.961	968.84
514.391	995.32
514.822	1024.73
515.253	1055.1
515.684	1077.67
516.114	1104.54
516.545	1125.09
516.975	1148
517.406	1166.24
517.836	1171.82
518.267	1181.31
518.697	1200.38
519.127	1209.16
519.558	1219.18
519.988	1226.77
520.418	1239.89
520.848	1258.38
521.278	1269.99
521.708	1294.83
522.138	1310.59
522.567	1342.99
522.997	1369.68
523.427	1388.1
523.857	1407.28
524.286	1420.31
524.716	1438.9
525.145	1460.14
525.575	1474.58
526.004	1491.6
526.433	1487.16
526.863	1491.32
527.292	1485.03
527.721	1493.29
528.15	1501.94
528.579	1506.01
529.008	1518.94
529.437	1541.18
529.866	1555.91
530.295	1574.16
530.724	1588.07
531.152	1615.08
531.581	1630.75
532.01	1649.51
532.438	1659.98
532.867	1675.23
533.295	1694.37
533.723	1701.63
534.152	1702.47
534.58	1704.78
535.008	1692.91
535.436	1696.11
535.865	1704.49
536.293	1718.15
536.721	1734.53
537.149	1759.44
537.576	1763.27
538.004	1775.16
538.432	1784.35
538.86	1783.72
539.287	1792.23
539.715	1806.14
540.143	1809.66
540.57	1807.31
540.998	1805.87
541.425	1784.81
541.852	1764.97
542.28	1763.26
542.707	1748.55
543.134	1735.54
543.561	1732.78
543.988	1726.06
544.415	1724.66
544.842	1719.13
545.269	1711.95
545.696	1712.37
546.123	1724.43
546.549	1714.75
546.976	1702.4
547.403	1702
547.829	1703.54
548.256	1704.25
548.682	1699.54
549.108	1692.61
549.535	1692.94
549.961	1695.19
550.387	1683.33
550.813	1677.66
551.24	1682.58
551.666	1683.42
552.092	1674.23
552.518	1668.1
552.943	1661.63
553.369	1666.95
553.795	1671.65
554.221	1670.77
554.646	1664.71
555.072	1672.77
555.498	1676.06
555.923	1683.07
556.349	1695.38
556.774	1701.58
557.199	1699.87
557.625	1702.97
558.05	1695.41
558.475	1701.72
558.9	1698.28
559.325	1689.37
559.75	1680.49
560.175	1671.65
560.6	1663.18
561.025	1658.22
561.449	1654.98
561.874	1656
562.299	1657
562.723	1659.72
563.148	1647.02
563.572	1647.53
563.997	1651.94
564.421	1653.03
564.846	1648.96
565.27	1647.26
565.694	1640.52
566.118	1647.1
566.542	1650.2
566.966	1639.58
567.39	1631.23
567.814	1617.74
568.238	1612.42
568.662	1612.48
569.086	1610.64
569.509	1612.69
569.933	1595.46
570.357	1584.87
570.78	1562.11
571.204	1546.51
571.627	1532.41
572.05	1527.39
572.474	1522.85
572.897	1507.91
573.32	1498.15
573.743	1484.9
574.166	1465.04
574.589	1461.28
575.012	1451.41
575.435	1447.31
575.858	1436.19
576.281	1424.25
576.704	1407.44
577.126	1393.68
577.549	1380.77
577.972	1369.23
578.394	1358.69
578.817	1351.7
579.239	1333.55
579.661	1320.23
580.084	1304.66
580.506	1291.47
580.928	1286.29
581.35	1274.81
581.772	1268.88
582.194	1256.47
582.616	1244.71
583.038	1230.86
583.46	1219.02
583.882	1215.09
584.303	1215.39
584.725	1209.82
585.147	1210.56
585.568	1217.56
585.99	1226.39
586.411	1230.66
586.833	1241.03
587.254	1239.29
587.675	1249.22
588.096	1258.02
588.518	1252.65
588.939	1238.98
589.36	1236.91
589.781	1226.33
590.202	1202.51
590.623	1193.96
591.043	1189.99
591.464	1178.38
591.885	1175.1
592.305	1169.24
592.726	1156.45
593.147	1156.15
593.567	1151.31
593.987	1144.11
594.408	1138.81
594.828	1136.74
595.248	1130.99
595.669	1116.5
596.089	1110.78
596.509	1104.99
596.929	1094.04
597.349	1094.58
597.769	1085.89
598.189	1080.1
598.608	1080.18
599.028	1081.4
599.448	1080.22
599.867	1069.63
600.287	1065.85
600.706	1061.34
601.126	1053.17
601.545	1050.46
601.965	1048.63
602.384	1043.85
602.803	1044.28
603.222	1039.46
603.641	1033.12
604.061	1029.32
604.48	1025.56
604.898	1029.95
605.317	1033.43
605.736	1034.63
606.155	1033.57
606.574	1026.65
606.992	1030.19
607.411	1026.74
607.829	1019.56
608.248	1016.5
608.666	1014.41
609.085	1013.38
609.503	1006.41
609.921	1000.77
610.339	1001.36
610.758	999.09
611.176	994.33
611.594	986.22
612.012	983.29
612.43	985.87
612.847	990.05
613.265	989.45
613.683	992.77
614.101	994.5
614.518	992.31
614.936	983.97
615.353	972.9
615.771	969.46
616.188	969.23
616.606	965.64
617.023	959.79
617.44	948.8
617.857	943.43
618.274	936.63
618.691	930.95
619.108	922.69
619.525	917.62
619.942	921.79
620.359	924.39
620.776	921.37
621.192	918.75
621.609	916.84
622.026	921.9
622.442	926.02
622.859	928.32
623.275	923.05
623.691	927.16
624.108	936.35
624.524	946.5
624.94	945.94
625.356	952.27
625.772	960.97
626.188	970.24
626.604	970.74
627.02	967.75
627.436	966.12
627.852	971.68
628.268	980.44
628.683	972.64
629.099	967.3
629.514	963.2
629.93	965.91
630.345	970.17
630.761	965.82
631.176	968.15
631.591	965.28
632.007	960.6
632.422	958.02
632.837	949.49
633.252	947.8
633.667	939.6
634.082	933.73
634.497	924.46
634.911	909.98
635.326	907.3
635.741	894.54
636.155	885.5
636.57	886.42
636.984	885.92
637.399	886.71
637.813	885.72
638.228	884.62
638.642	886.72
639.056	878.8
639.47	878.46
639.884	873
640.298	868.84
640.712	868.34
641.126	858.58
641.54	851.51
641.954	847.64
642.368	839.65
642.781	835.56
643.195	824.51
643.609	825.98
644.022	822.17
644.436	819.95
644.849	812.67
645.262	805.04
645.676	807.99
646.089	807.53
646.502	798.76
646.915	797.25
647.328	784.84
647.741	785
648.154	776.92
648.567	777.67
648.98	770.48
649.393	772.39
649.805	771.09
650.218	766.71
650.631	755.9
651.043	752.6
651.456	749.78
651.868	751.85
652.28	765.59
652.693	777.16
653.105	782.75
653.517	791.52
653.929	793.41
654.341	799.18
654.753	791.66
655.165	798.71
655.577	799.84
655.989	798.56
656.401	795.85
656.813	771.5
657.224	759.32
657.636	739.37
658.047	728.48
658.459	717.03
658.87	714.54
659.282	709.87
659.693	697.62
660.104	690.09
660.515	683.88
660.926	686.1
661.338	687.51
661.749	685.02
662.159	682.56
662.57	682.75
662.981	683.7
663.392	681.89
663.803	689.72
664.213	692.16
664.624	693.19
665.035	700.75
665.445	694.36
665.855	693.15
666.266	692.71
666.676	695.5
667.086	691.96
667.497	694.18
667.907	692.58
668.317	688.52
668.727	689.99
669.137	693.29
669.547	693.13
669.956	697.9
670.366	701.9
670.776	705.76
671.186	710.53
671.595	716.55
672.005	721.76
672.414	723.08
672.824	723.17
673.233	728.65
673.642	733.18
674.052	737.9
674.461	742.04
674.87	748.31
675.279	747.48
675.688	751.05
676.097	753.45
676.506	751.74
676.915	767.02
677.323	770.22
677.732	769.74
678.141	769.89
678.549	759.52
678.958	758.81
679.366	758.54
679.775	763.18
680.183	773.3
680.592	777.86
681	782.97
681.408	774.67
681.816	779.45
682.224	783.58
682.632	789.12
683.04	812.97
683.448	829.86
683.856	851.7
684.264	877.52
684.671	898.57
685.079	924.93
685.487	953.16
685.894	996.41
686.302	1028.75
686.709	1052.36
687.116	1081.36
687.524	1101.56
687.931	1116.56
688.338	1127.32
688.745	1132.69
689.152	1142.72
689.559	1164.47
689.966	1186.41
690.373	1192.63
690.78	1216.07
691.187	1257.41
691.593	1286.84
692	1314.27
692.407	1360.66
692.813	1418.52
693.22	1466.78
693.626	1517.7
694.032	1558.88
694.439	1625.46
694.845	1679
695.251	1746.14
695.657	1811.22
696.063	1904.62
696.469	1980.48
696.875	2052.26
697.281	2101.11
697.687	2158.94
698.093	2212.83
698.498	2300.1
698.904	2373.06
699.31	2475.37
699.715	2555.43
700.12	2660.25
700.526	2701.25
700.931	2788.47
701.337	2862.91
701.742	2919.57
702.147	3022.82
702.552	3076.85
702.957	3158.5
703.362	3203.2
703.767	3256.26
704.172	3322.4
704.577	3303.55
704.981	3376.37
705.386	3419.22
705.791	3435.48
706.195	3535.84
706.6	3572.05
707.004	3681.65
707.408	3675.99
707.813	3729.03
708.217	3739.08
708.621	3764.06
709.025	3890.27
709.43	3914.8
709.834	4003.54
710.237	4102.1
710.641	4109.35
711.045	4156.13
711.449	4170.57
711.853	4227.06
712.256	4296.3
712.66	4361.39
713.064	4467.35
713.467	4536.2
713.87	4683.94
714.274	4760.01
714.677	4907.32
715.08	5117.54
715.484	5336.15
715.887	5595.51
716.29	5851.18
716.693	6116.29
717.096	6420.94
717.499	6604.15
717.901	6660.51
718.304	6720.79
718.707	6770.98
719.109	6672.01
719.512	6654.28
719.915	6509.23
720.317	6462.45
720.719	6535.31
721.122	6522.17
721.524	6480.61
721.926	6446.38
722.328	6588.41
722.731	6590.93
723.133	6643.65
723.535	6899.95
723.937	6945.21
724.338	7028.38
724.74	7095.35
725.142	6999.61
725.544	7011.21
725.945	7053.23
726.347	7063.03
726.748	7065.71
727.15	7099.58
727.551	7060.66
727.952	7040.69
728.354	7015.42
728.755	7026.76
729.156	6984.27
729.557	7012.64
729.958	6869.35
730.359	6812.29
730.76	6798.23
731.161	6730.36
731.562	6705.34
731.962	6719.8
732.363	6643.33
732.763	6569.05
733.164	6625.3
733.564	6544.21
733.965	6425.14
734.365	6383.63
734.766	6429.36
735.166	6385.04
735.566	6321.93
735.966	6294.61
736.366	6293.66
736.766	6220.11
737.166	6266.45
737.566	6217.31
737.966	6189.49
738.365	6246.5
738.765	6244.39
739.165	6149.74
739.564	6119.02
739.964	6181.73
740.363	6126.08
740.763	6126.76
741.162	6112.86
741.561	6074.78
741.96	6019.78
742.36	6048.23
742.759	6057.02
743.158	6111.61
743.557	6135.88
743.955	6190.41
744.354	6132.51
744.753	6208.24
745.152	6155.74
745.55	6230.24
745.949	6222.32
746.348	6223.99
746.746	6250.86
747.144	6199.47
747.543	6172.86
747.941	6238.63
748.339	6150.27
748.737	6140.82
749.136	6131.25
749.534	6216.64
749.932	6181.96
750.33	6213.92
750.727	6290.03
751.125	6256.67
751.523	6235.42
751.921	6287.36
752.318	6243.31
752.716	6319.45
753.113	6338.98
753.511	6372.76
753.908	6374.68
754.305	6349.91
754.703	6430.84
755.1	6508.32
755.497	6589.75
755.894	6843.86
756.291	7085.08
756.688	7518.39
757.085	8097.42
757.482	8908.99
757.878	9799.22
758.275	10605.3
758.672	11717.23
759.068	12615.73
759.465	13900.06
759.861	15558.81
760.258	17480.3
760.654	18472.43
761.05	18323.63
761.447	17493.98
761.843	16293.47
762.239	15040.46
762.635	14472.8
763.031	13935.89
763.427	13165.22
763.822	12350.9
764.218	11537.14
764.614	10482.75
765.01	9780.62
765.405	9325.26
765.801	8975.35
766.196	8531.69
766.592	8289.8
766.987	7877.32
767.382	7594.69
767.778	7475.29
768.173	7302.96
768.568	7208.26
768.963	7041.86
769.358	7065.75
769.753	7003.54
770.148	6893.23
770.542	6894.6
770.937	6853.06
771.332	6972.78
771.726	6997.31
772.121	6913.97
772.515	6988.33
772.91	6969.35
773.304	7068.5
773.699	6983.57
774.093	7058.12
774.487	7134.5
774.881	7191.94
775.275	7187.49
775.669	7136.58
776.063	7198.82
776.457	7247.86
776.851	7150.38
777.245	7142.74
777.638	7185.8
778.032	7336.3
778.425	7289.52
778.819	7342.38
779.212	7285.38
779.606	7231.71
779.999	7256.2
780.392	7231.87
780.786	7340.69
781.179	7365.11
781.572	7417.98
781.965	7432.44
782.358	7353.99
782.751	7425.06
783.143	7364.53
783.536	7460.4
783.929	7517.58
784.322	7664.67
784.714	7706.01
785.107	7697.61
785.499	7788.86
785.891	7762.69
786.284	7737.2
786.676	7925.16
787.068	7899.41
787.46	7966.38
787.852	7993.82
788.245	8104.6
788.636	8144.68
789.028	8233.88
789.42	8289.3
789.812	8300.61
790.204	8426.03
790.595	8557.25
790.987	8298.38
791.378	8329.03
791.77	8500.29
792.161	8678.59
792.553	8750.34
792.944	8604.38
793.335	8517.7
793.726	8611.16
794.117	8732.02
794.508	8913.58
794.899	8873.99
795.29	9061.75
795.681	9137.67
796.072	8947.2
796.463	8688.35
796.853	8700.78
797.244	8909.11
797.634	8949.46
798.025	8947.44
798.415	8965.82
798.806	9082.42
799.196	9194.38
799.586	9260.2
799.976	9208.98
800.366	9510.42
800.756	9839.29
801.146	9787.38
801.536	9823.18
801.926	9917.6
802.316	9951.39
802.706	10044.6
803.095	9880.67
803.485	10015.86
803.874	10062.2
804.264	10400.95
804.653	10366.62
805.043	10559.02
805.432	10699.04
805.821	10700.27
806.21	10728.64
806.599	10889.1
806.988	10948.05
807.377	11089.16
807.766	11259.16
808.155	11633.12
808.544	11287.22
808.933	11308.42
809.321	11275.62
809.71	11665.53
810.098	11875.75
810.487	12476.74
810.875	13103.61
811.264	13129.39
811.652	13500.38
812.04	13685.77
812.428	13899.68
812.816	14900.04
813.204	15443.05
813.592	16176.13
813.98	16614.46
814.368	16480.91
814.756	17110.82
815.144	17006.91
815.531	17614.23
815.919	17523.42
816.306	17923.37
816.694	17525.4
817.081	17599.14
817.469	18053.93
817.856	18048.22
818.243	18395.9
818.63	18913.99
819.017	18363.79
819.404	18432.32
819.791	18930.39
820.178	19737.37
820.565	20057.77
820.952	21259.05
821.339	20602.33
821.725	20842.23
822.112	19852.98
822.498	19799.54
822.885	19963
823.271	19842.27
823.657	20398.99
824.044	20405.39
824.43	20499.67
824.816	20461.79
825.202	19892.42
825.588	21221.4
825.974	21237.3
826.36	21918.23
826.746	21967.36
827.132	22434.54
827.517	22393.05
827.903	21364.78
828.289	21412.78
828.674	20397.99
829.06	20263.44
829.445	20801.83
829.83	21273.66
830.216	21904.57
830.601	22388.75
830.986	21840.54
831.371	21665.81
831.756	22403.05
832.141	21841.41
832.526	21832.37
832.911	22194.81
833.295	22044.01
833.68	22641.23
834.065	21831.23
834.449	20633.42
834.834	20541.4
835.218	20554.31
835.603	21002.08
835.987	20721.07
836.371	21814.76
836.755	21684.78
837.139	22221.33
837.524	22541.67
837.908	22316.73
838.291	22403.06
838.675	22503.1
839.059	22770.28
839.443	22755.84
839.827	22458.29
840.21	23092.35
840.594	22895.86
840.977	23170.35
841.361	23141.02
841.744	23630.94
842.127	23425
842.511	23747.23
842.894	24525.36
843.277	25028.9
843.66	25748.35
844.043	25861.67
844.426	24803.92
844.809	24405.54
845.191	24451.25
845.574	23849.31
845.957	23385.89
846.339	23250.54
846.722	22563.44
847.104	22659.05
847.487	22433.26
847.869	22438.37
848.252	22806.44
848.634	23240.87
849.016	23584.98
849.398	23753.2
849.78	24871.27
850.162	24869.09
850.544	25415.7
850.926	26246.76
851.307	26125.23
851.689	26489.05
852.071	27089.79
852.452	27498.84
852.834	27462.88
853.215	27972.02
853.597	28175.58
853.978	28555.3
854.359	29160.39
854.741	27856.09
855.122	27708.91
855.503	27331.1
855.884	27509.06
856.265	27422.2
856.646	27580.04
857.026	27083.79
857.407	27005.08
857.788	27205.44
858.169	27581.53
858.549	26457.64
858.93	27263.76
859.31	27340.29
859.69	27614.41
860.071	27086.08
860.451	26791.73
860.831	25818.16
861.211	27327.18
861.591	28034.5
861.971	27999.65
862.351	28253.5
862.731	28769.83
863.111	29123.27
863.491	29540.31
863.87	30684.81
864.25	31135.75
864.629	30625.07
865.009	31286.5
865.388	32403.77
865.768	34739.65
866.147	34592.94
866.526	32682.11
866.905	33070.96
867.284	34925.29
867.663	33178.19
868.042	31792.84
868.421	31684.44
868.8	32211.16
869.179	32536.47
869.558	30639.34
869.936	28232.85
870.315	28742.67
870.693	29434.6
871.072	31743.51
871.45	30237.07
871.828	30617.35
872.207	32188.73
872.585	31705.68
872.963	32573
873.341	31449.69
873.719	31060.48
874.097	30680.76
874.475	31258.4
874.853	31972.97
875.23	30627.11
875.608	31900.88
875.986	34498.46
876.363	32993.21
876.741	33997.98
877.118	33143.62
877.495	34779.41
877.873	35368.89
878.25	37234.76
878.627	35727.56
879.004	36233.94
879.381	36061.96
879.758	35115.73
880.135	32703.79
880.512	34584.55
880.889	33669.32
881.265	33317.22
881.642	33042.03
882.019	33601.7
882.395	32902.73
882.772	34193.3
883.148	32702.73
883.524	32577.39
883.901	32387.61
884.277	32857.58
884.653	32655.25
885.029	33598.89
885.405	37203.51
885.781	36913.14
886.157	35408.93
886.532	35852.39
886.908	35839.41
887.284	39861.35
887.659	41181.39
888.035	42476.08
888.411	43583.85
888.786	44152.78
889.161	45686.41
889.537	44852.51
889.912	46285.79
890.287	46222.25
890.662	47421.01
891.037	46569.51
891.412	43428.09
891.787	42982.09
892.162	41473.12
892.536	42436.54
892.911	40837.85
893.286	39978.39
893.66	38346.91
894.035	39330.48
894.409	42850.53
894.784	41129.15
895.158	41817.5
895.532	44295.79
895.906	45503.22
896.281	46578.03
896.655	45831.42
897.029	52399.41
897.402	54572.14
897.776	60789.8
898.15	60577.86
898.524	59907.29
898.898	60689.98
899.271	67925.86
899.645	58822.63
900.018	56489.08
900.392	58582.79
900.765	59093.85
901.138	54676.67
901.511	53825.73
901.884	49408.71
902.258	45569.85
902.631	47080.54
903.003	54208.62
903.376	48910.06
903.749	54860.04
904.122	58740.65
904.495	64692.18
904.867	65481.57
905.24	56822.75
905.612	52928.11
905.985	54145.23
906.357	56642.35
906.729	54081.14
907.102	46174.16
907.474	44409.74
907.846	44676.62
908.218	44085.22
908.59	38947.01
908.962	37678.69
909.334	40593.33
909.705	42623.33
910.077	41372.5
910.449	43034.76
910.82	44233.6
911.192	48666.92
911.563	50562.77
911.935	54105.22
912.306	54175.41
912.677	55940.36
913.048	55360.63
913.419	60042.5
913.79	60384.62
914.161	64740.12
914.532	61901.63
914.903	56891.38
915.274	54047.4
915.645	53265.44
916.015	46909.92
916.386	44724.94
916.756	47609.94
917.127	49129.03
917.497	43906.6
917.868	47801.09
918.238	45438.53
918.608	46731.78
918.978	47697.95
919.348	50525.56
919.718	52189.58
920.088	50257.99
920.458	52196.79
920.828	54941.42
921.198	52063.11
921.567	55597.89
921.937	43045.1
922.306	43430.95
922.676	46812.69
923.045	39008
923.415	37034.39
923.784	33738.43
924.153	34664.62
924.522	34613.07
924.891	32532.61
925.26	34828.31
925.629	34018.21
925.998	39102.55
926.367	38169.77
926.736	36363.89
927.104	43328.13
927.473	46580.36
927.842	56241.5
928.21	55722.89
928.578	58612.53
928.947	55407.08
929.315	55767.89
929.683	65352.25
930.051	65864.32
930.42	76505.58
930.788	65381.64
931.156	64901.61
931.523	60836.64
931.891	56224.49
932.259	53988.96
932.627	62551.34
932.994	88509.89
933.362	73173.71
933.729	63550.74
934.097	60820.09
934.464	51444.65
934.831	59380.07
935.199	58542.81
935.566	56760.97
935.933	57545.49
936.3	69683.45
936.667	54263.18
937.034	48905.41
937.401	48320.3
937.767	41704.44
938.134	37144.8
938.501	52424.19
938.867	55881.97
939.234	94534.13
939.6	80678.5
939.967	88798.15
940.333	59435.05
940.699	50621.76
941.065	40678.18
941.431	53352.93
941.798	51450.02
942.163	67525.42
942.529	42222.81
942.895	38866.95
943.261	25108.97
943.627	32942.83
943.992	28832.36
944.358	28881.81
944.723	28962.6
945.089	28232.25
945.454	26086.42
945.82	27858.07
946.185	26788.88
946.55	30995
946.915	27795.27
947.28	32631.86
947.645	28723.44
948.01	26516.96
948.375	27634.06
948.74	33174.03
949.104	38685.75
949.469	55937.53
949.834	98898.7
950.198	93706.89
950.562	56190.66
950.927	46854.41
951.291	56416.69
951.655	48103.37
952.02	45160.7
952.384	34183.55
952.748	29717.66
953.112	28972.47
953.476	25177.78
953.839	23271.54
954.203	23038.34
954.567	28824.39
954.931	45369.61
955.294	38789.17
955.658	38961.48
956.021	66308.43
956.385	112435.47
956.748	165874.51
957.111	257487.96
957.474	288980.72
957.837	325292.13
958.2	246220.13
958.563	88494.03
958.926	59855.86
959.289	90849.14
959.652	101541.31
960.015	76163.54
960.377	109352.92
960.74	124957.98
961.102	215638.02
961.465	231559.33
961.827	123826.61
962.189	237604.35
962.552	164713.89
962.914	131907.67
963.276	85635.8
963.638	70760.19
964	70129.86
964.362	47367.97
964.724	45761.81
965.085	32613.42
965.447	26735.67
965.809	30532.68
966.17	30583.64
966.532	33130.26
966.893	30418.45
967.255	27654.47
967.616	32676.32
967.977	26138.03
968.338	28563.09
968.699	23449.64
969.061	23455.37
969.421	23611.06
969.782	26495.45
970.143	22347.03
970.504	23106.14
970.865	26262.36
971.225	26824.78
971.586	26241.37
971.946	37449.42
972.307	32503.66
972.667	42534.22
973.027	43788.87
973.388	53082.06
973.748	36105.98
974.108	39344.9
974.468	53280.31
974.828	41043.44
975.188	31654.8
975.548	29080.73
975.907	24404.37
976.267	27381.87
976.627	23000.38
976.986	23843.11
977.346	22753.22
977.705	21877.36
978.064	19912.68
978.424	16576.83
978.783	17170.3
979.142	19588.89
979.501	18729.21
979.86	19779.57
980.219	19074.52
980.578	24617.62
980.937	27594.79
981.296	24617.67
981.654	25314.21
982.013	39439.73
982.371	51151.2
982.73	47749.21
983.088	54007.74
983.447	57640.21
983.805	82401.55
984.163	172098.55
984.521	191024.76
984.879	279971.55
985.237	-454460.32
985.595	438060.99
985.953	108830.71
986.311	62911.66
986.669	36530.27
987.026	31533.16
987.384	42441.43
987.741	43872.41
988.099	31286.83
988.456	24897.67
988.814	23300.16
989.171	20284.44
989.528	20074.26
989.885	21235.62
990.242	16778.25
990.599	20894.04
990.956	17115.55
991.313	11978.33
991.67	9838.25
992.027	10406.48
992.383	9266.14
992.74	8124.49
993.096	8517.42
993.453	8822.03
993.809	9125.76
994.165	12156.56
994.522	11110.9
994.878	12246
995.234	15352.17
995.59	15141.76
995.946	14372.26
996.302	16365.2
996.658	18937.31
997.013	20854.07
997.369	24678.5
997.725	31592.65
998.08	20536.34
998.436	31785.72
998.791	43746.72
999.147	43650.43
999.502	47643.04
999.857	34659.4
1000.212	56537.49
1000.567	80497.86
1000.922	46434.54
1001.277	29512.62
1001.632	21899.14
1001.987	28181.88
1002.342	20209.83
1002.696	16166.38
1003.051	12901.46
1003.406	15634.7
1003.76	15568.47
1004.114	15332.3
1004.469	12865.07
1004.823	10642.53
1005.177	11499.99
1005.531	9124.62
1005.885	8072.36
1006.239	9086.95
1006.593	11403.36
1006.947	15255.46
1007.301	11430.19
1007.655	12464.34
1008.008	9167.57
1008.362	10297.44
1008.715	14732.4
1009.069	13363.42
1009.422	20017.7
1009.776	40256.69
1010.129	26716.12
1010.482	22335.13
1010.835	18949.56
1011.188	39480.76
1011.541	37257.1
1011.894	-227819.56
1012.247	671521.95
1012.6	45695.85
1012.952	28851.66
1013.305	14957.9
1013.657	10759.68
1014.01	10216.85
1014.362	8439.02
1014.715	7446.32
1015.067	6463
1015.419	6304.5
1015.771	5585.86
1016.123	4962.18
1016.475	5076.99
1016.827	5410.89
1017.179	5786.15
1017.531	5835.89
1017.883	5968.9
1018.234	5716.15
1018.586	7216.79
1018.938	7624.71
1019.289	10475.95
1019.64	11979.21
1019.992	11189.82
1020.343	10259.7
1020.694	8068.68
1021.045	7131.2
1021.396	8150.81
1021.747	8698.02
1022.098	10508.14
1022.449	7646.16
1022.8	7149.41
1023.151	5000.17
1023.501	4424.79
1023.852	4794.89
1024.202	4990.42
1024.553	5524.36
1024.903	5393.7
1025.253	4593.8
1025.604	4134.05
1025.954	5132.56
1026.304	6265.19
1026.654	7262.94
1027.004	10652.26
1027.354	17230.53
1027.703	16259.09
1028.053	21367.44
1028.403	30780.96
1028.753	44694.78
1029.102	60952.1
1029.452	314354.93
1029.801	13547.12
1030.15	8738.14
1030.499	7438.47
897.758	2229.34
901.051	2162.28
904.343	2195.21
907.636	2204.15
910.928	2267.5
914.22	2182.33
917.511	2188.46
920.803	2239.05
924.094	2236.93
927.384	2241.5
930.675	2204.7
933.965	2167.06
937.255	2197.24
940.544	2166.45
943.834	2163.64
947.123	2102.55
950.411	2196.36
953.7	2175.45
956.988	2159.92
960.276	2095.66
963.563	2144.88
966.851	2155.37
970.138	2198.83
973.424	2200.08
976.711	2153.79
979.997	2203.66
983.283	2249.53
986.568	2179.01
989.853	2170.77
993.138	2196.32
996.423	2285.06
999.708	2243.28
1002.992	2274.8
1006.275	2184.46
1009.559	2191.39
1012.842	2291.73
1016.125	2244.66
1019.408	2222.56
1022.69	2282.67
1025.972	2318.63
1029.254	2293.31
1032.536	2252.9
1035.817	2264.73
1039.098	2235.55
1042.379	2289.76
1045.659	2318.09
1048.939	2266.25
1052.219	2273.38
1055.498	2267.68
1058.778	2265.09
1062.057	2238.02
1065.335	2263.3
1068.614	2277.02
1071.892	2273.24
1075.17	2325.18
1078.447	2331
1081.724	2324.44
1085.001	2350.51
1088.278	2330.13
1091.554	2337.88
1094.83	2330.14
1098.106	2368.78
1101.382	2401.07
1104.657	2398.72
1107.932	2399.84
1111.206	2379.52
1114.481	2327.96
1117.755	2329.36
1121.029	2322.67
1124.302	2385.33
1127.575	2350.19
1130.848	2347.97
1134.121	2316.48
1137.393	2279.04
1140.665	2339.83
1143.937	2314.97
1147.208	2262.82
1150.48	2325.95
1153.75	2315.61
1157.021	2316.51
1160.291	2293.23
1163.561	2348.91
1166.831	2314.92
1170.101	2342.88
1173.37	2301.5
1176.639	2258.07
1179.907	2302.72
1183.176	2325.88
1186.444	2326.67
1189.711	2351.89
1192.979	2377.28
1196.246	2331.57
1199.513	2343.35
1202.78	2349.93
1206.046	2361.46
1209.312	2388.76
1212.578	2405.9
1215.843	2374.33
1219.108	2341.27
1222.373	2365.53
1225.638	2335.87
1228.902	2328.86
1232.166	2280.64
1235.43	2268.91
1238.693	2292.98
1241.956	2283.08
1245.219	2333.1
1248.482	2316.15
1251.744	2313.98
1255.006	2440.7
1258.268	2386.31
1261.529	2342.01
1264.79	2340.56
1268.051	2445.7
1271.312	2454.02
1274.572	2425.67
1277.832	2415.49
1281.092	2392.77
1284.351	2383.68
1287.61	2368.54
1290.869	2300.82
1294.128	2299.03
1297.386	2347.42
1300.644	2342.23
1303.902	2350.11
1307.159	2216.38
1310.416	2268.04
1313.673	2295.63
1316.93	2294.88
1320.186	2326.89
1323.442	2360.41
1326.697	2360.25
1329.953	2333.89
1333.208	2371.35
1336.463	2339.41
1339.717	2299.06
1342.972	2404.61
1346.226	2377.31
1349.479	2323.09
1352.733	2302.41
1355.986	2306.06
1359.238	2286.2
1362.491	2291.65
1365.743	2290.25
1368.995	2281.2
1372.247	2296.02
1375.498	2315.02
1378.749	2358.83
1382	2307.77
1385.251	2345.94
1388.501	2296.56
1391.751	2298.9
1395	2261.59
1398.25	2286.93
1401.499	2308.43
1404.748	2256.97
1407.996	2231.47
1411.244	2221.1
1414.492	2204.81
1417.74	2189.17
1420.987	2192.13
1424.234	2252.97
1427.481	2214.56
1430.728	2274.6
1433.974	2249.17
1437.22	2246.72
1440.465	2243.38
1443.711	2243.43
1446.956	2267.67
1450.201	2242.07
1453.445	2281.34
1456.689	2272.22
1459.933	2281.64
1463.177	2322.5
1466.42	2294.39
1469.663	2277.73
1472.906	2294.89
1476.148	2345.29
1479.391	2320.23
1482.633	2294.19
1485.874	2319.18
1489.115	2327.1
1492.356	2309.59
1495.597	2291.86
1498.838	2286.31
1502.078	2271.19
1505.318	2241.66
1508.557	2277.75
1511.797	2275.51
1515.036	2318.71
1518.274	2293.74
1521.513	2245.34
1524.751	2258.06
1527.989	2285.83
1531.227	2304.28
1534.464	2317.9
1537.701	2313.47
1540.938	2327.2
1544.174	2272.68
1547.41	2263.58
1550.646	2304.15
1553.882	2354.15
1557.117	2415.81
1560.352	2423.86
1563.587	2383.89
1566.821	2350.8
1570.055	2367.23
1573.289	2349.66
1576.523	2409.88
1579.756	2425.73
1582.989	2448.71
1586.222	2407.52
1589.454	2436.91
1592.686	2419.4
1595.918	2448.83
1599.15	2448.98
1602.381	2492.89
1605.612	2474.61
1608.843	2568.39
1612.073	2492.66
1615.303	2482.14
1618.533	2478.75
1621.762	2478.78
1624.992	2453.93
1628.221	2458.27
1631.449	2447.13
1634.678	2472.15
1637.906	2441.23
1641.134	2469.41
1644.361	2434.66
1647.588	2421.23
1650.815	2442.43
1654.042	2404.89
1657.269	2434.69
1660.495	2413.07
1663.72	2396.26
1666.946	2363.69
1670.171	2336.89
1673.396	2308.62
1676.621	2291.85
1679.845	2286
1683.069	2296.12
1686.293	2325.04
1689.517	2316.92
1692.74	2264.63
1695.963	2285.14
1699.185	2329.27
1702.408	2299.31
1705.63	2329.14
1708.852	2349.81
1712.073	2317.01
1715.294	2330.39
1718.515	2369.66
1721.736	2329.63
1724.956	2305.67
1728.176	2328.58
1731.396	2354.15
1734.616	2337.87
1737.835	2376.61
1741.054	2348.35
1744.272	2335.94
1747.491	2377.92
1750.709	2403.43
1753.927	2351.13
1757.144	2375.72
1760.361	2436.47
1763.578	2410.89
1766.795	2357.97
1770.011	2344.69
1773.227	2370.33
1776.443	2412.02
1779.658	2456.95
1782.874	2393.81
1786.089	2384.21
1789.303	2386.94
1792.518	2383.88
1795.732	2369.26
1798.945	2386.21
1802.159	2427.37
1805.372	2367.46
1808.585	2363.53
1811.797	2364.84
1815.01	2386.49
1818.222	2409.84
1821.434	2364.4
1824.645	2406.71
1827.856	2417.88
1831.067	2448.79
1834.278	2381.34
1837.488	2365.03
1840.698	2491.51
1843.908	2428.48
1847.117	2396.35
1850.326	2319.7
1853.535	2380.17
1856.744	2418.08
1859.952	2339.95
1863.16	2339.34
1866.368	2352.98
1869.575	2467.92
1872.782	2346.16
1875.989	2277.19
1879.196	2326.21
1882.402	2311.09
1885.608	2347.14
1888.814	2286.24
1892.019	2190.18
1895.224	2239.89
1898.429	2205.67
1901.634	2188.51
1904.838	2160.89
1908.042	2219.31
1911.246	2230.12
1914.449	2192.4
1917.652	2174.85
1920.855	2152.44
1924.058	2177.7
1927.26	2223.91
1930.462	2247.65
1933.664	2284.9
1936.865	2227.75
1940.066	2247.31
1943.267	2189.09
1946.467	2198.46
1949.668	2217.63
1952.868	2292.1
1956.067	2281.97
1959.267	2222.7
1962.466	2245.9
1965.665	2227.23
1968.863	2222.16
1972.061	2222.92
1975.259	2217.38
1978.457	2294.26
1981.654	2254.98
1984.852	2259.19
1988.048	2209.08
1991.245	2195.77
1994.441	2284.15
1997.637	2244.42
2000.833	2225.36
2004.028	2262.04
2007.223	2326.61
2010.418	2312.24
2013.613	2262.14
2016.807	2257.39
2020.001	2252.64
2023.194	2274.8
2026.388	2261.75
2029.581	2203.58
2032.774	2265.34
2035.966	2278.92
2039.158	2222.37
2042.35	2242.29
2045.542	2166.8
2048.733	2249.82
2051.924	2242.81
2055.115	2257.81
2058.306	2222.3
2061.496	2278.7
2064.686	2328.54
2067.875	2235.21
2071.065	2238.28
2074.254	2257.48
2077.442	2210.83
2080.631	2297.28
2083.819	2226.25
2087.007	2218.11
2090.195	2203.26
2093.382	2218.78
2096.569	2200.85
2099.756	2161.64
2102.942	2210.34
2106.128	2223.06
2109.314	2211.07
2112.5	2195.9
2115.685	2160.49
2118.87	2170.42
2122.055	2230.68
2125.239	2209.2
2128.424	2197.57
2131.608	2259.82
2134.791	2247.64
2137.974	2282.55
2141.157	2271.82
2144.34	2243.34
2147.523	2233.5
2150.705	2261.21
2153.887	2227.98
2157.068	2199.69
2160.25	2182.79
2163.431	2207.11
2166.611	2175.17
2169.792	2194.9
2172.972	2106.28
2176.152	2157.37
2179.331	2185.18
2182.511	2188.77
2185.69	2210.88
2188.868	2215.48
2192.047	2251.5
2195.225	2265.3
2198.403	2212.34
2201.58	2200.93
2204.758	2186.55
2207.935	2263.32
2211.111	2177.77
2214.288	2165.5
2217.464	2200.93
2220.64	2153.01
2223.815	2204.39
2226.991	2135.34
2230.166	2151.56
2233.34	2195.6
2236.515	2208.29
2239.689	2274.03
2242.863	2223
2246.036	2275.1
2249.209	2259.64
2252.382	2277.26
2255.555	2287.59
2258.727	2235.35
2261.9	2264.56
2265.071	2256.6
2268.243	2253.1
2271.414	2198.63
2274.585	2181.24
2277.756	2242.9
2280.926	2199.96
2284.096	2228.32
2287.266	2158.97
2290.436	2208.24
2293.605	2227.16
2296.774	2266.41
2299.942	2270.77
2303.111	2286.75
2306.279	2340.81
2309.447	2326.59
2312.614	2295.77
2315.781	2319.59
2318.948	2297.37
2322.115	2333.45
2325.281	2232.03
2328.447	2241.6
2331.613	2209.45
2334.779	2201.02
2337.944	2196.7
2341.109	2196.74
2344.274	2183.82
2347.438	2153.24
2350.602	2173.5
2353.766	2183.78
2356.929	2172.33
2360.092	2209.24
2363.255	2180.11
2366.418	2145.74
2369.58	2213.15
2372.742	2081.56
2375.904	2078.73
2379.066	2063.27
2382.227	2088.59
2385.388	2052.43
2388.548	2000.73
2391.709	2044.92
2394.869	2033.03
2398.029	2087.98
2401.188	2085.4
2404.347	2047.77
2407.506	2131.67
2410.665	2167.94
2413.823	2155.42
2416.981	2133.02
2420.139	2150.79
2423.296	2192.18
2426.453	2162.05
2429.61	2182.44
2432.767	2151.86
2435.923	2190.95
2439.079	2137.71
2442.235	2172.95
2445.391	2113.78
2448.546	2156.28
2451.701	2191.97
2454.855	2185.95
2458.009	2212.65
2461.163	2204.58
2464.317	2177.57
2467.471	2203.87
2470.624	2233.53
2473.777	2223.86
2476.929	2240.38
2480.082	2263.8
2483.234	2236.39
2486.385	2176.15
2489.537	2170.11
2492.688	2159.92
2495.839	2176.61
2498.989	2192.09
2502.14	2178.59
2505.29	2170.35
2508.439	2193.14
2511.589	2132.1
2514.738	2133.37
2517.887	2155.24
2521.035	2231.97
2524.183	2191.84
2527.331	2180.77
2530.479	2172.52
2533.627	2174.27
