Data from N_2_DIV_WI_4N_Splice17_12-17-47-246.txt Node
Date: Sat Mar 14 12:17:47 EDT 2020
User: sa697716
Spectrometer: FLMS03696
Trigger mode: 0
Integration Time (sec): 3.180400E-1
Scans to average: 20
Electric dark correction enabled: true
Nonlinearity correction enabled: true
Boxcar width: 5
XAxis mode: Wavelengths
Number of Pixels in Spectrum: 2048
>>>>>Begin Spectral Data<<<<<
187.83	-270671.94
188.298	2063.09
188.766	1193.62
189.233	1019.79
189.701	1365.01
190.169	1980.48
190.636	702.84
191.104	567.38
191.571	98.94
192.039	-21.84
192.506	48.49
192.974	490.15
193.441	-871.53
193.908	-88.93
194.375	-21.33
194.842	34.7
195.31	177.8
195.777	177.49
196.244	405.34
196.711	493.45
197.177	609.15
197.644	887.72
198.111	1495.04
198.578	2096.48
199.045	1656.06
199.511	2673.74
199.978	3078.94
200.445	2594.76
200.911	2878.63
201.378	3175.3
201.844	2889.27
202.31	4932.12
202.777	5123.09
203.243	2838.28
203.709	2704.54
204.176	3227.59
204.642	2674.93
205.108	2501.99
205.574	2056.33
206.04	1876.69
206.506	1755.93
206.972	1642.82
207.438	1593.61
207.903	1803.2
208.369	1588.69
208.835	1591.43
209.301	1674.88
209.766	1713.97
210.232	1709.86
210.697	2123.07
211.163	2613.63
211.628	3983.23
212.094	3364
212.559	4179.19
213.024	2633.51
213.49	3220.71
213.955	3165.64
214.42	3101.23
214.885	2902.4
215.35	2806.37
215.815	2704.79
216.28	2897.08
216.745	2398.51
217.21	2636.97
217.675	2440.3
218.14	2774.98
218.604	3171.14
219.069	3688.82
219.534	3957.49
219.998	4692.39
220.463	5777.03
220.927	7232.59
221.392	6914.24
221.856	7083.27
222.32	9013.37
222.785	11238.64
223.249	14235.91
223.713	15973.02
224.177	16030.31
224.642	20631.39
225.106	25507.36
225.57	27955.02
226.034	20855.99
226.497	31753.08
226.961	28686.4
227.425	33450.57
227.889	37128.49
228.353	37174.15
228.816	76807.84
229.28	73509.59
229.744	62078.23
230.207	37640.8
230.671	37010.56
231.134	61224.31
231.597	70553.22
232.061	70543
232.524	68682.65
232.987	47230.35
233.45	42453.71
233.914	38036.51
234.377	38950.7
234.84	35554.52
235.303	41909.66
235.766	46722.03
236.229	48200.18
236.691	30333.5
237.154	34022.53
237.617	25593.25
238.08	26207.83
238.542	30658.81
239.005	21886.62
239.468	21684.1
239.93	20423.89
240.393	18529.15
240.855	16245.62
241.317	16628.48
241.78	20214.5
242.242	20868.95
242.704	22484.99
243.166	19534.47
243.629	17695.8
244.091	20374.36
244.553	22304.4
245.015	23964.53
245.477	30968.04
245.939	45339.68
246.4	48023.17
246.862	46629.47
247.324	43899.1
247.786	49081.11
248.247	64318.06
248.709	66401.81
249.17	49599.2
249.632	46710.33
250.093	54030.72
250.555	46628.18
251.016	28387.29
251.477	26904.83
251.939	28997.66
252.4	30403.37
252.861	36158.11
253.322	33559.78
253.783	39887.17
254.244	51640.76
254.705	40674.42
255.166	36152.95
255.627	35563.54
256.088	50099.63
256.549	53186.3
257.009	45743.76
257.47	55467.63
257.931	45126.09
258.391	33794.19
258.852	34825.55
259.312	36521.08
259.773	45035.36
260.233	37973.95
260.694	31992.27
261.154	36251.89
261.614	29037.79
262.074	25957.33
262.534	26926.97
262.994	25367.85
263.455	33800.11
263.915	28429.92
264.374	26723.51
264.834	29180.65
265.294	32343.88
265.754	33493.17
266.214	31697.84
266.673	29690.71
267.133	37431.96
267.593	37112.28
268.052	45314.05
268.512	39342.46
268.971	47446.02
269.431	51996.55
269.89	46532.15
270.349	69697.4
270.809	77638.77
271.268	69685.74
271.727	156235.45
272.186	101218.87
272.645	75866.19
273.104	54697.85
273.563	79228
274.022	62232.62
274.481	52888.2
274.94	40688.61
275.399	30240.43
275.857	35193.7
276.316	47595.33
276.775	42288.21
277.233	41546.68
277.692	38873.64
278.15	43953.21
278.609	45162.77
279.067	41789.09
279.525	38796.44
279.984	50111.16
280.442	60152.17
280.9	59196.97
281.358	38927.43
281.816	36243.23
282.274	35494.49
282.732	36616.83
283.19	36771.36
283.648	31715.95
284.106	33696.48
284.564	34274.19
285.021	31724.21
285.479	23615.58
285.937	21451.14
286.394	18790.55
286.852	19339.24
287.309	20305.66
287.767	19603.33
288.224	18631.89
288.682	20422.55
289.139	22434.95
289.596	20497.65
290.053	21276.69
290.511	26805.94
290.968	32476.19
291.425	44047.54
291.882	36603.1
292.339	31780.87
292.796	31505.99
293.252	29621.86
293.709	23495.15
294.166	21015.97
294.623	23210.92
295.079	22255.86
295.536	22331.67
295.992	20265.24
296.449	20013.85
296.905	20769.66
297.362	19915.27
297.818	20915.81
298.274	21690.49
298.731	22072.97
299.187	21846.88
299.643	23410.6
300.099	28274.11
300.555	30980.87
301.011	25874.04
301.467	24906.84
301.923	29144.04
302.379	28429.66
302.835	27912.59
303.291	27900.36
303.746	31759.55
304.202	40063.53
304.658	40188.68
305.113	26994.51
305.569	26455.8
306.024	28162.45
306.479	26787.8
306.935	22550.32
307.39	24585.91
307.845	22689.63
308.301	22775.75
308.756	22139.8
309.211	21298.78
309.666	21799.61
310.121	27061.11
310.576	27400.67
311.031	27153.98
311.486	31103.7
311.94	31060.83
312.395	41523.74
312.85	77979.22
313.305	383199.77
313.759	1980452.36
314.214	143241.71
314.668	113478.19
315.123	95282.99
315.577	34144.9
316.032	30363.75
316.486	37978.57
316.94	29938.49
317.394	20856.53
317.849	16182.09
318.303	15305.06
318.757	14438.87
319.211	15960.07
319.665	13960.12
320.119	14100.15
320.572	20217
321.026	18856.14
321.48	15679.71
321.934	17062.53
322.387	17053.7
322.841	18394.35
323.295	16553.66
323.748	19075.75
324.202	19325.05
324.655	23194.56
325.108	32396.77
325.562	22848.59
326.015	27150.89
326.468	20514.46
326.921	22965.83
327.374	21408.19
327.827	22294.63
328.28	25176.96
328.733	16850.83
329.186	14806.41
329.639	14094.42
330.092	11879.36
330.545	11316.74
330.997	11400.52
331.45	12459.38
331.903	14574.38
332.355	25055.9
332.808	24331.43
333.26	20022.83
333.713	21697.85
334.165	21847.44
334.617	29175.17
335.069	23561.47
335.522	42563.25
335.974	47120.81
336.426	42983.04
336.878	29802.56
337.33	15099.48
337.782	14743.03
338.234	18520.73
338.686	22171.23
339.137	26296.36
339.589	24734.56
340.041	19398.18
340.493	16669.71
340.944	17043
341.396	18362.65
341.847	15421.14
342.299	18181.92
342.75	22166.95
343.201	19344.45
343.653	22247.67
344.104	27314.03
344.555	21508.77
345.006	33399.75
345.457	25576.71
345.908	20358.56
346.359	19148.76
346.81	15585.34
347.261	16425.03
347.712	16180.98
348.163	17314.23
348.613	17510.22
349.064	16351.42
349.515	14301.08
349.965	14680.1
350.416	17652.17
350.866	19331.04
351.317	21843.25
351.767	36154.45
352.217	45704.7
352.668	37920.54
353.118	34794.79
353.568	33554.1
354.018	26526.21
354.468	27952.3
354.918	20023.08
355.368	17520.76
355.818	24765.04
356.268	71273.99
356.718	297908.69
357.168	74046.02
357.617	37145.43
358.067	41303.64
358.517	38655.23
358.966	45281.51
359.416	50758.41
359.865	54946.92
360.315	65334.16
360.764	30492.92
361.213	17047.78
361.663	16193.09
362.112	19994.67
362.561	32260.75
363.01	24288.85
363.459	20459.85
363.908	22110.04
364.357	18785.15
364.806	31671.56
365.255	21778.8
365.703	19939.97
366.152	19974.18
366.601	16176.11
367.05	13117.18
367.498	11919.34
367.947	12479.17
368.395	12940.31
368.844	11447.25
369.292	13759.63
369.74	9495.12
370.189	14514.49
370.637	16997.94
371.085	14658
371.533	17804.56
371.981	17138.5
372.429	16304.72
372.877	16939.62
373.325	14191.5
373.773	14466.88
374.221	12869.61
374.669	15948.45
375.116	13822.97
375.564	13909.03
376.012	15524.5
376.459	12791.5
376.907	15272.62
377.354	18437.68
377.801	17178.1
378.249	19713.31
378.696	25136.78
379.143	30425.85
379.591	32391.47
380.038	54678.88
380.485	39543.52
380.932	42675.92
381.379	38972.07
381.826	28612.96
382.273	20327.28
382.72	17729
383.166	17290.25
383.613	11194.78
384.06	10084.49
384.506	11662.62
384.953	8541.4
385.4	8580.06
385.846	7508.66
386.292	7310.95
386.739	7159.12
387.185	7075.38
387.631	7086.75
388.078	6858.12
388.524	7328.5
388.97	6762.24
389.416	5636.05
389.862	5988.74
390.308	5663.01
390.754	5736.21
391.2	6208.75
391.645	6333.13
392.091	6046.73
392.537	5824.55
392.983	5820.63
393.428	5735.11
393.874	6139.78
394.319	6158.91
394.765	5829.05
395.21	5990.38
395.655	5614.01
396.101	5257.57
396.546	4744.11
396.991	4776.95
397.436	4437.4
397.881	4280.27
398.326	4047.08
398.771	3822.09
399.216	3335.27
399.661	2999.61
400.106	2980.1
400.551	3046.05
400.995	2733.41
401.44	2703.62
401.885	2536.07
402.329	2560.23
402.774	2452.16
403.218	2371.67
403.663	2280.65
404.107	2335.92
404.551	2351.24
404.995	2157.26
405.44	2072.79
405.884	2096.13
406.328	2026.63
406.772	2017.04
407.216	1835.17
407.66	1771.25
408.104	1673.84
408.547	1562.48
408.991	1513.81
409.435	1452.96
409.879	1429.6
410.322	1410.3
410.766	1360.49
411.209	1289.73
411.653	1235.89
412.096	1207.44
412.54	1205.14
412.983	1199.09
413.426	1203.43
413.869	1197.85
414.312	1175.61
414.756	1132.7
415.199	1080.36
415.642	1050.21
416.085	1052.59
416.527	1046.92
416.97	1060.79
417.413	1006.45
417.856	991.57
418.298	978.75
418.741	971.89
419.184	967.7
419.626	1004.55
420.069	1001.84
420.511	1003.24
420.953	980.18
421.396	971.14
421.838	944.82
422.28	966.87
422.722	972.14
423.164	986.14
423.606	970.81
424.048	966.8
424.49	920.49
424.932	916.05
425.374	905.29
425.816	919.41
426.258	934.1
426.699	946.76
427.141	932.19
427.582	945.19
428.024	939.76
428.465	933.47
428.907	910.83
429.348	899.14
429.789	899.61
430.231	880.47
430.672	892.13
431.113	870.93
431.554	855.7
431.995	832.95
432.436	803.73
432.877	786.79
433.318	774.31
433.759	772.34
434.2	770.41
434.64	762.03
435.081	764.79
435.522	725.25
435.962	700.79
436.403	688.71
436.843	698.9
437.284	685.89
437.724	667.07
438.164	665.8
438.604	650.07
439.045	626.97
439.485	602.5
439.925	588.24
440.365	573.65
440.805	563.3
441.245	555.41
441.685	536.18
442.125	531.16
442.564	534.14
443.004	523.3
443.444	522.77
443.883	523.44
444.323	517.93
444.762	518.91
445.202	525.18
445.641	536.31
446.081	532.84
446.52	535.79
446.959	531.6
447.398	519.23
447.837	512.58
448.276	503.05
448.716	506.83
449.154	509.86
449.593	499.89
450.032	497.2
450.471	488.32
450.91	489.12
451.349	488.6
451.787	485.75
452.226	492.15
452.664	491.95
453.103	492.29
453.541	490.95
453.98	492.51
454.418	493.29
454.856	486.7
455.295	485.63
455.733	488.77
456.171	490.82
456.609	491.92
457.047	491.17
457.485	498.53
457.923	500
458.361	492.69
458.798	493.94
459.236	493.01
459.674	495.38
460.111	496.87
460.549	491.2
460.987	489.45
461.424	487.04
461.862	485
462.299	477.76
462.736	476.95
463.173	479.54
463.611	474.38
464.048	473.06
464.485	477.98
464.922	472.63
465.359	470.74
465.796	467.26
466.233	463.84
466.67	460
467.106	459.62
467.543	454.8
467.98	448.48
468.416	436.11
468.853	432.37
469.29	418.65
469.726	414.65
470.162	404.09
470.599	396.25
471.035	392.01
471.471	382.44
471.907	378.44
472.344	375.73
472.78	376.09
473.216	380.38
473.652	376.08
474.088	374.48
474.523	373.03
474.959	375.04
475.395	371.26
475.831	369.57
476.266	370.52
476.702	369.91
477.138	366.08
477.573	364.6
478.008	362.6
478.444	364.44
478.879	368.09
479.314	369.83
479.75	369.25
480.185	369.71
480.62	372.1
481.055	373.67
481.49	375.17
481.925	380.21
482.36	387.63
482.795	398.53
483.229	407.97
483.664	416.35
484.099	416.69
484.534	423.42
484.968	428.77
485.403	429.98
485.837	429.48
486.271	429.03
486.706	429.11
487.14	423.38
487.574	416.45
488.009	412.37
488.443	408.47
488.877	413.07
489.311	414.01
489.745	419.03
490.179	423.01
490.613	432.27
491.046	435.85
491.48	439.56
491.914	441.2
492.348	445.13
492.781	448.55
493.215	450.53
493.648	453.04
494.082	457.03
494.515	457.9
494.948	464.01
495.382	467.01
495.815	471.44
496.248	475.73
496.681	485.25
497.114	492.77
497.547	501.79
497.98	511.88
498.413	516.98
498.846	525.68
499.279	532.64
499.711	537.62
500.144	541.31
500.577	551.14
501.009	561.21
501.442	570.02
501.874	574.98
502.306	578.03
502.739	586.7
503.171	599.99
503.603	604.89
504.036	615.4
504.468	622.55
504.9	634.38
505.332	642.82
505.764	649.71
506.196	658.72
506.627	672.56
507.059	687.22
507.491	697.5
507.923	699.99
508.354	715.66
508.786	727.19
509.217	744.84
509.649	759.45
510.08	777.58
510.512	795.1
510.943	812.24
511.374	825.44
511.805	845.39
512.237	864.44
512.668	893.58
513.099	919.14
513.53	946.41
513.961	967.29
514.391	997.96
514.822	1029.58
515.253	1062.52
515.684	1085.6
516.114	1114.93
516.545	1137.66
516.975	1164.88
517.406	1185.67
517.836	1192.91
518.267	1202.63
518.697	1222.39
519.127	1231.1
519.558	1241.62
519.988	1249.08
520.418	1262.77
520.848	1281.09
521.278	1292
521.708	1315.84
522.138	1330.55
522.567	1361.1
522.997	1387.03
523.427	1404.12
523.857	1421.4
524.286	1433.15
524.716	1450.89
525.145	1470.63
525.575	1483.55
526.004	1499.16
526.433	1491.8
526.863	1493.5
527.292	1487.55
527.721	1493.53
528.15	1500.63
528.579	1503.18
529.008	1515.19
529.437	1535.68
529.866	1548.38
530.295	1565.99
530.724	1579.18
531.152	1604.1
531.581	1618.26
532.01	1635.38
532.438	1643.85
532.867	1656.62
533.295	1675.57
533.723	1682.35
534.152	1681.74
534.58	1683.38
535.008	1668.68
535.436	1670.08
535.865	1677.41
536.293	1690.87
536.721	1705.83
537.149	1729.76
537.576	1735.01
538.004	1745.68
538.432	1751.33
538.86	1749.96
539.287	1756.68
539.715	1770.79
540.143	1773.66
540.57	1770.74
540.998	1767.49
541.425	1746.21
541.852	1727.85
542.28	1724.89
542.707	1709.34
543.134	1697.53
543.561	1693.35
543.988	1685.89
544.415	1684.28
544.842	1679.12
545.269	1671.91
545.696	1673.31
546.123	1684.52
546.549	1673.72
546.976	1661.9
547.403	1662.06
547.829	1663.71
548.256	1665.72
548.682	1662.47
549.108	1655.06
549.535	1654.47
549.961	1655.77
550.387	1643.05
550.813	1637.45
551.24	1642.73
551.666	1643.04
552.092	1633.47
552.518	1626.77
552.943	1620.4
553.369	1626.32
553.795	1631.27
554.221	1631.67
554.646	1628.94
555.072	1638.21
555.498	1643.24
555.923	1651.76
556.349	1665.57
556.774	1672.09
557.199	1671.98
557.625	1677.36
558.05	1671.29
558.475	1679.1
558.9	1676.87
559.325	1668.19
559.75	1661.37
560.175	1652.9
560.6	1645.75
561.025	1641.19
561.449	1641.51
561.874	1645.38
562.299	1647.91
562.723	1652.95
563.148	1643.71
563.572	1645.22
563.997	1652.47
564.421	1655.42
564.846	1654.33
565.27	1654.64
565.694	1650.75
566.118	1658.88
566.542	1663.72
566.966	1654.84
567.39	1648.3
567.814	1634.42
568.238	1632
568.662	1634
569.086	1634.5
569.509	1638.26
569.933	1624.01
570.357	1615.39
570.78	1594.1
571.204	1579.43
571.627	1567.31
572.05	1563.03
572.474	1561.38
572.897	1548.09
573.32	1538.7
573.743	1527.69
574.166	1509.71
574.589	1505.72
575.012	1496.97
575.435	1493.62
575.858	1483.97
576.281	1472.71
576.704	1456.28
577.126	1443.19
577.549	1431.1
577.972	1420.06
578.394	1408.16
578.817	1399.57
579.239	1381.21
579.661	1367.19
580.084	1352.01
580.506	1338.22
580.928	1331.58
581.35	1320.59
581.772	1314.64
582.194	1302.23
582.616	1289.64
583.038	1275.57
583.46	1264.64
583.882	1260.74
584.303	1261.52
584.725	1255.92
585.147	1256.98
585.568	1264.78
585.99	1273.64
586.411	1277.27
586.833	1287.58
587.254	1288.27
587.675	1299.47
588.096	1308.52
588.518	1302.83
588.939	1288.09
589.36	1285.9
589.781	1274.99
590.202	1251.52
590.623	1243.9
591.043	1240.87
591.464	1229.14
591.885	1225.33
592.305	1219.1
592.726	1206.82
593.147	1207.66
593.567	1202.54
593.987	1194.95
594.408	1190.38
594.828	1187.44
595.248	1180.9
595.669	1167.03
596.089	1161.05
596.509	1154.73
596.929	1143
597.349	1142.16
597.769	1132.34
598.189	1126.66
598.608	1127.6
599.028	1127.98
599.448	1127.18
599.867	1116.49
600.287	1110.73
600.706	1106.08
601.126	1097.03
601.545	1096.34
601.965	1095.34
602.384	1090.77
602.803	1093.46
603.222	1088.62
603.641	1082.47
604.061	1079.27
604.48	1075.03
604.898	1080.99
605.317	1083.76
605.736	1084.11
606.155	1080.74
606.574	1073.08
606.992	1075.61
607.411	1070.17
607.829	1061.33
608.248	1057.59
608.666	1053.85
609.085	1052.07
609.503	1044.56
609.921	1037.82
610.339	1038.65
610.758	1036.38
611.176	1029.95
611.594	1021.88
612.012	1017.11
612.43	1019.3
612.847	1022.42
613.265	1021.52
613.683	1022.92
614.101	1022.05
614.518	1017.49
614.936	1007.95
615.353	994.5
615.771	990.81
616.188	988.7
616.606	984.79
617.023	977.12
617.44	965.32
617.857	957.7
618.274	949.39
618.691	942.61
619.108	934.58
619.525	928.31
619.942	932.04
620.359	932.9
620.776	928.4
621.192	923.99
621.609	922.42
622.026	926.67
622.442	931.53
622.859	933.44
623.275	926.74
623.691	930.27
624.108	938.2
624.524	948.03
624.94	947.32
625.356	954.87
625.772	963.8
626.188	970.71
626.604	970.55
627.02	966.65
627.436	965.03
627.852	970.39
628.268	979.05
628.683	971.75
629.099	965.01
629.514	961.51
629.93	963.01
630.345	966.3
630.761	963.31
631.176	966.26
631.591	960.72
632.007	955.53
632.422	953.28
632.837	943.25
633.252	939.92
633.667	931.02
634.082	922.66
634.497	912.16
634.911	897
635.326	893.12
635.741	878.5
636.155	869.08
636.57	868.62
636.984	865.97
637.399	865.08
637.813	862.71
638.228	859.73
638.642	860.33
639.056	850.2
639.47	846.81
639.884	838.01
640.298	830.36
640.712	827.56
641.126	816.18
641.54	807.14
641.954	799.83
642.368	789.44
642.781	782.02
643.195	766.74
643.609	764.51
644.022	757.9
644.436	751.57
644.849	740.85
645.262	729.52
645.676	727.31
646.089	721.54
646.502	711.45
646.915	706.07
647.328	692.56
647.741	690.2
648.154	680.5
648.567	678.37
648.98	668.5
649.393	667.39
649.805	664.04
650.218	657.9
650.631	647.48
651.043	641.31
651.456	636.4
651.868	635.57
652.28	645.13
652.693	652.15
653.105	653.68
653.517	659.01
653.929	658.4
654.341	660.72
654.753	652.67
655.165	654.74
655.577	652.29
655.989	647.59
656.401	641.03
656.813	617.05
657.224	603.22
657.636	583.64
658.047	571.38
658.459	557.84
658.87	550.94
659.282	541.97
659.693	528.25
660.104	517.95
660.515	508.89
660.926	505.48
661.338	501.81
661.749	496.02
662.159	489.64
662.57	485.06
662.981	481.65
663.392	476.53
663.803	477.69
664.213	475.55
664.624	472.22
665.035	472.14
665.445	465.36
665.855	462.13
666.266	457.5
666.676	455.76
667.086	450.8
667.497	450.28
667.907	447.11
668.317	441.67
668.727	441.18
669.137	441.54
669.547	440.7
669.956	441.44
670.366	442.14
670.776	443.37
671.186	446.74
671.595	449.51
672.005	450.88
672.414	450.88
672.824	450.27
673.233	452.08
673.642	453.69
674.052	457.17
674.461	460.16
674.87	462.87
675.279	463.38
675.688	464.08
676.097	466.36
676.506	466.2
676.915	474.95
677.323	478.08
677.732	479.1
678.141	479.82
678.549	473.28
678.958	472.48
679.366	472.82
679.775	475.61
680.183	483.79
680.592	486.95
681	491.53
681.408	488.04
681.816	493.64
682.224	498.38
682.632	506.57
683.04	526.6
683.448	543.16
683.856	564.29
684.264	587.76
684.671	608.6
685.079	635.3
685.487	664.3
685.894	705.97
686.302	740.5
686.709	770.66
687.116	805.96
687.524	836.21
687.931	864.04
688.338	890.63
688.745	913.2
689.152	939.98
689.559	976.14
689.966	1013.25
690.373	1036.45
690.78	1073.84
691.187	1125.37
691.593	1167.5
692	1206.69
692.407	1261.68
692.813	1326.66
693.22	1383.47
693.626	1441.88
694.032	1491.03
694.439	1559.86
694.845	1616.02
695.251	1686.29
695.657	1750.72
696.063	1842.88
696.469	1915.82
696.875	1983.82
697.281	2029.72
697.687	2082.02
698.093	2127.87
698.498	2203.58
698.904	2264.56
699.31	2354.89
699.715	2420.35
700.12	2512.11
700.526	2542.53
700.931	2614.84
701.337	2674.39
701.742	2714.91
702.147	2801.2
702.552	2840.19
702.957	2903.29
703.362	2934.21
703.767	2970.07
704.172	3016.7
704.577	2985.85
704.981	3036.94
705.386	3062.27
705.791	3065.44
706.195	3144.25
706.6	3160.75
707.004	3244.16
707.408	3226.54
707.813	3260.59
708.217	3257.28
708.621	3267.62
709.025	3367.12
709.43	3376.76
709.834	3441.32
710.237	3514.15
710.641	3506.14
711.045	3535.68
711.449	3537.33
711.853	3572.31
712.256	3621.08
712.66	3665.56
713.064	3746.21
713.467	3793.27
713.87	3907.41
714.274	3961.17
714.677	4074.02
715.08	4239.9
715.484	4410.12
715.887	4615.23
716.29	4815.52
716.693	5022.99
717.096	5264.37
717.499	5402.45
717.901	5436.18
718.304	5471.22
718.707	5500.91
719.109	5407.83
719.512	5383.39
719.915	5258.66
720.317	5210.93
720.719	5262.85
721.122	5241.12
721.524	5200.27
721.926	5165.13
722.328	5270.29
722.731	5267.82
723.133	5300.8
723.535	5498.72
723.937	5524.88
724.338	5582.38
724.74	5627.88
725.142	5567.25
725.544	5572.53
725.945	5600.37
726.347	5598.42
726.748	5597.23
727.15	5615.14
727.551	5580.9
727.952	5558.48
728.354	5533.35
728.755	5538.39
729.156	5499.99
729.557	5493.54
729.958	5372.14
730.359	5321.34
730.76	5304.69
731.161	5245.34
731.562	5222.38
731.962	5228.88
732.363	5167.04
732.763	5108.09
733.164	5144.36
733.564	5079.39
733.965	4984.32
734.365	4951.26
734.766	4980.92
735.166	4944.68
735.566	4889.34
735.966	4865.09
736.366	4862.08
736.766	4798.95
737.166	4828.14
737.566	4788.15
737.966	4761.57
738.365	4801.87
738.765	4798.18
739.165	4724.41
739.564	4699.01
739.964	4748.54
740.363	4703.63
740.763	4702.65
741.162	4695.27
741.561	4663.01
741.96	4619.08
742.36	4639.84
742.759	4648.56
743.158	4688.1
743.557	4701.62
743.955	4745.02
744.354	4701.6
744.753	4758.52
745.152	4716.71
745.55	4771.05
745.949	4767.51
746.348	4768.2
746.746	4786.53
747.144	4743.8
747.543	4722.31
747.941	4772.73
748.339	4701.43
748.737	4691.69
749.136	4685.37
749.534	4750.1
749.932	4721.29
750.33	4744.51
750.727	4802.78
751.125	4779.07
751.523	4764.13
751.921	4808.61
752.318	4774.16
752.716	4832.48
753.113	4848.13
753.511	4871.31
753.908	4871.82
754.305	4853.75
754.703	4917.17
755.1	4975.75
755.497	5033.91
755.894	5227.94
756.291	5408.51
756.688	5741.93
757.085	6184.56
757.482	6801.75
757.878	7480.21
758.275	8095.62
758.672	8942.83
759.068	9629.03
759.465	10612.17
759.861	11879.65
760.258	13344.92
760.654	14098.66
761.05	13983.59
761.447	13345.32
761.843	12432.43
762.239	11487.91
762.635	11054.46
763.031	10639.17
763.427	10043.91
763.822	9420.46
764.218	8804.92
764.614	8003.29
765.01	7466.3
765.405	7118.55
765.801	6854.26
766.196	6514.05
766.592	6325.22
766.987	6012.34
767.382	5798.5
767.778	5708.53
768.173	5576.41
768.568	5505.27
768.963	5380.16
769.358	5401.1
769.753	5354.37
770.148	5268.98
770.542	5268.44
770.937	5235.3
771.332	5325.54
771.726	5347.82
772.121	5286.03
772.515	5342.21
772.91	5326.4
773.304	5396.99
773.699	5325.77
774.093	5379.31
774.487	5435.73
774.881	5481.27
775.275	5477.26
775.669	5433.94
776.063	5477.06
776.457	5512.56
776.851	5435.96
777.245	5426.91
777.638	5457.67
778.032	5574.58
778.425	5538.21
778.819	5580.1
779.212	5538.38
779.606	5496.63
779.999	5515.79
780.392	5497.21
780.786	5577.61
781.179	5595.54
781.572	5640.01
781.965	5652.41
782.358	5596.28
782.751	5650.52
783.143	5603.72
783.536	5675.86
783.929	5720.76
784.322	5835.68
784.714	5868.13
785.107	5865.85
785.499	5939.72
785.891	5913.49
786.284	5895.23
786.676	6038.99
787.068	6024.7
787.46	6077.8
787.852	6096.86
788.245	6182.27
788.636	6211.35
789.028	6279.52
789.42	6317.38
789.812	6328.36
790.204	6425.68
790.595	6527.22
790.987	6327.61
791.378	6346
791.77	6474.77
792.161	6610.5
792.553	6665.11
792.944	6557.17
793.335	6489.9
793.726	6565.51
794.117	6654.75
794.508	6796.29
794.899	6766.06
795.29	6907.78
795.681	6964.89
796.072	6819.44
796.463	6632.7
796.853	6645.42
797.244	6800.61
797.634	6832.82
798.025	6826.81
798.415	6838.67
798.806	6925.62
799.196	7008.88
799.586	7057.54
799.976	7021.22
800.366	7252.71
800.756	7494.88
801.146	7450.98
801.536	7480.47
801.926	7553.22
802.316	7582.61
802.706	7653.5
803.095	7529.89
803.485	7631.38
803.874	7677.01
804.264	7935.25
804.653	7909.96
805.043	8048.32
805.432	8159.93
805.821	8161.74
806.21	8182.4
806.599	8302.52
806.988	8350.05
807.377	8460.96
807.766	8597.79
808.155	8878.51
808.544	8624.26
808.933	8634.61
809.321	8616.72
809.71	8909.66
810.098	9069.81
810.487	9532.3
810.875	10010.95
811.264	10026.88
811.652	10317.79
812.04	10456.46
812.428	10620.21
812.816	11375.91
813.204	11798.09
813.592	12355.72
813.98	12699.69
814.368	12604.42
814.756	13088.09
815.144	13008.17
815.531	13477.66
815.919	13401.08
816.306	13705.94
816.694	13394.35
817.081	13449.19
817.469	13802.6
817.856	13803.63
818.243	14070.81
818.63	14462.82
819.017	14046.45
819.404	14112.09
819.791	14496.83
820.178	15114.52
820.565	15366.94
820.952	16308.53
821.339	15812.25
821.725	15986.18
822.112	15238.99
822.498	15199.41
822.885	15336.27
823.271	15230.75
823.657	15646.33
824.044	15653.77
824.43	15723.87
824.816	15695.86
825.202	15254.08
825.588	16275.09
825.974	16300.96
826.36	16811.35
826.746	16841.45
827.132	17196.83
827.517	17177
827.903	16391.04
828.289	16433.24
828.674	15654.76
829.06	15545.53
829.445	15940.16
829.83	16298.66
830.216	16773.09
830.601	17140.42
830.986	16733.38
831.371	16599.36
831.756	17160.86
832.141	16732.33
832.526	16730.42
832.911	17019.42
833.295	16907.81
833.68	17384.5
834.065	16759.12
834.449	15843.46
834.834	15775.43
835.218	15776.15
835.603	16111.48
835.987	15901.14
836.371	16742.54
836.755	16641.41
837.139	17042.89
837.524	17286.4
837.908	17100.96
838.291	17167
838.675	17242.81
839.059	17445.57
839.443	17432.07
839.827	17210.4
840.21	17687.22
840.594	17541.34
840.977	17743.84
841.361	17717.51
841.744	18094.77
842.127	17942.19
842.511	18187.46
842.894	18780.01
843.277	19176.74
843.66	19723.62
844.043	19803.47
844.426	18994.96
844.809	18684.85
845.191	18713.84
845.574	18263.72
845.957	17901.93
846.339	17802.04
846.722	17281.23
847.104	17351.27
847.487	17170.8
847.869	17188.65
848.252	17468.98
848.634	17807.83
849.016	18061.98
849.398	18188.29
849.78	19043.53
850.162	19041.14
850.544	19457.77
850.926	20078.24
851.307	19998.04
851.689	20274.91
852.071	20720.68
852.452	21043.43
852.834	21017.83
853.215	21422.16
853.597	21581.41
853.978	21864.76
854.359	22332.04
854.741	21331.33
855.122	21236.66
855.503	20937.87
855.884	21080.47
856.265	21011.54
856.646	21127.02
857.026	20727.11
857.407	20659.76
857.788	20809.79
858.169	21092.56
858.549	20241.91
858.93	20872.77
859.31	20911.59
859.69	21120.36
860.071	20714.73
860.451	20502.84
860.831	19759.84
861.211	20923.11
861.591	21470.86
861.971	21441.01
862.351	21638.74
862.731	22019.66
863.111	22273.74
863.491	22604.41
863.87	23482.28
864.25	23813.55
864.629	23414.57
865.009	23931.38
865.388	24780.68
865.768	26554.7
866.147	26463.84
866.526	24993.45
866.905	25295.45
867.284	26718.35
867.663	25380.05
868.042	24326.22
868.421	24257.43
868.8	24660.39
869.179	24899.28
869.558	23450.26
869.936	21618.27
870.315	21997.26
870.693	22538.6
871.072	24307.27
871.45	23149.44
871.828	23447.03
872.207	24645.44
872.585	24280.82
872.963	24945.78
873.341	24084.45
873.719	23798.11
874.097	23514.87
874.475	23964.97
874.853	24511.83
875.23	23483.82
875.608	24471.24
875.986	26467.08
876.363	25319.97
876.741	26090.51
877.118	25442.71
877.495	26706.09
877.873	27156.92
878.25	28580.68
878.627	27425.21
879.004	27822
879.381	27699.13
879.758	26980.72
880.135	25120.19
880.512	26558.4
880.889	25857.79
881.265	25583.91
881.642	25362.41
882.019	25780.91
882.395	25261.85
882.772	26253.98
883.148	25100.29
883.524	24997.9
883.901	24841.58
884.277	25215.24
884.653	25063.98
885.029	25782.43
885.405	28552.95
885.781	28334.86
886.157	27183.39
886.532	27517.94
886.908	27510.87
887.284	30595.78
887.659	31592.8
888.035	32582.92
888.411	33416.07
888.786	33837.99
889.161	35006.15
889.537	34362.95
889.912	35458.98
890.287	35418.98
890.662	36319.78
891.037	35651.02
891.412	33246.79
891.787	32915.68
892.162	31767.93
892.536	32516.79
892.911	31302.19
893.286	30651.04
893.66	29407.06
894.035	30156.56
894.409	32835.18
894.784	31521.34
895.158	32054.86
895.532	33944.77
895.906	34871.5
896.281	35693.1
896.655	35110.92
897.029	40121.87
897.402	41771.77
897.776	46515.16
898.15	46355.02
898.524	45860.23
898.898	46459.22
899.271	51990.18
899.645	45045.71
900.018	43261.18
900.392	44841.2
900.765	45229.58
901.138	41842.36
901.511	41205.75
901.884	37829.8
902.258	34901.66
902.631	36068.46
903.003	41504.26
903.376	37468.97
903.749	42019.77
904.122	44987.2
904.495	49572.39
904.867	50193.46
905.24	43599.88
905.612	40601.91
905.985	41519.08
906.357	43400.68
906.729	41405.31
907.102	35370.69
907.474	33993.86
907.846	34200.8
908.218	33737.49
908.59	29785.53
908.962	28798.33
909.334	30993.64
909.705	32537.15
910.077	31588.87
910.449	32872.78
910.82	33802.27
911.192	37169.05
911.563	38630.64
911.935	41342.35
912.306	41387.28
912.677	42755.71
913.048	42315.53
913.419	45910.52
913.79	46167.7
914.161	49481.89
914.532	47295.63
914.903	43435.03
915.274	41264.1
915.645	40666.09
916.015	35800.7
916.386	34146.84
916.756	36324.27
917.127	37485.58
917.497	33481.57
917.868	36452.7
918.238	34643.22
918.608	35629.74
918.978	36389.67
919.348	38531.38
919.718	39796.37
920.088	38288.05
920.458	39760.15
920.828	41834.72
921.198	39645.53
921.567	42366.52
921.937	32818.8
922.306	33154.13
922.676	35747.53
923.045	29822.9
923.415	28326.09
923.784	25790.3
924.153	26538.99
924.522	26523.41
924.891	24950.07
925.26	26725.1
925.629	26098.55
925.998	29991.15
926.367	29250.66
926.736	27869.71
927.104	33198.51
927.473	35691.28
927.842	43120.76
928.21	42699.15
928.578	44868.19
928.947	42427.53
929.315	42681.89
929.683	50035.42
930.051	50431.24
930.42	58601.97
930.788	50085.83
931.156	49668.3
931.523	46574.53
931.891	43034.32
932.259	41330
932.627	47899.07
932.994	67786.86
933.362	56021.7
933.729	48677.26
934.097	46599.44
934.464	39422.94
934.831	45507.94
935.199	44896.71
935.566	43512.34
935.933	44175.89
936.3	53501.6
936.667	41683.94
937.034	37586.41
937.401	37235.49
937.767	32145.28
938.134	28610.01
938.501	40331.35
938.867	42978.56
939.234	72642.7
939.6	62089.27
939.967	68238.95
940.333	45672.02
940.699	38885.66
941.065	31227.86
941.431	40867.75
941.798	39419.7
942.163	51811.08
942.529	32399.48
942.895	29823.04
943.261	19296.5
943.627	25307.54
943.992	22166.24
944.358	22209.8
944.723	22286.69
945.089	21715.69
945.454	20073.8
945.82	21418.08
946.185	20574.54
946.55	23827.01
946.915	21378.83
947.28	25104.5
947.645	22083.61
948.01	20368.53
948.375	21241.13
948.74	25473.46
949.104	29736.13
949.469	42960.59
949.834	75865.24
950.198	71858
950.562	43053.16
950.927	35807.07
951.291	43063.43
951.655	36689.17
952.02	34505.93
952.384	26087.78
952.748	22699.97
953.112	22095.18
953.476	19216.51
953.839	17775.45
954.203	17599.55
954.567	22016.69
954.931	34711.97
955.294	29696.49
955.658	29871.65
956.021	50779.7
956.385	86117.84
956.748	127041.11
957.111	197199.31
957.474	221348.86
957.837	249308.73
958.2	188636.5
958.563	67871.56
958.926	45882.38
959.289	69578.14
959.652	77693.29
960.015	58291.09
960.377	83635.27
960.74	95465.95
961.102	164746.7
961.465	176840.05
961.827	94643.37
962.189	181891.84
962.552	125968.43
962.914	101068.92
963.276	65601.28
963.638	54208.85
964	53703.78
964.362	36324.8
964.724	35116.24
965.085	25054.38
965.447	20546.39
965.809	23437.54
966.17	23423.98
966.532	25372.36
966.893	23254.33
967.255	21166.7
967.616	24996.99
967.977	19991.58
968.338	21816.64
968.699	17915.52
969.061	17912.22
969.421	18024.71
969.782	20205.74
970.143	17079.54
970.504	17677.31
970.865	20099.34
971.225	20541.67
971.586	20104.16
971.946	28675.15
972.307	24905.99
972.667	32592.05
973.027	33581.15
973.388	40725.81
973.748	27736.57
974.108	30215.67
974.468	40894.09
974.828	31550.78
975.188	24295.02
975.548	22329.73
975.907	18731.03
976.267	21008.03
976.627	17643.58
976.986	18270.2
977.346	17424.01
977.705	16759.93
978.064	15249.95
978.424	12694.79
978.783	13128.53
979.142	14972.99
979.501	14307.93
979.86	15124.01
980.219	14547.29
980.578	18760.94
980.937	21037.53
981.296	18741.86
981.654	19260.63
982.013	30011.18
982.371	38936.45
982.73	36321.62
983.088	41122.58
983.447	43984.89
983.805	62955.43
984.163	131831.15
984.521	146296.45
984.879	214408.09
985.237	-348976.77
985.595	336862.49
985.953	83608.07
986.311	48283.44
986.669	28062.47
987.026	24248.35
987.384	32582.77
987.741	33639.05
988.099	24038.09
988.456	19172.87
988.814	17959.51
989.171	15590.48
989.528	15379.86
989.885	16236.37
990.242	12855.49
990.599	16017.61
990.956	13102.74
991.313	9164.77
991.67	7526.03
992.027	7971.95
992.383	7086.01
992.74	6204.05
993.096	6510.27
993.453	6738.37
993.809	6992.81
994.165	9318.34
994.522	8525.9
994.878	9385.93
995.234	11768.78
995.59	11629.59
995.946	11023.25
996.302	12569.88
996.658	14537.37
997.013	16029.82
997.369	19021.49
997.725	24351.15
998.08	15781.1
998.436	24364.16
998.791	33658.24
999.147	33657.95
999.502	36651.93
999.857	26639.42
1000.212	43424.53
1000.567	61823.81
1000.922	35665.19
1001.277	22694.86
1001.632	16862.71
1001.987	21707.58
1002.342	15596.78
1002.696	12469.7
1003.051	9952.75
1003.406	12043.07
1003.76	11987.41
1004.114	11813.84
1004.469	9939.33
1004.823	8218.37
1005.177	8849.44
1005.531	7000.36
1005.885	6206.6
1006.239	6983.65
1006.593	8734.05
1006.947	11666.9
1007.301	8776.59
1007.655	9549.62
1008.008	7008.39
1008.362	7866.2
1008.715	11267.24
1009.069	10242.41
1009.422	15392.41
1009.776	30893.12
1010.129	20512.05
1010.482	17133.92
1010.835	14493.71
1011.188	30153.39
1011.541	28426.27
1011.894	-173616.19
1012.247	511608.99
1012.6	34699.04
1012.952	21894.98
1013.305	11343.73
1013.657	8162.69
1014.01	7737.93
1014.362	6397.07
1014.715	5666.57
1015.067	4920.74
1015.419	4817.4
1015.771	4286.28
1016.123	3819.94
1016.475	3926.98
1016.827	4179.14
1017.179	4471.85
1017.531	4516.67
1017.883	4605.08
1018.234	4448.2
1018.586	5611.24
1018.938	5966.45
1019.289	8227.13
1019.64	9375.33
1019.992	8706.6
1020.343	8000.12
1020.694	6329.03
1021.045	5583.83
1021.396	6381.33
1021.747	6857.31
1022.098	8250.51
1022.449	6025.79
1022.8	5585.78
1023.151	3879.6
1023.501	3440.71
1023.852	3752.13
1024.202	3884.02
1024.553	4303.62
1024.903	4201.64
1025.253	3581.24
1025.604	3226.71
1025.954	3993.93
1026.304	4861.31
1026.654	5685.7
1027.004	8343.29
1027.354	13506.59
1027.703	12703.55
1028.053	16683.79
1028.403	23970.2
1028.753	34965.57
1029.102	47572.14
1029.452	243551.55
1029.801	10489.62
1030.15	6769.51
1030.499	5702.66
897.758	2472.37
901.051	2423.89
904.343	2455.61
907.636	2458.96
910.928	2521.69
914.22	2434.83
917.511	2440.35
920.803	2499.11
924.094	2509.18
927.384	2500.04
930.675	2464.39
933.965	2419.38
937.255	2434.28
940.544	2400.16
943.834	2369.21
947.123	2307.94
950.411	2400.27
953.7	2377.24
956.988	2350.18
960.276	2290.09
963.563	2358.66
966.851	2360.38
970.138	2413.03
973.424	2408.41
976.711	2363.06
979.997	2458.52
983.283	2501.74
986.568	2418.14
989.853	2425.55
993.138	2452.92
996.423	2534.21
999.708	2478.77
1002.992	2526.9
1006.275	2396.84
1009.559	2424.32
1012.842	2533.71
1016.125	2470.56
1019.408	2450.66
1022.69	2525.53
1025.972	2550.38
1029.254	2525.38
1032.536	2469.3
1035.817	2491.4
1039.098	2447.68
1042.379	2553.02
1045.659	2565.51
1048.939	2502.27
1052.219	2520.8
1055.498	2524.46
1058.778	2515.46
1062.057	2494.51
1065.335	2516.37
1068.614	2533.55
1071.892	2519.03
1075.17	2589.07
1078.447	2581.3
1081.724	2574.77
1085.001	2607.15
1088.278	2584.01
1091.554	2592.64
1094.83	2588.97
1098.106	2618.57
1101.382	2656.27
1104.657	2658.87
1107.932	2656.42
1111.206	2624.11
1114.481	2582.74
1117.755	2584.47
1121.029	2568.5
1124.302	2622.07
1127.575	2585.26
1130.848	2573.91
1134.121	2539.51
1137.393	2494.04
1140.665	2556.2
1143.937	2533.63
1147.208	2489.53
1150.48	2535
1153.75	2522.95
1157.021	2545.64
1160.291	2517.43
1163.561	2560.3
1166.831	2544.11
1170.101	2573.82
1173.37	2546.14
1176.639	2494.56
1179.907	2549.86
1183.176	2562.17
1186.444	2565.95
1189.711	2590.57
1192.979	2607.3
1196.246	2563
1199.513	2579.41
1202.78	2576.23
1206.046	2585.51
1209.312	2610.55
1212.578	2633.07
1215.843	2587.93
1219.108	2560.8
1222.373	2584.55
1225.638	2553.08
1228.902	2538.4
1232.166	2501.33
1235.43	2486.93
1238.693	2513.91
1241.956	2507.55
1245.219	2551.96
1248.482	2537.49
1251.744	2534.48
1255.006	2672.53
1258.268	2625.68
1261.529	2573.58
1264.79	2577.76
1268.051	2681.72
1271.312	2695.35
1274.572	2660.11
1277.832	2651.63
1281.092	2634.89
1284.351	2617.49
1287.61	2599.35
1290.869	2521.82
1294.128	2506.82
1297.386	2580.69
1300.644	2572.46
1303.902	2580.64
1307.159	2443.77
1310.416	2497.64
1313.673	2523.65
1316.93	2514.39
1320.186	2555.11
1323.442	2592.83
1326.697	2588.82
1329.953	2572.62
1333.208	2598.49
1336.463	2578
1339.717	2525.82
1342.972	2650.13
1346.226	2624.68
1349.479	2562.39
1352.733	2536.37
1355.986	2554.09
1359.238	2531.84
1362.491	2532.16
1365.743	2532.47
1368.995	2531.23
1372.247	2541.57
1375.498	2563.16
1378.749	2584.83
1382	2539.77
1385.251	2586.73
1388.501	2545.91
1391.751	2534.35
1395	2503.94
1398.25	2534.62
1401.499	2547.16
1404.748	2478.93
1407.996	2464.86
1411.244	2454.14
1414.492	2437
1417.74	2415.34
1420.987	2423.85
1424.234	2479.29
1427.481	2453.2
1430.728	2510.63
1433.974	2486.18
1437.22	2497.18
1440.465	2497.28
1443.711	2474.28
1446.956	2500.87
1450.201	2486.51
1453.445	2531.04
1456.689	2510.9
1459.933	2523.77
1463.177	2556.14
1466.42	2529.85
1469.663	2509.79
1472.906	2509.01
1476.148	2568.05
1479.391	2557.67
1482.633	2527.23
1485.874	2536.21
1489.115	2529.58
1492.356	2530.42
1495.597	2505.92
1498.838	2507.46
1502.078	2481.9
1505.318	2440.52
1508.557	2479.75
1511.797	2470.74
1515.036	2504.56
1518.274	2495.2
1521.513	2465.98
1524.751	2482.43
1527.989	2498.39
1531.227	2514.78
1534.464	2514.83
1537.701	2527.31
1540.938	2544.82
1544.174	2496.4
1547.41	2490.46
1550.646	2529.67
1553.882	2572.66
1557.117	2623.73
1560.352	2637.12
1563.587	2595.87
1566.821	2557.7
1570.055	2588.11
1573.289	2560.92
1576.523	2627.73
1579.756	2638.73
1582.989	2659.78
1586.222	2619.57
1589.454	2653.05
1592.686	2633.71
1595.918	2659.78
1599.15	2650.56
1602.381	2717.55
1605.612	2680.65
1608.843	2775.81
1612.073	2693.74
1615.303	2678.56
1618.533	2669.65
1621.762	2674.2
1624.992	2656.5
1628.221	2646.39
1631.449	2633.37
1634.678	2678.4
1637.906	2639.24
1641.134	2672.53
1644.361	2633.91
1647.588	2622.2
1650.815	2641.19
1654.042	2616.28
1657.269	2644.2
1660.495	2605.67
1663.72	2616.96
1666.946	2584.45
1670.171	2541.05
1673.396	2512.06
1676.621	2499.61
1679.845	2511.88
1683.069	2528.38
1686.293	2565.21
1689.517	2543.3
1692.74	2482.24
1695.963	2507.04
1699.185	2531.06
1702.408	2503.45
1705.63	2541.54
1708.852	2555.59
1712.073	2529.07
1715.294	2521.69
1718.515	2574.83
1721.736	2526.93
1724.956	2515.47
1728.176	2539.75
1731.396	2563.19
1734.616	2548.71
1737.835	2580.85
1741.054	2556.95
1744.272	2549.46
1747.491	2581.37
1750.709	2623.62
1753.927	2545.7
1757.144	2584.72
1760.361	2630.65
1763.578	2616.78
1766.795	2561.06
1770.011	2563.37
1773.227	2596.52
1776.443	2632.68
1779.658	2675.32
1782.874	2616.45
1786.089	2598.69
1789.303	2599.54
1792.518	2602.09
1795.732	2590.33
1798.945	2602.91
1802.159	2650.32
1805.372	2565.65
1808.585	2553.61
1811.797	2554.25
1815.01	2594.79
1818.222	2604.72
1821.434	2582.54
1824.645	2635.42
1827.856	2628.41
1831.067	2661.34
1834.278	2612.03
1837.488	2595.9
1840.698	2734.62
1843.908	2667.23
1847.117	2632.18
1850.326	2531.95
1853.535	2617.56
1856.744	2635.03
1859.952	2555.45
1863.16	2555.61
1866.368	2576.39
1869.575	2679.19
1872.782	2566.91
1875.989	2505.33
1879.196	2575.85
1882.402	2565.62
1885.608	2605.46
1888.814	2523.6
1892.019	2427.38
1895.224	2477.51
1898.429	2455.64
1901.634	2434.09
1904.838	2410.86
1908.042	2460.63
1911.246	2469.29
1914.449	2413.61
1917.652	2409
1920.855	2388.49
1924.058	2429.05
1927.26	2468.77
1930.462	2494.49
1933.664	2521.72
1936.865	2465.3
1940.066	2476.18
1943.267	2420.71
1946.467	2434.47
1949.668	2456.31
1952.868	2522.95
1956.067	2506.34
1959.267	2441.38
1962.466	2466.22
1965.665	2450.5
1968.863	2445.45
1972.061	2455.19
1975.259	2452.33
1978.457	2532.03
1981.654	2490.05
1984.852	2492.16
1988.048	2430.88
1991.245	2430.5
1994.441	2516.14
1997.637	2491.87
2000.833	2472.08
2004.028	2511.61
2007.223	2568.39
2010.418	2549.03
2013.613	2507.97
2016.807	2486.46
2020.001	2489.72
2023.194	2527.9
2026.388	2505.37
2029.581	2451.29
2032.774	2504.83
2035.966	2514.28
2039.158	2450.39
2042.35	2473.83
2045.542	2401.46
2048.733	2492.93
2051.924	2507.04
2055.115	2531.49
2058.306	2480.7
2061.496	2537.69
2064.686	2594.25
2067.875	2507.07
2071.065	2517.67
2074.254	2543.38
2077.442	2495.45
2080.631	2582.67
2083.819	2488.28
2087.007	2473.58
2090.195	2451.18
2093.382	2479.9
2096.569	2461.25
2099.756	2420.12
2102.942	2453.2
2106.128	2458.93
2109.314	2449.54
2112.5	2422.24
2115.685	2394.83
2118.87	2403.94
2122.055	2466.92
2125.239	2436.29
2128.424	2416.33
2131.608	2503.81
2134.791	2484.88
2137.974	2535.59
2141.157	2524.33
2144.34	2481.85
2147.523	2489.86
2150.705	2507.93
2153.887	2484.77
2157.068	2442.14
2160.25	2436.6
2163.431	2469.05
2166.611	2424.79
2169.792	2439.59
2172.972	2341.05
2176.152	2409.27
2179.331	2441.02
2182.511	2427.6
2185.69	2454.6
2188.868	2452
2192.047	2498.4
2195.225	2497.96
2198.403	2449.83
2201.58	2438.31
2204.758	2434.34
2207.935	2513.17
2211.111	2412.75
2214.288	2398.42
2217.464	2436.59
2220.64	2403.39
2223.815	2457.1
2226.991	2383.62
2230.166	2401.25
2233.34	2432.67
2236.515	2455.02
2239.689	2522.28
2242.863	2469.27
2246.036	2523.87
2249.209	2519.61
2252.382	2546.59
2255.555	2542.55
2258.727	2484.15
2261.9	2521.13
2265.071	2513
2268.243	2512.63
2271.414	2451.65
2274.585	2422.87
2277.756	2487.39
2280.926	2442.52
2284.096	2477.91
2287.266	2396.9
2290.436	2444.43
2293.605	2472.12
2296.774	2504.47
2299.942	2517.82
2303.111	2537.9
2306.279	2584.18
2309.447	2569.61
2312.614	2542.82
2315.781	2565.13
2318.948	2541.14
2322.115	2575.47
2325.281	2481.67
2328.447	2494.27
2331.613	2468.99
2334.779	2450.28
2337.944	2447.32
2341.109	2448.18
2344.274	2434.54
2347.438	2401.22
2350.602	2422.75
2353.766	2437.17
2356.929	2424.75
2360.092	2464.43
2363.255	2423.25
2366.418	2368.42
2369.58	2464.69
2372.742	2287.4
2375.904	2292.84
2379.066	2272.7
2382.227	2303.57
2385.388	2270.09
2388.548	2203.21
2391.709	2253.29
2394.869	2233.13
2398.029	2318.18
2401.188	2323.97
2404.347	2269.44
2407.506	2385.29
2410.665	2416.94
2413.823	2418.7
2416.981	2384.93
2420.139	2407.5
2423.296	2455.3
2426.453	2429.06
2429.61	2453.59
2432.767	2399.06
2435.923	2437.7
2439.079	2394.79
2442.235	2439.38
2445.391	2373.93
2448.546	2403.46
2451.701	2446.55
2454.855	2427.32
2458.009	2469.45
2461.163	2465.99
2464.317	2430.86
2467.471	2460.88
2470.624	2497.08
2473.777	2476.25
2476.929	2488.99
2480.082	2513.76
2483.234	2481.49
2486.385	2430.25
2489.537	2424.6
2492.688	2395.97
2495.839	2415.29
2498.989	2427.8
2502.14	2411.78
2505.29	2398.73
2508.439	2419.19
2511.589	2349.5
2514.738	2353.93
2517.887	2381.31
2521.035	2452.57
2524.183	2428.95
2527.331	2411.06
2530.479	2390.62
2533.627	2396.8
