Data from N_2_DEC_VA_2N_Splice17_12-07-13-483.txt Node
Date: Sat Mar 14 12:07:13 EDT 2020
User: sa697716
Spectrometer: FLMS03696
Trigger mode: 0
Integration Time (sec): 3.180400E-1
Scans to average: 20
Electric dark correction enabled: true
Nonlinearity correction enabled: true
Boxcar width: 5
XAxis mode: Wavelengths
Number of Pixels in Spectrum: 2048
>>>>>Begin Spectral Data<<<<<
187.83	-291097.6
188.298	2136.29
188.766	1153.34
189.233	1036.86
189.701	1456.35
190.169	1961.3
190.636	719.77
191.104	571.36
191.571	67.31
192.039	-67.74
192.506	-126.2
192.974	288.15
193.441	-483.71
193.908	-45.29
194.375	-15.41
194.842	20
195.31	13.15
195.777	133.3
196.244	390.65
196.711	572.5
197.177	753.1
197.644	1121.99
198.111	1934.68
198.578	2736.34
199.045	2206.9
199.511	3643.77
199.978	4290.89
200.445	3653.43
200.911	4033.62
201.378	4557.33
201.844	4081.54
202.31	7043.24
202.777	7290.17
203.243	4060.98
203.709	3880.26
204.176	4638.99
204.642	3822.31
205.108	3560.29
205.574	2913.3
206.04	2677.85
206.506	2492.35
206.972	2371.43
207.438	2274.34
207.903	2593.29
208.369	2257.75
208.835	2242.75
209.301	2340.27
209.766	2411.1
210.232	2400.23
210.697	2982.91
211.163	3703.34
211.628	5608.39
212.094	4707.79
212.559	5746.17
213.024	3587.25
213.49	4380.03
213.955	4279.41
214.42	4217.59
214.885	3921.96
215.35	3748.72
215.815	3581.49
216.28	3799.34
216.745	3104.64
217.21	3360.21
217.675	3116.9
218.14	3515.97
218.604	3981.55
219.069	4575.94
219.534	4798.04
219.998	5613.95
220.463	6839.52
220.927	8482.03
221.392	8016.88
221.856	8135.16
222.32	10314.21
222.785	12755.15
223.249	16096.34
223.713	17948.39
224.177	17945.13
224.642	23085
225.106	28412.58
225.57	31058.81
226.034	23071.84
226.497	35088.28
226.961	31657.36
227.425	36772.69
227.889	40768.48
228.353	40750.66
228.816	84056.46
229.28	80420.65
229.744	67814.84
230.207	41116.45
230.671	40457.31
231.134	66867.44
231.597	76961.93
232.061	76903.71
232.524	74963.72
232.987	51609.47
233.45	46353.4
233.914	41524.01
234.377	42499.19
234.84	38839.19
235.303	45813.73
235.766	51056.87
236.229	52675.92
236.691	33160.78
237.154	37228.9
237.617	27982.54
238.08	28640.39
238.542	33512.14
239.005	23925.29
239.468	23719.18
239.93	22337.74
240.393	20279.67
240.855	17784.14
241.317	18231.03
241.78	22158.22
242.242	22879.94
242.704	24665.98
243.166	21414.06
243.629	19405.42
244.091	22346.83
244.553	24434.44
245.015	26196.41
245.477	33862.21
245.939	49557.24
246.4	52504.15
246.862	50985.34
247.324	48006.37
247.786	53652.76
248.247	70380.15
248.709	72597.35
249.17	54248.95
249.632	51081.37
250.093	59124.11
250.555	50970.76
251.016	31034.69
251.477	29380.71
251.939	31677.98
252.4	33176.76
252.861	39417.24
253.322	36597.79
253.783	43516.05
254.244	56341.23
254.705	44413.94
255.166	39501.02
255.627	38866.61
256.088	54787.23
256.549	58203.96
257.009	50092.8
257.47	60825.48
257.931	49550.16
258.391	37153.31
258.852	38330.04
259.312	40179.64
259.773	49600.44
260.233	41883.46
260.694	35308.12
261.154	40051.01
261.614	32098.66
262.074	28709.97
262.534	29791.02
262.994	28054.89
263.455	37338.42
263.915	31417.6
264.374	29605.77
264.834	32319.53
265.294	35807.81
265.754	37085.05
266.214	35097.97
266.673	32883.54
267.133	41449.26
267.593	41140.98
268.052	50345.06
268.512	43780.23
268.971	52760.35
269.431	57827.32
269.89	51746.83
270.349	77545.29
270.809	86373.03
271.268	77606.86
271.727	174094.38
272.186	112771.51
272.645	84565.78
273.104	60995.24
273.563	88285.06
274.022	69430.5
274.481	59005.05
274.94	45426.34
275.399	33776.27
275.857	39386.96
276.316	53268.92
276.775	47375.27
277.233	46651.2
277.692	43582.79
278.15	49216.68
278.609	50588.07
279.067	46831.22
279.525	43468.4
279.984	56153.82
280.442	67412.14
280.9	66279.69
281.358	43579.24
281.816	40596.39
282.274	39726.59
282.732	41086.11
283.19	41347.78
283.648	35709.95
284.106	38013.37
284.564	38727.89
285.021	35910.06
285.479	26786.49
285.937	24395.87
286.394	21417.81
286.852	22054.56
287.309	23192.54
287.767	22400.94
288.224	21299.4
288.682	23361.24
289.139	25634.25
289.596	23408.18
290.053	24328.52
290.511	30670.76
290.968	37151.17
291.425	50357.55
291.882	41862.09
292.339	36367.58
292.796	36060.87
293.252	33955.58
293.709	26914.46
294.166	24112.77
294.623	26663.7
295.079	25579.93
295.536	25667.79
295.992	23306.57
296.449	23028.22
296.905	23900.9
297.362	22904.15
297.818	24100.58
298.274	24983.1
298.731	25482.47
299.187	25196.74
299.643	27021.89
300.099	32637.54
300.555	35780.37
301.011	29893.06
301.467	28794.06
301.923	33742.55
302.379	32949.56
302.835	32363.52
303.291	32402.61
303.746	36888.5
304.202	46595.31
304.658	46783.32
305.113	31496.24
305.569	30894.13
306.024	32945.1
306.479	31393.08
306.935	26448.44
307.39	28914.69
307.845	26685.48
308.301	26839.45
308.756	26143.47
309.211	25192.24
309.666	25834.26
310.121	32031.01
310.576	32492.68
311.031	32236.34
311.486	36953.34
311.94	36968.48
312.395	49417.28
312.85	92881.51
313.305	456695.45
313.759	2361615.76
314.214	171131.47
314.668	135655.71
315.123	114138.3
315.577	40946.67
316.032	36422.63
316.486	45603.57
316.94	35933
317.394	24998.42
317.849	19428.69
318.303	18382.92
318.757	17330.01
319.211	19158.86
319.665	16752.45
320.119	16921.14
320.572	24273.62
321.026	22670.01
321.48	18850.36
321.934	20572.19
322.387	20624.58
322.841	22247.94
323.295	19975.68
323.748	23038.46
324.202	23351.44
324.655	28043.23
325.108	39188.74
325.562	27633.31
326.015	32843.9
326.468	24845.68
326.921	27771.49
327.374	25895.2
327.827	26964.64
328.28	30512.65
328.733	20429.99
329.186	17975.35
329.639	17120.19
330.092	14438.16
330.545	13753.49
330.997	13855.31
331.45	15124.66
331.903	17722.61
332.355	30498.66
332.808	29640.62
333.26	24474.81
333.713	26587.59
334.165	26791.41
334.617	35770.48
335.069	28953.24
335.522	52392.34
335.974	57988.5
336.426	53025.27
336.878	36771.55
337.33	18653.56
337.782	18253.47
338.234	22876.44
338.686	27372.82
339.137	32407.11
339.589	30572.26
340.041	23963.63
340.493	20617.47
340.944	21126.15
341.396	22737.62
341.847	19096.88
342.299	22503.96
342.75	27416.51
343.201	23930.34
343.653	27514.71
344.104	33858.65
344.555	26626.24
345.006	41396.4
345.457	31636.74
345.908	25128.82
346.359	23636.84
346.81	19257.13
347.261	20310.26
347.712	19988.76
348.163	21446.18
348.613	21707.53
349.064	20253.84
349.515	17746.83
349.965	18206.32
350.416	21938.51
350.866	24101.95
351.317	27243.44
351.767	45097.88
352.217	56933.28
352.668	47288.69
353.118	43251.67
353.568	41678.02
354.018	32967.21
354.468	34757.67
354.918	24900.73
355.368	21769.36
355.818	30730.87
356.268	88568.53
356.718	370320.53
357.168	92289.92
357.617	46290.97
358.067	51656.11
358.517	48519.64
358.966	56884.27
359.416	63726.91
359.865	68923.15
360.315	82197.18
360.764	38397.58
361.213	21516.36
361.663	20391.75
362.112	25174.85
362.561	40710.83
363.01	30697.51
363.459	25785.38
363.908	27901.49
364.357	23712.94
364.806	40066.57
365.255	27543.17
365.703	25229.87
366.152	25266.91
366.601	20509.55
367.05	16648.25
367.498	15139.9
367.947	15828.05
368.395	16473.31
368.844	14577.98
369.292	17580.66
369.74	12153.21
370.189	18638.31
370.637	21851.04
371.085	18833.06
371.533	22937.31
371.981	22120.52
372.429	21082.16
372.877	21943.17
373.325	18434.72
373.773	18838.93
374.221	16802.91
374.669	20913.43
375.116	18103.38
375.564	18321.66
376.012	20570.04
376.459	17040.83
376.907	20434.79
377.354	24788.82
377.801	23214.97
378.249	26729.36
378.696	34310.32
379.143	41812.59
379.591	44758.41
380.038	76167.27
380.485	55236.77
380.932	59968.42
381.379	55127.94
381.826	40767.91
382.273	29186.08
382.72	25718.89
383.166	25228.64
383.613	16493.28
384.06	14931.85
384.506	17392.6
384.953	12843
385.4	13027.96
385.846	11493.95
386.292	11283.1
386.739	11154.35
387.185	11103.53
387.631	11182.52
388.078	10927.74
388.524	11770.71
388.97	10966.95
389.416	9214.36
389.862	9871.51
390.308	9422.76
390.754	9647.97
391.2	10557.14
391.645	10871.72
392.091	10465.09
392.537	10183.04
392.983	10294.31
393.428	10166.21
393.874	10969.74
394.319	11077.76
394.765	10564.97
395.21	10934.54
395.655	10313.42
396.101	9712.39
396.546	8804.11
396.991	8946.1
397.436	8340.51
397.881	8086.77
398.326	7709.59
398.771	7306.22
399.216	6409.37
399.661	5803.03
400.106	5794.3
400.551	5931.37
400.995	5328.08
401.44	5273.17
401.885	4954.47
402.329	5005.77
402.774	4793.21
403.218	4623.16
403.663	4456.19
404.107	4578.12
404.551	4603.96
404.995	4222.38
405.44	4072.43
405.884	4130.65
406.328	4005.76
406.772	3988.68
407.216	3631.63
407.66	3510.64
408.104	3339.65
408.547	3122.77
408.991	3019.08
409.435	2899.63
409.879	2849.49
410.322	2805.24
410.766	2700.64
411.209	2558.36
411.653	2451.19
412.096	2395.4
412.54	2393.53
412.983	2372.63
413.426	2374.54
413.869	2370.8
414.312	2322.9
414.756	2239.82
415.199	2136.65
415.642	2072.27
416.085	2074.09
416.527	2059.72
416.97	2092.97
417.413	1983.35
417.856	1963.33
418.298	1942.79
418.741	1929.66
419.184	1925.69
419.626	2002.99
420.069	2001.36
420.511	2010.31
420.953	1961.27
421.396	1938.14
421.838	1885.52
422.28	1923.27
422.722	1926.84
423.164	1950.38
423.606	1912.09
424.048	1903.04
424.49	1804.02
424.932	1789.39
425.374	1763.46
425.816	1792.56
426.258	1819.71
426.699	1833.37
427.141	1802.79
427.582	1828.6
428.024	1817.08
428.465	1804.22
428.907	1758.93
429.348	1735.25
429.789	1730.8
430.231	1688.9
430.672	1707.36
431.113	1669.63
431.554	1643.6
431.995	1604.32
432.436	1542.29
432.877	1505.71
433.318	1476.09
433.759	1467.25
434.2	1468.27
434.64	1453.93
435.081	1459.57
435.522	1386.29
435.962	1337.28
436.403	1309.92
436.843	1330.38
437.284	1306.31
437.724	1275.56
438.164	1285.6
438.604	1263.27
439.045	1218.8
439.485	1170.93
439.925	1151.06
440.365	1125.15
440.805	1113.23
441.245	1103.4
441.685	1065.65
442.125	1064.95
442.564	1076.87
443.004	1058.04
443.444	1062.08
443.883	1069.25
444.323	1070.63
444.762	1081.95
445.202	1106.93
445.641	1135.5
446.081	1139.33
446.52	1157.19
446.959	1153.48
447.398	1131.61
447.837	1125.89
448.276	1113.62
448.716	1135.69
449.154	1156.56
449.593	1136.24
450.032	1136.28
450.471	1124.19
450.91	1131.96
451.349	1137.07
451.787	1139.13
452.226	1164.97
452.664	1171.2
453.103	1179.31
453.541	1181.27
453.98	1179.82
454.418	1191.37
454.856	1178.01
455.295	1178.96
455.733	1190.3
456.171	1199.51
456.609	1203.37
457.047	1206.39
457.485	1224.05
457.923	1225.38
458.361	1211.4
458.798	1219.21
459.236	1217.74
459.674	1229.01
460.111	1235.94
460.549	1225.93
460.987	1223.47
461.424	1221.28
461.862	1215.56
462.299	1198.46
462.736	1197.29
463.173	1201.63
463.611	1185.08
464.048	1181.44
464.485	1190.81
464.922	1180.55
465.359	1175.81
465.796	1151.19
466.233	1140.45
466.67	1127.48
467.106	1124.53
467.543	1116.03
467.98	1103.15
468.416	1077.36
468.853	1070.76
469.29	1038.62
469.726	1027.39
470.162	1000.6
470.599	996.28
471.035	990.52
471.471	968.55
471.907	965.21
472.344	960.38
472.78	962.94
473.216	977.44
473.652	967.42
474.088	967.11
474.523	964.56
474.959	974.38
475.395	965.77
475.831	959.81
476.266	965.66
476.702	965.16
477.138	956.51
477.573	954.68
478.008	950.99
478.444	954.63
478.879	961.75
479.314	966.83
479.75	967.95
480.185	974.44
480.62	985.07
481.055	993.01
481.49	999.66
481.925	1014.26
482.36	1031.65
482.795	1063.45
483.229	1095.72
483.664	1122.32
484.099	1129.57
484.534	1148.89
484.968	1163.22
485.403	1170.56
485.837	1173.5
486.271	1175.15
486.706	1181.12
487.14	1173.26
487.574	1157.95
488.009	1150.5
488.443	1146.3
488.877	1162.26
489.311	1172.85
489.745	1191.42
490.179	1206.89
490.613	1232.23
491.046	1249.7
491.48	1265.25
491.914	1273.48
492.348	1290.14
492.781	1306.33
493.215	1316.58
493.648	1327.78
494.082	1344.94
494.515	1354.03
494.948	1377.67
495.382	1397.58
495.815	1414.97
496.248	1433.94
496.681	1469.63
497.114	1502.31
497.547	1531.82
497.98	1566.98
498.413	1588.31
498.846	1618.12
499.279	1645.9
499.711	1665.07
500.144	1681.02
500.577	1711.95
501.009	1746
501.442	1774.39
501.874	1785.22
502.306	1799.6
502.739	1820.73
503.171	1861.8
503.603	1876.31
504.036	1904.68
504.468	1925.59
504.9	1957.51
505.332	1980.19
505.764	1995.35
506.196	2017.43
506.627	2056.42
507.059	2091.22
507.491	2120.41
507.923	2119.77
508.354	2156.53
508.786	2183.78
509.217	2226.08
509.649	2259.05
510.08	2303.69
510.512	2340.91
510.943	2374.26
511.374	2398.37
511.805	2441.79
512.237	2484.35
512.668	2554.79
513.099	2613.37
513.53	2669.87
513.961	2707.19
514.391	2773.46
514.822	2835.94
515.253	2907.78
515.684	2954.51
516.114	3009.73
516.545	3046.28
516.975	3091.46
517.406	3121.01
517.836	3114.29
518.267	3115.57
518.697	3142.15
519.127	3137.44
519.558	3142.23
519.988	3137.94
520.418	3148.42
520.848	3174.35
521.278	3180.22
521.708	3156.81
522.138	3169.09
522.567	3223.11
522.997	3263.72
523.427	3285.02
523.857	3307.76
524.286	3317.25
524.716	3335.94
525.145	3362.58
525.575	3371.76
526.004	3390.14
526.433	3409.6
526.863	3400.33
527.292	3368.74
527.721	3369.42
528.15	3371.93
528.579	3364.82
529.008	3377.86
529.437	3417.17
529.866	3438.29
530.295	3466.94
530.724	3483.53
531.152	3529.98
531.581	3550.41
532.01	3579.15
532.438	3592.32
532.867	3616.49
533.295	3647.71
533.723	3655.42
534.152	3646.19
534.58	3641.31
535.008	3606.23
535.436	3605.53
535.865	3617.72
536.293	3644.81
536.721	3675.69
537.149	3721.73
537.576	3723.54
538.004	3747.35
538.432	3762.9
538.86	3757.89
539.287	3771.05
539.715	3797.02
540.143	3803.63
540.57	3796
540.998	3786.8
541.425	3737.84
541.852	3694.74
542.28	3691.97
542.707	3659.03
543.134	3630.18
543.561	3620.36
543.988	3603.85
544.415	3602.42
544.842	3589.36
545.269	3573.35
545.696	3575.26
546.123	3599.45
546.549	3579.26
546.976	3550.82
547.403	3546.34
547.829	3549.24
548.256	3552.86
548.682	3541.95
549.108	3523.14
549.535	3521.78
549.961	3525.16
550.387	3497.61
550.813	3483.96
551.24	3494.39
551.666	3496.96
552.092	3479.46
552.518	3463.33
552.943	3450.29
553.369	3467.07
553.795	3479.56
554.221	3480.73
554.646	3474.5
555.072	3495.6
555.498	3507.41
555.923	3527.7
556.349	3559.89
556.774	3579.53
557.199	3587.09
557.625	3602.35
558.05	3593.01
558.475	3616.33
558.9	3618.74
559.325	3605.53
559.75	3598.29
560.175	3590.57
560.6	3582.28
561.025	3582.5
561.449	3588.45
561.874	3604.5
562.299	3616.66
562.723	3638.02
563.148	3624.92
563.572	3639.5
563.997	3667.38
564.421	3686.97
564.846	3694.56
565.27	3709.2
565.694	3711.29
566.118	3743.36
566.542	3765.98
566.966	3762.88
567.39	3760.67
567.814	3747.8
568.238	3755.53
568.662	3777.07
569.086	3791.3
569.509	3817.84
569.933	3795.04
570.357	3790.69
570.78	3757.46
571.204	3738.08
571.627	3725.43
572.05	3731.25
572.474	3739.44
572.897	3724.39
573.32	3713.93
573.743	3702
574.166	3671.02
574.589	3681.15
575.012	3673.98
575.435	3680.51
575.858	3669.28
576.281	3652.77
576.704	3626.02
577.126	3608.79
577.549	3590.01
577.972	3577.34
578.394	3561.08
578.817	3547.88
579.239	3512.68
579.661	3486.5
580.084	3455.36
580.506	3432.29
580.928	3430.06
581.35	3411.62
581.772	3406.12
582.194	3382.03
582.616	3360.19
583.038	3335.18
583.46	3320.11
583.882	3318.4
584.303	3332.69
584.725	3328.96
585.147	3331.13
585.568	3358.21
585.99	3389.99
586.411	3407.99
586.833	3444.49
587.254	3451.09
587.675	3486.22
588.096	3518.45
588.518	3508.28
588.939	3475.21
589.36	3473.21
589.781	3461.98
590.202	3396.52
590.623	3377.61
591.043	3375.5
591.464	3349.58
591.885	3342.86
592.305	3330.39
592.726	3301.45
593.147	3307.79
593.567	3298.13
593.987	3283.35
594.408	3271.98
594.828	3274.43
595.248	3262.51
595.669	3220.96
596.089	3206.27
596.509	3191.72
596.929	3163.61
597.349	3166.69
597.769	3144.23
598.189	3132.04
598.608	3135.39
599.028	3142.42
599.448	3144.71
599.867	3119.21
600.287	3112.06
600.706	3103.33
601.126	3082.91
601.545	3081.47
601.965	3080.89
602.384	3071.5
602.803	3080.36
603.222	3071.85
603.641	3059.63
604.061	3052.32
604.48	3046.33
604.898	3066.75
605.317	3082.06
605.736	3091.45
606.155	3086.82
606.574	3069.11
606.992	3085.68
607.411	3077.21
607.829	3063.49
608.248	3060.32
608.666	3060.78
609.085	3063.23
609.503	3048.27
609.921	3037.62
610.339	3045.72
610.758	3051.5
611.176	3046.08
611.594	3028.45
612.012	3025.42
612.43	3036.27
612.847	3055.69
613.265	3059.59
613.683	3075.07
614.101	3082.37
614.518	3078.24
614.936	3061.11
615.353	3028.84
615.771	3026.15
616.188	3031.44
616.606	3027.81
617.023	3015.95
617.44	2986.29
617.857	2975.97
618.274	2959.57
618.691	2946.19
619.108	2928.61
619.525	2916.99
619.942	2936.58
620.359	2944.35
620.776	2935.2
621.192	2926.38
621.609	2923.46
622.026	2940.73
622.442	2955.97
622.859	2965.54
623.275	2953.19
623.691	2968.35
624.108	2995.85
624.524	3030.79
624.94	3034.33
625.356	3059.77
625.772	3095.51
626.188	3125.05
626.604	3130.24
627.02	3121.53
627.436	3117.1
627.852	3132.81
628.268	3162.21
628.683	3144.64
629.099	3127.08
629.514	3116.38
629.93	3127.07
630.345	3137.14
630.761	3130.12
631.176	3140.06
631.591	3125.16
632.007	3110.83
632.422	3109.62
632.837	3084.29
633.252	3076.87
633.667	3052.13
634.082	3030.11
634.497	2996.83
634.911	2949.28
635.326	2941.16
635.741	2899.31
636.155	2878.77
636.57	2881.35
636.984	2879.91
637.399	2879.94
637.813	2879.84
638.228	2878.74
638.642	2889.38
639.056	2866.09
639.47	2866.7
639.884	2843.79
640.298	2828.53
640.712	2820.33
641.126	2789.07
641.54	2765.61
641.954	2754.97
642.368	2723.76
642.781	2697.24
643.195	2652.3
643.609	2650.06
644.022	2632.22
644.436	2620.07
644.849	2588.14
645.262	2560.53
645.676	2563.57
646.089	2550.89
646.502	2509.93
646.915	2493.66
647.328	2452.81
647.741	2442.67
648.154	2408.92
648.567	2394.69
648.98	2359.76
649.393	2358.38
649.805	2346.94
650.218	2325.65
650.631	2285.22
651.043	2269.61
651.456	2254.11
651.868	2254.19
652.28	2293.68
652.693	2323.96
653.105	2341.21
653.517	2363.09
653.929	2363.37
654.341	2372.99
654.753	2343.68
655.165	2356.71
655.577	2349.67
655.989	2337.64
656.401	2321.21
656.813	2235.54
657.224	2187.82
657.636	2122.67
658.047	2077.11
658.459	2027.52
658.87	2005.76
659.282	1975.4
659.693	1924.14
660.104	1885.15
660.515	1849.9
660.926	1836.75
661.338	1822.85
661.749	1800.94
662.159	1770.46
662.57	1754.7
662.981	1736.58
663.392	1711.96
663.803	1711.41
664.213	1696.15
664.624	1677.07
665.035	1672.33
665.445	1634.25
665.855	1607.95
666.266	1579.95
666.676	1565.14
667.086	1535.87
667.497	1523.34
667.907	1500.18
668.317	1471.34
668.727	1453.06
669.137	1448.14
669.547	1434.64
669.956	1432.16
670.366	1429.18
670.776	1426.35
671.186	1428.81
671.595	1429.96
672.005	1432.15
672.414	1424.35
672.824	1416.6
673.233	1423.14
673.642	1421.62
674.052	1422.4
674.461	1422.57
674.87	1430.66
675.279	1422.73
675.688	1424.71
676.097	1425.45
676.506	1419.29
676.915	1448.06
677.323	1454.74
677.732	1453.62
678.141	1455.8
678.549	1441.92
678.958	1447.13
679.366	1451.43
679.775	1470.53
680.183	1495.76
680.592	1518.38
681	1540.98
681.408	1541.33
681.816	1573.62
682.224	1609.67
682.632	1648.01
683.04	1729.52
683.448	1801.71
683.856	1889.32
684.264	1990.76
684.671	2092.31
685.079	2210.66
685.487	2340.27
685.894	2510.8
686.302	2655.78
686.709	2779.45
687.116	2921.55
687.524	3036.97
687.931	3137.48
688.338	3226.07
688.745	3299.11
689.152	3375.81
689.559	3476.34
689.966	3569.07
690.373	3605.33
690.78	3687.81
691.187	3816.73
691.593	3904.37
692	3976.55
692.407	4090.27
692.813	4222.78
693.22	4320.57
693.626	4422.56
694.032	4485.61
694.439	4608.99
694.845	4690.82
695.251	4801.76
695.657	4895.74
696.063	5060.53
696.469	5163.72
696.875	5253.87
697.281	5283.08
697.687	5327.05
698.093	5354.45
698.498	5455.31
698.904	5521.64
699.31	5648.2
699.715	5717.99
700.12	5848.13
700.526	5827.56
700.931	5911.38
701.337	5959.06
701.742	5972.9
702.147	6083.83
702.552	6092.7
702.957	6161.57
703.362	6152.85
703.767	6162.06
704.172	6194.3
704.577	6065.34
704.981	6112.91
705.386	6103.93
705.791	6050.86
706.195	6146.52
706.6	6127.02
707.004	6232.33
707.408	6141.7
707.813	6151.98
708.217	6095.75
708.621	6068.05
709.025	6200.41
709.43	6169.07
709.834	6238.08
710.237	6327.21
710.641	6273.71
711.045	6279.55
711.449	6239.21
711.853	6255.81
712.256	6299.38
712.66	6334.86
713.064	6431.49
713.467	6473.13
713.87	6629.93
714.274	6679.02
714.677	6829.79
715.08	7062.23
715.484	7305.49
715.887	7600.24
716.29	7895.27
716.693	8196.48
717.096	8546.86
717.499	8722.51
717.901	8736.96
718.304	8748.49
718.707	8762.18
719.109	8577.26
719.512	8502.59
719.915	8268.06
720.317	8159.66
720.719	8203.68
721.122	8136.54
721.524	8037.4
721.926	7951.08
722.328	8081.55
722.731	8051.28
723.133	8074.14
723.535	8348.48
723.937	8362.72
724.338	8424.2
724.74	8471.11
725.142	8315.83
725.544	8297.09
725.945	8316.13
726.347	8301.75
726.748	8277.65
727.15	8286.37
727.551	8214.44
727.952	8159.55
728.354	8106.45
728.755	8096.24
729.156	8021.97
729.557	8035.47
729.958	7848.38
730.359	7762.98
730.76	7725.02
731.161	7631.17
731.562	7583
731.962	7579.92
732.363	7478.76
732.763	7378.32
733.164	7426.59
733.564	7323.09
733.965	7174.44
734.365	7119.06
734.766	7154.78
735.166	7090.78
735.566	7003.32
735.966	6962.41
736.366	6951.96
736.766	6858.73
737.166	6899.15
737.566	6830.67
737.966	6787.97
738.365	6840.3
738.765	6825.11
739.165	6713.03
739.564	6673.45
739.964	6736.33
740.363	6666.27
740.763	6656.03
741.162	6634.44
741.561	6587.42
741.96	6518.7
742.36	6545.39
742.759	6553.4
743.158	6605.69
743.557	6625.09
743.955	6678.04
744.354	6607.64
744.753	6686.25
745.152	6626.95
745.55	6704.77
745.949	6692.68
746.348	6696.03
746.746	6717.91
747.144	6653.78
747.543	6621.36
747.941	6690.57
748.339	6590.84
748.737	6578.73
749.136	6565.64
749.534	6655.99
749.932	6610.96
750.33	6640.36
750.727	6717
751.125	6678.72
751.523	6657.63
751.921	6712.64
752.318	6660.58
752.716	6739.23
753.113	6759.8
753.511	6792.8
753.908	6792.22
754.305	6765.75
754.703	6852.32
755.1	6935.75
755.497	7017.73
755.894	7285.85
756.291	7538.51
756.688	8002.4
757.085	8622.44
757.482	9487.31
757.878	10435.72
758.275	11287.85
758.672	12472.3
759.068	13434.99
759.465	14803.83
759.861	16570.74
760.258	18619.91
760.654	19682.03
761.05	19527.22
761.447	18630.83
761.843	17342.49
762.239	16004.22
762.635	15411.87
763.031	14836.81
763.427	13999.98
763.822	13127.06
764.218	12265.81
764.614	11142.49
765.01	10391.82
765.405	9900.6
765.801	9531.24
766.196	9061.79
766.592	8800.3
766.987	8355.96
767.382	8055.36
767.778	7928.8
768.173	7743.71
768.568	7644.49
768.963	7469.04
769.358	7491.41
769.753	7427.87
770.148	7309.18
770.542	7306.71
770.937	7264.21
771.332	7387.77
771.726	7415.22
772.121	7326.55
772.515	7402.97
772.91	7383.03
773.304	7479.49
773.699	7391.09
774.093	7463.06
774.487	7541.43
774.881	7605.6
775.275	7597.63
775.669	7542.85
776.063	7606.33
776.457	7657.46
776.851	7554.56
777.245	7543.14
777.638	7593.61
778.032	7749.98
778.425	7700.98
778.819	7757.47
779.212	7691.95
779.606	7637.67
779.999	7664.02
780.392	7639.61
780.786	7759
781.179	7792.24
781.572	7850.53
781.965	7867.47
782.358	7789.65
782.751	7867.1
783.143	7799.61
783.536	7903.17
783.929	7964.27
784.322	8125.74
784.714	8167.54
785.107	8157.39
785.499	8254.57
785.891	8220.16
786.284	8192.22
786.676	8389.91
787.068	8365.49
787.46	8441.13
787.852	8471.39
788.245	8590.2
788.636	8634.33
789.028	8728.75
789.42	8785.99
789.812	8793
790.204	8929.87
790.595	9064.16
790.987	8790.28
791.378	8823.07
791.77	9001.84
792.161	9188.64
792.553	9262.56
792.944	9107.65
793.335	9012.08
793.726	9107.51
794.117	9236.5
794.508	9430.17
794.899	9391.93
795.29	9587.38
795.681	9667.25
796.072	9472.06
796.463	9202.31
796.853	9214.96
797.244	9427.96
797.634	9473.64
798.025	9473.33
798.415	9486.29
798.806	9606.04
799.196	9722.9
799.586	9794.42
799.976	9737.78
800.366	10055.97
800.756	10402
801.146	10347.14
801.536	10388.84
801.926	10496.22
802.316	10531.65
802.706	10632.32
803.095	10459.6
803.485	10604.08
803.874	10659.54
804.264	11017.32
804.653	10979.72
805.043	11180.86
805.432	11334.06
805.821	11341.88
806.21	11363.85
806.599	11526.92
806.988	11585.47
807.377	11738.81
807.766	11915.39
808.155	12305.79
808.544	11941.79
808.933	11962.73
809.321	11928.71
809.71	12339
810.098	12546.25
810.487	13189.31
810.875	13858.16
811.264	13898.82
811.652	14287.63
812.04	14494.32
812.428	14723.91
812.816	15787.22
813.204	16361.88
813.592	17142.25
813.98	17602.9
814.368	17480.94
814.756	18144.01
815.144	18027.98
815.531	18669.17
815.919	18575.98
816.306	18989.6
816.694	18565.28
817.081	18629.23
817.469	19114.02
817.856	19100.26
818.243	19475.41
818.63	20021.89
819.017	19436.33
819.404	19518.05
819.791	20043
820.178	20901.25
820.565	21247.96
820.952	22519.92
821.339	21842.98
821.725	22099.19
822.112	21077.22
822.498	21022.96
822.885	21201.63
823.271	21076.45
823.657	21667.15
824.044	21675.65
824.43	21765.57
824.816	21719.38
825.202	21128.61
825.588	22539.9
825.974	22555.82
826.36	23261.73
826.746	23305.13
827.132	23793.19
827.517	23757.05
827.903	22667.48
828.289	22715.05
828.674	21647.82
829.06	21504.51
829.445	22047.17
829.83	22541.06
830.216	23201.15
830.601	23705.72
830.986	23136
831.371	22942.1
831.756	23703.35
832.141	23103.85
832.526	23096.2
832.911	23481.34
833.295	23322.18
833.68	23973.94
834.065	23114.62
834.449	21857.85
834.834	21758.18
835.218	21758.19
835.603	22233.35
835.987	21947
836.371	23109.98
836.755	22972.82
837.139	23530.32
837.524	23874.78
837.908	23630.78
838.291	23710.91
838.675	23803.41
839.059	24092.87
839.443	24084.32
839.827	23761.48
840.21	24427.05
840.594	24212.05
840.977	24502.24
841.361	24467.3
841.744	24981.98
842.127	24768.86
842.511	25113.01
842.894	25938.5
843.277	26465.99
843.66	27224.81
844.043	27354.22
844.426	26233.64
844.809	25813.81
845.191	25851.59
845.574	25221.16
845.957	24723.11
846.339	24564.69
846.722	23838.98
847.104	23944
847.487	23708.62
847.869	23713.37
848.252	24088.91
848.634	24554.25
849.016	24915.63
849.398	25097.16
849.78	26273.99
850.162	26276.41
850.544	26865.11
850.926	27749.68
851.307	27620.02
851.689	28009.29
852.071	28657.18
852.452	29111.02
852.834	29088.27
853.215	29650.06
853.597	29855.34
853.978	30262.68
854.359	30901.4
854.741	29519.75
855.122	29370.75
855.503	28971.05
855.884	29152.34
856.265	29053.13
856.646	29224.75
857.026	28677.37
857.407	28577.88
857.788	28794.1
858.169	29196.52
858.549	28007.35
858.93	28867.04
859.31	28929.23
859.69	29208.3
860.071	28643.63
860.451	28334
860.831	27291.05
861.211	28878.23
861.591	29632.12
861.971	29603.23
862.351	29864.76
862.731	30417.3
863.111	30770.45
863.491	31231.89
863.87	32445.64
864.25	32925.1
864.629	32377.86
865.009	33107.41
865.388	34288.68
865.768	36754.78
866.147	36595.47
866.526	34566.18
866.905	34965.45
867.284	36936.12
867.663	35065.34
868.042	33603.23
868.421	33506.46
868.8	34067.06
869.179	34388.89
869.558	32386.74
869.936	29840.95
870.315	30372.62
870.693	31105.61
871.072	33530.72
871.45	31949.14
871.828	32363.25
872.207	34025.19
872.585	33500.1
872.963	34402.72
873.341	33198.05
873.719	32802.41
874.097	32414.1
874.475	33030.31
874.853	33794.29
875.23	32382.57
875.608	33726.84
875.986	36476.41
876.363	34886.68
876.741	35939.77
877.118	35031.43
877.495	36757.68
877.873	37364.63
878.25	39317.42
878.627	37716.39
879.004	38248.02
879.381	38076.3
879.758	37072.21
880.135	34509.12
880.512	36475.41
880.889	35529.59
881.265	35182.04
881.642	34901.05
882.019	35497.44
882.395	34758.83
882.772	36131.34
883.148	34564.11
883.524	34428.12
883.901	34224.92
884.277	34746.13
884.653	34537.95
885.029	35523.53
885.405	39321.61
885.781	39028.63
886.157	37430.39
886.532	37906.11
886.908	37893.78
887.284	42136.34
887.659	43518.02
888.035	44870.81
888.411	46025.93
888.786	46639.41
889.161	48260.87
889.537	47389.67
889.912	48908.74
890.287	48867.3
890.662	50127.31
891.037	49239.8
891.412	45922.42
891.787	45464.65
892.162	43900.53
892.536	44941.44
892.911	43250.02
893.286	42350.76
893.66	40635.2
894.035	41652.38
894.409	45357.39
894.784	43523.32
895.158	44227.8
895.532	46833.83
895.906	48101.11
896.281	49224.63
896.655	48428.69
897.029	55364.05
897.402	57638.96
897.776	64184.38
898.15	63992.45
898.524	63284.89
898.898	64141.08
899.271	71817.95
899.645	62226.13
900.018	59795.88
900.392	62014.16
900.765	62499.92
901.138	57811.46
901.511	56944.25
901.884	52267.95
902.258	48207.31
902.631	49819.37
903.003	57311
903.376	51731.27
903.749	58015.01
904.122	62094.53
904.495	68382.74
904.867	69272.12
905.24	60153.82
905.612	55994.11
905.985	57279.55
906.357	59881.41
906.729	57175.17
907.102	48852.22
907.474	46980.61
907.846	47260.9
908.218	46637.14
908.59	41192.24
908.962	39833.27
909.334	42873.79
909.705	45023.6
910.077	43708.67
910.449	45506.23
910.82	46772.56
911.192	51484.3
911.563	53459.99
911.935	57214.38
912.306	57274.33
912.677	59144.85
913.048	58539.72
913.419	63543.51
913.79	63950.26
914.161	68546.05
914.532	65516.98
914.903	60177.4
915.274	57131.73
915.645	56301.77
916.015	49559.58
916.386	47242.38
916.756	50283.91
917.127	51884.69
917.497	46346.12
917.868	50408.03
918.238	47902.9
918.608	49260.5
918.978	50271.86
919.348	53253.53
919.718	55055.06
920.088	53026.34
920.458	55093.4
920.828	58000.53
921.198	54961.36
921.567	58718.6
921.937	45460.89
922.306	45896.32
922.676	49518.1
923.045	41300.07
923.415	39222.72
923.784	35702.5
924.153	36689.16
924.522	36632.47
924.891	34426.98
925.26	36881.06
925.629	35993.92
925.998	41384.45
926.367	40394.4
926.736	38434.76
927.104	45799.79
927.473	49238.06
927.842	59448.96
928.21	58898.82
928.578	61972.89
928.947	58623.39
929.315	58952.34
929.683	69128.75
930.051	69686.17
930.42	80943.44
930.788	69211.17
931.156	68653.13
931.523	64330.63
931.891	59418.15
932.259	57069.2
932.627	66118.41
932.994	93512.62
933.362	77280.31
933.729	67119.21
934.097	64266.54
934.464	54362.71
934.831	62721.96
935.199	61878.48
935.566	60031.64
935.933	60939.81
936.3	73774.51
936.667	57424.48
937.034	51726.54
937.401	51171.81
937.767	44165.99
938.134	39307.26
938.501	55495.49
938.867	59136.53
939.234	99979.05
939.6	85324.05
939.967	93873.3
940.333	62843.89
940.699	53520.61
941.065	43019.7
941.431	56423.18
941.798	54367.39
942.163	71366.66
942.529	44521.53
942.895	41035.96
943.261	26522.57
943.627	34766.42
943.992	30415.1
944.358	30469
944.723	30561.28
945.089	29774.14
945.454	27490.53
945.82	29358.8
946.185	28209.24
946.55	32671.88
946.915	29255.1
947.28	34342.1
947.645	30248.31
948.01	27946.68
948.375	29126.46
948.74	34929.72
949.104	40760.76
949.469	58950.01
949.834	104161.78
950.198	98751.75
950.562	59202.6
950.927	49366.74
951.291	59429.39
951.655	50624.63
952.02	47579.71
952.384	35986.78
952.748	31336.31
953.112	30498.15
953.476	26513.92
953.839	24560.45
954.203	24298.92
954.567	30412.41
954.931	47926.78
955.294	40964.54
955.658	41220.01
956.021	70086.01
956.385	118937.71
956.748	175448.28
957.111	272748.82
957.474	306395.17
957.837	344770.29
958.2	261076.8
958.563	93947.26
958.926	63482.97
959.289	96409.23
959.652	107665.28
960.015	80784.7
960.377	115928.54
960.74	132377.3
961.102	228566.37
961.465	245268.84
961.827	131156.54
962.189	251808.52
962.552	174433.17
962.914	139920.44
963.276	90825.38
963.638	75097.86
964	74372
964.362	50270.78
964.724	48635.47
965.085	34685.81
965.447	28460.07
965.809	32499.73
966.17	32553.5
966.532	35270.68
966.893	32367.23
967.255	29456.29
967.616	34798.35
967.977	27865.17
968.338	30445.93
968.699	24986.9
969.061	24993.7
969.421	25143.47
969.782	28203.25
970.143	23778.8
970.504	24586.9
970.865	27951.21
971.225	28531.6
971.586	27911
971.946	39816.18
972.307	34572.15
972.667	45231.75
973.027	46546.19
973.388	56505.32
973.748	38426.26
974.108	41914.74
974.468	56738.87
974.828	43698.83
975.188	33694.22
975.548	30937.51
975.907	25964.41
976.267	29091.83
976.627	24420.75
976.986	25328.16
977.346	24135.54
977.705	23229.7
978.064	21148.07
978.424	17615.5
978.783	18246.88
979.142	20834.91
979.501	19936.41
979.86	21047.47
980.219	20311.64
980.578	26203.84
980.937	29349.97
981.296	26153.66
981.654	26927.69
982.013	41977.72
982.371	54469.6
982.73	50798.44
983.088	57445.18
983.447	61361.97
983.805	87815.59
984.163	183375.38
984.521	203758.26
984.879	299031.53
985.237	-486567
985.595	468744.08
985.953	116525.53
986.311	67243.57
986.669	39075.01
987.026	33749.17
987.384	45420.56
987.741	46946.41
988.099	33536.51
988.456	26728.91
988.814	25009.03
989.171	21713.01
989.528	21439.7
989.885	22611.71
990.242	17903.01
990.599	22331.67
990.956	18275.4
991.313	12775.25
991.67	10493.65
992.027	11093.2
992.383	9860.41
992.74	8639.3
993.096	9063.5
993.453	9398.52
993.809	9743.72
994.165	12984.78
994.522	11849.65
994.878	13047.44
995.234	16373.89
995.59	16160.51
995.946	15351.09
996.302	17497.4
996.658	20272.1
997.013	22364.83
997.369	26506.1
997.725	33917.76
998.08	21971.19
998.436	34013.35
998.791	47033.8
999.147	46894.6
999.502	51141.43
999.857	37200.56
1000.212	60686.01
1000.567	86186.85
1000.922	49717
1001.277	31580.54
1001.632	23447.85
1001.987	30251.26
1002.342	21725.93
1002.696	17354.76
1003.051	13868.4
1003.406	16794.42
1003.76	16714.55
1004.114	16453.31
1004.469	13866.9
1004.823	11471.11
1005.177	12415.77
1005.531	9835.71
1005.885	8710.25
1006.239	9812.58
1006.593	12292.1
1006.947	16434.75
1007.301	12332.56
1007.655	13455.09
1008.008	9880.08
1008.362	11075.8
1008.715	15867.69
1009.069	14409.91
1009.422	21604.89
1009.776	43392.27
1010.129	28842.92
1010.482	24058.49
1010.835	20340.02
1011.188	42366.43
1011.541	39865.3
1011.894	-244016.64
1012.247	716919.98
1012.6	48649.64
1012.952	30662.57
1013.305	15885.13
1013.657	11424.51
1014.01	10798.89
1014.362	8933.64
1014.715	7907.28
1015.067	6840.3
1015.419	6684.39
1015.771	5916.98
1016.123	5274.27
1016.475	5416.72
1016.827	5761.29
1017.179	6171.84
1017.531	6235.8
1017.883	6376.89
1018.234	6116.34
1018.586	7748.94
1018.938	8213.97
1019.289	11365.22
1019.64	13050.65
1019.992	12186.38
1020.343	11181.61
1020.694	8807.88
1021.045	7779.9
1021.396	8869.72
1021.747	9520.42
1022.098	11503.93
1022.449	8338.53
1022.8	7779.04
1023.151	5398.83
1023.501	4765.16
1023.852	5175.36
1024.202	5335.49
1024.553	5897.36
1024.903	5762.62
1025.253	4914.47
1025.604	4419.62
1025.954	5501.87
1026.304	6729.4
1026.654	7854.55
1027.004	11529.16
1027.354	18679.61
1027.703	17478.31
1028.053	23059.7
1028.403	33552.01
1028.753	48994.26
1029.102	67018.06
1029.452	344104.77
1029.801	14797.16
1030.15	9546.78
1030.499	8087.24
897.758	2247.71
901.051	2179.79
904.343	2218.15
907.636	2224.49
910.928	2287
914.22	2204.77
917.511	2208.93
920.803	2262.99
924.094	2262.55
927.384	2264.45
930.675	2226.05
933.965	2188.49
937.255	2220.88
940.544	2184.72
943.834	2185.13
947.123	2123.95
950.411	2215.75
953.7	2195.68
956.988	2177.75
960.276	2114.79
963.563	2166.78
966.851	2177.62
970.138	2222.52
973.424	2222.8
976.711	2177.71
979.997	2227.75
983.283	2271.39
986.568	2198.86
989.853	2193.14
993.138	2221.2
996.423	2304.93
999.708	2262
1002.992	2294.78
1006.275	2200.49
1009.559	2209.47
1012.842	2308.4
1016.125	2259.69
1019.408	2242.57
1022.69	2303.28
1025.972	2336.73
1029.254	2310.29
1032.536	2272.11
1035.817	2281.78
1039.098	2254.11
1042.379	2312.81
1045.659	2338.44
1048.939	2287.53
1052.219	2296.34
1055.498	2291.06
1058.778	2288.52
1062.057	2263.19
1065.335	2288.78
1068.614	2302.75
1071.892	2298.78
1075.17	2353.63
1078.447	2359.64
1081.724	2355.38
1085.001	2382.55
1088.278	2360.32
1091.554	2367.04
1094.83	2361.19
1098.106	2399.31
1101.382	2431.26
1104.657	2431.76
1107.932	2431.96
1111.206	2406.17
1114.481	2358.17
1117.755	2359.19
1121.029	2350.31
1124.302	2414.74
1127.575	2377.91
1130.848	2373.82
1134.121	2343.27
1137.393	2304.2
1140.665	2365.58
1143.937	2344.51
1147.208	2294.5
1150.48	2352.9
1153.75	2342.15
1157.021	2348.16
1160.291	2321.77
1163.561	2378.98
1166.831	2347.1
1170.101	2376.46
1173.37	2335.59
1176.639	2288.36
1179.907	2334.06
1183.176	2358.67
1186.444	2359.63
1189.711	2385.38
1192.979	2408.48
1196.246	2362.08
1199.513	2375.53
1202.78	2381.04
1206.046	2390.24
1209.312	2418.28
1212.578	2438.25
1215.843	2403.32
1219.108	2367.34
1222.373	2393.48
1225.638	2363.92
1228.902	2356
1232.166	2313.57
1235.43	2298.58
1238.693	2321.05
1241.956	2314.51
1245.219	2363.71
1248.482	2344.98
1251.744	2343.24
1255.006	2474.39
1258.268	2419.28
1261.529	2373.17
1264.79	2371.64
1268.051	2472.73
1271.312	2485.6
1274.572	2457.58
1277.832	2444.62
1281.092	2423.3
1284.351	2413.63
1287.61	2397.6
1290.869	2330.11
1294.128	2326.83
1297.386	2376.47
1300.644	2371.23
1303.902	2379.88
1307.159	2244.91
1310.416	2297.11
1313.673	2326.35
1316.93	2325.47
1320.186	2357.29
1323.442	2392.3
1326.697	2389.62
1329.953	2363.04
1333.208	2398.21
1336.463	2371.42
1339.717	2331.35
1342.972	2439.64
1346.226	2411.97
1349.479	2355.2
1352.733	2333.88
1355.986	2340.31
1359.238	2320.63
1362.491	2327.66
1365.743	2325.73
1368.995	2319.03
1372.247	2330.78
1375.498	2351.11
1378.749	2389.85
1382	2340.81
1385.251	2380.21
1388.501	2331.93
1391.751	2331.42
1395	2294.18
1398.25	2318.72
1401.499	2342.58
1404.748	2289.56
1407.996	2265.77
1411.244	2252.47
1414.492	2238.35
1417.74	2218.76
1420.987	2223.78
1424.234	2283.38
1427.481	2245.48
1430.728	2306.03
1433.974	2280.25
1437.22	2279.16
1440.465	2277.35
1443.711	2274.16
1446.956	2300.7
1450.201	2273.11
1453.445	2318.85
1456.689	2305.53
1459.933	2319.12
1463.177	2360.83
1466.42	2332.61
1469.663	2317.06
1472.906	2331.84
1476.148	2381.73
1479.391	2358.27
1482.633	2331.9
1485.874	2358.46
1489.115	2363.15
1492.356	2349.99
1495.597	2327.66
1498.838	2322.93
1502.078	2305.99
1505.318	2275.59
1508.557	2311.17
1511.797	2310.54
1515.036	2355.6
1518.274	2327.41
1521.513	2283.04
1524.751	2297.44
1527.989	2321.57
1531.227	2341.12
1534.464	2354.98
1537.701	2349.6
1540.938	2363.89
1544.174	2312.93
1547.41	2303.04
1550.646	2339.58
1553.882	2393.86
1557.117	2452.08
1560.352	2460
1563.587	2424.2
1566.821	2388.23
1570.055	2404.09
1573.289	2387.55
1576.523	2450.22
1579.756	2463.34
1582.989	2485.31
1586.222	2447.22
1589.454	2476.21
1592.686	2457.24
1595.918	2487.02
1599.15	2482.68
1602.381	2530.97
1605.612	2512.04
1608.843	2609.39
1612.073	2529.14
1615.303	2515.64
1618.533	2515.39
1621.762	2511.89
1624.992	2487.44
1628.221	2491.68
1631.449	2477.45
1634.678	2505.29
1637.906	2474.47
1641.134	2503.47
1644.361	2465.27
1647.588	2452.85
1650.815	2475.93
1654.042	2436.53
1657.269	2466.45
1660.495	2444.38
1663.72	2428.82
1666.946	2398.4
1670.171	2370.37
1673.396	2341.22
1676.621	2322.36
1679.845	2320.51
1683.069	2330.46
1686.293	2361.01
1689.517	2351.56
1692.74	2300.79
1695.963	2321.37
1699.185	2364.58
1702.408	2333.9
1705.63	2364.27
1708.852	2382.41
1712.073	2353.13
1715.294	2363.33
1718.515	2404.8
1721.736	2363.02
1724.956	2340.18
1728.176	2361.99
1731.396	2387.15
1734.616	2369.02
1737.835	2406.58
1741.054	2375.93
1744.272	2367.45
1747.491	2408.28
1750.709	2434.3
1753.927	2377.91
1757.144	2403.69
1760.361	2462.14
1763.578	2438.1
1766.795	2386.13
1770.011	2374.77
1773.227	2400.39
1776.443	2444.38
1779.658	2489.22
1782.874	2424.04
1786.089	2415.56
1789.303	2418.67
1792.518	2415.33
1795.732	2402.9
1798.945	2418.79
1802.159	2458.19
1805.372	2400.21
1808.585	2395.01
1811.797	2393.1
1815.01	2415.57
1818.222	2439.13
1821.434	2397.23
1824.645	2439.64
1827.856	2448.64
1831.067	2479.64
1834.278	2414.26
1837.488	2397.4
1840.698	2523.45
1843.908	2460.7
1847.117	2429.86
1850.326	2349.12
1853.535	2411.8
1856.744	2445.19
1859.952	2366.7
1863.16	2367.29
1866.368	2378.84
1869.575	2494.3
1872.782	2374.54
1875.989	2303.49
1879.196	2353.47
1882.402	2342.56
1885.608	2376.3
1888.814	2313.23
1892.019	2216.56
1895.224	2265.73
1898.429	2232.88
1901.634	2215.81
1904.838	2187.62
1908.042	2243.06
1911.246	2254.14
1914.449	2215.03
1917.652	2194.83
1920.855	2175.98
1924.058	2201.71
1927.26	2245.75
1930.462	2269.31
1933.664	2305.97
1936.865	2247.92
1940.066	2262.45
1943.267	2208.2
1946.467	2220.32
1949.668	2239.24
1952.868	2311.57
1956.067	2299.13
1959.267	2240.82
1962.466	2265.09
1965.665	2244.51
1968.863	2238.39
1972.061	2242.79
1975.259	2238.79
1978.457	2313.87
1981.654	2271.02
1984.852	2276.19
1988.048	2225.81
1991.245	2217.33
1994.441	2304.55
1997.637	2264.82
2000.833	2249.38
2004.028	2287.44
2007.223	2349.6
2010.418	2337.14
2013.613	2287.6
2016.807	2282.01
2020.001	2275.25
2023.194	2300.9
2026.388	2283.19
2029.581	2226.92
2032.774	2290.89
2035.966	2301.53
2039.158	2244.74
2042.35	2264.4
2045.542	2187.18
2048.733	2273.71
2051.924	2267.92
2055.115	2286
2058.306	2248.71
2061.496	2303.83
2064.686	2356.97
2067.875	2263.68
2071.065	2265.96
2074.254	2286.97
2077.442	2240.7
2080.631	2325.68
2083.819	2251.49
2087.007	2244.82
2090.195	2228.75
2093.382	2245.3
2096.569	2229.17
2099.756	2188.64
2102.942	2233.04
2106.128	2249.45
2109.314	2234.09
2112.5	2216.95
2115.685	2187
2118.87	2194.95
2122.055	2257.13
2125.239	2234.86
2128.424	2220.73
2131.608	2285.38
2134.791	2269.74
2137.974	2310.58
2141.157	2299.05
2144.34	2269.44
2147.523	2262.63
2150.705	2288.17
2153.887	2256.16
2157.068	2224.92
2160.25	2207.84
2163.431	2232.72
2166.611	2200.3
2169.792	2220.38
2172.972	2128.81
2176.152	2181.31
2179.331	2210.14
2182.511	2210.02
2185.69	2232.91
2188.868	2236.91
2192.047	2274.31
2195.225	2288.95
2198.403	2237.64
2201.58	2223.26
2204.758	2211.59
2207.935	2287.58
2211.111	2199.78
2214.288	2190.35
2217.464	2224.54
2220.64	2180.59
2223.815	2231.23
2226.991	2161.28
2230.166	2177.39
2233.34	2218.54
2236.515	2233.15
2239.689	2297.79
2242.863	2248.56
2246.036	2301.38
2249.209	2281.16
2252.382	2302.76
2255.555	2312.1
2258.727	2259.36
2261.9	2288.47
2265.071	2278.32
2268.243	2276.26
2271.414	2225.08
2274.585	2205.11
2277.756	2263.96
2280.926	2222.92
2284.096	2253.67
2287.266	2181.51
2290.436	2225.64
2293.605	2247.49
2296.774	2286.62
2299.942	2290.88
2303.111	2307.05
2306.279	2356.29
2309.447	2341.69
2312.614	2314.95
2315.781	2336.04
2318.948	2314.37
2322.115	2351.1
2325.281	2251.23
2328.447	2259.45
2331.613	2227.57
2334.779	2218.75
2337.944	2217.52
2341.109	2218.2
2344.274	2206.89
2347.438	2172.56
2350.602	2197.13
2353.766	2204.58
2356.929	2192.92
2360.092	2232.74
2363.255	2201.12
2366.418	2165.81
2369.58	2238.46
2372.742	2100.35
2375.904	2097.54
2379.066	2082.21
2382.227	2107.86
2385.388	2068.1
2388.548	2017.67
2391.709	2061.92
2394.869	2046.73
2398.029	2108.05
2401.188	2103.92
2404.347	2063.26
2407.506	2149.7
2410.665	2188.09
2413.823	2173.65
2416.981	2152.99
2420.139	2171.06
2423.296	2213.64
2426.453	2184.76
2429.61	2204.85
2432.767	2169.14
2435.923	2210.93
2439.079	2158.62
2442.235	2196.59
2445.391	2134.66
2448.546	2177.71
2451.701	2212.4
2454.855	2204.5
2458.009	2235.39
2461.163	2226.34
2464.317	2200.32
2467.471	2227.53
2470.624	2257.03
2473.777	2247.65
2476.929	2260.92
2480.082	2284.58
2483.234	2257.11
2486.385	2197.18
2489.537	2192.22
2492.688	2179.86
2495.839	2195.82
2498.989	2209.25
2502.14	2196.15
2505.29	2187.91
2508.439	2209.53
2511.589	2149.03
2514.738	2148.48
2517.887	2174.21
2521.035	2249.26
2524.183	2210.93
2527.331	2196.99
2530.479	2189.3
2533.627	2192.69
