Data from N_2_HIR_IL_4N_Splice17_12-10-37-021.txt Node
Date: Sat Mar 14 12:10:37 EDT 2020
User: sa697716
Spectrometer: FLMS03696
Trigger mode: 0
Integration Time (sec): 3.180400E-1
Scans to average: 20
Electric dark correction enabled: true
Nonlinearity correction enabled: true
Boxcar width: 5
XAxis mode: Wavelengths
Number of Pixels in Spectrum: 2048
>>>>>Begin Spectral Data<<<<<
187.83	-315107.27
188.298	2119.55
188.766	1152.96
189.233	1076.99
189.701	1489.81
190.169	2040.1
190.636	769.88
191.104	611.42
191.571	106.38
192.039	-77.35
192.506	-102.16
192.974	391.61
193.441	-817.28
193.908	-293.42
194.375	-53.97
194.842	-12.41
195.31	27.02
195.777	121.24
196.244	345.92
196.711	460.67
197.177	579.79
197.644	816.26
198.111	1435.93
198.578	2011.82
199.045	1630.13
199.511	2682
199.978	3104.62
200.445	2616.92
200.911	2921.25
201.378	3271.46
201.844	2976.26
202.31	5077.86
202.777	5323.79
203.243	2957.69
203.709	2817.08
204.176	3333.27
204.642	2730.41
205.108	2576.3
205.574	2114
206.04	1926.97
206.506	1794.49
206.972	1684.13
207.438	1634
207.903	1867.82
208.369	1635.68
208.835	1636.65
209.301	1732.47
209.766	1773.9
210.232	1742.28
210.697	2160.6
211.163	2654.42
211.628	3981.67
212.094	3341.93
212.559	4056
213.024	2511.63
213.49	3054.46
213.955	2971.88
214.42	2873.86
214.885	2674.77
215.35	2558.24
215.815	2450.88
216.28	2581.83
216.745	2103.56
217.21	2248.6
217.675	2051.04
218.14	2274.54
218.604	2503.21
219.069	2833.21
219.534	2944.3
219.998	3402.35
220.463	4105.77
220.927	5012.21
221.392	4704.55
221.856	4731.13
222.32	5943.87
222.785	7321.1
223.249	9197.14
223.713	10239.18
224.177	10208.16
224.642	13095.28
225.106	16040.28
225.57	17483.33
226.034	12995.61
226.497	19749.19
226.961	17826.59
227.425	20751.36
227.889	22968.78
228.353	22933.75
228.816	47360.23
229.28	45232.84
229.744	38034.2
230.207	23142.7
230.671	22747.79
231.134	37531.5
231.597	43251.3
232.061	43212.8
232.524	42047.01
232.987	28979.87
233.45	26086.55
233.914	23363.58
234.377	23911.18
234.84	21907.18
235.303	25794.35
235.766	28779.49
236.229	29760.81
236.691	18728.67
237.154	21032.01
237.617	15839.73
238.08	16198.19
238.542	18957.51
239.005	13549.13
239.468	13448.83
239.93	12664.1
240.393	11515.74
240.855	10105.59
241.317	10331.62
241.78	12557.5
242.242	12987.53
242.704	14020.05
243.166	12188.8
243.629	11058.94
244.091	12741.8
244.553	13959.05
245.015	14999.28
245.477	19379.53
245.939	28347.68
246.4	30100.97
246.862	29257.7
247.324	27546.29
247.786	30805.15
248.247	40433.85
248.709	41696.81
249.17	31163.49
249.632	29390.63
250.093	34097.64
250.555	29435.57
251.016	17972.47
251.477	17036.18
251.939	18383.32
252.4	19284.75
252.861	22912.98
253.322	21296.34
253.783	25326.31
254.244	32860.78
254.705	25892.28
255.166	22969.5
255.627	22618.84
256.088	31943.08
256.549	33938.73
257.009	29211.28
257.47	35420.88
257.931	28864.98
258.391	21640.52
258.852	22328.71
259.312	23410.49
259.773	28896.27
260.233	24442.21
260.694	20608.49
261.154	23360.69
261.614	18760.85
262.074	16783.86
262.534	17441.8
262.994	16434.57
263.455	21873.97
263.915	18411.45
264.374	17346.59
264.834	18948.05
265.294	20988.38
265.754	21752.47
266.214	20574.63
266.673	19270.84
267.133	24309.85
267.593	24119.69
268.052	29525.99
268.512	25664.96
268.971	30984.16
269.431	33958.11
269.89	30421.44
270.349	45634.22
270.809	50904.97
271.268	45787.17
271.727	102731.93
272.186	66565.6
272.645	49974.86
273.104	36008.16
273.563	52188.34
274.022	41058.73
274.481	34955.23
274.94	26959.32
275.399	20043.4
275.857	23345.97
276.316	31571.52
276.775	28077.68
277.233	27672.91
277.692	25920.25
278.15	29362.83
278.609	30259.21
279.067	28021.84
279.525	26073.11
279.984	33658.48
280.442	40431.38
280.9	39871.96
281.358	26249.39
281.816	24475.74
282.274	23964.09
282.732	24761.57
283.19	24895.4
283.648	21506.06
284.106	22913.43
284.564	23288.61
285.021	21599.82
285.479	16129.08
285.937	14675.13
286.394	12894.01
286.852	13302.25
287.309	13990.08
287.767	13530.85
288.224	12864.27
288.682	14102.7
289.139	15486.45
289.596	14184.63
290.053	14745.16
290.511	18566.08
290.968	22488.39
291.425	30500.72
291.882	25362.34
292.339	22080.81
292.796	21895.27
293.252	20654
293.709	16433.49
294.166	14710.15
294.623	16236.46
295.079	15567.15
295.536	15677.85
295.992	14229.25
296.449	14072.89
296.905	14635.73
297.362	14025.27
297.818	14740.83
298.274	15279.84
298.731	15546.54
299.187	15387.95
299.643	16513.5
300.099	19985.18
300.555	21898.3
301.011	18309.43
301.467	17658.49
301.923	20631.06
302.379	20185.82
302.835	19817.23
303.291	19843.63
303.746	22589.34
304.202	28564.58
304.658	28689.2
305.113	19292.76
305.569	18912.98
306.024	20174.82
306.479	19209.78
306.935	16213.73
307.39	17685.53
307.845	16335.41
308.301	16458.73
308.756	16044.04
309.211	15461.26
309.666	15853.74
310.121	19694.35
310.576	19999.71
311.031	19861.31
311.486	22737.2
311.94	22751.04
312.395	30407.85
312.85	57200.01
313.305	280614.48
313.759	1454060.78
314.214	105421.41
314.668	83683.08
315.123	70327.4
315.577	25234.8
316.032	22431.47
316.486	28109.41
316.94	22200.71
317.394	15474
317.849	12044.75
318.303	11393.69
318.757	10738.61
319.211	11856.12
319.665	10344.88
320.119	10480.7
320.572	15025.69
321.026	14055.02
321.48	11697.57
321.934	12737.66
322.387	12748.1
322.841	13769.54
323.295	12398.37
323.748	14270.96
324.202	14471.69
324.655	17432.99
325.108	24372.31
325.562	17219.3
326.015	20449.96
326.468	15453.91
326.921	17262.32
327.374	16143.59
327.827	16800.01
328.28	19041.33
328.733	12774.34
329.186	11238.35
329.639	10692.98
330.092	9018.03
330.545	8598.73
330.997	8678.79
331.45	9498.58
331.903	11147.72
332.355	19138.78
332.808	18579.41
333.26	15311.6
333.713	16629.2
334.165	16770.97
334.617	22419.91
335.069	18063.23
335.522	32642.64
335.974	36204.94
336.426	33066.41
336.878	22888.94
337.33	11612.78
337.782	11359.68
338.234	14231.32
338.686	17022.22
339.137	20161.93
339.589	18967.81
340.041	14898.32
340.493	12804.41
340.944	13082.79
341.396	14096.37
341.847	11855.38
342.299	14005.34
342.75	17087.72
343.201	14920.07
343.653	17146.22
344.104	21068.34
344.555	16574.94
345.006	25766.23
345.457	19724.73
345.908	15656.33
346.359	14731.95
346.81	12000.72
347.261	12621.24
347.712	12410.52
348.163	13313.76
348.613	13465.97
349.064	12589.69
349.515	11030.47
349.965	11297.14
350.416	13574.15
350.866	14922.96
351.317	16837.33
351.767	27877.53
352.217	35263
352.668	29290.18
353.118	26813.56
353.568	25836.22
354.018	20417.25
354.468	21569.48
354.918	15505.98
355.368	13586.84
355.818	19138.66
356.268	55091.72
356.718	230487.02
357.168	57437.86
357.617	28815.44
358.067	32025.92
358.517	30097.13
358.966	35291.26
359.416	39683.34
359.865	42839.58
360.315	51068.02
360.764	23882.84
361.213	13390.06
361.663	12660.31
362.112	15586.44
362.561	25169.27
363.01	19008.15
363.459	15953.22
363.908	17255.53
364.357	14593.07
364.806	24637.22
365.255	16933.54
365.703	15508.09
366.152	15523.8
366.601	12612.03
367.05	10270.84
367.498	9341.87
367.947	9770.3
368.395	10160.9
368.844	8995.19
369.292	10861.75
369.74	7523.82
370.189	11500.58
370.637	13496.28
371.085	11663.38
371.533	14207.74
371.981	13682
372.429	13080.1
372.877	13599.62
373.325	11414.6
373.773	11643.21
374.221	10348.46
374.669	12850.92
375.116	11126.6
375.564	11207.16
376.012	12527.28
376.459	10336.1
376.907	12322.83
377.354	14889.28
377.801	13910.04
378.249	16017.19
378.696	20531.07
379.143	24892.66
379.591	26537.3
380.038	44989.89
380.485	32635.03
380.932	35360.48
381.379	32544.16
381.826	24066.5
382.273	17123.19
382.72	15012.1
383.166	14695.51
383.613	9560.03
384.06	8644.97
384.506	10033.6
384.953	7416.15
385.4	7486.94
385.846	6573.7
386.292	6410.97
386.739	6310.81
387.185	6277.75
387.631	6307.55
388.078	6140.43
388.524	6597.57
388.97	6124.44
389.416	5135.41
389.862	5469.18
390.308	5210.74
390.754	5308.75
391.2	5795.2
391.645	5940.92
392.091	5720.08
392.537	5550.46
392.983	5574.36
393.428	5510.8
393.874	5934.59
394.319	5988.69
394.765	5721.54
395.21	5908.04
395.655	5577.88
396.101	5250.32
396.546	4767.15
396.991	4818.05
397.436	4502.49
397.881	4377.58
398.326	4159.6
398.771	3954.07
399.216	3476.13
399.661	3143.42
400.106	3149.92
400.551	3244.54
400.995	2918.75
401.44	2900.95
401.885	2740.82
402.329	2780.69
402.774	2675.47
403.218	2603.16
403.663	2518.22
404.107	2594.19
404.551	2622.99
404.995	2415.66
405.44	2332.92
405.884	2382.58
406.328	2311.41
406.772	2315.11
407.216	2115.33
407.66	2054.71
408.104	1959.97
408.547	1841.53
408.991	1790.31
409.435	1727.31
409.879	1705.28
410.322	1688.91
410.766	1634.09
411.209	1561.31
411.653	1502.91
412.096	1477.38
412.54	1478.25
412.983	1470.05
413.426	1477.74
413.869	1479.13
414.312	1455.91
414.756	1409.34
415.199	1345.4
415.642	1307.31
416.085	1311.1
416.527	1301.82
416.97	1322.36
417.413	1259.24
417.856	1248.21
418.298	1236.99
418.741	1229.17
419.184	1225.39
419.626	1276.88
420.069	1278.75
420.511	1289.77
420.953	1263.27
421.396	1255.4
421.838	1227.17
422.28	1255.75
422.722	1263.43
423.164	1282.64
423.606	1263.33
424.048	1262.25
424.49	1200.6
424.932	1194.11
425.374	1176.55
425.816	1198.21
426.258	1218.85
426.699	1231.3
427.141	1214.59
427.582	1234.69
428.024	1229.51
428.465	1222.08
428.907	1196.61
429.348	1180.32
429.789	1181.2
430.231	1158.7
430.672	1174.89
431.113	1148.01
431.554	1131.03
431.995	1103.78
432.436	1064.14
432.877	1037.76
433.318	1020.67
433.759	1014.09
434.2	1015.7
434.64	1005.62
435.081	1008.22
435.522	955.35
435.962	924.3
436.403	904.99
436.843	917.09
437.284	895.56
437.724	873.24
438.164	874.99
438.604	856.32
439.045	824.3
439.485	791.1
439.925	773.51
440.365	753.13
440.805	740.01
441.245	731.94
441.685	704.7
442.125	700.54
442.564	704.46
443.004	689.94
443.444	686.8
443.883	686.69
444.323	680.52
444.762	680.67
445.202	689.7
445.641	701.34
446.081	693.56
446.52	698.32
446.959	690.54
447.398	674.07
447.837	661.23
448.276	649.86
448.716	656.48
449.154	662.75
449.593	647.59
450.032	644.58
450.471	632.32
450.91	633.93
451.349	631.77
451.787	629.49
452.226	638.77
452.664	641.64
453.103	642.09
453.541	639.04
453.98	636.99
454.418	640.14
454.856	629.86
455.295	628.78
455.733	633.09
456.171	636.44
456.609	636.77
457.047	635.81
457.485	643.58
457.923	644.11
458.361	635.05
458.798	636.55
459.236	634.94
459.674	639.54
460.111	642.4
460.549	636.51
460.987	632.58
461.424	629.74
461.862	626.34
462.299	617.46
462.736	616.81
463.173	619.34
463.611	613.66
464.048	612.31
464.485	616.67
464.922	610.67
465.359	607.08
465.796	600.7
466.233	596.98
466.67	591.74
467.106	589.18
467.543	582.74
467.98	575.56
468.416	559.34
468.853	553.53
469.29	536.32
469.726	530.89
470.162	516.44
470.599	508.58
471.035	503.48
471.471	490.18
471.907	486.72
472.344	484.01
472.78	484.73
473.216	490.29
473.652	484.33
474.088	482.19
474.523	480.52
474.959	485.44
475.395	480.34
475.831	476.92
476.266	479.08
476.702	477.63
477.138	471.35
477.573	468.99
478.008	467.05
478.444	470.22
478.879	474.24
479.314	474.57
479.75	473
480.185	474.36
480.62	477.33
481.055	479.54
481.49	482.72
481.925	489.12
482.36	496.95
482.795	509.36
483.229	521.29
483.664	532.11
484.099	534.59
484.534	542.56
484.968	548.14
485.403	549.52
485.837	548.07
486.271	546.86
486.706	547.13
487.14	541
487.574	532.11
488.009	526.75
488.443	520.66
488.877	525.16
489.311	526.05
489.745	531.19
490.179	535.56
490.613	545.54
491.046	548.15
491.48	551.27
491.914	550.86
492.348	554.33
492.781	557.02
493.215	558.73
493.648	558.78
494.082	561.91
494.515	561.98
494.948	567.02
495.382	569.36
495.815	573.15
496.248	577.92
496.681	587.9
497.114	596.01
497.547	602.92
497.98	612.05
498.413	616.08
498.846	623
499.279	628.65
499.711	631.86
500.144	633.13
500.577	640.97
501.009	647.45
501.442	654.14
501.874	655.31
502.306	656.48
502.739	663.63
503.171	675.14
503.603	678.11
504.036	685.8
504.468	689.94
504.9	699.37
505.332	705.01
505.764	709.39
506.196	715.02
506.627	727.01
507.059	738.13
507.491	744.32
507.923	743.32
508.354	755.59
508.786	764.35
509.217	778.68
509.649	790.61
510.08	805.92
510.512	820.45
510.943	833.36
511.374	843.79
511.805	860.87
512.237	877.77
512.668	904.69
513.099	927.95
513.53	951.44
513.961	971.22
514.391	999.23
514.822	1028.34
515.253	1059.59
515.684	1082.75
516.114	1109.04
516.545	1129.89
516.975	1154.03
517.406	1171.51
517.836	1176.12
518.267	1185.3
518.697	1202.8
519.127	1209.8
519.558	1218.57
519.988	1223.37
520.418	1234.98
520.848	1252.18
521.278	1262.35
521.708	1284.46
522.138	1298.46
522.567	1327.99
522.997	1352.21
523.427	1367.79
523.857	1384.27
524.286	1396.36
524.716	1413.7
525.145	1432.15
525.575	1443.95
526.004	1457.82
526.433	1450.47
526.863	1452.8
527.292	1446.82
527.721	1452.61
528.15	1460.09
528.579	1462.54
529.008	1473.77
529.437	1494.97
529.866	1510.11
530.295	1527.27
530.724	1540.83
531.152	1566.27
531.581	1580.49
532.01	1596.94
532.438	1607.45
532.867	1621.33
533.295	1640.48
533.723	1647.99
534.152	1647.88
534.58	1648.22
535.008	1635.46
535.436	1639.01
535.865	1647.2
536.293	1661.93
536.721	1678.07
537.149	1702.15
537.576	1706.46
538.004	1718.45
538.432	1726.6
538.86	1725.18
539.287	1733.22
539.715	1747.03
540.143	1750.58
540.57	1748.93
540.998	1745.97
541.425	1725.67
541.852	1706.42
542.28	1705.06
542.707	1690.37
543.134	1677.33
543.561	1674.78
543.988	1667.78
544.415	1667.76
544.842	1662.54
545.269	1655.84
545.696	1657.08
546.123	1668.73
546.549	1660.03
546.976	1648.76
547.403	1649.34
547.829	1650.69
548.256	1652.42
548.682	1649.95
549.108	1643.52
549.535	1643.09
549.961	1645.13
550.387	1633.07
550.813	1628.16
551.24	1632.69
551.666	1632.74
552.092	1622.72
552.518	1616.42
552.943	1609.84
553.369	1615.05
553.795	1619.54
554.221	1620.04
554.646	1615.73
555.072	1625.49
555.498	1629.73
555.923	1638.06
556.349	1651.69
556.774	1660.09
557.199	1661.01
557.625	1665.37
558.05	1658.93
558.475	1666.56
558.9	1664.07
559.325	1656.08
559.75	1649.39
560.175	1641.04
560.6	1633.2
561.025	1629.52
561.449	1627.87
561.874	1630.78
562.299	1632.92
562.723	1637.74
563.148	1625.89
563.572	1627.21
563.997	1634.03
564.421	1635.45
564.846	1634.03
565.27	1634.25
565.694	1629.61
566.118	1637.99
566.542	1642.16
566.966	1634.72
567.39	1628.87
567.814	1617.38
568.238	1615.58
568.662	1617.35
569.086	1618.04
569.509	1622.59
569.933	1607.47
570.357	1598.78
570.78	1577.94
571.204	1565.47
571.627	1553.71
572.05	1549.57
572.474	1548.29
572.897	1535.02
573.32	1527.15
573.743	1516.4
574.166	1498.52
574.589	1497.65
575.012	1488.91
575.435	1484.83
575.858	1474.12
576.281	1462.47
576.704	1447.21
577.126	1433.74
577.549	1422.1
577.972	1411.37
578.394	1400.8
578.817	1392.66
579.239	1374.19
579.661	1361.31
580.084	1346.94
580.506	1334.24
580.928	1329.63
581.35	1318.95
581.772	1314.07
582.194	1301.38
582.616	1288.83
583.038	1276.14
583.46	1266.49
583.882	1263.01
584.303	1265.5
584.725	1261.6
585.147	1262.43
585.568	1269.6
585.99	1278.47
586.411	1282.97
586.833	1295.27
587.254	1296.33
587.675	1306.62
588.096	1315.61
588.518	1310.29
588.939	1295.4
589.36	1291.36
589.781	1280.74
590.202	1256.88
590.623	1247.62
591.043	1244.04
591.464	1232.24
591.885	1227.41
592.305	1220.45
592.726	1207.6
593.147	1207.17
593.567	1202.52
593.987	1195.8
594.408	1191.49
594.828	1188.72
595.248	1184.44
595.669	1168.55
596.089	1162.23
596.509	1156.29
596.929	1145.02
597.349	1145.24
597.769	1137.04
598.189	1130.98
598.608	1131.37
599.028	1132.46
599.448	1132.76
599.867	1121.26
600.287	1117.13
600.706	1112.53
601.126	1104.78
601.545	1103.98
601.965	1102.57
602.384	1098.19
602.803	1099.88
603.222	1095.71
603.641	1089.61
604.061	1085.45
604.48	1081.35
604.898	1088.36
605.317	1091.87
605.736	1093.21
606.155	1090.02
606.574	1081.56
606.992	1084.57
607.411	1080.26
607.829	1073.65
608.248	1070.72
608.666	1068.5
609.085	1068.48
609.503	1060.21
609.921	1054.76
610.339	1055.5
610.758	1054.32
611.176	1050.57
611.594	1043.24
612.012	1039.76
612.43	1041.42
612.847	1045.36
613.265	1045.84
613.683	1048.18
614.101	1048.74
614.518	1044.09
614.936	1035.24
615.353	1023.62
615.771	1020.76
616.188	1019.7
616.606	1016.45
617.023	1009.85
617.44	997.47
617.857	990.65
618.274	984.79
618.691	979.48
619.108	972.71
619.525	967.75
619.942	972.71
620.359	974.07
620.776	969.64
621.192	966.03
621.609	964.16
622.026	970.58
622.442	975.34
622.859	975.9
623.275	970.68
623.691	974.24
624.108	983.15
624.524	993.66
624.94	993.68
625.356	1001.68
625.772	1012.35
626.188	1021.97
626.604	1023.44
627.02	1020.23
627.436	1019.23
627.852	1024.55
628.268	1034.46
628.683	1026.12
629.099	1019.24
629.514	1015
629.93	1017.64
630.345	1021.11
630.761	1017.2
631.176	1019.19
631.591	1015.1
632.007	1009.69
632.422	1006.52
632.837	996.41
633.252	994.97
633.667	986.79
634.082	979.03
634.497	968.47
634.911	952.13
635.326	948.54
635.741	934.21
636.155	924.14
636.57	923.73
636.984	922.52
637.399	923.24
637.813	920.16
638.228	917.58
638.642	919.68
639.056	910.05
639.47	908.41
639.884	899.81
640.298	892.59
640.712	889.96
641.126	878.78
641.54	870.72
641.954	863.72
642.368	853.59
642.781	846.12
643.195	830.97
643.609	829
644.022	822.31
644.436	817.94
644.849	807.7
645.262	797.79
645.676	798.48
646.089	794.13
646.502	783.08
646.915	777.51
647.328	764.02
647.741	762.9
648.154	753.14
648.567	752.39
648.98	742.11
649.393	742.36
649.805	740.44
650.218	733.46
650.631	720.96
651.043	716.76
651.456	713.38
651.868	713.89
652.28	724.7
652.693	734.91
653.105	738.16
653.517	745.69
653.929	747.13
654.341	751.58
654.753	744.89
655.165	751.3
655.577	750.79
655.989	748.38
656.401	743.49
656.813	719.88
657.224	705.89
657.636	686.59
658.047	675.36
658.459	662.22
658.87	656.75
659.282	648.74
659.693	635.7
660.104	627.06
660.515	618.84
660.926	618.73
661.338	617.89
661.749	615.01
662.159	609.33
662.57	607.41
662.981	604.81
663.392	602.08
663.803	606.38
664.213	606.08
664.624	603.28
665.035	607.64
665.445	600.11
665.855	596.7
666.266	592.42
666.676	592.6
667.086	587.07
667.497	589.05
667.907	585.02
668.317	580.65
668.727	580.88
669.137	583.44
669.547	583.06
669.956	585.78
670.366	588.9
670.776	592.75
671.186	598.4
671.595	602.84
672.005	606.71
672.414	607.81
672.824	608.48
673.233	611.42
673.642	615.24
674.052	619.09
674.461	623.08
674.87	627.85
675.279	626.77
675.688	628.5
676.097	632.13
676.506	630.56
676.915	644.16
677.323	647.36
677.732	647.09
678.141	646.29
678.549	638.54
678.958	637.71
679.366	637.92
679.775	642.31
680.183	651.26
680.592	655.09
681	660.32
681.408	652.83
681.816	658.44
682.224	665.23
682.632	673.07
683.04	696.06
683.448	714.76
683.856	737.71
684.264	765.35
684.671	788.94
685.079	818.19
685.487	850.1
685.894	897.42
686.302	933.94
686.709	963.6
687.116	998.1
687.524	1025.17
687.931	1048.94
688.338	1068.15
688.745	1083.5
689.152	1105.04
689.559	1136.43
689.966	1168.05
690.373	1181.6
690.78	1211.88
691.187	1260.27
691.593	1299.24
692	1333.08
692.407	1384.62
692.813	1448.31
693.22	1500.56
693.626	1553.29
694.032	1598.63
694.439	1665.54
694.845	1721.8
695.251	1791.88
695.657	1856.4
696.063	1948.95
696.469	2022.83
696.875	2092.23
697.281	2136.93
697.687	2188.81
698.093	2237.93
698.498	2318.72
698.904	2381.97
699.31	2473.01
699.715	2544.23
700.12	2640.61
700.526	2671.04
700.931	2747.12
701.337	2809.04
701.742	2853.78
702.147	2947.9
702.552	2988.73
702.957	3055.57
703.362	3089.78
703.767	3131.07
704.172	3179.09
704.577	3145.9
704.981	3204.58
705.386	3233.39
705.791	3238.39
706.195	3323.87
706.6	3345.34
707.004	3435.42
707.408	3418.45
707.813	3458.52
708.217	3458.33
708.621	3473.91
709.025	3584.11
709.43	3597.11
709.834	3670
710.237	3751.27
710.641	3748.31
711.045	3781.51
711.449	3787.82
711.853	3828.33
712.256	3879.48
712.66	3929.85
713.064	4018.45
713.467	4072.49
713.87	4197.89
714.274	4255
714.677	4379.62
715.08	4556.14
715.484	4742.79
715.887	4964.25
716.29	5184.34
716.693	5415.69
717.096	5679.57
717.499	5829.5
717.901	5867.27
718.304	5909.63
718.707	5949.06
719.109	5850.39
719.512	5831.41
719.915	5696.23
720.317	5648.76
720.719	5706.89
721.122	5686.24
721.524	5642.35
721.926	5605.86
722.328	5721.35
722.731	5720.13
723.133	5759.7
723.535	5977.38
723.937	6005.5
724.338	6069.42
724.74	6120.82
725.142	6047.35
725.544	6052.65
725.945	6084.15
726.347	6089.41
726.748	6089.35
727.15	6110.2
727.551	6074.43
727.952	6051.13
728.354	6026.82
728.755	6033.84
729.156	5993.37
729.557	5999.42
729.958	5872.43
730.359	5820.24
730.76	5802.51
731.161	5744.84
731.562	5720.29
731.962	5729.66
732.363	5662.66
732.763	5596.95
733.164	5641.51
733.564	5570.78
733.965	5466.92
734.365	5431
734.766	5467.39
735.166	5428.91
735.566	5369.39
735.966	5344.23
736.366	5341.86
736.766	5276.51
737.166	5314.11
737.566	5271.18
737.966	5246.51
738.365	5291.2
738.765	5286.73
739.165	5204.14
739.564	5176.05
739.964	5225.58
740.363	5176.42
740.763	5173.73
741.162	5159.8
741.561	5125.11
741.96	5075.11
742.36	5096.69
742.759	5104.46
743.158	5148.49
743.557	5164.64
743.955	5212.72
744.354	5164.4
744.753	5228.38
745.152	5181.96
745.55	5247.36
745.949	5239.45
746.348	5239.6
746.746	5260
747.144	5216.58
747.543	5194.29
747.941	5250.78
748.339	5173.34
748.737	5167.85
749.136	5159.57
749.534	5234.45
749.932	5204.2
750.33	5233.81
750.727	5298.42
751.125	5274.84
751.523	5259.34
751.921	5305.55
752.318	5268.98
752.716	5332.97
753.113	5346.15
753.511	5374.56
753.908	5376.73
754.305	5356.99
754.703	5425.16
755.1	5492.66
755.497	5556.13
755.894	5764.1
756.291	5963.36
756.688	6327.17
757.085	6814.03
757.482	7503.71
757.878	8253.62
758.275	8926.89
758.672	9864.05
759.068	10625.75
759.465	11708.15
759.861	13110.4
760.258	14739.15
760.654	15579.97
761.05	15459.02
761.447	14752.78
761.843	13729.91
762.239	12671.95
762.635	12196.07
763.031	11735.8
763.427	11074.41
763.822	10387.11
764.218	9701.72
764.614	8815.52
765.01	8223.52
765.405	7841.5
765.801	7554.45
766.196	7184.17
766.592	6980.43
766.987	6631.15
767.382	6395.11
767.778	6295.06
768.173	6147.73
768.568	6069.33
768.963	5931.76
769.358	5950.32
769.753	5895.71
770.148	5798.21
770.542	5796.95
770.937	5761.3
771.332	5860.68
771.726	5881.27
772.121	5813.1
772.515	5875.04
772.91	5857.34
773.304	5935.75
773.699	5863.82
774.093	5923.34
774.487	5987.58
774.881	6032.86
775.275	6028.05
775.669	5982.61
776.063	6033.22
776.457	6072.86
776.851	5992.2
777.245	5983.74
777.638	6020.96
778.032	6147.44
778.425	6109.5
778.819	6154.08
779.212	6110.34
779.606	6066.26
779.999	6090.98
780.392	6072.76
780.786	6163.71
781.179	6185.84
781.572	6232.23
781.965	6245.39
782.358	6181.38
782.751	6245.02
783.143	6196.95
783.536	6280.45
783.929	6329.6
784.322	6457.72
784.714	6490.84
785.107	6487.25
785.499	6568.92
785.891	6544.83
786.284	6522.72
786.676	6681.26
787.068	6654.82
787.46	6706
787.852	6721.48
788.245	6812.68
788.636	6841.02
789.028	6912.5
789.42	6955.19
789.812	6965.85
790.204	7075.55
790.595	7185.59
790.987	6968.35
791.378	6996.71
791.77	7147.33
792.161	7300.36
792.553	7363.06
792.944	7240.03
793.335	7168.21
793.726	7248.76
794.117	7347.68
794.508	7498.76
794.899	7462.39
795.29	7616.06
795.681	7678.81
796.072	7517.16
796.463	7307.61
796.853	7316.51
797.244	7492.36
797.634	7528.17
798.025	7524.26
798.415	7531.93
798.806	7622.81
799.196	7718.62
799.586	7777.61
799.976	7736.01
800.366	7991.56
800.756	8257.54
801.146	8214.34
801.536	8242.71
801.926	8323.06
802.316	8347.7
802.706	8425.98
803.095	8295.95
803.485	8407.35
803.874	8451.41
804.264	8733.31
804.653	8699.9
805.043	8859.96
805.432	8980.55
805.821	8983
806.21	9004.73
806.599	9141.61
806.988	9192.04
807.377	9307.21
807.766	9448.21
808.155	9755.01
808.544	9468.29
808.933	9484.07
809.321	9461.99
809.71	9786.77
810.098	9961.47
810.487	10472.88
810.875	11000.56
811.264	11031.67
811.652	11346.17
812.04	11509.41
812.428	11694.26
812.816	12537.96
813.204	12998.9
813.592	13606.98
813.98	13979.13
814.368	13869.21
814.756	14396.04
815.144	14304.09
815.531	14807.6
815.919	14735.5
816.306	15069.1
816.694	14726.99
817.081	14789.24
817.469	15167.83
817.856	15168.89
818.243	15463.08
818.63	15902.78
819.017	15434.41
819.404	15506.49
819.791	15925.3
820.178	16603.49
820.565	16868.33
820.952	17887.03
821.339	17340.39
821.725	17541.66
822.112	16727.64
822.498	16686.56
822.885	16827.38
823.271	16724.02
823.657	17181.3
824.044	17192.92
824.43	17270.69
824.816	17240.35
825.202	16769.14
825.588	17891.93
825.974	17911.42
826.36	18474.17
826.746	18511.52
827.132	18911.24
827.517	18882.11
827.903	18020.2
828.289	18065.45
828.674	17210.5
829.06	17103.24
829.445	17533.48
829.83	17919.63
830.216	18449.34
830.601	18855.65
830.986	18405.61
831.371	18249.77
831.756	18866.78
832.141	18392.76
832.526	18385.83
832.911	18696.44
833.295	18571.1
833.68	19087.35
834.065	18408.14
834.449	17402.42
834.834	17323.16
835.218	17318.23
835.603	17690.62
835.987	17456.54
836.371	18380.71
836.755	18262.38
837.139	18709.82
837.524	18982.77
837.908	18794.97
838.291	18857.87
838.675	18930.48
839.059	19157.48
839.443	19148.56
839.827	18894.59
840.21	19429.19
840.594	19256.48
840.977	19490.71
841.361	19465.12
841.744	19871.05
842.127	19698.8
842.511	19963.1
842.894	20630.86
843.277	21053.19
843.66	21657.21
844.043	21755.27
844.426	20865.92
844.809	20537.24
845.191	20572.52
845.574	20070.14
845.957	19673.69
846.339	19561.06
846.722	18993.24
847.104	19058.51
847.487	18873.45
847.869	18877.03
848.252	19189.79
848.634	19559.04
849.016	19848.07
849.398	19982.14
849.78	20914.44
850.162	20919.36
850.544	21379.37
850.926	22068.78
851.307	21982.23
851.689	22282.38
852.071	22785.35
852.452	23136.8
852.834	23106.18
853.215	23541.18
853.597	23708.69
853.978	24025.67
854.359	24520.81
854.741	23418.31
855.122	23309.62
855.503	22996.7
855.884	23142.11
856.265	23074.23
856.646	23206.64
857.026	22776.83
857.407	22706.94
857.788	22883.09
858.169	23204.06
858.549	22272.23
858.93	22967.26
859.31	23018.67
859.69	23232.3
860.071	22789.85
860.451	22555.55
860.831	21734.15
861.211	23006.67
861.591	23606.16
861.971	23583.05
862.351	23794.42
862.731	24221.61
863.111	24510.5
863.491	24882.29
863.87	25857.9
864.25	26239.13
864.629	25798.79
865.009	26368.86
865.388	27310.51
865.768	29261.43
866.147	29129.78
866.526	27507.34
866.905	27833.68
867.284	29387.69
867.663	27910.04
868.042	26742.46
868.421	26658.07
868.8	27087.93
869.179	27351.25
869.558	25760.61
869.936	23747.5
870.315	24175.64
870.693	24774.45
871.072	26716.95
871.45	25447.69
871.828	25755.98
872.207	27071.2
872.585	26669.58
872.963	27397.38
873.341	26444.64
873.719	26122.29
874.097	25803.23
874.475	26300.8
874.853	26896.82
875.23	25777.81
875.608	26847.81
875.986	29044.45
876.363	27784.74
876.741	28613.81
877.118	27890.48
877.495	29272.27
877.873	29773.15
878.25	31320.78
878.627	30022.27
879.004	30456.63
879.381	30301.77
879.758	29520.22
880.135	27481.11
880.512	29063.14
880.889	28294.19
881.265	28015.29
881.642	27774.93
882.019	28241.04
882.395	27681.66
882.772	28789.81
883.148	27527.88
883.524	27415.7
883.901	27242.66
884.277	27659.32
884.653	27487.13
885.029	28275.73
885.405	31310.67
885.781	31079.61
886.157	29798.54
886.532	30167.8
886.908	30158.31
887.284	33546.99
887.659	34647.51
888.035	35730.06
888.411	36640.74
888.786	37117.91
889.161	38401.57
889.537	37704.61
889.912	38908.77
890.287	38866.21
890.662	39861.88
891.037	39141.87
891.412	36499.48
891.787	36137.04
892.162	34879.22
892.536	35711.12
892.911	34365.8
893.286	33654.21
893.66	32283.67
894.035	33105.85
894.409	36066.13
894.784	34608.45
895.158	35188.64
895.532	37280.75
895.906	38303.81
896.281	39194.18
896.655	38558.45
897.029	44065.88
897.402	45904.17
897.776	51112.11
898.15	50931.59
898.524	50376.71
898.898	51070.05
899.271	57170.3
899.645	49495.1
900.018	47513.28
900.392	49302.02
900.765	49710.01
901.138	46009.57
901.511	45285.9
901.884	41583.06
902.258	38362.26
902.631	39640.26
903.003	45621.28
903.376	41146.24
903.749	46135.07
904.122	49413.55
904.495	54422.17
904.867	55091.64
905.24	47813.64
905.612	44535.22
905.985	45536.06
906.357	47606.16
906.729	45434.96
907.102	38800.8
907.474	37327.32
907.846	37563.54
908.218	37049.58
908.59	32718.73
908.962	31649.54
909.334	34090.69
909.705	35794.93
910.077	34758.8
910.449	36182.68
910.82	37175.99
911.192	40916.7
911.563	42506.87
911.935	45483.93
912.306	45546.29
912.677	47028.06
913.048	46548.63
913.419	50488.48
913.79	50751.16
914.161	54396.49
914.532	51964.9
914.903	47739.14
915.274	45299.42
915.645	44641.22
916.015	39285.07
916.386	37449.74
916.756	39868.46
917.127	41118.15
917.497	36724.23
917.868	39983.53
918.238	37996.56
918.608	39072.11
918.978	39872.52
919.348	42226.16
919.718	43609.71
920.088	42019.3
920.458	43666.98
920.828	45940.61
921.198	43540.36
921.567	46535.79
921.937	36054.33
922.306	36387.59
922.676	39257.52
923.045	32762.99
923.415	31118.52
923.784	28347.53
924.153	29126.54
924.522	29104.44
924.891	27356.03
925.26	29299.26
925.629	28593.11
925.998	32830.62
926.367	32049.37
926.736	30504.05
927.104	36349.04
927.473	39115.23
927.842	47235.87
928.21	46796.28
928.578	49167.33
928.947	46481.69
929.315	46781.36
929.683	54882.73
930.051	55392.53
930.42	64334.93
930.788	55027.03
931.156	54584.04
931.523	51139.97
931.891	47250.97
932.259	45400.59
932.627	52614.08
932.994	74508.45
933.362	61592.2
933.729	53506.46
934.097	51187.02
934.464	43308.42
934.831	49981.13
935.199	49293.21
935.566	47789.94
935.933	48412.74
936.3	58637.34
936.667	45696.89
937.034	41185.02
937.401	40719.56
937.767	35110.31
938.134	31251.1
938.501	44123.52
938.867	46999.89
939.234	79475.85
939.6	67845.69
939.967	74822.52
940.333	50090.59
940.699	42593.68
941.065	34209.82
941.431	44884.13
941.798	43322.64
942.163	56923.19
942.529	35510.38
942.895	32720.43
943.261	21162.66
943.627	27750.8
943.992	24288.07
944.358	24310.17
944.723	24416.67
945.089	23804.23
945.454	22000.48
945.82	23475.84
946.185	22544.57
946.55	26124.37
946.915	23430.48
947.28	27485.52
947.645	24209.97
948.01	22351.73
948.375	23332.82
948.74	27966.36
949.104	32581.22
949.469	47059.64
949.834	83217.8
950.198	78923.98
950.562	47341.06
950.927	39421.94
951.291	47411.32
951.655	40415.84
952.02	37984.62
952.384	28703.68
952.748	24990.81
953.112	24365.89
953.476	21192.67
953.839	19606.34
954.203	19407.89
954.567	24263.29
954.931	38233.11
955.294	32743.66
955.658	32910.74
956.021	55904.95
956.385	94761.72
956.748	139830.84
957.111	217061.86
957.474	243555.19
957.837	274068.94
958.2	207209.72
958.563	74490.24
958.926	50393.63
959.289	76471.54
959.652	85466.77
960.015	64182.19
960.377	92059.2
960.74	105084.12
961.102	181400.78
961.465	194694.4
961.827	104084.49
962.189	200004.25
962.552	138703.61
962.914	111109.4
963.276	72017.13
963.638	59467.25
964	58877.76
964.362	39847.36
964.724	38503.56
965.085	27457.95
965.447	22540.15
965.809	25742.84
966.17	25750.54
966.532	27875.29
966.893	25585.14
967.255	23311.83
967.616	27537.05
967.977	22043.91
968.338	24078.77
968.699	19802.7
969.061	19806.33
969.421	19926.85
969.782	22350.73
970.143	18864.86
970.504	19537.78
970.865	22204.65
971.225	22687.38
971.586	22188.97
971.946	31663.7
972.307	27464.93
972.667	35903.39
973.027	36935.46
973.388	44790.82
973.748	30448.24
974.108	33185.5
974.468	44869.85
974.828	34551.62
975.188	26570.51
975.548	24410.92
975.907	20471.33
976.267	22970.05
976.627	19281.07
976.986	20017.7
977.346	19072.77
977.705	18385.19
978.064	16748.42
978.424	13956.53
978.783	14470.35
979.142	16523.44
979.501	15817.37
979.86	16712.24
980.219	16099.68
980.578	20771.43
980.937	23255.29
981.296	20741.35
981.654	21315.46
982.013	33162.2
982.371	42968.48
982.73	40119.01
983.088	45427.16
983.447	48469.01
983.805	69278.62
984.163	145058.2
984.521	161020.7
984.879	236022.26
985.237	-383794.79
985.595	369854.98
985.953	92075.66
986.311	53259.42
986.669	30888.99
987.026	26664.49
987.384	35886.81
987.741	37118.91
988.099	26474.92
988.456	21108.65
988.814	19746.47
989.171	17170.72
989.528	16948.11
989.885	17867.53
990.242	14129.66
990.599	17602.89
990.956	14395.88
991.313	10060.29
991.67	8266.85
992.027	8751.22
992.383	7783.85
992.74	6834.95
993.096	7161.05
993.453	7428.26
993.809	7701.81
994.165	10264.45
994.522	9394.96
994.878	10357.62
995.234	12984.94
995.59	12810.06
995.946	12145.26
996.302	13832.38
996.658	15971.02
997.013	17612.81
997.369	20861.38
997.725	26679.99
998.08	17273.58
998.436	26681.12
998.791	36783.23
999.147	36820.61
999.502	40167.98
999.857	29182.92
1000.212	47512.24
1000.567	67669.41
1000.922	38970.33
1001.277	24752.42
1001.632	18400.34
1001.987	23744.07
1002.342	17023.1
1002.696	13621.49
1003.051	10838.55
1003.406	13135.89
1003.76	13092.05
1004.114	12901
1004.469	10856.46
1004.823	8981.68
1005.177	9702.08
1005.531	7684.1
1005.885	6800.42
1006.239	7670.12
1006.593	9637.77
1006.947	12936.74
1007.301	9687.4
1007.655	10567.41
1008.008	7775.56
1008.362	8720.65
1008.715	12474.81
1009.069	11330.93
1009.422	17017.18
1009.776	34166.16
1010.129	22657.09
1010.482	18839.92
1010.835	15899.02
1011.188	33144.41
1011.541	31215.95
1011.894	-190877.27
1012.247	561330.58
1012.6	38093.82
1012.952	24000.86
1013.305	12349.37
1013.657	8892.69
1014.01	8437.31
1014.362	6983.78
1014.715	6219.61
1015.067	5413.37
1015.419	5272.21
1015.771	4668.26
1016.123	4160.68
1016.475	4291.25
1016.827	4575.08
1017.179	4921.08
1017.531	4985.92
1017.883	5092.22
1018.234	4905.44
1018.586	6163.39
1018.938	6485.06
1019.289	8955.43
1019.64	10271.73
1019.992	9577.28
1020.343	8756.2
1020.694	6897.27
1021.045	6108.84
1021.396	6938.49
1021.747	7441.86
1022.098	8946.85
1022.449	6494.22
1022.8	6048.92
1023.151	4221.42
1023.501	3720.33
1023.852	4031.06
1024.202	4174.43
1024.553	4611.98
1024.903	4501.6
1025.253	3847.34
1025.604	3464.86
1025.954	4289.7
1026.304	5241.46
1026.654	6114.26
1027.004	8964.1
1027.354	14567.24
1027.703	13725.99
1028.053	18054.28
1028.403	26039.55
1028.753	37700.57
1029.102	51238.64
1029.452	262132.3
1029.801	11307.92
1030.15	7288.34
1030.499	6167.82
897.758	2318.86
901.051	2257.87
904.343	2292.65
907.636	2301.17
910.928	2362.45
914.22	2277.23
917.511	2280.57
920.803	2334.44
924.094	2337.5
927.384	2333.6
930.675	2296.37
933.965	2257.92
937.255	2283.19
940.544	2246.51
943.834	2235.18
947.123	2171.68
950.411	2263.82
953.7	2242.79
956.988	2222.25
960.276	2160.89
963.563	2217.78
966.851	2227.7
970.138	2273.56
973.424	2270.03
976.711	2229.99
979.997	2292.96
983.283	2340.53
986.568	2264.88
989.853	2262.48
993.138	2289.94
996.423	2373.9
999.708	2326.87
1002.992	2359.77
1006.275	2256.81
1009.559	2272.08
1012.842	2369.44
1016.125	2318.93
1019.408	2298.5
1022.69	2362.3
1025.972	2392.01
1029.254	2368.81
1032.536	2323.27
1035.817	2338.83
1039.098	2304.58
1042.379	2378.61
1045.659	2403.3
1048.939	2348.42
1052.219	2357.67
1055.498	2358.29
1058.778	2352
1062.057	2331.51
1065.335	2353.79
1068.614	2366.23
1071.892	2360.21
1075.17	2421.68
1078.447	2419.78
1081.724	2412.08
1085.001	2444.79
1088.278	2421.45
1091.554	2427.57
1094.83	2423.53
1098.106	2459.04
1101.382	2491.56
1104.657	2494.79
1107.932	2491.22
1111.206	2465.67
1114.481	2422.83
1117.755	2424.71
1121.029	2410.61
1124.302	2469.88
1127.575	2433.48
1130.848	2428.72
1134.121	2393.06
1137.393	2354.04
1140.665	2413.33
1143.937	2390.53
1147.208	2343.82
1150.48	2394.61
1153.75	2383.03
1157.021	2393.71
1160.291	2369.99
1163.561	2420.79
1166.831	2395.72
1170.101	2423.07
1173.37	2387.51
1176.639	2340.54
1179.907	2390.08
1183.176	2407.6
1186.444	2411.07
1189.711	2436.92
1192.979	2457.93
1196.246	2411.26
1199.513	2424.55
1202.78	2426.86
1206.046	2437.24
1209.312	2463.39
1212.578	2482.95
1215.843	2445.89
1219.108	2413.4
1222.373	2437.06
1225.638	2406.7
1228.902	2398.71
1232.166	2357.8
1235.43	2346.03
1238.693	2366.51
1241.956	2362.58
1245.219	2407.53
1248.482	2392.99
1251.744	2389.89
1255.006	2521.67
1258.268	2472.48
1261.529	2423.75
1264.79	2422.86
1268.051	2526.1
1271.312	2536.33
1274.572	2507.76
1277.832	2495.32
1281.092	2479.76
1284.351	2465.17
1287.61	2447.89
1290.869	2378.77
1294.128	2369.57
1297.386	2427.81
1300.644	2421.51
1303.902	2431.74
1307.159	2298.09
1310.416	2350.7
1313.673	2376
1316.93	2371.73
1320.186	2406.37
1323.442	2443.18
1326.697	2438.25
1329.953	2415.46
1333.208	2448.93
1336.463	2423.42
1339.717	2376.55
1342.972	2488.58
1346.226	2463.52
1349.479	2406.96
1352.733	2380.59
1355.986	2392.68
1359.238	2371.26
1362.491	2376.12
1365.743	2379.83
1368.995	2368.45
1372.247	2382.21
1375.498	2402.65
1378.749	2434.69
1382	2388.11
1385.251	2430.06
1388.501	2384.02
1391.751	2379.77
1395	2346.14
1398.25	2374.28
1401.499	2389.35
1404.748	2336.88
1407.996	2315.41
1411.244	2303.35
1414.492	2287.02
1417.74	2267.4
1420.987	2272.89
1424.234	2333.23
1427.481	2300.57
1430.728	2359.25
1433.974	2331.22
1437.22	2335.17
1440.465	2332.54
1443.711	2322.45
1446.956	2349.42
1450.201	2327.45
1453.445	2371.53
1456.689	2355.13
1459.933	2367.99
1463.177	2404.09
1466.42	2376.25
1469.663	2360.43
1472.906	2368.48
1476.148	2422.75
1479.391	2407.52
1482.633	2379.03
1485.874	2398.99
1489.115	2398.17
1492.356	2391.66
1495.597	2368.38
1498.838	2366.19
1502.078	2346.67
1505.318	2313.52
1508.557	2349.58
1511.797	2343.29
1515.036	2377.63
1518.274	2359.41
1521.513	2319.88
1524.751	2334.26
1527.989	2354.19
1531.227	2371.62
1534.464	2379.07
1537.701	2379.35
1540.938	2393.51
1544.174	2343.51
1547.41	2336.89
1550.646	2376.89
1553.882	2421.2
1557.117	2477.41
1560.352	2486.62
1563.587	2451.06
1566.821	2416.83
1570.055	2435.08
1573.289	2416.53
1576.523	2479.38
1579.756	2490.54
1582.989	2511.11
1586.222	2471.71
1589.454	2505.5
1592.686	2487.43
1595.918	2516.16
1599.15	2507.07
1602.381	2559.15
1605.612	2536.4
1608.843	2630.72
1612.073	2553.18
1615.303	2539.93
1618.533	2536.47
1621.762	2538.12
1624.992	2513.49
1628.221	2510.62
1631.449	2497.64
1634.678	2535.42
1637.906	2502.34
1641.134	2533.05
1644.361	2496.05
1647.588	2481.25
1650.815	2504.19
1654.042	2472.36
1657.269	2497.98
1660.495	2472.03
1663.72	2467.51
1666.946	2433.97
1670.171	2398.01
1673.396	2371.9
1676.621	2354.67
1679.845	2358.54
1683.069	2371.51
1686.293	2402.98
1689.517	2387.48
1692.74	2333.57
1695.963	2357.86
1699.185	2392.14
1702.408	2365.88
1705.63	2398.24
1708.852	2413.04
1712.073	2384.59
1715.294	2387.07
1718.515	2435.54
1721.736	2393.15
1724.956	2376.14
1728.176	2399.29
1731.396	2419.71
1734.616	2403.84
1737.835	2438.03
1741.054	2413.65
1744.272	2403.7
1747.491	2440.63
1750.709	2473.84
1753.927	2408.91
1757.144	2438.8
1760.361	2491.72
1763.578	2471.42
1766.795	2418.99
1770.011	2414.43
1773.227	2442.74
1776.443	2481.6
1779.658	2526.99
1782.874	2466.7
1786.089	2454.99
1789.303	2457.63
1792.518	2455.2
1795.732	2442.18
1798.945	2456.32
1802.159	2498.65
1805.372	2428.94
1808.585	2421.26
1811.797	2421.15
1815.01	2450.44
1818.222	2468.26
1821.434	2435.46
1824.645	2479.91
1827.856	2484.49
1831.067	2518.71
1834.278	2460.65
1837.488	2445.32
1840.698	2575.65
1843.908	2513.63
1847.117	2479.74
1850.326	2393.96
1853.535	2465.62
1856.744	2492.1
1859.952	2412.92
1863.16	2414.57
1866.368	2428.53
1869.575	2538.4
1872.782	2423.81
1875.989	2358.14
1879.196	2413.58
1882.402	2404.65
1885.608	2439.85
1888.814	2368.64
1892.019	2273.05
1895.224	2325.57
1898.429	2293.82
1901.634	2274.93
1904.838	2249.94
1908.042	2300.27
1911.246	2311.26
1914.449	2267.23
1917.652	2250.7
1920.855	2232.87
1924.058	2267.05
1927.26	2308.83
1930.462	2332.56
1933.664	2367.99
1936.865	2309.86
1940.066	2323.25
1943.267	2269.9
1946.467	2279.9
1949.668	2299.28
1952.868	2372.19
1956.067	2357.49
1959.267	2295.16
1962.466	2318.98
1965.665	2303.41
1968.863	2297.79
1972.061	2303.77
1975.259	2299.58
1978.457	2376.86
1981.654	2335.12
1984.852	2340.24
1988.048	2285.95
1991.245	2279.03
1994.441	2364.29
1997.637	2329.98
2000.833	2311.67
2004.028	2348.78
2007.223	2407.98
2010.418	2392.52
2013.613	2348.55
2016.807	2337.46
2020.001	2335.33
2023.194	2362.29
2026.388	2344.54
2029.581	2290.75
2032.774	2349.43
2035.966	2356.71
2039.158	2297.84
2042.35	2321.71
2045.542	2247.73
2048.733	2331.17
2051.924	2334.97
2055.115	2351.93
2058.306	2312.06
2061.496	2366.99
2064.686	2418.52
2067.875	2332.24
2071.065	2339.23
2074.254	2359.46
2077.442	2312.42
2080.631	2398.49
2083.819	2318.67
2087.007	2308.65
2090.195	2290.48
2093.382	2311.13
2096.569	2294.29
2099.756	2255.56
2102.942	2293.57
2106.128	2305.92
2109.314	2297.78
2112.5	2275.57
2115.685	2246.75
2118.87	2256.15
2122.055	2316.23
2125.239	2292.6
2128.424	2276.73
2131.608	2347.59
2134.791	2333.02
2137.974	2376.45
2141.157	2363.43
2144.34	2328.82
2147.523	2326.88
2150.705	2348.33
2153.887	2319.66
2157.068	2285.95
2160.25	2276.48
2163.431	2302.61
2166.611	2265.67
2169.792	2282.85
2172.972	2190.37
2176.152	2248.14
2179.331	2277.3
2182.511	2273.47
2185.69	2297.92
2188.868	2298.51
2192.047	2338.93
2195.225	2344.77
2198.403	2296.54
2201.58	2285.37
2204.758	2274.7
2207.935	2352.63
2211.111	2261.22
2214.288	2248.7
2217.464	2283.05
2220.64	2244.24
2223.815	2296.16
2226.991	2225.21
2230.166	2242.51
2233.34	2280.58
2236.515	2294.83
2239.689	2361.5
2242.863	2309.11
2246.036	2363.98
2249.209	2353.19
2252.382	2378
2255.555	2379.87
2258.727	2325.97
2261.9	2358.4
2265.071	2349.74
2268.243	2346.83
2271.414	2294.68
2274.585	2270.92
2277.756	2331.74
2280.926	2286.38
2284.096	2316.59
2287.266	2241.78
2290.436	2288.58
2293.605	2313.98
2296.774	2347.53
2299.942	2354.6
2303.111	2373.64
2306.279	2422.78
2309.447	2408.42
2312.614	2380.65
2315.781	2404.44
2318.948	2383.02
2322.115	2419.21
2325.281	2318.74
2328.447	2328.96
2331.613	2301.64
2334.779	2290.09
2337.944	2285.5
2341.109	2284.46
2344.274	2273.39
2347.438	2241.93
2350.602	2264.36
2353.766	2274.65
2356.929	2261.98
2360.092	2303.99
2363.255	2267.44
2366.418	2225.66
2369.58	2304.11
2372.742	2156.16
2375.904	2157.26
2379.066	2139.28
2382.227	2167.3
2385.388	2128.4
2388.548	2071.13
2391.709	2118.88
2394.869	2103.09
2398.029	2170.4
2401.188	2169.59
2404.347	2123.99
2407.506	2219.41
2410.665	2256.98
2413.823	2248.08
2416.981	2219.97
2420.139	2244.2
2423.296	2287.65
2426.453	2258.06
2429.61	2280.48
2432.767	2241.48
2435.923	2282.11
2439.079	2236.35
2442.235	2273.34
2445.391	2211.37
2448.546	2248.87
2451.701	2288.88
2454.855	2274.81
2458.009	2309.4
2461.163	2305.08
2464.317	2273.97
2467.471	2301.08
2470.624	2333.43
2473.777	2316.93
2476.929	2334.36
2480.082	2356.37
2483.234	2328.57
2486.385	2272.72
2489.537	2268
2492.688	2250
2495.839	2264.44
2498.989	2278.02
2502.14	2265.56
2505.29	2253.5
2508.439	2276.6
2511.589	2211.02
2514.738	2214.8
2517.887	2239.46
2521.035	2310.23
2524.183	2278.1
2527.331	2264.45
2530.479	2253.34
2533.627	2258.21
