Data from N_2_HIR_WI_4N_Splice17_12-32-40-673.txt Node
Date: Sat Mar 14 12:32:40 EDT 2020
User: sa697716
Spectrometer: FLMS03696
Trigger mode: 0
Integration Time (sec): 3.180400E-1
Scans to average: 20
Electric dark correction enabled: true
Nonlinearity correction enabled: true
Boxcar width: 5
XAxis mode: Wavelengths
Number of Pixels in Spectrum: 2048
>>>>>Begin Spectral Data<<<<<
187.83	-298154.79
188.298	2216.52
188.766	1213.08
189.233	1042.03
189.701	1481.83
190.169	2037.55
190.636	769.06
191.104	632.68
191.571	72.56
192.039	-88.71
192.506	-184.41
192.974	236.54
193.441	-417.29
193.908	-33.16
194.375	-14.99
194.842	12.78
195.31	81.86
195.777	134.26
196.244	333.94
196.711	431.5
197.177	574.93
197.644	818.17
198.111	1437.72
198.578	2054.42
199.045	1656.37
199.511	2723.57
199.978	3200.41
200.445	2721.31
200.911	3030.94
201.378	3413.61
201.844	3080.86
202.31	5328.16
202.777	5566.84
203.243	3118.59
203.709	2980.3
204.176	3565.08
204.642	2938.37
205.108	2759.64
205.574	2273.36
206.04	2087.99
206.506	1949.05
206.972	1849.25
207.438	1772.23
207.903	2005.23
208.369	1759.91
208.835	1743.64
209.301	1838.64
209.766	1886.94
210.232	1867.87
210.697	2309.72
211.163	2855
211.628	4342.09
212.094	3656.48
212.559	4508.18
213.024	2812.32
213.49	3432.4
213.955	3371.73
214.42	3302.63
214.885	3071.31
215.35	2965.38
215.815	2874.33
216.28	3055.94
216.745	2500.45
217.21	2730.39
217.675	2533.67
218.14	2866.87
218.604	3225.87
219.069	3723.02
219.534	3931.64
219.998	4624.84
220.463	5641.27
220.927	6979.52
221.392	6616.22
221.856	6742.05
222.32	8542.72
222.785	10578.9
223.249	13364.95
223.713	14977.51
224.177	15002.27
224.642	19300.43
225.106	23800.37
225.57	26081.03
226.034	19436.98
226.497	29657.25
226.961	26816.21
227.425	31211.72
227.889	34675
228.353	34789.61
228.816	71939.19
229.28	68981.97
229.744	58236.84
230.207	35443.59
230.671	34902.49
231.134	57831.31
231.597	66684.89
232.061	66749.06
232.524	65234.66
232.987	45003.93
233.45	40507.21
233.914	36347.58
234.377	37272.12
234.84	34152.1
235.303	40301.87
235.766	44994.02
236.229	46495.63
236.691	29304.41
237.154	32954.96
237.617	24773.94
238.08	25391.77
238.542	29747.36
239.005	21288.11
239.468	21143.31
239.93	19921.44
240.393	18103.78
240.855	15901.35
241.317	16307.32
241.78	19862.63
242.242	20547.08
242.704	22188.4
243.166	19312.17
243.629	17527.51
244.091	20188.4
244.553	22100.7
245.015	23753.47
245.477	30712.79
245.939	45035.93
246.4	47723.02
246.862	46340.22
247.324	43665.33
247.786	48907.75
248.247	64113.79
248.709	66237.8
249.17	49570.69
249.632	46714.65
250.093	54193.92
250.555	46837.02
251.016	28542.2
251.477	27096.94
251.939	29270.22
252.4	30688.74
252.861	36503.67
253.322	33945.97
253.783	40379.23
254.244	52322.06
254.705	41268.47
255.166	36681.86
255.627	36090.01
256.088	50878.5
256.549	53957.53
257.009	46406.82
257.47	56306.52
257.931	45815.64
258.391	34290.29
258.852	35360.72
259.312	37023.62
259.773	45693.43
260.233	38585.82
260.694	32530.96
261.154	36874.62
261.614	29565.3
262.074	26426.53
262.534	27416.09
262.994	25821.83
263.455	34411.37
263.915	28944.09
264.374	27254.84
264.834	29713.93
265.294	32907.52
265.754	34066.32
266.214	32238.92
266.673	30204.11
267.133	38099.87
267.593	37791.24
268.052	46183.75
268.512	40125.97
268.971	48372.58
269.431	53047.97
269.89	47536.58
270.349	71258.74
270.809	79410.67
271.268	71388.4
271.727	160204.84
272.186	103728.87
272.645	77772.13
273.104	56103.19
273.563	81193.73
274.022	63833.25
274.481	54268.49
274.94	41786.03
275.399	31065.81
275.857	36163.86
276.316	48918.99
276.775	43519.81
277.233	42843.41
277.692	40102.56
278.15	45363.07
278.609	46707.02
279.067	43221.07
279.525	40145.41
279.984	51833.56
280.442	62230.61
280.9	61308.21
281.358	40281.37
281.816	37516.83
282.274	36744.87
282.732	37951.79
283.19	38133.85
283.648	32902.78
284.106	35067.61
284.564	35646.37
285.021	33068.8
285.479	24645.23
285.937	22428.06
286.394	19690.32
286.852	20254.91
287.309	21261.83
287.767	20526.1
288.224	19503.17
288.682	21396.17
289.139	23443.5
289.596	21431.28
290.053	22246.44
290.511	28088.39
290.968	34028.45
291.425	46132.35
291.882	38396.26
292.339	33413.61
292.796	33170.13
293.252	31256.35
293.709	24784.8
294.166	22213.7
294.623	24581.64
295.079	23597.84
295.536	23662.53
295.992	21497.04
296.449	21249.56
296.905	22076.85
297.362	21175.76
297.818	22264.78
298.274	23111.43
298.731	23569.34
299.187	23334.14
299.643	25038.79
300.099	30287.1
300.555	33230.42
301.011	27783.4
301.467	26793.43
301.923	31357.56
302.379	30621.04
302.835	30097.83
303.291	30116.52
303.746	34301.62
304.202	43339.73
304.658	43448.91
305.113	29210.61
305.569	28639.81
306.024	30514.11
306.479	29084.53
306.935	24527.87
307.39	26814.06
307.845	24777
308.301	24963.66
308.756	24309.66
309.211	23427.29
309.666	24055.84
310.121	29847.14
310.576	30292.86
311.031	30080.18
311.486	34425.39
311.94	34379.45
312.395	45938.22
312.85	86320.48
313.305	423982.88
313.759	2194622.67
314.214	158871.69
314.668	125852.63
315.123	105753.25
315.577	37878.16
316.032	33669.18
316.486	42134.34
316.94	33270.5
317.394	23162
317.849	17991.6
318.303	17031.04
318.757	16073.89
319.211	17773.12
319.665	15561.35
320.119	15766.91
320.572	22636.77
321.026	21137.66
321.48	17617.08
321.934	19207.34
322.387	19256.52
322.841	20785.41
323.295	18673.95
323.748	21495.82
324.202	21818.6
324.655	26231.19
325.108	36656.06
325.562	25894.27
326.015	30783.93
326.468	23273.38
326.921	26046.4
327.374	24306.8
327.827	25327.01
328.28	28704.54
328.733	19243.91
329.186	16949.78
329.639	16137.3
330.092	13597.35
330.545	12962.38
330.997	13084.56
331.45	14301.37
331.903	16764.99
332.355	28815.14
332.808	28019.72
333.26	23142.99
333.713	25128.71
334.165	25328.16
334.617	33837.38
335.069	27409.85
335.522	49573.38
335.974	54837.85
336.426	50081.65
336.878	34708.93
337.33	17625.97
337.782	17214.82
338.234	21528.19
338.686	25785.25
339.137	30475.42
339.589	28730.96
340.041	22499.37
340.493	19331.76
340.944	19798.02
341.396	21328.74
341.847	17925.97
342.299	21134.63
342.75	25792.92
343.201	22565.56
343.653	25942.46
344.104	31926.88
344.555	25113.57
345.006	39108.57
345.457	29966.76
345.908	23839.66
346.359	22421.18
346.81	18277.52
347.261	19288.17
347.712	18993.61
348.163	20336.23
348.613	20586.51
349.064	19213.08
349.515	16814.64
349.965	17222.8
350.416	20747.47
350.866	22787.82
351.317	25792.29
351.767	42754.13
352.217	54006.87
352.668	44871.35
353.118	41185.77
353.568	39762.76
354.018	31462.73
354.468	33228.21
354.918	23856.76
355.368	20878.68
355.818	29500.23
356.268	84978.13
356.718	355539.29
357.168	88480.37
357.617	44429.51
358.067	49410.19
358.517	46279.71
358.966	54339.8
359.416	60908.78
359.865	65943.19
360.315	78479.11
360.764	36644.46
361.213	20514.42
361.663	19433.93
362.112	24000.32
362.561	38724.65
363.01	29243.2
363.459	24621
363.908	26615.49
364.357	22603.78
364.806	38154.93
365.255	26275.24
365.703	24068.74
366.152	24133.11
366.601	19600.34
367.05	15930.73
367.498	14503.43
367.947	15165.89
368.395	15806.33
368.844	14023.2
369.292	16915.56
369.74	11700.15
370.189	17953.1
370.637	21077.26
371.085	18194.14
371.533	22134.22
371.981	21351.15
372.429	20369.94
372.877	21258.91
373.325	17816.34
373.773	18187.12
374.221	16237.74
374.669	20166.1
375.116	17451.62
375.564	17652.87
376.012	19802.74
376.459	16385.7
376.907	19612.65
377.354	23757.08
377.801	22177.77
378.249	25530.06
378.696	32688.63
379.143	39671.3
379.591	42436.76
380.038	71834.65
380.485	51951.25
380.932	56197.99
381.379	51535.91
381.826	38086.93
382.273	27164.92
382.72	23811.2
383.166	23265.43
383.613	15118.99
384.06	13667.14
384.506	15847.82
384.953	11699.81
385.4	11816.21
385.846	10373.93
386.292	10165.58
386.739	9988.27
387.185	9902.02
387.631	9941.87
388.078	9682.3
388.524	10401.33
388.97	9636.77
389.416	8076.71
389.862	8606.5
390.308	8192.84
390.754	8354.38
391.2	9084.39
391.645	9321.16
392.091	8939.22
392.537	8667.96
392.983	8715.78
393.428	8594.72
393.874	9248.4
394.319	9293.6
394.765	8855.12
395.21	9131.34
395.655	8586.89
396.101	8063.27
396.546	7294.36
396.991	7391.84
397.436	6875.16
397.881	6656.2
398.326	6327.33
398.771	5997.44
399.216	5265.67
399.661	4747.07
400.106	4740.23
400.551	4861.25
400.995	4362.77
401.44	4321.82
401.885	4066.01
402.329	4116.01
402.774	3954.46
403.218	3823.86
403.663	3686.34
404.107	3790.62
404.551	3822.51
404.995	3506.39
405.44	3386.44
405.884	3447.14
406.328	3344.68
406.772	3341.19
407.216	3047.26
407.66	2952.58
408.104	2815.25
408.547	2644.05
408.991	2559.91
409.435	2468.98
409.879	2439.12
410.322	2407.46
410.766	2326.07
411.209	2212.4
411.653	2122.89
412.096	2083.23
412.54	2085.41
412.983	2070.44
413.426	2072.95
413.869	2076.51
414.312	2035.36
414.756	1960.75
415.199	1872.72
415.642	1818.84
416.085	1820.01
416.527	1809.71
416.97	1837.35
417.413	1741.52
417.856	1723.72
418.298	1708.06
418.741	1692.26
419.184	1689.86
419.626	1761.45
420.069	1761.98
420.511	1770.81
420.953	1732.09
421.396	1716.48
421.838	1672.04
422.28	1710.14
422.722	1720.64
423.164	1745.4
423.606	1719.83
424.048	1718.62
424.49	1633.64
424.932	1627.08
425.374	1606.49
425.816	1636.3
426.258	1666.38
426.699	1687.3
427.141	1661.08
427.582	1686.02
428.024	1677.28
428.465	1667.86
428.907	1626.33
429.348	1608.23
429.789	1607.54
430.231	1573.86
430.672	1593.52
431.113	1557.58
431.554	1536.18
431.995	1501.42
432.436	1445.64
432.877	1412.08
433.318	1386.2
433.759	1380.71
434.2	1379.14
434.64	1365.35
435.081	1368.2
435.522	1298.27
435.962	1250.99
436.403	1222.61
436.843	1237.99
437.284	1210.67
437.724	1180.64
438.164	1185.65
438.604	1160.28
439.045	1115
439.485	1068.62
439.925	1045.99
440.365	1020.94
440.805	1008.91
441.245	996.45
441.685	961.23
442.125	957.68
442.564	966.81
443.004	945.58
443.444	945.27
443.883	948.52
444.323	943.58
444.762	948.09
445.202	961.76
445.641	978.42
446.081	976.01
446.52	985.23
446.959	975.52
447.398	952.54
447.837	943.85
448.276	927.71
448.716	938.17
449.154	948.19
449.593	928.21
450.032	928.07
450.471	914.72
450.91	915.71
451.349	915.09
451.787	915.06
452.226	929.64
452.664	932.05
453.103	935.76
453.541	936.8
453.98	935.5
454.418	941.66
454.856	926.55
455.295	925.67
455.733	934.36
456.171	939.95
456.609	942.07
457.047	942.39
457.485	954.5
457.923	956.46
458.361	943.79
458.798	947.08
459.236	944.92
459.674	952.89
460.111	956.81
460.549	946.61
460.987	944.04
461.424	940.46
461.862	935.69
462.299	922.4
462.736	920.35
463.173	922.71
463.611	912.42
464.048	910.58
464.485	918.72
464.922	911.49
465.359	907.16
465.796	893.56
466.233	886.22
466.67	876.78
467.106	873.69
467.543	866
467.98	856.2
468.416	835.59
468.853	828.32
469.29	802.57
469.726	793.05
470.162	772.29
470.599	762.53
471.035	755.99
471.471	738.55
471.907	734.59
472.344	729.53
472.78	730.72
473.216	739.03
473.652	731.33
474.088	729.32
474.523	726.79
474.959	734.16
475.395	728.67
475.831	724.64
476.266	728.65
476.702	726.68
477.138	719.02
477.573	717.5
478.008	714.17
478.444	718.36
478.879	725.69
479.314	729.09
479.75	728.93
480.185	732.48
480.62	739.4
481.055	743.32
481.49	749.14
481.925	760.27
482.36	773.16
482.795	796.05
483.229	817.16
483.664	834.08
484.099	837.57
484.534	851.6
484.968	860.43
485.403	863.38
485.837	864.54
486.271	863.97
486.706	865.58
487.14	857.23
487.574	844.44
488.009	838.06
488.443	831.88
488.877	841.07
489.311	843.17
489.745	853.59
490.179	861.78
490.613	877.3
491.046	885.01
491.48	891.72
491.914	893.7
492.348	900.05
492.781	905.58
493.215	907.08
493.648	909.13
494.082	916.6
494.515	917.71
494.948	928.18
495.382	935.46
495.815	942.98
496.248	950.85
496.681	968.12
497.114	984.16
497.547	997.56
497.98	1015.27
498.413	1024.25
498.846	1038.25
499.279	1049.9
499.711	1056.88
500.144	1059.53
500.577	1072.4
501.009	1087.31
501.442	1100.54
501.874	1103.22
502.306	1106.57
502.739	1117.77
503.171	1137.27
503.603	1142.62
504.036	1155.74
504.468	1163.97
504.9	1179.48
505.332	1188.39
505.764	1195.1
506.196	1204.52
506.627	1223.59
507.059	1241.53
507.491	1252.98
507.923	1251.06
508.354	1269.03
508.786	1282.51
509.217	1304.42
509.649	1323.39
510.08	1348.87
510.512	1369.28
510.943	1386.88
511.374	1400.2
511.805	1424.69
512.237	1448.59
512.668	1488.15
513.099	1521.3
513.53	1554.4
513.961	1578.68
514.391	1616.54
514.822	1654.14
515.253	1697.57
515.684	1727.28
516.114	1761.68
516.545	1784.96
516.975	1814.63
517.406	1834.18
517.836	1835.3
518.267	1840.3
518.697	1859.01
519.127	1860.8
519.558	1867.09
519.988	1866.35
520.418	1877.03
520.848	1895.98
521.278	1904
521.708	1915.12
522.138	1927.53
522.567	1962.85
522.997	1991.7
523.427	2008.94
523.857	2028.24
524.286	2038.24
524.716	2056.18
525.145	2075.86
525.575	2086.65
526.004	2102.2
526.433	2098.16
526.863	2097.12
527.292	2082.36
527.721	2086.7
528.15	2092.07
528.579	2090.77
529.008	2103.16
529.437	2129.4
529.866	2144.28
530.295	2163.68
530.724	2177.08
531.152	2208.31
531.581	2222.82
532.01	2243.15
532.438	2252.55
532.867	2270.01
533.295	2291.89
533.723	2297.42
534.152	2294.85
534.58	2294.52
535.008	2274.09
535.436	2275.9
535.865	2286.06
536.293	2305.43
536.721	2325.02
537.149	2357.01
537.576	2359.14
538.004	2374.68
538.432	2386.04
538.86	2381.35
539.287	2389.64
539.715	2406.36
540.143	2409.39
540.57	2403.72
540.998	2398.25
541.425	2367.78
541.852	2340.27
542.28	2337.08
542.707	2315.58
543.134	2296.13
543.561	2291.97
543.988	2282.33
544.415	2281.41
544.842	2274.61
545.269	2265.62
545.696	2265.79
546.123	2281.09
546.549	2266.09
546.976	2249.73
547.403	2248.91
547.829	2250.92
548.256	2252.12
548.682	2247.67
549.108	2238.04
549.535	2236.51
549.961	2238.24
550.387	2222.89
550.813	2215.64
551.24	2223.17
551.666	2223.99
552.092	2210.96
552.518	2203.12
552.943	2194.17
553.369	2202.3
553.795	2209.04
554.221	2210.29
554.646	2205.64
555.072	2218.23
555.498	2225.04
555.923	2237.94
556.349	2257.88
556.774	2268.88
557.199	2271
557.625	2280.51
558.05	2272.42
558.475	2286.19
558.9	2286.4
559.325	2277.24
559.75	2270.51
560.175	2265.07
560.6	2257.73
561.025	2254.78
561.449	2258.04
561.874	2265.58
562.299	2271.13
562.723	2282.35
563.148	2270.91
563.572	2275.17
563.997	2288.74
564.421	2296.79
564.846	2297.63
565.27	2303.29
565.694	2301.11
566.118	2317.77
566.542	2328.27
566.966	2322.05
567.39	2318.26
567.814	2304.96
568.238	2307.28
568.662	2316.81
569.086	2321.88
569.509	2333.18
569.933	2315.58
570.357	2308.68
570.78	2283.89
571.204	2269.81
571.627	2258.26
572.05	2257.29
572.474	2259.71
572.897	2246.62
573.32	2238.37
573.743	2227.79
574.166	2205.51
574.589	2207.07
575.012	2199.74
575.435	2199.46
575.858	2188.21
576.281	2176.72
576.704	2159.19
577.126	2143.71
577.549	2129.26
577.972	2116.46
578.394	2103.69
578.817	2095.99
579.239	2073.55
579.661	2056.2
580.084	2036.1
580.506	2020.73
580.928	2016.39
581.35	2001.95
581.772	1998.62
582.194	1982.42
582.616	1967.69
583.038	1950.93
583.46	1938.43
583.882	1934.63
584.303	1941.66
584.725	1937.61
585.147	1937.98
585.568	1951.35
585.99	1967.97
586.411	1976.42
586.833	1996.18
587.254	1998.62
587.675	2017.21
588.096	2035
588.518	2029.53
588.939	2008.73
589.36	2006.61
589.781	1996.95
590.202	1960.36
590.623	1949.16
591.043	1948.87
591.464	1933.97
591.885	1930.33
592.305	1922.97
592.726	1904.67
593.147	1907.44
593.567	1901.03
593.987	1892.06
594.408	1886.59
594.828	1885.88
595.248	1878.93
595.669	1852.95
596.089	1844.5
596.509	1837.03
596.929	1821.16
597.349	1821.49
597.769	1808.81
598.189	1801.11
598.608	1803.73
599.028	1805.91
599.448	1806.58
599.867	1791.39
600.287	1786.72
600.706	1781.34
601.126	1768.05
601.545	1765.9
601.965	1765.3
602.384	1758.38
602.803	1762.44
603.222	1755.51
603.641	1748.17
604.061	1743.35
604.48	1737.38
604.898	1748.5
605.317	1755.65
605.736	1759.49
606.155	1756.33
606.574	1745.08
606.992	1752.82
607.411	1748.22
607.829	1738.25
608.248	1733.75
608.666	1732.23
609.085	1732.31
609.503	1721.98
609.921	1714.03
610.339	1716.18
610.758	1716.35
611.176	1710.25
611.594	1699.07
612.012	1693.9
612.43	1698.98
612.847	1708.13
613.265	1708.56
613.683	1716.01
614.101	1718.48
614.518	1714.15
614.936	1702.05
615.353	1682.75
615.771	1680.59
616.188	1681.4
616.606	1677.93
617.023	1668.83
617.44	1651.09
617.857	1643.13
618.274	1631.81
618.691	1623.81
619.108	1612.54
619.525	1606.22
619.942	1616.27
620.359	1618.56
620.776	1611.42
621.192	1606.03
621.609	1602.52
622.026	1611.24
622.442	1618.65
622.859	1623.3
623.275	1614.74
623.691	1621.71
624.108	1635.78
624.524	1653.17
624.94	1653.53
625.356	1667.39
625.772	1685.23
626.188	1702.47
626.604	1705.33
627.02	1701
627.436	1698.44
627.852	1707.55
628.268	1723.15
628.683	1711.78
629.099	1701.04
629.514	1697.6
629.93	1702.69
630.345	1709.01
630.761	1704.04
631.176	1708.56
631.591	1700.23
632.007	1692.12
632.422	1689.44
632.837	1676.25
633.252	1674.11
633.667	1661.71
634.082	1648.66
634.497	1632.32
634.911	1607.49
635.326	1603.29
635.741	1580.41
636.155	1569.61
636.57	1572.63
636.984	1573.14
637.399	1574.93
637.813	1575.53
638.228	1576.15
638.642	1583.13
639.056	1571.67
639.47	1572.32
639.884	1562.5
640.298	1556.88
640.712	1555
641.126	1540.32
641.54	1530.68
641.954	1526.49
642.368	1512.01
642.781	1502.14
643.195	1479.55
643.609	1481.09
644.022	1475.39
644.436	1472.07
644.849	1458.29
645.262	1445.71
645.676	1449.86
646.089	1446.79
646.502	1427.64
646.915	1421.11
647.328	1399.33
647.741	1398.21
648.154	1381.63
648.567	1377.54
648.98	1360.39
649.393	1360.53
649.805	1355.71
650.218	1344.37
650.631	1321.38
651.043	1311.08
651.456	1302.2
651.868	1303.15
652.28	1325.14
652.693	1342.22
653.105	1350.94
653.517	1363.4
653.929	1360.86
654.341	1366.02
654.753	1348.96
655.165	1356.1
655.577	1352.38
655.989	1346.29
656.401	1334.73
656.813	1286.92
657.224	1258.55
657.636	1219.54
658.047	1193.83
658.459	1170.01
658.87	1157.71
659.282	1142.62
659.693	1113.69
660.104	1094.17
660.515	1075.35
660.926	1072.01
661.338	1067.26
661.749	1058.88
662.159	1045.31
662.57	1038.28
662.981	1030.37
663.392	1019.65
663.803	1023.18
664.213	1019.81
664.624	1014.88
665.035	1017.36
665.445	999.66
665.855	987.81
666.266	976.82
666.676	973.72
667.086	962.96
667.497	960.49
667.907	953.1
668.317	940.11
668.727	934.28
669.137	932.56
669.547	929.29
669.956	931.97
670.366	935.11
670.776	936.25
671.186	940.12
671.595	943.06
672.005	947.11
672.414	944.18
672.824	942.2
673.233	947.76
673.642	950.33
674.052	952.56
674.461	953.65
674.87	958.82
675.279	954.78
675.688	956.62
676.097	957.75
676.506	953.88
676.915	970.75
677.323	973.42
677.732	970.26
678.141	970.25
678.549	957.49
678.958	956.69
679.366	954.15
679.775	960.31
680.183	972.32
680.592	978.7
681	985.96
681.408	978.19
681.816	987.83
682.224	999.48
682.632	1012.01
683.04	1049.96
683.448	1080.65
683.856	1121.05
684.264	1166.54
684.671	1207.52
685.079	1257.72
685.487	1312.47
685.894	1391.27
686.302	1453.56
686.709	1504.76
687.116	1564.46
687.524	1612.98
687.931	1652.92
688.338	1686.18
688.745	1713.27
689.152	1746.15
689.559	1792.49
689.966	1836.79
690.373	1852.72
690.78	1892.28
691.187	1959.87
691.593	2007.9
692	2046.18
692.407	2109.9
692.813	2190.81
693.22	2252.51
693.626	2315.29
694.032	2362.34
694.439	2442.44
694.845	2502.79
695.251	2585.08
695.657	2654.26
696.063	2762.76
696.469	2840.49
696.875	2912.19
697.281	2945.04
697.687	2991.1
698.093	3027.05
698.498	3109.28
698.904	3166.84
699.31	3261.39
699.715	3324.22
700.12	3420.49
700.526	3433.62
700.931	3508.74
701.337	3563.7
701.742	3596.37
702.147	3687.47
702.552	3719.8
702.957	3781.69
703.362	3800.29
703.767	3829.16
704.172	3869.49
704.577	3812.21
704.981	3860.92
705.386	3875.11
705.791	3862.57
706.195	3947.13
706.6	3955.03
707.004	4042.5
707.408	4004.1
707.813	4034.15
708.217	4017.01
708.621	4016.47
709.025	4125.12
709.43	4124.69
709.834	4191.65
710.237	4264.96
710.641	4244.24
711.045	4266.35
711.449	4258.57
711.853	4290.36
712.256	4335.42
712.66	4374.02
713.064	4458.65
713.467	4504.99
713.87	4630.26
714.274	4677.95
714.677	4801.88
715.08	4981.75
715.484	5172.36
715.887	5399.97
716.29	5624.13
716.693	5856.93
717.096	6130.42
717.499	6278.25
717.901	6303.02
718.304	6333.01
718.707	6360.41
719.109	6240.59
719.512	6205.3
719.915	6049.43
720.317	5979.92
720.719	6024.15
721.122	5989.95
721.524	5929.74
721.926	5880.82
722.328	5992.42
722.731	5978.69
723.133	6009.04
723.535	6228.12
723.937	6248.6
724.338	6302.28
724.74	6349.51
725.142	6269
725.544	6264.61
725.945	6292.36
726.347	6284.63
726.748	6272.88
727.15	6285.27
727.551	6237.21
727.952	6202.92
728.354	6168.12
728.755	6169.97
729.156	6120.2
729.557	6111.87
729.958	5975.14
730.359	5912.61
730.76	5892.88
731.161	5826.8
731.562	5798.35
731.962	5804.94
732.363	5731.3
732.763	5661.82
733.164	5700.75
733.564	5625.44
733.965	5519.08
734.365	5480.11
734.766	5510.39
735.166	5466.13
735.566	5405.4
735.966	5377.22
736.366	5369.54
736.766	5301.64
737.166	5337.02
737.566	5290.32
737.966	5260.54
738.365	5303.59
738.765	5295.56
739.165	5211.71
739.564	5180.59
739.964	5228.3
740.363	5176.32
740.763	5173.21
741.162	5161.51
741.561	5123.9
741.96	5073.5
742.36	5098.39
742.759	5104.82
743.158	5148.17
743.557	5165.37
743.955	5212.41
744.354	5163.63
744.753	5228.02
745.152	5183.73
745.55	5247
745.949	5241.06
746.348	5243.08
746.746	5260.67
747.144	5215.68
747.543	5191.11
747.941	5244.86
748.339	5166.62
748.737	5158.61
749.136	5146.87
749.534	5218.91
749.932	5182.63
750.33	5208.06
750.727	5268.11
751.125	5239.58
751.523	5223.67
751.921	5270.8
752.318	5233.63
752.716	5297.31
753.113	5312.75
753.511	5340.6
753.908	5339.59
754.305	5323.09
754.703	5390.39
755.1	5456.41
755.497	5523.9
755.894	5735.63
756.291	5933.74
756.688	6296.55
757.085	6779.14
757.482	7458.55
757.878	8205.18
758.275	8878.94
758.672	9803.95
759.068	10558.72
759.465	11640.52
759.861	13029.01
760.258	14632.93
760.654	15470.33
761.05	15344.04
761.447	14649.06
761.843	13636.11
762.239	12588.15
762.635	12118.85
763.031	11667.24
763.427	11015.31
763.822	10326.27
764.218	9653.54
764.614	8774.46
765.01	8180.97
765.405	7802.58
765.801	7511.93
766.196	7144.73
766.592	6938.6
766.987	6588.22
767.382	6354.16
767.778	6255.3
768.173	6109.91
768.568	6026.31
768.963	5886.37
769.358	5906.86
769.753	5855.54
770.148	5763.82
770.542	5763.07
770.937	5730.14
771.332	5835.22
771.726	5857.96
772.121	5789.14
772.515	5851.76
772.91	5837.18
773.304	5917.26
773.699	5845.45
774.093	5902.39
774.487	5961.36
774.881	6008.77
775.275	6004.42
775.669	5954.28
776.063	5998.98
776.457	6039.84
776.851	5959.43
777.245	5950.06
777.638	5986.82
778.032	6111.6
778.425	6075.21
778.819	6122.55
779.212	6076.86
779.606	6032.33
779.999	6056.81
780.392	6040.05
780.786	6130.73
781.179	6149.8
781.572	6195.86
781.965	6208.75
782.358	6143.8
782.751	6205.03
783.143	6154.73
783.536	6235.07
783.929	6282.23
784.322	6407.14
784.714	6445.48
785.107	6440.43
785.499	6523.05
785.891	6498.69
786.284	6481.88
786.676	6641.7
787.068	6621.35
787.46	6676.95
787.852	6697.88
788.245	6794.13
788.636	6826.09
789.028	6896
789.42	6936.09
789.812	6947.35
790.204	7056.61
790.595	7165.01
790.987	6948.28
791.378	6971.58
791.77	7113.8
792.161	7265.42
792.553	7322.31
792.944	7198.32
793.335	7128.45
793.726	7210.78
794.117	7306.72
794.508	7456.05
794.899	7419.55
795.29	7576.75
795.681	7641.99
796.072	7486.64
796.463	7283.42
796.853	7298.32
797.244	7474.75
797.634	7506.85
798.025	7505.62
798.415	7521.75
798.806	7619.81
799.196	7713.41
799.586	7766.74
799.976	7721.08
800.366	7974.4
800.756	8239.04
801.146	8194
801.536	8225.99
801.926	8305.42
802.316	8335.1
802.706	8412.98
803.095	8278.47
803.485	8395.48
803.874	8447.88
804.264	8739.69
804.653	8711.48
805.043	8868.79
805.432	8984.91
805.821	8988.15
806.21	9014.76
806.599	9148.47
806.988	9199.35
807.377	9316.3
807.766	9459.67
808.155	9765
808.544	9471.98
808.933	9492.91
809.321	9473.7
809.71	9809.36
810.098	9986.87
810.487	10503.26
810.875	11036.45
811.264	11063.48
811.652	11386.33
812.04	11547.53
812.428	11730.96
812.816	12578.46
813.204	13039.57
813.592	13649.71
813.98	14013.84
814.368	13903.11
814.756	14429.76
815.144	14338.99
815.531	14857.94
815.919	14777.49
816.306	15119.56
816.694	14781.21
817.081	14841.95
817.469	15221.39
817.856	15216.07
818.243	15514.68
818.63	15955.11
819.017	15493.61
819.404	15564.66
819.791	15983.33
820.178	16667.28
820.565	16943.62
820.952	17966.32
821.339	17420.16
821.725	17627
822.112	16809.85
822.498	16771.49
822.885	16919.35
823.271	16813.92
823.657	17276.94
824.044	17272.75
824.43	17352.67
824.816	17315.35
825.202	16842.35
825.588	17977.81
825.974	18001.41
826.36	18583.03
826.746	18613.54
827.132	19004.77
827.517	18975.67
827.903	18100.48
828.289	18153.66
828.674	17289.04
829.06	17176.27
829.445	17622.89
829.83	18010.7
830.216	18529.17
830.601	18922.46
830.986	18479.4
831.371	18330.53
831.756	18943.83
832.141	18476.23
832.526	18466.95
832.911	18784.43
833.295	18648.17
833.68	19162.78
834.065	18475.4
834.449	17475.57
834.834	17393.42
835.218	17390.18
835.603	17761.44
835.987	17535.68
836.371	18451.57
836.755	18334.11
837.139	18771.17
837.524	19042.45
837.908	18834.65
838.291	18905.88
838.675	18977.32
839.059	19204.88
839.443	19188.99
839.827	18936.06
840.21	19460.51
840.594	19300.25
840.977	19528.43
841.361	19518.45
841.744	19938.24
842.127	19775.94
842.511	20049.1
842.894	20706.72
843.277	21133.34
843.66	21730.82
844.043	21823.44
844.426	20935.46
844.809	20586.64
845.191	20624.86
845.574	20108.11
845.957	19699.95
846.339	19581.2
846.722	18999.57
847.104	19075.92
847.487	18876.73
847.869	18891.52
848.252	19195.92
848.634	19558.54
849.016	19854.4
849.398	19987.96
849.78	20925.33
850.162	20937.2
850.544	21389.47
850.926	22087.46
851.307	21987.02
851.689	22307.16
852.071	22812.1
852.452	23173.14
852.834	23143.52
853.215	23579.49
853.597	23764.43
853.978	24095.69
854.359	24590.8
854.741	23501.71
855.122	23382.27
855.503	23062.41
855.884	23214.02
856.265	23147.06
856.646	23282.68
857.026	22856.11
857.407	22779.52
857.788	22947.36
858.169	23268.43
858.549	22335.2
858.93	23014.18
859.31	23071.66
859.69	23310.37
860.071	22858.08
860.451	22615.54
860.831	21790.48
861.211	23075.92
861.591	23687.06
861.971	23650.63
862.351	23853.56
862.731	24277.12
863.111	24574.46
863.491	24947.36
863.87	25913.86
864.25	26300.46
864.629	25853.92
865.009	26419.47
865.388	27349.66
865.768	29309.62
866.147	29202.9
866.526	27579.58
866.905	27912.43
867.284	29482.11
867.663	27996.07
868.042	26842.22
868.421	26761.59
868.8	27213.15
869.179	27474.77
869.558	25875.99
869.936	23851.8
870.315	24279.35
870.693	24883.93
871.072	26840.4
871.45	25565.97
871.828	25872.18
872.207	27181.93
872.585	26763.28
872.963	27480.93
873.341	26547.86
873.719	26231.16
874.097	25914.77
874.475	26403.55
874.853	27004.11
875.23	25871.99
875.608	26949.91
875.986	29159.52
876.363	27892.87
876.741	28746.68
877.118	28035.68
877.495	29411.81
877.873	29901.93
878.25	31471.25
878.627	30176.07
879.004	30590.94
879.381	30444.29
879.758	29640.89
880.135	27598.47
880.512	29189.37
880.889	28407.59
881.265	28096.02
881.642	27861.32
882.019	28328.29
882.395	27746.45
882.772	28853.49
883.148	27596.55
883.524	27488.8
883.901	27335.69
884.277	27742.36
884.653	27556.14
885.029	28330.43
885.405	31373.48
885.781	31115.81
886.157	29834.11
886.532	30181.03
886.908	30154.29
887.284	33547.85
887.659	34649.91
888.035	35720.57
888.411	36640.78
888.786	37137.43
889.161	38448.93
889.537	37756.83
889.912	38978.1
890.287	38943.29
890.662	39971.4
891.037	39271.55
891.412	36629.15
891.787	36268.94
892.162	35006.3
892.536	35828.71
892.911	34470.33
893.286	33744.84
893.66	32385.03
894.035	33208.97
894.409	36174.93
894.784	34720.21
895.158	35300.06
895.532	37379.96
895.906	38388.07
896.281	39287.21
896.655	38664.1
897.029	44183.46
897.402	45999.99
897.776	51201.82
898.15	51028.6
898.524	50448.66
898.898	51121.65
899.271	57208.75
899.645	49552.44
900.018	47590.55
900.392	49345.29
900.765	49736.59
901.138	46037.72
901.511	45368.35
901.884	41656.17
902.258	38412.37
902.631	39710.86
903.003	45703.14
903.376	41254.03
903.749	46251.29
904.122	49531.85
904.495	54558.5
904.867	55258.69
905.24	47993.51
905.612	44667.71
905.985	45695.33
906.357	47798.69
906.729	45622.13
907.102	38961.41
907.474	37448.69
907.846	37687.09
908.218	37170.38
908.59	32843.8
908.962	31756.84
909.334	34180.27
909.705	35899.06
910.077	34830.25
910.449	36243.78
910.82	37249.02
911.192	40985.72
911.563	42597.33
911.935	45570.28
912.306	45626.62
912.677	47098.39
913.048	46575.22
913.419	50490.41
913.79	50764.93
914.161	54406.85
914.532	51989.94
914.903	47757.88
915.274	45354.03
915.645	44686.56
916.015	39302.91
916.386	37452.59
916.756	39856.45
917.127	41149.6
917.497	36786.37
917.868	40057.89
918.238	38087.96
918.608	39179.22
918.978	39990.51
919.348	42364.39
919.718	43760.37
920.088	42173.45
920.458	43825.92
920.828	46095.55
921.198	43679.1
921.567	46655.12
921.937	36094.72
922.306	36434.63
922.676	39276.32
923.045	32762.22
923.415	31098.38
923.784	28306.39
924.153	29109.88
924.522	29086.46
924.891	27356.69
925.26	29319.53
925.629	28637.61
925.998	32933.6
926.367	32132.57
926.736	30611.23
927.104	36463.08
927.473	39198.69
927.842	47376.17
928.21	46919.54
928.578	49302.43
928.947	46636.56
929.315	46899.24
929.683	54972.9
930.051	55397.38
930.42	64367.78
930.788	55005.33
931.156	54565.19
931.523	51146.58
931.891	47226.62
932.259	45339.96
932.627	52528.38
932.994	74321.39
933.362	61415.76
933.729	53334.4
934.097	51067.86
934.464	43199.86
934.831	49860.84
935.199	49150.14
935.566	47671.41
935.933	48414.42
936.3	58655.28
936.667	45682.28
937.034	41192.02
937.401	40745.6
937.767	35147.49
938.134	31273.17
938.501	44116.12
938.867	47056
939.234	79629.79
939.6	68020.29
939.967	74782.5
940.333	50014.3
940.699	42574.73
941.065	34169.34
941.431	44831.78
941.798	43246.73
942.163	56834.13
942.529	35512.68
942.895	32675.03
943.261	21140.17
943.627	27700.86
943.992	24246.96
944.358	24326.12
944.723	24430.07
945.089	23820.92
945.454	21998.97
945.82	23461.79
946.185	22560.65
946.55	26141
946.915	23426.15
947.28	27459.54
947.645	24196.22
948.01	22336.19
948.375	23271.39
948.74	27924.48
949.104	32577.43
949.469	47070.49
949.834	83300.38
950.198	78945.18
950.562	47267.67
950.927	39365.72
951.291	47378.78
951.655	40312.73
952.02	37870.54
952.384	28642.78
952.748	24887.08
953.112	24265.42
953.476	21097.15
953.839	19492.58
954.203	19291.53
954.567	24144.77
954.931	38035.81
955.294	32554.18
955.658	32724.82
956.021	55589.38
956.385	94284.31
956.748	139161.41
957.111	215907.37
957.474	242314.83
957.837	272918.97
958.2	206548.93
958.563	74355.44
958.926	50254.46
959.289	76243.8
959.652	85188.5
960.015	63953.92
960.377	91772.06
960.74	104774.38
961.102	180745.59
961.465	194074.08
961.827	103922.25
962.189	199385.27
962.552	138146.67
962.914	110794.97
963.276	71872.07
963.638	59461.15
964	58886.66
964.362	39776.53
964.724	38431.67
965.085	27417.17
965.447	22476.39
965.809	25634.98
966.17	25643.61
966.532	27731.47
966.893	25446.95
967.255	23164
967.616	27321.89
967.977	21877.04
968.338	23895.7
968.699	19641.82
969.061	19619.72
969.421	19743.2
969.782	22134.79
970.143	18696.11
970.504	19374.75
970.865	22014.15
971.225	22488.74
971.586	22003.51
971.946	31365.19
972.307	27227.84
972.667	35592.32
973.027	36641.3
973.388	44447.97
973.748	30217.31
974.108	32867.76
974.468	44403.46
974.828	34240.22
975.188	26318.56
975.548	24155.13
975.907	20248.87
976.267	22702.06
976.627	19075.41
976.986	19789.67
977.346	18849.33
977.705	18130.63
978.064	16526.74
978.424	13745.49
978.783	14198.8
979.142	16214.47
979.501	15506.6
979.86	16418.7
980.219	15809.74
980.578	20391.43
980.937	22830.31
981.296	20356.26
981.654	20940.86
982.013	32604.36
982.371	42346.68
982.73	39584.32
983.088	44861
983.447	47976
983.805	68509.77
984.163	143191.33
984.521	158803.86
984.879	232664.82
985.237	-378339.63
985.595	364787.12
985.953	90675.2
986.311	52357.67
986.669	30392.47
987.026	26245.39
987.384	35299
987.741	36521.78
988.099	26091.93
988.456	20775.32
988.814	19437.04
989.171	16889.12
989.528	16668.87
989.885	17564.87
990.242	13921.16
990.599	17354.66
990.956	14174.41
991.313	9908.08
991.67	8127.58
992.027	8607.21
992.383	7656.37
992.74	6715.79
993.096	7055.02
993.453	7317.27
993.809	7596.03
994.165	10103.13
994.522	9254.04
994.878	10206.35
995.234	12811.74
995.59	12645.15
995.946	11992.89
996.302	13678.56
996.658	15837.95
997.013	17429.25
997.369	20681.45
997.725	26484.26
998.08	17175.17
998.436	26444.92
998.791	36502.17
999.147	36349.86
999.502	39610.13
999.857	28774.77
1000.212	46913.62
1000.567	66688.71
1000.922	38459.57
1001.277	24404.14
1001.632	18123.03
1001.987	23339.01
1002.342	16742.8
1002.696	13385.25
1003.051	10704.07
1003.406	12974.34
1003.76	12933.56
1004.114	12742.28
1004.469	10750.08
1004.823	8893.93
1005.177	9605.72
1005.531	7604.63
1005.885	6738.17
1006.239	7615.72
1006.593	9535.21
1006.947	12747.78
1007.301	9558.25
1007.655	10402.59
1008.008	7646.45
1008.362	8566.11
1008.715	12243.59
1009.069	11130.14
1009.422	16752.05
1009.776	33707.15
1010.129	22330.17
1010.482	18677.85
1010.835	15800.72
1011.188	32843.52
1011.541	30933.16
1011.894	-188959.66
1012.247	555535.17
1012.6	37745.36
1012.952	23823.64
1013.305	12280.95
1013.657	8833.06
1014.01	8384.14
1014.362	6930.64
1014.715	6153.74
1015.067	5367.02
1015.419	5255.26
1015.771	4656.95
1016.123	4143.53
1016.475	4258.65
1016.827	4525.57
1017.179	4856.97
1017.531	4898.3
1017.883	5004.5
1018.234	4825.47
1018.586	6111.99
1018.938	6468.21
1019.289	8919.02
1019.64	10238.87
1019.992	9572.81
1020.343	8783.15
1020.694	6935.38
1021.045	6118.81
1021.396	6987.85
1021.747	7494.59
1022.098	8985.06
1022.449	6503.46
1022.8	6027.09
1023.151	4196.51
1023.501	3699.95
1023.852	4001.74
1024.202	4146.51
1024.553	4555.26
1024.903	4460.77
1025.253	3810.39
1025.604	3436.74
1025.954	4282.12
1026.304	5227.56
1026.654	6106.03
1027.004	8957.2
1027.354	14514.26
1027.703	13777.75
1028.053	18160.26
1028.403	26416.03
1028.753	38313.98
1029.102	52085.91
1029.452	266163.47
1029.801	11405.9
1030.15	7346.77
1030.499	6226.71
897.758	2742.78
901.051	2704.68
904.343	2742.32
907.636	2742.27
910.928	2808.47
914.22	2715.14
917.511	2723.92
920.803	2791.87
924.094	2812.16
927.384	2788.52
930.675	2752.24
933.965	2704.66
937.255	2715.33
940.544	2681.9
943.834	2611.14
947.123	2555.72
950.411	2653.76
953.7	2625.3
956.988	2589.69
960.276	2534.54
963.563	2619.3
966.851	2613.22
970.138	2675.09
973.424	2661.87
976.711	2611.52
979.997	2758.18
983.283	2790.72
986.568	2692.68
989.853	2714.87
993.138	2742.44
996.423	2821.42
999.708	2756.37
1002.992	2830.67
1006.275	2651.56
1009.559	2703.03
1012.842	2820.77
1016.125	2751.82
1019.408	2732.97
1022.69	2824.61
1025.972	2839.16
1029.254	2813.27
1032.536	2741.17
1035.817	2773.02
1039.098	2704.63
1042.379	2868.35
1045.659	2862.62
1048.939	2791.92
1052.219	2816.32
1055.498	2828.61
1058.778	2809.63
1062.057	2797.82
1065.335	2819.25
1068.614	2838.1
1071.892	2817.72
1075.17	2902.11
1078.447	2889.5
1081.724	2877.02
1085.001	2916.49
1088.278	2886.46
1091.554	2903.69
1094.83	2902.53
1098.106	2928.34
1101.382	2976
1104.657	2979.57
1107.932	2971.19
1111.206	2934.33
1114.481	2888.55
1117.755	2897.56
1121.029	2875.5
1124.302	2928.95
1127.575	2874.65
1130.848	2861.23
1134.121	2818.44
1137.393	2766.39
1140.665	2833.82
1143.937	2810.08
1147.208	2770.4
1150.48	2808.23
1153.75	2790.87
1157.021	2828.44
1160.291	2796.38
1163.561	2841.21
1166.831	2833.19
1170.101	2868.16
1173.37	2844.26
1176.639	2787.28
1179.907	2850.89
1183.176	2855.24
1186.444	2862.33
1189.711	2892.45
1192.979	2901.05
1196.246	2860.86
1199.513	2877.89
1202.78	2875.47
1206.046	2884.57
1209.312	2908.6
1212.578	2935.07
1215.843	2881.88
1219.108	2860.2
1222.373	2883.95
1225.638	2846.25
1228.902	2827.39
1232.166	2789.16
1235.43	2772.98
1238.693	2795.78
1241.956	2793.68
1245.219	2832.87
1248.482	2824.45
1251.744	2819.56
1255.006	2972.63
1258.268	2926.84
1261.529	2866.82
1264.79	2877.39
1268.051	2985.95
1271.312	3002.54
1274.572	2961.97
1277.832	2950.71
1281.092	2944.76
1284.351	2915.36
1287.61	2893.66
1290.869	2801.45
1294.128	2775.81
1297.386	2874.89
1300.644	2860.22
1303.902	2871.89
1307.159	2726.3
1310.416	2785.16
1313.673	2809.89
1316.93	2791.85
1320.186	2842.72
1323.442	2886.18
1326.697	2875.92
1329.953	2870.3
1333.208	2887.69
1336.463	2872
1339.717	2806.57
1342.972	2948.75
1346.226	2926.17
1349.479	2854.93
1352.733	2822.84
1355.986	2850.08
1359.238	2824.79
1362.491	2822.59
1365.743	2828.86
1368.995	2824.05
1372.247	2836.78
1375.498	2864.35
1378.749	2873.39
1382	2829.53
1385.251	2887.31
1388.501	2848.03
1391.751	2826.26
1395	2799.69
1398.25	2836.86
1401.499	2838.96
1404.748	2762.36
1407.996	2754.93
1411.244	2736.77
1414.492	2717.53
1417.74	2691.87
1420.987	2701.13
1424.234	2760.59
1427.481	2741.23
1430.728	2802.01
1433.974	2774.36
1437.22	2793.44
1440.465	2797.73
1443.711	2753.05
1446.956	2790.64
1450.201	2781.97
1453.445	2827.2
1456.689	2804.45
1459.933	2817.28
1463.177	2852.87
1466.42	2823.49
1469.663	2801.82
1472.906	2790.29
1476.148	2875.73
1479.391	2827.86
1482.633	2800.68
1485.874	2808.4
1489.115	2792.74
1492.356	2805.76
1495.597	2778.84
1498.838	2779.54
1502.078	2743.76
1505.318	2691.62
1508.557	2737.39
1511.797	2705.13
1515.036	2787.02
1518.274	2775.85
1521.513	2749.6
1524.751	2773.67
1527.989	2781.96
1531.227	2793.62
1534.464	2786.49
1537.701	2813.01
1540.938	2833.14
1544.174	2785.89
1547.41	2784.56
1550.646	2825.81
1553.882	2862.78
1557.117	2916.64
1560.352	2935.69
1563.587	2888.73
1566.821	2848.5
1570.055	2885.92
1573.289	2855.72
1576.523	2934.73
1579.756	2941.32
1582.989	2961.69
1586.222	2921.88
1589.454	2957.4
1592.686	2930.92
1595.918	2953.84
1599.15	2943.96
1602.381	3025.39
1605.612	2975.13
1608.843	3074.47
1612.073	2986.46
1615.303	2965.73
1618.533	2955.61
1621.762	2959.23
1624.992	2948.3
1628.221	2932.88
1631.449	2917.17
1634.678	2982.2
1637.906	2930.32
1641.134	2974.61
1644.361	2925.54
1647.588	2913.38
1650.815	2933.24
1654.042	2913.86
1657.269	2944.82
1660.495	2895.4
1663.72	2906.65
1666.946	2869.99
1670.171	2803.57
1673.396	2782.09
1676.621	2772.14
1679.845	2794.65
1683.069	2817.72
1686.293	2862.85
1689.517	2830.28
1692.74	2754.54
1695.963	2786.21
1699.185	2811.15
1702.408	2786.41
1705.63	2830.7
1708.852	2841.45
1712.073	2813.57
1715.294	2796.39
1718.515	2859.84
1721.736	2804.08
1724.956	2797.64
1728.176	2824.95
1731.396	2848.66
1734.616	2836.23
1737.835	2860.54
1741.054	2845.17
1744.272	2840.42
1747.491	2866.65
1750.709	2927.16
1753.927	2823.63
1757.144	2870.6
1760.361	2913.16
1763.578	2910.11
1766.795	2846.08
1770.011	2856.53
1773.227	2902.43
1776.443	2932.46
1779.658	2974.36
1782.874	2918.13
1786.089	2894.86
1789.303	2897.43
1792.518	2906.82
1795.732	2892.63
1798.945	2897.69
1802.159	2953.17
1805.372	2847.27
1808.585	2829.22
1811.797	2831.59
1815.01	2885.16
1818.222	2884.89
1821.434	2844.06
1824.645	2905.58
1827.856	2884.16
1831.067	2920.87
1834.278	2882.24
1837.488	2863.51
1840.698	3020.25
1843.908	2940.37
1847.117	2903.82
1850.326	2779.2
1853.535	2890.01
1856.744	2928.12
1859.952	2839.79
1863.16	2841.98
1866.368	2863.99
1869.575	2968.78
1872.782	2852.59
1875.989	2789.64
1879.196	2879.94
1882.402	2871.4
1885.608	2914.67
1888.814	2811.57
1892.019	2702.8
1895.224	2756.48
1898.429	2738.77
1901.634	2716.84
1904.838	2694.63
1908.042	2742.58
1911.246	2750.96
1914.449	2677.33
1917.652	2676.65
1920.855	2659.35
1924.058	2712.28
1927.26	2747.65
1930.462	2778.32
1933.664	2803.36
1936.865	2738.68
1940.066	2743.46
1943.267	2692.29
1946.467	2709.18
1949.668	2736.04
1952.868	2804.41
1956.067	2779.13
1959.267	2711.12
1962.466	2739.13
1965.665	2722.71
1968.863	2716.82
1972.061	2735.42
1975.259	2734.63
1978.457	2813.71
1981.654	2770.19
1984.852	2771.93
1988.048	2698.6
1991.245	2706
1994.441	2790.48
1997.637	2780.11
2000.833	2765.13
2004.028	2805.5
2007.223	2860.9
2010.418	2834.53
2013.613	2797.71
2016.807	2763.28
2020.001	2773.65
2023.194	2821.3
2026.388	2794.61
2029.581	2737.93
2032.774	2786.45
2035.966	2787.04
2039.158	2717.24
2042.35	2743.99
2045.542	2675.06
2048.733	2779.3
2051.924	2807.28
2055.115	2837.91
2058.306	2777.51
2061.496	2840.03
2064.686	2907.78
2067.875	2819.94
2071.065	2840.83
2074.254	2869.44
2077.442	2817.34
2080.631	2909.59
2083.819	2792.47
2087.007	2772.7
2090.195	2741
2093.382	2779.25
2096.569	2756.73
2099.756	2707.53
2102.942	2730.19
2106.128	2727.76
2109.314	2724.6
2112.5	2686.33
2115.685	2661.99
2118.87	2673.16
2122.055	2739.03
2125.239	2703.05
2128.424	2675.7
2131.608	2784.3
2134.791	2768.47
2137.974	2830.76
2141.157	2816.74
2144.34	2758.86
2147.523	2781.35
2150.705	2793.13
2153.887	2776.25
2157.068	2722.43
2160.25	2725.99
2163.431	2767.47
2166.611	2710.86
2169.792	2724.19
2172.972	2612.55
2176.152	2698.37
2179.331	2735.75
2182.511	2712.81
2185.69	2744.37
2188.868	2731.67
2192.047	2792.78
2195.225	2777.89
2198.403	2728.03
2201.58	2720.81
2204.758	2718.75
2207.935	2804.25
2211.111	2685.26
2214.288	2668
2217.464	2706.36
2220.64	2683.78
2223.815	2743.61
2226.991	2658.4
2230.166	2679.72
2233.34	2707.76
2236.515	2734.96
2239.689	2809.92
2242.863	2752.53
2246.036	2811.54
2249.209	2815.35
2252.382	2854.53
2255.555	2834.04
2258.727	2769.56
2261.9	2813.56
2265.071	2805.45
2268.243	2806.57
2271.414	2736.2
2274.585	2693.24
2277.756	2763.08
2280.926	2719.26
2284.096	2761.33
2287.266	2662.81
2290.436	2719.92
2293.605	2749.64
2296.774	2778.16
2299.942	2804.1
2303.111	2818.08
2306.279	2866.57
2309.447	2857.53
2312.614	2830.95
2315.781	2847.86
2318.948	2819.55
2322.115	2858.96
2325.281	2759.98
2328.447	2781.74
2331.613	2758.98
2334.779	2727.41
2337.944	2735.7
2341.109	2730.53
2344.274	2707.89
2347.438	2675.63
2350.602	2705
2353.766	2717.97
2356.929	2703.26
2360.092	2747.94
2363.255	2697.82
2366.418	2624.17
2369.58	2744.14
2372.742	2513.16
2375.904	2532.09
2379.066	2505.93
2382.227	2542.7
2385.388	2503.13
2388.548	2426.39
2391.709	2486.12
2394.869	2460.53
2398.029	2568.47
2401.188	2585.35
2404.347	2513.77
2407.506	2667.4
2410.665	2698.94
2413.823	2707.8
2416.981	2661.04
2420.139	2697
2423.296	2749.78
2426.453	2719.97
2429.61	2747.46
2432.767	2674.11
2435.923	2711.82
2439.079	2674.75
2442.235	2727.46
2445.391	2646.87
2448.546	2675.45
2451.701	2727.67
2454.855	2693.82
2458.009	2750.19
2461.163	2753.58
2464.317	2710.17
2467.471	2742.63
2470.624	2785.04
2473.777	2756.34
2476.929	2766.19
2480.082	2793.64
2483.234	2755.75
2486.385	2710.86
2489.537	2701.86
2492.688	2658.16
2495.839	2679.05
2498.989	2687.22
2502.14	2669.94
2505.29	2652.73
2508.439	2678.18
2511.589	2599.12
2514.738	2613.29
2517.887	2647.02
2521.035	2709.69
2524.183	2697.48
2527.331	2675.7
2530.479	2644.4
2533.627	2657.41
