Data from N_2_DIV_WI_4N_Splice17_12-18-13-958.txt Node
Date: Sat Mar 14 12:18:13 EDT 2020
User: sa697716
Spectrometer: FLMS03696
Trigger mode: 0
Integration Time (sec): 3.180400E-1
Scans to average: 20
Electric dark correction enabled: true
Nonlinearity correction enabled: true
Boxcar width: 5
XAxis mode: Wavelengths
Number of Pixels in Spectrum: 2048
>>>>>Begin Spectral Data<<<<<
187.83	-339152.74
188.298	2460.36
188.766	1338.13
189.233	1222.76
189.701	1722.71
190.169	2308.14
190.636	833.1
191.104	672.38
191.571	76.04
192.039	-66.4
192.506	-65.9
192.974	321.95
193.441	-444.96
193.908	202.68
194.375	30.93
194.842	110.78
195.31	125.16
195.777	148.43
196.244	374.11
196.711	424.45
197.177	534.8
197.644	760.6
198.111	1323.02
198.578	1860.96
199.045	1471.36
199.511	2443.76
199.978	2831.4
200.445	2424.23
200.911	2687.78
201.378	2987.23
201.844	2696.11
202.31	4625.92
202.777	4831.11
203.243	2692.47
203.709	2573.37
204.176	3094.79
204.642	2574.02
205.108	2429.03
205.574	1980.14
206.04	1807.65
206.506	1702.72
206.972	1627.43
207.438	1570.07
207.903	1779.54
208.369	1558.63
208.835	1564.26
209.301	1633.02
209.766	1678.73
210.232	1661.57
210.697	2082.57
211.163	2597.6
211.628	3958.06
212.094	3348.46
212.559	4154.31
213.024	2619.09
213.49	3205.93
213.955	3136.77
214.42	3100.59
214.885	2897.78
215.35	2798.49
215.815	2696.92
216.28	2902.81
216.745	2381.02
217.21	2603.65
217.675	2434.35
218.14	2796.79
218.604	3206.23
219.069	3741.88
219.534	3997.58
219.998	4724.06
220.463	5815.24
220.927	7301.31
221.392	6949.58
221.856	7109.03
222.32	9055.39
222.785	11264.43
223.249	14248.03
223.713	15953.28
224.177	16028.84
224.642	20617.64
225.106	25487.93
225.57	27938.95
226.034	20771.99
226.497	31638.17
226.961	28577.68
227.425	33280.68
227.889	36927.78
228.353	36946.41
228.816	76402.53
229.28	72961.42
229.744	61633.41
230.207	37412.61
230.671	36780.34
231.134	60915.22
231.597	70198.8
232.061	70202.53
232.524	68463.44
232.987	47085.16
233.45	42298
233.914	37908.96
234.377	38880.88
234.84	35525.17
235.303	41927.56
235.766	46733.28
236.229	48206.65
236.691	30316.88
237.154	34043.2
237.617	25572.43
238.08	26176.92
238.542	30645.63
239.005	21886.21
239.468	21687.71
239.93	20415.41
240.393	18492.74
240.855	16229.19
241.317	16612.12
241.78	20199.75
242.242	20847.2
242.704	22493.11
243.166	19547.41
243.629	17716.23
244.091	20380.24
244.553	22299.9
245.015	23919.27
245.477	30947.86
245.939	45297.1
246.4	48017.9
246.862	46647.47
247.324	43966
247.786	49123.9
248.247	64423.98
248.709	66441.39
249.17	49662.1
249.632	46723.38
250.093	54135.38
250.555	46643.65
251.016	28407.66
251.477	26922.91
251.939	29011.52
252.4	30392.54
252.861	36102.62
253.322	33504.96
253.783	39849.2
254.244	51619.39
254.705	40711.49
255.166	36173.51
255.627	35612.18
256.088	50132.81
256.549	53161.53
257.009	45728.55
257.47	55405.74
257.931	45074.12
258.391	33791.78
258.852	34820.38
259.312	36475.95
259.773	44984.84
260.233	37969.57
260.694	31992.17
261.154	36308.12
261.614	29126.14
262.074	26021.81
262.534	27037.7
262.994	25482.31
263.455	33931.34
263.915	28562.74
264.374	26891.55
264.834	29354.61
265.294	32531.22
265.754	33689.78
266.214	31856.82
266.673	29836.05
267.133	37658.96
267.593	37330.44
268.052	45624.81
268.512	39657.62
268.971	47770.03
269.431	52346.88
269.89	46805.12
270.349	70082
270.809	78014.02
271.268	70044.86
271.727	156990.56
272.186	101626.44
272.645	76121.09
273.104	54891.57
273.563	79391.85
274.022	62434.43
274.481	53070.14
274.94	40861.8
275.399	30385.32
275.857	35361.71
276.316	47848.02
276.775	42544.18
277.233	41834.77
277.692	39114.31
278.15	44224.01
278.609	45441.37
279.067	42013.83
279.525	38976.24
279.984	50311.43
280.442	60316.01
280.9	59400.73
281.358	39038.85
281.816	36355.68
282.274	35573.7
282.732	36774.16
283.19	36916.44
283.648	31841.37
284.106	33888.49
284.564	34442
285.021	31908.69
285.479	23778.98
285.937	21629.61
286.394	18950.3
286.852	19491.29
287.309	20469.53
287.767	19751.11
288.224	18768.81
288.682	20582.17
289.139	22558.21
289.596	20621.66
290.053	21405.51
290.511	26985.59
290.968	32680.4
291.425	44297.58
291.882	36793.95
292.339	32005.15
292.796	31693.85
293.252	29820.42
293.709	23614.25
294.166	21142.54
294.623	23359.72
295.079	22413.06
295.536	22494.47
295.992	20398.66
296.449	20182.61
296.905	20964.64
297.362	20083.34
297.818	21120.64
298.274	21893.88
298.731	22327.97
299.187	22081.32
299.643	23662.83
300.099	28569.45
300.555	31281.94
301.011	26128.36
301.467	25128.44
301.923	29372.96
302.379	28618.07
302.835	28063.41
303.291	28054.95
303.746	31883.56
304.202	40220.34
304.658	40359.13
305.113	27129.39
305.569	26572.38
306.024	28296.6
306.479	26908.32
306.935	22700.22
307.39	24801.77
307.845	22913.28
308.301	23046.96
308.756	22448.73
309.211	21602.95
309.666	22095.65
310.121	27395.74
310.576	27814.01
311.031	27590.71
311.486	31594.15
311.94	31496.08
312.395	42078.36
312.85	78963.81
313.305	387833.88
313.759	2004324.6
314.214	145202.69
314.668	115012.8
315.123	96614.71
315.577	34582.38
316.032	30675.65
316.486	38377.88
316.94	30279.22
317.394	21038.5
317.849	16336.12
318.303	15435.67
318.757	14548.91
319.211	16080.37
319.665	14060.42
320.119	14220.92
320.572	20379.62
321.026	19034.16
321.48	15838.09
321.934	17218.09
322.387	17251.5
322.841	18618.31
323.295	16713.32
323.748	19259.07
324.202	19528.44
324.655	23436.71
325.108	32684.39
325.562	23057.52
326.015	27416.81
326.468	20715.25
326.921	23206.09
327.374	21629.08
327.827	22495.74
328.28	25480.36
328.733	17060.04
329.186	14987.66
329.639	14282.16
330.092	12037.6
330.545	11450.98
330.997	11533.58
331.45	12593.75
331.903	14732.15
332.355	25326.8
332.808	24608.5
333.26	20273.63
333.713	21984.99
334.165	22132.44
334.617	29508.06
335.069	23848.6
335.522	43149.61
335.974	47731.07
336.426	43542.33
336.878	30115.78
337.33	15269.61
337.782	14898.59
338.234	18660.4
338.686	22268.58
339.137	26378.13
339.589	24872.61
340.041	19489.56
340.493	16752.27
340.944	17141.86
341.396	18473.05
341.847	15552.26
342.299	18321.2
342.75	22309.62
343.201	19492.15
343.653	22482.17
344.104	27592.01
344.555	21722.32
345.006	33777.98
345.457	25831.07
345.908	20549.03
346.359	19364.98
346.81	15758.48
347.261	16609.35
347.712	16370.77
348.163	17536.71
348.613	17716.75
349.064	16543.51
349.515	14461.43
349.965	14836.33
350.416	17875.41
350.866	19588.34
351.317	22071.6
351.767	36526.25
352.217	46094.26
352.668	38238.54
353.118	35073.68
353.568	33856.46
354.018	26716.72
354.468	28161.67
354.918	20204.71
355.368	17659.01
355.818	24930.39
356.268	71796.41
356.718	300508.62
357.168	74784.17
357.617	37561.59
358.067	41717.32
358.517	39084.3
358.966	45873.31
359.416	51448.83
359.865	55537.18
360.315	66104.73
360.764	30849.53
361.213	17276.84
361.663	16362.79
362.112	20194.31
362.561	32592.19
363.01	24559.52
363.459	20618.74
363.908	22314.34
364.357	18931.03
364.806	31950.65
365.255	21915.52
365.703	20090.04
366.152	20094.7
366.601	16304.98
367.05	13234.36
367.498	12033.74
367.947	12579.55
368.395	13097.27
368.844	11566.89
369.292	13928.11
369.74	9623.84
370.189	14757.83
370.637	17259.16
371.085	14875.9
371.533	18041.87
371.981	17356.75
372.429	16504.44
372.877	17188.22
373.325	14366.9
373.773	14666.39
374.221	13028.53
374.669	16134.55
375.116	13905.71
375.564	13987.75
376.012	15608.51
376.459	12880.03
376.907	15382.81
377.354	18597.33
377.801	17285.66
378.249	19844.18
378.696	25316.08
379.143	30686.62
379.591	32668.59
380.038	55263.81
380.485	39961.43
380.932	43142.27
381.379	39425.52
381.826	29037.28
382.273	20610.7
382.72	18018.83
383.166	17526.84
383.613	11366.53
384.06	10222.95
384.506	11790.44
384.953	8644.3
385.4	8686.56
385.846	7598.18
386.292	7389.27
386.739	7205.16
387.185	7113.16
387.631	7096.5
388.078	6888.89
388.524	7348.66
388.97	6773.68
389.416	5652.39
389.862	6008.86
390.308	5690.24
390.754	5762.3
391.2	6249.2
391.645	6388.86
392.091	6106.75
392.537	5907.28
392.983	5889.35
393.428	5788.93
393.874	6198.84
394.319	6195.95
394.765	5866.25
395.21	6015.65
395.655	5639.02
396.101	5275.12
396.546	4759.78
396.991	4784.51
397.436	4429.09
397.881	4276.47
398.326	4034.13
398.771	3814.1
399.216	3338.07
399.661	3002.55
400.106	2988.65
400.551	3051.89
400.995	2729.44
401.44	2687.29
401.885	2521.15
402.329	2542.95
402.774	2436.95
403.218	2362.45
403.663	2270.65
404.107	2331.69
404.551	2341.88
404.995	2141.57
405.44	2059.87
405.884	2087.43
406.328	2023.07
406.772	2014.71
407.216	1833.85
407.66	1768.83
408.104	1674.16
408.547	1564.62
408.991	1510.86
409.435	1452.19
409.879	1431.12
410.322	1413.34
410.766	1363.11
411.209	1295.49
411.653	1242.53
412.096	1216.76
412.54	1216.1
412.983	1208.17
413.426	1213.04
413.869	1211.85
414.312	1191.57
414.756	1147.36
415.199	1092.59
415.642	1060.23
416.085	1062.02
416.527	1053.79
416.97	1068.68
417.413	1014.82
417.856	999.73
418.298	987.09
418.741	975.07
419.184	968.47
419.626	1005.51
420.069	1007.22
420.511	1013.08
420.953	989.67
421.396	981.45
421.838	954
422.28	972.75
422.722	979.18
423.164	992.44
423.606	978.52
424.048	977.13
424.49	930.07
424.932	922.89
425.374	907.28
425.816	921.84
426.258	935.81
426.699	947.61
427.141	936.07
427.582	949.83
428.024	944.45
428.465	937.05
428.907	914.69
429.348	903.55
429.789	902.98
430.231	885.19
430.672	894.84
431.113	875.37
431.554	863.2
431.995	840.03
432.436	812.14
432.877	795.16
433.318	781.75
433.759	779.2
434.2	779.43
434.64	771.11
435.081	773.25
435.522	734.61
435.962	708.98
436.403	693.96
436.843	703.9
437.284	687.45
437.724	668.12
438.164	670.06
438.604	652.5
439.045	627.82
439.485	602.62
439.925	590.19
440.365	573.46
440.805	563.81
441.245	555.7
441.685	533.77
442.125	528.79
442.564	530.9
443.004	518.25
443.444	518.08
443.883	519.06
444.323	514.57
444.762	513.53
445.202	520.38
445.641	531.97
446.081	528.59
446.52	533.06
446.959	529.26
447.398	516.29
447.837	510.22
448.276	500.06
448.716	503.32
449.154	507.36
449.593	497.48
450.032	496.27
450.471	484.23
450.91	483.82
451.349	483.13
451.787	479.26
452.226	486.15
452.664	486.33
453.103	486.65
453.541	486.22
453.98	485.19
454.418	486.8
454.856	479.5
455.295	478.71
455.733	483.57
456.171	485.59
456.609	486.44
457.047	486.57
457.485	494.73
457.923	496.43
458.361	488.82
458.798	489.24
459.236	488.57
459.674	491.26
460.111	493.15
460.549	487.17
460.987	485.48
461.424	484.28
461.862	481.41
462.299	472.04
462.736	471.79
463.173	473.66
463.611	471.8
464.048	471
464.485	475.48
464.922	472.28
465.359	470.07
465.796	467.32
466.233	463.49
466.67	461.24
467.106	461.54
467.543	456.58
467.98	450.66
468.416	437.66
468.853	433.53
469.29	420.7
469.726	416.09
470.162	404.43
470.599	396.55
471.035	391.95
471.471	381.4
471.907	378.41
472.344	375.7
472.78	377.09
473.216	380.75
473.652	375.86
474.088	374.17
474.523	373.5
474.959	376.78
475.395	372.11
475.831	370.81
476.266	372.54
476.702	370.92
477.138	367.07
477.573	365.45
478.008	363.77
478.444	365.27
478.879	368.43
479.314	368.94
479.75	368.42
480.185	370.3
480.62	372.69
481.055	373.06
481.49	376.13
481.925	380.98
482.36	388.37
482.795	398.81
483.229	408.59
483.664	416.85
484.099	417.75
484.534	423.16
484.968	427.13
485.403	427.6
485.837	427.22
486.271	425.69
486.706	425.53
487.14	420.23
487.574	413.7
488.009	410.47
488.443	406.61
488.877	411.92
489.311	413.75
489.745	418.51
490.179	423.74
490.613	433.26
491.046	437.27
491.48	441.05
491.914	441.47
492.348	445.17
492.781	448.68
493.215	450.32
493.648	451.92
494.082	456.42
494.515	457.94
494.948	464.21
495.382	467.28
495.815	471.99
496.248	476.45
496.681	485.77
497.114	494.28
497.547	501.95
497.98	512.69
498.413	517.26
498.846	525.48
499.279	532.46
499.711	536.04
500.144	539.39
500.577	548.83
501.009	558.12
501.442	567.44
501.874	570.69
502.306	574.14
502.739	582.55
503.171	596.02
503.603	601.14
504.036	610.77
504.468	617.92
504.9	628.84
505.332	635.77
505.764	642
506.196	650.46
506.627	664.08
507.059	677.31
507.491	686
507.923	688.28
508.354	702.75
508.786	714.56
509.217	731.57
509.649	747.27
510.08	765.13
510.512	782.74
510.943	798.32
511.374	811.95
511.805	831.95
512.237	851
512.668	880.46
513.099	905.88
513.53	931.18
513.961	952.18
514.391	982.12
514.822	1013.18
515.253	1046.34
515.684	1070.84
516.114	1099.74
516.545	1122.07
516.975	1147.31
517.406	1165.28
517.836	1171.4
518.267	1181.76
518.697	1201.39
519.127	1208.07
519.558	1218.09
519.988	1225.41
520.418	1238.46
520.848	1256.46
521.278	1267.39
521.708	1291.86
522.138	1306.91
522.567	1336.63
522.997	1361.19
523.427	1376.71
523.857	1395.71
524.286	1408.42
524.716	1424.01
525.145	1443.09
525.575	1455.17
526.004	1470.37
526.433	1463.56
526.863	1465.86
527.292	1460.08
527.721	1467.21
528.15	1475.48
528.579	1477.43
529.008	1489.09
529.437	1510.82
529.866	1524.02
530.295	1540.26
530.724	1552.4
531.152	1577.56
531.581	1592.19
532.01	1608.95
532.438	1617.41
532.867	1631.01
533.295	1647.77
533.723	1653.21
534.152	1651.72
534.58	1652.65
535.008	1639.58
535.436	1642.99
535.865	1650.52
536.293	1663.05
536.721	1678.08
537.149	1701.51
537.576	1704.65
538.004	1717.51
538.432	1725.14
538.86	1724.64
539.287	1731.33
539.715	1743.68
540.143	1745.91
540.57	1741.51
540.998	1738.74
541.425	1718.37
541.852	1699.78
542.28	1697.62
542.707	1682.45
543.134	1669.65
543.561	1665.28
543.988	1658.08
544.415	1658.17
544.842	1653.37
545.269	1646.42
545.696	1648.43
546.123	1659.84
546.549	1650.21
546.976	1637.78
547.403	1636.89
547.829	1639.48
548.256	1641.19
548.682	1639
549.108	1631.13
549.535	1629.7
549.961	1632.5
550.387	1619.19
550.813	1613.28
551.24	1619.23
551.666	1621.29
552.092	1612.37
552.518	1605.62
552.943	1600.69
553.369	1605.74
553.795	1610.87
554.221	1611.38
554.646	1607.28
555.072	1616.56
555.498	1621.37
555.923	1627.78
556.349	1640.72
556.774	1647.57
557.199	1648.3
557.625	1651.98
558.05	1645.09
558.475	1653.99
558.9	1651.16
559.325	1642.58
559.75	1635.87
560.175	1627.9
560.6	1620.61
561.025	1615.67
561.449	1615.45
561.874	1617.93
562.299	1620.43
562.723	1625.45
563.148	1613.97
563.572	1615.99
563.997	1623.57
564.421	1626.39
564.846	1625.2
565.27	1626.4
565.694	1622.06
566.118	1629.26
566.542	1633.7
566.966	1625.21
567.39	1619.52
567.814	1606.74
568.238	1603.87
568.662	1605
569.086	1604.44
569.509	1608.45
569.933	1592.99
570.357	1583.67
570.78	1562.21
571.204	1548.45
571.627	1536.79
572.05	1531.92
572.474	1530.86
572.897	1517.5
573.32	1509.49
573.743	1499.15
574.166	1480.02
574.589	1477.08
575.012	1469.59
575.435	1467.38
575.858	1457.38
576.281	1445.1
576.704	1429.59
577.126	1416.14
577.549	1404.68
577.972	1392.98
578.394	1381.41
578.817	1373.51
579.239	1356.72
579.661	1343.12
580.084	1328.29
580.506	1314.23
580.928	1309.55
581.35	1298.14
581.772	1291.84
582.194	1279.28
582.616	1267.79
583.038	1254.54
583.46	1244.36
583.882	1240.49
584.303	1241.64
584.725	1235.86
585.147	1237.2
585.568	1244.43
585.99	1253.6
586.411	1259.49
586.833	1269.99
587.254	1270.38
587.675	1280.06
588.096	1289.5
588.518	1283.17
588.939	1269.58
589.36	1267.27
589.781	1255.89
590.202	1231.76
590.623	1223.89
591.043	1219.83
591.464	1208.35
591.885	1203.82
592.305	1198.64
592.726	1186.62
593.147	1187.09
593.567	1181.99
593.987	1175.4
594.408	1171.8
594.828	1169.14
595.248	1163.24
595.669	1147.39
596.089	1141.92
596.509	1136
596.929	1124.93
597.349	1124.22
597.769	1114.94
598.189	1108.55
598.608	1108.87
599.028	1110
599.448	1109.21
599.867	1098.47
600.287	1094.65
600.706	1090.53
601.126	1082.32
601.545	1080.9
601.965	1079.06
602.384	1073.43
602.803	1074.88
603.222	1070.72
603.641	1063.96
604.061	1060.75
604.48	1057.35
604.898	1063.17
605.317	1066.01
605.736	1066.79
606.155	1063.33
606.574	1055.31
606.992	1059.17
607.411	1054.4
607.829	1045.8
608.248	1041.58
608.666	1038.66
609.085	1035.9
609.503	1027.45
609.921	1021.29
610.339	1020.66
610.758	1018.04
611.176	1012.88
611.594	1004.99
612.012	1000.74
612.43	1001.85
612.847	1005.09
613.265	1003.69
613.683	1005.86
614.101	1005.18
614.518	999.85
614.936	991.48
615.353	979.48
615.771	975.52
616.188	973.07
616.606	969.33
617.023	962.77
617.44	950.52
617.857	943.86
618.274	936.39
618.691	929.88
619.108	922.45
619.525	916.34
619.942	920.3
620.359	921.79
620.776	917.46
621.192	913.75
621.609	911.41
622.026	916.42
622.442	920.06
622.859	920.86
623.275	915.19
623.691	918.16
624.108	926.29
624.524	935.74
624.94	935.25
625.356	941.97
625.772	950.49
626.188	958.2
626.604	958.49
627.02	954.77
627.436	953.51
627.852	958.79
628.268	967.12
628.683	958.93
629.099	952.47
629.514	947.96
629.93	950.62
630.345	954.12
630.761	950.71
631.176	952.59
631.591	948.76
632.007	943.64
632.422	940.45
632.837	930.24
633.252	928.31
633.667	919.4
634.082	911.21
634.497	900.28
634.911	884.29
635.326	879.57
635.741	865.7
636.155	856.59
636.57	854.96
636.984	852.75
637.399	853.62
637.813	850.6
638.228	847.93
638.642	849.23
639.056	839.39
639.47	836.94
639.884	829.32
640.298	822.78
640.712	819.49
641.126	809.04
641.54	801.06
641.954	794.22
642.368	784.23
642.781	776.38
643.195	761.13
643.609	759.3
644.022	752.45
644.436	746.49
644.849	735.72
645.262	725.08
645.676	723.29
646.089	717.97
646.502	705.61
646.915	700.03
647.328	686.5
647.741	683.94
648.154	674.33
648.567	672.45
648.98	663.01
649.393	662.15
649.805	658.85
650.218	651.82
650.631	640.32
651.043	635.96
651.456	630.87
651.868	630.68
652.28	639.36
652.693	645.24
653.105	646.47
653.517	651.55
653.929	650.57
654.341	652.63
654.753	644.85
655.165	647.18
655.577	643.6
655.989	640.08
656.401	633.52
656.813	611.17
657.224	598.63
657.636	580.1
658.047	568.11
658.459	555.05
658.87	547.84
659.282	539.65
659.693	527.02
660.104	517.66
660.515	506.79
660.926	503.2
661.338	499.93
661.749	494.77
662.159	488.55
662.57	485.12
662.981	481.88
663.392	476.31
663.803	478.01
664.213	475.55
664.624	471.86
665.035	473.79
665.445	465.25
665.855	461.42
666.266	456.37
666.676	454.24
667.086	447.6
667.497	446.73
667.907	443.67
668.317	438.27
668.727	438.63
669.137	439.26
669.547	438.93
669.956	441.06
670.366	442.05
670.776	443.5
671.186	446.79
671.595	449.7
672.005	451.99
672.414	452.73
672.824	453.24
673.233	454.56
673.642	456.32
674.052	458.43
674.461	462.23
674.87	466.23
675.279	466.39
675.688	467.38
676.097	469.37
676.506	467.87
676.915	477.17
677.323	479.03
677.732	478.7
678.141	478.84
678.549	473.21
678.958	472.3
679.366	471.56
679.775	475.22
680.183	484.08
680.592	487.13
681	492.04
681.408	488.09
681.816	493.67
682.224	499.11
682.632	507.3
683.04	525.72
683.448	542.49
683.856	563.37
684.264	585.84
684.671	605.86
685.079	634.09
685.487	662.25
685.894	702.73
686.302	736.21
686.709	766.04
687.116	800.6
687.524	830.08
687.931	856.79
688.338	882.54
688.745	904.45
689.152	930.29
689.559	964.14
689.966	999.57
690.373	1022.13
690.78	1058.06
691.187	1108.66
691.593	1150.59
692	1189.7
692.407	1242.01
692.813	1306.35
693.22	1360.54
693.626	1415.77
694.032	1464.03
694.439	1532.63
694.845	1587.79
695.251	1657.29
695.657	1720.72
696.063	1811.68
696.469	1883.21
696.875	1952.71
697.281	1996.68
697.687	2049.7
698.093	2096.77
698.498	2172.5
698.904	2233.4
699.31	2320.54
699.715	2387.01
700.12	2478.01
700.526	2506.46
700.931	2579.73
701.337	2636.35
701.742	2677.29
702.147	2761.09
702.552	2802.11
702.957	2867.48
703.362	2898.7
703.767	2936.76
704.172	2982.71
704.577	2952.68
704.981	3003.79
705.386	3027.61
705.791	3032.2
706.195	3109.76
706.6	3129.48
707.004	3209.93
707.408	3190.96
707.813	3225.98
708.217	3224.37
708.621	3235.69
709.025	3334.92
709.43	3346.61
709.834	3412.27
710.237	3484.45
710.641	3479.98
711.045	3509.98
711.449	3513.3
711.853	3547.81
712.256	3595.91
712.66	3639.52
713.064	3718.38
713.467	3766.42
713.87	3879.31
714.274	3929.71
714.677	4042.63
715.08	4206.43
715.484	4375.36
715.887	4578.54
716.29	4780.16
716.693	4987.95
717.096	5226.66
717.499	5365.85
717.901	5397.4
718.304	5432.33
718.707	5463.9
719.109	5375.93
719.512	5351.63
719.915	5228.5
720.317	5181.31
720.719	5231.1
721.122	5209.15
721.524	5167.77
721.926	5131.06
722.328	5236.38
722.731	5234.05
723.133	5269.14
723.535	5461.83
723.937	5488.06
724.338	5541.57
724.74	5585.99
725.142	5523.03
725.544	5526.41
725.945	5555.58
726.347	5557.94
726.748	5552.96
727.15	5568.7
727.551	5535.69
727.952	5511.81
728.354	5487.12
728.755	5492.07
729.156	5453.35
729.557	5447.57
729.958	5327.3
730.359	5277.68
730.76	5260.48
731.161	5205.34
731.562	5186.02
731.962	5193.56
732.363	5132.17
732.763	5069.9
733.164	5108.31
733.564	5044.1
733.965	4952.27
734.365	4920.03
734.766	4950.36
735.166	4912.97
735.566	4859.75
735.966	4835.18
736.366	4830.07
736.766	4770.07
737.166	4800.8
737.566	4759.24
737.966	4734.37
738.365	4774.67
738.765	4770.97
739.165	4698.44
739.564	4673.45
739.964	4719.94
740.363	4674.77
740.763	4671.07
741.162	4660.58
741.561	4631.55
741.96	4586.46
742.36	4608.33
742.759	4613.11
743.158	4652.84
743.557	4666.31
743.955	4708.3
744.354	4663.42
744.753	4720.31
745.152	4681.48
745.55	4737.76
745.949	4732.37
746.348	4735.8
746.746	4751.77
747.144	4712.43
747.543	4690.79
747.941	4740.35
748.339	4668.29
748.737	4660.62
749.136	4653.28
749.534	4716.58
749.932	4687.51
750.33	4711.29
750.727	4768.6
751.125	4744.49
751.523	4728.45
751.921	4771.4
752.318	4735.59
752.716	4794.9
753.113	4808
753.511	4833.2
753.908	4833.74
754.305	4816.82
754.703	4876.59
755.1	4934.6
755.497	4993.41
755.894	5185.12
756.291	5363.61
756.688	5695.12
757.085	6135.22
757.482	6753.62
757.878	7427.08
758.275	8038.99
758.672	8880.79
759.068	9567.75
759.465	10547.55
759.861	11812.37
760.258	13269.84
760.654	14021.4
761.05	13905.13
761.447	13270.24
761.843	12356.91
762.239	11418.39
762.635	10988.67
763.031	10575.5
763.427	9983.31
763.822	9362
764.218	8745.58
764.614	7950.22
765.01	7414.88
765.405	7073.38
765.801	6809.8
766.196	6474.42
766.592	6285
766.987	5970.13
767.382	5757.3
767.778	5667.65
768.173	5535.94
768.568	5463.44
768.963	5338.42
769.358	5356.93
769.753	5309.97
770.148	5226.77
770.542	5223.84
770.937	5192.74
771.332	5286.84
771.726	5306.67
772.121	5243.13
772.515	5297.14
772.91	5282.27
773.304	5354.7
773.699	5291.15
774.093	5342.68
774.487	5397.01
774.881	5441.38
775.275	5436.18
775.669	5392.35
776.063	5436.56
776.457	5472.11
776.851	5397.99
777.245	5390.5
777.638	5422.13
778.032	5536.18
778.425	5501.63
778.819	5541.28
779.212	5500.08
779.606	5458.26
779.999	5475.62
780.392	5456.21
780.786	5538.34
781.179	5560.88
781.572	5602.78
781.965	5613.15
782.358	5554.12
782.751	5606.24
783.143	5560.13
783.536	5630.39
783.929	5674.3
784.322	5791.6
784.714	5823.84
785.107	5818.32
785.499	5887.75
785.891	5866.47
786.284	5849.03
786.676	5989.01
787.068	5972.34
787.46	6025.52
787.852	6046.39
788.245	6131.3
788.636	6157.92
789.028	6223.8
789.42	6266.62
789.812	6275.44
790.204	6372.09
790.595	6473.3
790.987	6281
791.378	6303.43
791.77	6432.3
792.161	6567.53
792.553	6621.64
792.944	6512.55
793.335	6447.54
793.726	6520.16
794.117	6611.91
794.508	6748.48
794.899	6719.13
795.29	6864.09
795.681	6922.47
796.072	6779.51
796.463	6594.49
796.853	6604.23
797.244	6763.59
797.634	6798.61
798.025	6796.51
798.415	6808.44
798.806	6892.89
799.196	6973.68
799.586	7021.25
799.976	6982.44
800.366	7212.21
800.756	7453.71
801.146	7413.22
801.536	7440.15
801.926	7506.25
802.316	7532.17
802.706	7600
803.095	7482.02
803.485	7586.91
803.874	7624.68
804.264	7881.02
804.653	7856.73
805.043	8000.7
805.432	8110.33
805.821	8111.66
806.21	8136.16
806.599	8253.88
806.988	8299.73
807.377	8409.22
807.766	8535.68
808.155	8818.89
808.544	8563.69
808.933	8573.15
809.321	8551.28
809.71	8846.67
810.098	9004.56
810.487	9469.05
810.875	9945.41
811.264	9968.58
811.652	10256.09
812.04	10398.3
812.428	10560.78
812.816	11316.79
813.204	11729.98
813.592	12277.37
813.98	12610.85
814.368	12524.77
814.756	13001.23
815.144	12917.27
815.531	13386.54
815.919	13315.7
816.306	13624.9
816.694	13319.22
817.081	13367.4
817.469	13722.37
817.856	13723.61
818.243	13989.22
818.63	14372.91
819.017	13950.38
819.404	14018.9
819.791	14394.93
820.178	15002.56
820.565	15241.91
820.952	16167.62
821.339	15682.12
821.725	15860.39
822.112	15129.04
822.498	15093.83
822.885	15221.25
823.271	15128.69
823.657	15546.43
824.044	15547.01
824.43	15623.85
824.816	15600.65
825.202	15169.35
825.588	16181.92
825.974	16204.69
826.36	16715.03
826.746	16750.57
827.132	17104.85
827.517	17075.93
827.903	16296.72
828.289	16342.73
828.674	15558.29
829.06	15455.36
829.445	15846.7
829.83	16199.83
830.216	16672.14
830.601	17031.09
830.986	16622.76
831.371	16495.89
831.756	17056.74
832.141	16632.32
832.526	16621.36
832.911	16915.59
833.295	16806.55
833.68	17278.14
834.065	16654.17
834.449	15751.12
834.834	15677.39
835.218	15686.79
835.603	16026.39
835.987	15818.85
836.371	16641.58
836.755	16542.71
837.139	16942.95
837.524	17181.53
837.908	17002.44
838.291	17077.89
838.675	17141.15
839.059	17355.07
839.443	17339.59
839.827	17108.96
840.21	17587.2
840.594	17442.92
840.977	17655.44
841.361	17626.78
841.744	17998.57
842.127	17849.05
842.511	18098.02
842.894	18698.94
843.277	19073.12
843.66	19605.52
844.043	19688.19
844.426	18884.9
844.809	18581.28
845.191	18608.06
845.574	18157.36
845.957	17802.88
846.339	17700.81
846.722	17171.9
847.104	17234.9
847.487	17072.54
847.869	17088.4
848.252	17365.71
848.634	17691.42
849.016	17957.69
849.398	18082.45
849.78	18922.25
850.162	18917.83
850.544	19326.03
850.926	19950.84
851.307	19868.1
851.689	20141.28
852.071	20588.43
852.452	20902.79
852.834	20888.61
853.215	21275.16
853.597	21424.47
853.978	21716.19
854.359	22175.62
854.741	21181.43
855.122	21078.06
855.503	20783.84
855.884	20913.6
856.265	20853.78
856.646	20972.45
857.026	20579.57
857.407	20520.69
857.788	20678.69
858.169	20965.94
858.549	20110.01
858.93	20730.12
859.31	20778.7
859.69	20981.25
860.071	20584.16
860.451	20369.94
860.831	19633.9
861.211	20790.7
861.591	21317.57
861.971	21290.68
862.351	21481.56
862.731	21869.08
863.111	22130.07
863.491	22464.74
863.87	23344.21
864.25	23682.07
864.629	23284.2
865.009	23799.27
865.388	24641.19
865.768	26423.48
866.147	26325.62
866.526	24866.68
866.905	25177.59
867.284	26590.15
867.663	25246.56
868.042	24201.94
868.421	24117.46
868.8	24510.95
869.179	24744.43
869.558	23297.24
869.936	21469.6
870.315	21847.69
870.693	22383.96
871.072	24131.22
871.45	22982.69
871.828	23273.55
872.207	24464.93
872.585	24109.14
872.963	24773.66
873.341	23918.31
873.719	23637.31
874.097	23361.74
874.475	23803.47
874.853	24352.57
875.23	23342.81
875.608	24329.05
875.986	26314.39
876.363	25173.81
876.741	25937.88
877.118	25282.41
877.495	26533.18
877.873	26983.75
878.25	28389.38
878.627	27239.21
879.004	27619.29
879.381	27475.87
879.758	26757.21
880.135	24923.25
880.512	26349.76
880.889	25646.67
881.265	25393.28
881.642	25178.77
882.019	25598.9
882.395	25082.75
882.772	26072.35
883.148	24934.57
883.524	24839.55
883.901	24689.69
884.277	25054.91
884.653	24883.93
885.029	25605.18
885.405	28351.58
885.781	28144.31
886.157	26993.91
886.532	27309.74
886.908	27304.82
887.284	30370.75
887.659	31365.49
888.035	32340.93
888.411	33170.69
888.786	33615.63
889.161	34781.13
889.537	34137.81
889.912	35225.06
890.287	35188.38
890.662	36112.51
891.037	35453.42
891.412	33048.33
891.787	32714.86
892.162	31580
892.536	32323.36
892.911	31113.38
893.286	30457.01
893.66	29220.5
894.035	29965
894.409	32633.83
894.784	31321.69
895.158	31841.54
895.532	33731.42
895.906	34663.89
896.281	35475.94
896.655	34908.8
897.029	39900.57
897.402	41560.92
897.776	46281.32
898.15	46131.79
898.524	45598.65
898.898	46212.28
899.271	51750.73
899.645	44840.15
900.018	43063.32
900.392	44646.26
900.765	45015.09
901.138	41654.62
901.511	41008.62
901.884	37648.44
902.258	34721.38
902.631	35899.6
903.003	41291.78
903.376	37239.57
903.749	41744.71
904.122	44679.11
904.495	49212.8
904.867	49802.09
905.24	43249.4
905.612	40256.78
905.985	41170.73
906.357	43047.43
906.729	41087.49
907.102	35097.04
907.474	33743.94
907.846	33955.74
908.218	33508.12
908.59	29597.64
908.962	28633.58
909.334	30807.05
909.705	32365.55
910.077	31411.02
910.449	32685.98
910.82	33590.16
911.192	36968.66
911.563	38425.04
911.935	41126.76
912.306	41149.47
912.677	42499.74
913.048	42059.63
913.419	45642.08
913.79	45887.91
914.161	49203.88
914.532	47027.26
914.903	43218.78
915.274	41027.07
915.645	40410.59
916.015	35565.73
916.386	33944.11
916.756	36109.14
917.127	37252.48
917.497	33281.13
917.868	36242.59
918.238	34449.65
918.608	35422.79
918.978	36139.79
919.348	38266.01
919.718	39537.11
920.088	38080.78
920.458	39534.92
920.828	41627.66
921.198	39458.3
921.567	42142.75
921.937	32623.74
922.306	32921.46
922.676	35530.7
923.045	29648.13
923.415	28173.08
923.784	25675.57
924.153	26407.45
924.522	26384.52
924.891	24798.07
925.26	26574.76
925.629	25954.5
925.998	29853.07
926.367	29150.86
926.736	27747.58
927.104	33051.69
927.473	35557.38
927.842	42905.22
928.21	42474.91
928.578	44680.03
928.947	42285.2
929.315	42528.73
929.683	49881.07
930.051	50259.1
930.42	58359.94
930.788	49859.57
931.156	49488.17
931.523	46363.61
931.891	42865.39
932.259	41198.92
932.627	47691.26
932.994	67436.48
933.362	55748.4
933.729	48412.8
934.097	46341.1
934.464	39206.47
934.831	45282.2
935.199	44628.35
935.566	43288.95
935.933	43914.81
936.3	53161.34
936.667	41408.62
937.034	37344.47
937.401	36924.92
937.767	31856.33
938.134	28366.96
938.501	40027.23
938.867	42646.95
939.234	72187.84
939.6	61614.55
939.967	67810.7
940.333	45384.85
940.699	38660.16
941.065	31010.87
941.431	40658.64
941.798	39207.1
942.163	51458.82
942.529	32128.84
942.895	29592.71
943.261	19133.43
943.627	25086.26
943.992	21975.38
944.358	22007.77
944.723	22067.42
945.089	21527.84
945.454	19889.99
945.82	21238.8
946.185	20413.8
946.55	23690.76
946.915	21257.14
947.28	24948.95
947.645	21992.11
948.01	20280.93
948.375	21148.81
948.74	25376.32
949.104	29603.04
949.469	42779.94
949.834	75601.84
950.198	71721.14
950.562	42902.89
950.927	35702.38
951.291	42933.63
951.655	36565.89
952.02	34374.13
952.384	25984.29
952.748	22615.46
953.112	22042.5
953.476	19167.94
953.839	17722.58
954.203	17540.33
954.567	21973.42
954.931	34627.07
955.294	29611.4
955.658	29761.35
956.021	50548.85
956.385	85799.54
956.748	126646.16
957.111	196410.64
957.474	220500.54
957.837	248240.7
958.2	187749.9
958.563	67381.13
958.926	45523.7
959.289	69110.18
959.652	77220.4
960.015	57951.99
960.377	83059.37
960.74	94798.13
961.102	163811.7
961.465	175902.13
961.827	94163.1
962.189	180647.31
962.552	125456.5
962.914	100592.25
963.276	65315.47
963.638	53966.93
964	53454.17
964.362	36134.79
964.724	34875.3
965.085	24859.5
965.447	20373.45
965.809	23243.13
966.17	23255.38
966.532	25148.57
966.893	23075.53
967.255	20986.36
967.616	24777.32
967.977	19823.78
968.338	21640.78
968.699	17786.13
969.061	17785.16
969.421	17895.2
969.782	20075.56
970.143	16963.24
970.504	17575.03
970.865	19994.2
971.225	20420.54
971.586	19969.33
971.946	28489.45
972.307	24695.68
972.667	32275.47
973.027	33232.92
973.388	40306.98
973.748	27399.98
974.108	29863.56
974.468	40347.56
974.828	31068.8
975.188	23904.78
975.548	21961.88
975.907	18437.69
976.267	20703.48
976.627	17409.6
976.986	18042.27
977.346	17209.38
977.705	16567.94
978.064	15077.69
978.424	12563.36
978.783	12994.83
979.142	14836.27
979.501	14195.42
979.86	14997.86
980.219	14473.73
980.578	18679.03
980.937	20923.64
981.296	18663.71
981.654	19176.02
982.013	29860.97
982.371	38749.82
982.73	36242.14
983.088	41070.11
983.447	43872.12
983.805	62760.49
984.163	131274.85
984.521	145635.81
984.879	213575.01
985.237	-346466.34
985.595	334392.7
985.953	83062.25
986.311	47947.56
986.669	27829.43
987.026	24008.32
987.384	32289.63
987.741	33300.82
988.099	23761.58
988.456	18928.88
988.814	17699.42
989.171	15410.84
989.528	15204.2
989.885	16042.99
990.242	12705.95
990.599	15799.94
990.956	12926.41
991.313	9025.56
991.67	7427.59
992.027	7868.65
992.383	6997.27
992.74	6135.46
993.096	6436.17
993.453	6669.91
993.809	6920.46
994.165	9212.82
994.522	8434.87
994.878	9283.03
995.234	11665.86
995.59	11500.94
995.946	10871.02
996.302	12388.79
996.658	14306.32
997.013	15746.61
997.369	18699.42
997.725	23910.39
998.08	15504.86
998.436	23959.44
998.791	33162.42
999.147	33122.03
999.502	36143.7
999.857	26329.13
1000.212	42977.4
1000.567	61423.53
1000.922	35462.61
1001.277	22532.51
1001.632	16745.88
1001.987	21547.71
1002.342	15427.86
1002.696	12342.09
1003.051	9840.48
1003.406	11919.09
1003.76	11907.22
1004.114	11730.35
1004.469	9845.17
1004.823	8138.97
1005.177	8771.58
1005.531	6949.49
1005.885	6169.69
1006.239	6975.2
1006.593	8727.33
1006.947	11668.11
1007.301	8751.76
1007.655	9507.36
1008.008	6974.27
1008.362	7815.8
1008.715	11165.67
1009.069	10154.75
1009.422	15270.03
1009.776	30633.21
1010.129	20307.58
1010.482	16943.24
1010.835	14370.89
1011.188	29893.53
1011.541	28141.21
1011.894	-172251.69
1012.247	507749.43
1012.6	34580.81
1012.952	21785.97
1013.305	11176.84
1013.657	8059.63
1014.01	7632.41
1014.362	6305.43
1014.715	5591.79
1015.067	4877.57
1015.419	4762.95
1015.771	4226.58
1016.123	3773.69
1016.475	3883.23
1016.827	4132.76
1017.179	4460.23
1017.531	4494.74
1017.883	4620.97
1018.234	4446.51
1018.586	5609.43
1018.938	5932.6
1019.289	8168.74
1019.64	9349.63
1019.992	8675.77
1020.343	7932.44
1020.694	6266.15
1021.045	5521.23
1021.396	6293.24
1021.747	6686.46
1022.098	8043.65
1022.449	5822.43
1022.8	5412.62
1023.151	3791.21
1023.501	3357.47
1023.852	3645.66
1024.202	3791.8
1024.553	4161.06
1024.903	4088.22
1025.253	3493.69
1025.604	3140.93
1025.954	3902.33
1026.304	4792.81
1026.654	5599.14
1027.004	8180.27
1027.354	13224.41
1027.703	12471.42
1028.053	16353.58
1028.403	23773.84
1028.753	34375.95
1029.102	46617.73
1029.452	239454.81
1029.801	10277.64
1030.15	6590.17
1030.499	5531.78
897.758	2482.98
901.051	2434.52
904.343	2464.41
907.636	2467.56
910.928	2533.6
914.22	2444.02
917.511	2452.91
920.803	2508.19
924.094	2521.15
927.384	2508.69
930.675	2472.92
933.965	2428.91
937.255	2443.17
940.544	2410.74
943.834	2378.49
947.123	2314.49
950.411	2407.98
953.7	2382.55
956.988	2358.16
960.276	2297.38
963.563	2367.9
966.851	2368.51
970.138	2420.1
973.424	2415.68
976.711	2371.3
979.997	2466.96
983.283	2509.61
986.568	2426.95
989.853	2434.27
993.138	2462.4
996.423	2543.96
999.708	2485.98
1002.992	2537.01
1006.275	2406.34
1009.559	2435.3
1012.842	2543.38
1016.125	2481.55
1019.408	2460.6
1022.69	2537.66
1025.972	2561.16
1029.254	2535.06
1032.536	2477.95
1035.817	2503.59
1039.098	2456.93
1042.379	2564.77
1045.659	2575.97
1048.939	2512.12
1052.219	2530.87
1055.498	2537.22
1058.778	2525.9
1062.057	2507.3
1065.335	2530
1068.614	2547.21
1071.892	2530.37
1075.17	2600.57
1078.447	2591.12
1081.724	2585.39
1085.001	2617.26
1088.278	2592.89
1091.554	2603.87
1094.83	2598.75
1098.106	2627.22
1101.382	2666.24
1104.657	2667.47
1107.932	2664.97
1111.206	2631.59
1114.481	2593.05
1117.755	2593.31
1121.029	2580.76
1124.302	2633.18
1127.575	2592.08
1130.848	2582.27
1134.121	2546.9
1137.393	2501.49
1140.665	2563.76
1143.937	2542.76
1147.208	2500.37
1150.48	2543.41
1153.75	2529
1157.021	2551.23
1160.291	2524.7
1163.561	2568.04
1166.831	2552.65
1170.101	2583.15
1173.37	2553.74
1176.639	2501.89
1179.907	2555.28
1183.176	2567.7
1186.444	2570.37
1189.711	2599.66
1192.979	2614.25
1196.246	2569.79
1199.513	2587.27
1202.78	2585.95
1206.046	2595.75
1209.312	2618.56
1212.578	2642.85
1215.843	2598.74
1219.108	2569.8
1222.373	2597.25
1225.638	2562.41
1228.902	2547.83
1232.166	2514.46
1235.43	2497.14
1238.693	2518.76
1241.956	2516.89
1245.219	2561.17
1248.482	2548.6
1251.744	2543.81
1255.006	2682.74
1258.268	2636.05
1261.529	2584.32
1264.79	2589.28
1268.051	2689.77
1271.312	2704.1
1274.572	2674.43
1277.832	2660.64
1281.092	2648.33
1284.351	2626.87
1287.61	2609.69
1290.869	2532.12
1294.128	2513.34
1297.386	2591.4
1300.644	2582.13
1303.902	2591.3
1307.159	2456.5
1310.416	2507.8
1313.673	2531.51
1316.93	2522.5
1320.186	2565.16
1323.442	2603.1
1326.697	2599.36
1329.953	2583.37
1333.208	2607.77
1336.463	2586
1339.717	2532.76
1342.972	2656.4
1346.226	2630.24
1349.479	2570.8
1352.733	2543.96
1355.986	2558.68
1359.238	2538.72
1362.491	2539.6
1365.743	2540.95
1368.995	2534.59
1372.247	2548.51
1375.498	2570.18
1378.749	2590.97
1382	2547.26
1385.251	2593.68
1388.501	2552.79
1391.751	2543.57
1395	2509.4
1398.25	2539.84
1401.499	2553.62
1404.748	2488.23
1407.996	2473.86
1411.244	2462.69
1414.492	2445.27
1417.74	2423.78
1420.987	2434.01
1424.234	2487.9
1427.481	2463.77
1430.728	2523.47
1433.974	2498
1437.22	2507.41
1440.465	2507.79
1443.711	2483.65
1446.956	2510.81
1450.201	2496.8
1453.445	2541.39
1456.689	2519.72
1459.933	2534.1
1463.177	2565.65
1466.42	2538.34
1469.663	2518.23
1472.906	2517.68
1476.148	2577.36
1479.391	2565.41
1482.633	2535.41
1485.874	2544.81
1489.115	2538.27
1492.356	2540.94
1495.597	2517.25
1498.838	2518.32
1502.078	2493.41
1505.318	2452.14
1508.557	2490.96
1511.797	2480.69
1515.036	2518.99
1518.274	2508.75
1521.513	2480.76
1524.751	2496.68
1527.989	2510.79
1531.227	2526.46
1534.464	2526.71
1537.701	2537.47
1540.938	2554.51
1544.174	2508.07
1547.41	2503.05
1550.646	2541.02
1553.882	2582.52
1557.117	2632.78
1560.352	2645.25
1563.587	2605.69
1566.821	2567.46
1570.055	2595.73
1573.289	2569.97
1576.523	2639.06
1579.756	2647.45
1582.989	2668.62
1586.222	2627.56
1589.454	2662.69
1592.686	2641.53
1595.918	2668.15
1599.15	2659.27
1602.381	2724.13
1605.612	2688.67
1608.843	2785.21
1612.073	2700.97
1615.303	2687.76
1618.533	2678.34
1621.762	2684.25
1624.992	2666.37
1628.221	2656.72
1631.449	2644.69
1634.678	2690.3
1637.906	2652.28
1641.134	2686.14
1644.361	2645.45
1647.588	2636.38
1650.815	2652.97
1654.042	2627.29
1657.269	2655.16
1660.495	2615.9
1663.72	2628.48
1666.946	2595.09
1670.171	2549.07
1673.396	2521.57
1676.621	2507.67
1679.845	2519.58
1683.069	2534.74
1686.293	2573.84
1689.517	2554.54
1692.74	2490.86
1695.963	2517.48
1699.185	2539.83
1702.408	2513.5
1705.63	2550.91
1708.852	2564.09
1712.073	2539.48
1715.294	2533.2
1718.515	2586.69
1721.736	2537.46
1724.956	2522.59
1728.176	2548.26
1731.396	2571.86
1734.616	2558.25
1737.835	2589.27
1741.054	2565.84
1744.272	2558.83
1747.491	2589.28
1750.709	2632.57
1753.927	2553.42
1757.144	2593.51
1760.361	2640.9
1763.578	2626.67
1766.795	2569.95
1770.011	2571.98
1773.227	2603.57
1776.443	2642.81
1779.658	2686.77
1782.874	2627.17
1786.089	2610.3
1789.303	2611.32
1792.518	2614.74
1795.732	2602.75
1798.945	2614.38
1802.159	2662.13
1805.372	2576.35
1808.585	2567.23
1811.797	2567.17
1815.01	2605.39
1818.222	2616.01
1821.434	2593.97
1824.645	2647.81
1827.856	2640.01
1831.067	2674.2
1834.278	2625.29
1837.488	2608.71
1840.698	2748.4
1843.908	2680.22
1847.117	2641.92
1850.326	2541.68
1853.535	2629.11
1856.744	2647.15
1859.952	2563.57
1863.16	2563.94
1866.368	2582.99
1869.575	2685.61
1872.782	2574.34
1875.989	2512.89
1879.196	2583.4
1882.402	2576.35
1885.608	2614.86
1888.814	2531.12
1892.019	2431.26
1895.224	2484.96
1898.429	2463.57
1901.634	2443.61
1904.838	2421.05
1908.042	2470.99
1911.246	2481.08
1914.449	2425.48
1917.652	2416.46
1920.855	2398.85
1924.058	2439.12
1927.26	2480
1930.462	2503.77
1933.664	2532.33
1936.865	2473.43
1940.066	2483.57
1943.267	2427.66
1946.467	2439.66
1949.668	2463.83
1952.868	2532.3
1956.067	2513.88
1959.267	2451.46
1962.466	2476.95
1965.665	2462.98
1968.863	2455.68
1972.061	2465.6
1975.259	2463.36
1978.457	2542.19
1981.654	2501.01
1984.852	2500.69
1988.048	2441.12
1991.245	2440.68
1994.441	2524.03
1997.637	2501.16
2000.833	2480.27
2004.028	2519.05
2007.223	2575.41
2010.418	2554.69
2013.613	2516.32
2016.807	2493.36
2020.001	2497.92
2023.194	2534.53
2026.388	2512.88
2029.581	2456.9
2032.774	2508.12
2035.966	2520.78
2039.158	2457.22
2042.35	2483.43
2045.542	2411.47
2048.733	2502.58
2051.924	2518.55
2055.115	2540.24
2058.306	2490.77
2061.496	2547.44
2064.686	2606.93
2067.875	2521.09
2071.065	2529.48
2074.254	2554.09
2077.442	2505.64
2080.631	2593.51
2083.819	2498.12
2087.007	2482.78
2090.195	2460.8
2093.382	2489.58
2096.569	2471.1
2099.756	2428.37
2102.942	2460.18
2106.128	2465.7
2109.314	2457.92
2112.5	2429.03
2115.685	2402.63
2118.87	2410.76
2122.055	2475.03
2125.239	2446.16
2128.424	2425.3
2131.608	2512.31
2134.791	2495.82
2137.974	2546.81
2141.157	2533.75
2144.34	2490.37
2147.523	2499.93
2150.705	2517.07
2153.887	2494.6
2157.068	2450.98
2160.25	2445.27
2163.431	2477.24
2166.611	2432.49
2169.792	2447.48
2172.972	2348.02
2176.152	2420.24
2179.331	2450.93
2182.511	2436.88
2185.69	2463.35
2188.868	2459.88
2192.047	2507.16
2195.225	2506.45
2198.403	2459.27
2201.58	2447.58
2204.758	2444.28
2207.935	2523.57
2211.111	2418.03
2214.288	2406.7
2217.464	2443.89
2220.64	2412.16
2223.815	2464.66
2226.991	2392.97
2230.166	2410.82
2233.34	2441.27
2236.515	2464.41
2239.689	2530.58
2242.863	2478.83
2246.036	2534.4
2249.209	2529.88
2252.382	2559.57
2255.555	2553.78
2258.727	2496.95
2261.9	2532.76
2265.071	2523.92
2268.243	2524.28
2271.414	2462.52
2274.585	2432.76
2277.756	2497.54
2280.926	2453.88
2284.096	2489.33
2287.266	2406.6
2290.436	2456.01
2293.605	2483.63
2296.774	2514
2299.942	2528.48
2303.111	2548.31
2306.279	2596.02
2309.447	2582
2312.614	2554
2315.781	2576.07
2318.948	2548.38
2322.115	2584.13
2325.281	2489.16
2328.447	2503.74
2331.613	2476.96
2334.779	2457.88
2337.944	2458.62
2341.109	2457.37
2344.274	2442.91
2347.438	2410.87
2350.602	2434.36
2353.766	2449.37
2356.929	2436.18
2360.092	2475.21
2363.255	2431.95
2366.418	2378.22
2369.58	2476.16
2372.742	2293.8
2375.904	2300.86
2379.066	2280.82
2382.227	2311.66
2385.388	2274.95
2388.548	2208.53
2391.709	2258.58
2394.869	2240.2
2398.029	2326.42
2401.188	2332.74
2404.347	2277.06
2407.506	2393.85
2410.665	2426.45
2413.823	2427.58
2416.981	2392.5
2420.139	2416.94
2423.296	2465.39
2426.453	2437.2
2429.61	2461.75
2432.767	2406.9
2435.923	2445.43
2439.079	2402.77
2442.235	2449.17
2445.391	2382.05
2448.546	2411.98
2451.701	2456.61
2454.855	2436.8
2458.009	2480.35
2461.163	2479.95
2464.317	2443.37
2467.471	2472.04
2470.624	2507.02
2473.777	2485.56
2476.929	2497.3
2480.082	2522.67
2483.234	2490.63
2486.385	2436.84
2489.537	2433.37
2492.688	2403.33
2495.839	2422.14
2498.989	2433.62
2502.14	2419.16
2505.29	2407.14
2508.439	2428.24
2511.589	2358.94
2514.738	2364.96
2517.887	2392.98
2521.035	2467.16
2524.183	2441.35
2527.331	2423.6
2530.479	2402.67
2533.627	2411.11
