Data from N_2_DEC_NC_4N_Splice17_12-25-06-530.txt Node
Date: Sat Mar 14 12:25:06 EDT 2020
User: sa697716
Spectrometer: FLMS03696
Trigger mode: 0
Integration Time (sec): 3.180400E-1
Scans to average: 20
Electric dark correction enabled: true
Nonlinearity correction enabled: true
Boxcar width: 5
XAxis mode: Wavelengths
Number of Pixels in Spectrum: 2048
>>>>>Begin Spectral Data<<<<<
187.83	-293294.56
188.298	2262.91
188.766	1213.43
189.233	1094.33
189.701	1546.71
190.169	2104.99
190.636	795.26
191.104	630.29
191.571	94.47
192.039	-53.18
192.506	-44.9
192.974	444.14
193.441	-446.44
193.908	-44.54
194.375	11.12
194.842	82.7
195.31	180.76
195.777	183.43
196.244	374.7
196.711	440.04
197.177	544.7
197.644	766.66
198.111	1339.63
198.578	1858.69
199.045	1508.97
199.511	2450.21
199.978	2821.63
200.445	2377.03
200.911	2623.21
201.378	2935.88
201.844	2662.59
202.31	4540.22
202.777	4720.52
203.243	2602.65
203.709	2489.87
204.176	2952.96
204.642	2461.36
205.108	2322.9
205.574	1889.86
206.04	1744.17
206.506	1638.05
206.972	1531.55
207.438	1488.23
207.903	1702.83
208.369	1499.01
208.835	1487.96
209.301	1553.24
209.766	1570.75
210.232	1540.11
210.697	1932.61
211.163	2362.92
211.628	3581.41
212.094	3028.07
212.559	3713.16
213.024	2302.63
213.49	2817.81
213.955	2738.19
214.42	2658.5
214.885	2474.36
215.35	2402.34
215.815	2308.03
216.28	2447.79
216.745	1979.67
217.21	2144.81
217.675	1965.83
218.14	2215.69
218.604	2455.66
219.069	2791.97
219.534	2943.97
219.998	3413.71
220.463	4097.5
220.927	5018.79
221.392	4716.69
221.856	4748.01
222.32	5955.41
222.785	7325.74
223.249	9184.99
223.713	10223.29
224.177	10204.07
224.642	13072.65
225.106	16028.37
225.57	17521.76
226.034	13021.86
226.497	19815.72
226.961	17888.88
227.425	20803.83
227.889	23084.8
228.353	23081.72
228.816	47603.61
229.28	45556.68
229.744	38333.23
230.207	23296.47
230.671	22896.27
231.134	37771.69
231.597	43466.15
232.061	43446.74
232.524	42373.89
232.987	29138.11
233.45	26195.78
233.914	23443.69
234.377	23998.43
234.84	21921.47
235.303	25824.24
235.766	28798.84
236.229	29744.69
236.691	18727.08
237.154	21024.94
237.617	15779.37
238.08	16133.19
238.542	18860.11
239.005	13481.05
239.468	13364.36
239.93	12598.46
240.393	11441.58
240.855	10029.8
241.317	10268.81
241.78	12454.54
242.242	12852.28
242.704	13890.38
243.166	12090.81
243.629	10959.03
244.091	12620.59
244.553	13802.96
245.015	14801.3
245.477	19113.02
245.939	27951.73
246.4	29555.54
246.862	28710.32
247.324	27042.48
247.786	30179.74
248.247	39479.11
248.709	40724.1
249.17	30395.57
249.632	28607.61
250.093	33165.48
250.555	28616.08
251.016	17461.21
251.477	16558.8
251.939	17847.04
252.4	18686.01
252.861	22196.48
253.322	20655.39
253.783	24545.01
254.244	31811.88
254.705	25093.79
255.166	22264.73
255.627	21890.32
256.088	30841.39
256.549	32764.72
257.009	28211.52
257.47	34208.77
257.931	27820.8
258.391	20831.66
258.852	21459.25
259.312	22494.91
259.773	27731.16
260.233	23467.71
260.694	19793.15
261.154	22399.11
261.614	17982.36
262.074	16059.67
262.534	16686.92
262.994	15714.1
263.455	20906.74
263.915	17604.49
264.374	16558.57
264.834	18051.65
265.294	19975.03
265.754	20704.63
266.214	19604.13
266.673	18336.01
267.133	23105.22
267.593	22884.71
268.052	27964.4
268.512	24310.48
268.971	29300.92
269.431	32098.15
269.89	28767.1
270.349	43070.6
270.809	47965.42
271.268	43117.87
271.727	96624.97
272.186	62569.27
272.645	46933.87
273.104	33859.56
273.563	48907.33
274.022	38412.47
274.481	32698.26
274.94	25154.62
275.399	18670.9
275.857	21733.8
276.316	29336.15
276.775	26069.72
277.233	25673.45
277.692	24010.93
278.15	27135.8
278.609	27950.61
279.067	25852.92
279.525	23993.48
279.984	30966
280.442	37214.18
280.9	36665.03
281.358	24119.77
281.816	22494.43
282.274	22030.41
282.732	22753
283.19	22880.31
283.648	19743.26
284.106	21034.53
284.564	21384.67
285.021	19845.2
285.479	14797.64
285.937	13440.35
286.394	11790.25
286.852	12120.9
287.309	12720.5
287.767	12307.61
288.224	11709.92
288.682	12840.84
289.139	14097.16
289.596	12896.1
290.053	13373.63
290.511	16829.64
290.968	20388.08
291.425	27580.31
291.882	22944.08
292.339	19936.82
292.796	19744.09
293.252	18565.27
293.709	14748.06
294.166	13196.27
294.623	14568.26
295.079	13970.31
295.536	14040.61
295.992	12736.38
296.449	12620.95
296.905	13118.95
297.362	12596.13
297.818	13243.19
298.274	13745.29
298.731	13977.79
299.187	13817.65
299.643	14835.75
300.099	17947.37
300.555	19684.86
301.011	16440.45
301.467	15867.26
301.923	18539.11
302.379	18110.48
302.835	17757.61
303.291	17763.94
303.746	20205.98
304.202	25525.18
304.658	25604.35
305.113	17198.09
305.569	16824.87
306.024	17956.36
306.479	17058.13
306.935	14405.69
307.39	15692.64
307.845	14502.46
308.301	14603.46
308.756	14234.43
309.211	13707.7
309.666	14035.37
310.121	17436.47
310.576	17700.41
311.031	17522.16
311.486	20064.72
311.94	20019.27
312.395	26777.19
312.85	50311.7
313.305	246369.98
313.759	1275981.72
314.214	92596.46
314.668	73478.85
315.123	61852.11
315.577	22208.71
316.032	19796.96
316.486	24766.34
316.94	19531.29
317.394	13582.54
317.849	10554.13
318.303	9994.09
318.757	9421.6
319.211	10403.94
319.665	9077.45
320.119	9180.44
320.572	13135.12
321.026	12246.58
321.48	10178.19
321.934	11085.11
322.387	11094.61
322.841	11967.39
323.295	10768.7
323.748	12386.92
324.202	12541.69
324.655	15081.53
325.108	21100.06
325.562	14893.38
326.015	17684.1
326.468	13379.84
326.921	14971.07
327.374	13968.45
327.827	14542.31
328.28	16466.31
328.733	11016.48
329.186	9701
329.639	9230.73
330.092	7757
330.545	7390.71
330.997	7450.06
331.45	8148.67
331.903	9555.41
332.355	16432.02
332.808	15959.6
333.26	13145.48
333.713	14308.53
334.165	14390.31
334.617	19237.79
335.069	15527.8
335.522	28068.36
335.974	31056.1
336.426	28311.32
336.878	19508.46
337.33	9904.24
337.782	9652.88
338.234	12088.14
338.686	14442.7
339.137	17123.05
339.589	16099.01
340.041	12600.29
340.493	10856.34
340.944	11127.07
341.396	11994.47
341.847	10107.39
342.299	11931.42
342.75	14585.22
343.201	12721.82
343.653	14632.81
344.104	17966.75
344.555	14151.62
345.006	22042.23
345.457	16841.71
345.908	13341.8
346.359	12544.24
346.81	10239.46
347.261	10773.09
347.712	10595.77
348.163	11370.2
348.613	11505.97
349.064	10750.37
349.515	9409.16
349.965	9658.54
350.416	11624.49
350.866	12815.11
351.317	14500.71
351.767	23942.75
352.217	30198.85
352.668	25101.91
353.118	22980.58
353.568	22116.81
354.018	17518.5
354.468	18507.26
354.918	13266.67
355.368	11609.66
355.818	16364.25
356.268	46995.29
356.718	196884.59
357.168	49097.93
357.617	24640.16
358.067	27423.52
358.517	25766.11
358.966	30171.91
359.416	33836.61
359.865	36614.97
360.315	43636.63
360.764	20367.15
361.213	11409.01
361.663	10795.39
362.112	13295.99
362.561	21442.05
363.01	16177.05
363.459	13570.97
363.908	14676.13
364.357	12456.41
364.806	20993.02
365.255	14402.44
365.703	13203.38
366.152	13235.33
366.601	10720.83
367.05	8715.63
367.498	7930.71
367.947	8277
368.395	8609
368.844	7621.29
369.292	9159.72
369.74	6342.21
370.189	9713.79
370.637	11378.11
371.085	9825.68
371.533	12000.55
371.981	11554.51
372.429	11036.51
372.877	11486.32
373.325	9631.15
373.773	9804.53
374.221	8724.68
374.669	10798.07
375.116	9327.21
375.564	9375.73
376.012	10443.58
376.459	8619.2
376.907	10296.47
377.354	12416.4
377.801	11614.28
378.249	13339.52
378.696	17025.13
379.143	20652.92
379.591	21936.18
380.038	37233.12
380.485	26957.25
380.932	29173.66
381.379	26683.79
381.826	19682.05
382.273	13955.41
382.72	12134.33
383.166	11849.71
383.613	7689.77
384.06	6929.72
384.506	8033.94
384.953	5881.99
385.4	5936.2
385.846	5203.56
386.292	5058.22
386.739	4954.61
387.185	4904.66
387.631	4923.59
388.078	4779.67
388.524	5121.94
388.97	4722.67
389.416	3954.92
389.862	4216.88
390.308	3994.38
390.754	4053.94
391.2	4405.73
391.645	4513.75
392.091	4355.26
392.537	4220.16
392.983	4240.43
393.428	4205.39
393.874	4526.24
394.319	4565.16
394.765	4355.7
395.21	4474.26
395.655	4220.4
396.101	3971.78
396.546	3596.48
396.991	3620.91
397.436	3382.49
397.881	3272.08
398.326	3092.8
398.771	2945.21
399.216	2577.42
399.661	2323.61
400.106	2338.77
400.551	2403.78
400.995	2166.48
401.44	2151.61
401.885	2029.65
402.329	2052.04
402.774	1970.94
403.218	1925.11
403.663	1856.86
404.107	1919.38
404.551	1939.7
404.995	1782.58
405.44	1721.32
405.884	1746.71
406.328	1690.68
406.772	1689.62
407.216	1548.97
407.66	1503.41
408.104	1424.65
408.547	1335.72
408.991	1291.63
409.435	1244.02
409.879	1229.76
410.322	1217.21
410.766	1182.18
411.209	1129.76
411.653	1089.1
412.096	1067.36
412.54	1068.63
412.983	1062.96
413.426	1070.74
413.869	1071.89
414.312	1056.87
414.756	1019.33
415.199	974.6
415.642	946.99
416.085	948.38
416.527	939.23
416.97	951.59
417.413	904.95
417.856	894.9
418.298	883.9
418.741	879.06
419.184	876.39
419.626	911.66
420.069	913.59
420.511	919.86
420.953	902.54
421.396	895.91
421.838	874.84
422.28	897.75
422.722	906.05
423.164	921.2
423.606	906.22
424.048	903.02
424.49	859.59
424.932	850.41
425.374	836.69
425.816	850.06
426.258	866.06
426.699	874.95
427.141	861.95
427.582	871.15
428.024	866.11
428.465	858.22
428.907	838.33
429.348	826.22
429.789	830.52
430.231	814.95
430.672	827.33
431.113	808.22
431.554	796.3
431.995	777.85
432.436	753.42
432.877	737.42
433.318	728.09
433.759	725.36
434.2	727.35
434.64	718.08
435.081	720.92
435.522	682.91
435.962	658.87
436.403	645.83
436.843	652.74
437.284	638.06
437.724	620.66
438.164	621.79
438.604	608.41
439.045	585.71
439.485	563.41
439.925	551.43
440.365	538.32
440.805	532.08
441.245	530.11
441.685	513
442.125	510.49
442.564	516.26
443.004	505.81
443.444	506.17
443.883	509.99
444.323	506.9
444.762	509.17
445.202	516.31
445.641	529.29
446.081	524.69
446.52	530.45
446.959	528.81
447.398	518.94
447.837	517.21
448.276	510.36
448.716	517.5
449.154	524.54
449.593	514.38
450.032	514.43
450.471	504.9
450.91	508.18
451.349	508.49
451.787	506.95
452.226	514.59
452.664	514.4
453.103	517.64
453.541	516.41
453.98	518.17
454.418	524.11
454.856	518.48
455.295	519.5
455.733	524.46
456.171	528.44
456.609	531.59
457.047	531.92
457.485	541.75
457.923	543.4
458.361	537.81
458.798	539.03
459.236	537.22
459.674	540.22
460.111	543.42
460.549	538.73
460.987	536.95
461.424	534.21
461.862	532.12
462.299	523.05
462.736	522.42
463.173	523.64
463.611	519.74
464.048	518.6
464.485	523.85
464.922	518.65
465.359	515.63
465.796	513.17
466.233	510.16
466.67	507.29
467.106	508.05
467.543	502.49
467.98	496.74
468.416	484.23
468.853	481.11
469.29	467
469.726	463.27
470.162	451.05
470.599	441.94
471.035	437.43
471.471	426.42
471.907	423.51
472.344	421.92
472.78	424.19
473.216	428.84
473.652	424.9
474.088	425.18
474.523	424.42
474.959	429.39
475.395	426.34
475.831	425.4
476.266	427.79
476.702	426.8
477.138	423.45
477.573	421.47
478.008	420.62
478.444	422.36
478.879	426.85
479.314	429.32
479.75	429.74
480.185	432.24
480.62	436.46
481.055	440.08
481.49	443.6
481.925	449.72
482.36	459.56
482.795	472.17
483.229	485.18
483.664	496.11
484.099	498.87
484.534	506.95
484.968	512.3
485.403	513.83
485.837	513.5
486.271	514.15
486.706	516.15
487.14	510.09
487.574	503.69
488.009	500.99
488.443	497.05
488.877	503.29
489.311	506.43
489.745	514.27
490.179	521.42
490.613	533.95
491.046	539.58
491.48	545.83
491.914	549.39
492.348	556.09
492.781	562.2
493.215	567
493.648	569.84
494.082	577.63
494.515	581.5
494.948	591.32
495.382	598.06
495.815	606.18
496.248	614.41
496.681	630.34
497.114	644.47
497.547	657.06
497.98	673.11
498.413	684.48
498.846	697.85
499.279	711.11
499.711	720.05
500.144	727.6
500.577	743.17
501.009	759.6
501.442	774.29
501.874	782.35
502.306	790.48
502.739	804.9
503.171	824.99
503.603	834.63
504.036	849.65
504.468	861.54
504.9	879.08
505.332	891.48
505.764	902.03
506.196	914.59
506.627	934.27
507.059	955.18
507.491	969.67
507.923	974.51
508.354	995.77
508.786	1011.91
509.217	1035.8
509.649	1057.18
510.08	1082.29
510.512	1105.81
510.943	1127.16
511.374	1146.13
511.805	1172.22
512.237	1198.13
512.668	1237.02
513.099	1271.34
513.53	1306.61
513.961	1334.01
514.391	1373.53
514.822	1414.84
515.253	1457.01
515.684	1488.97
516.114	1524.07
516.545	1548.85
516.975	1580.27
517.406	1602.27
517.836	1607.42
518.267	1616.01
518.697	1639.1
519.127	1645.23
519.558	1654.5
519.988	1659.75
520.418	1671.2
520.848	1691.58
521.278	1703.74
521.708	1719.81
522.138	1733.94
522.567	1769.15
522.997	1797.93
523.427	1814.33
523.857	1833.42
524.286	1845.82
524.716	1862.51
525.145	1884.79
525.575	1897
526.004	1912.56
526.433	1909.07
526.863	1910.17
527.292	1897.59
527.721	1903.86
528.15	1910.2
528.579	1909.6
529.008	1919.49
529.437	1945.17
529.866	1959.33
530.295	1977.16
530.724	1991.22
531.152	2020.76
531.581	2035.86
532.01	2055.81
532.438	2064.38
532.867	2080.76
533.295	2101.21
533.723	2109.16
534.152	2106.24
534.58	2107.17
535.008	2089.89
535.436	2091.45
535.865	2100.31
536.293	2117.09
536.721	2135.53
537.149	2164.05
537.576	2167.11
538.004	2182.18
538.432	2190.41
538.86	2188.71
539.287	2196.36
539.715	2212.75
540.143	2216.15
540.57	2211.99
540.998	2206.75
541.425	2180.41
541.852	2157.57
542.28	2154.99
542.707	2135.52
543.134	2120.14
543.561	2115.39
543.988	2106.02
544.415	2104.56
544.842	2097.54
545.269	2088.24
545.696	2090.66
546.123	2104.58
546.549	2090.88
546.976	2076.42
547.403	2075.55
547.829	2077.45
548.256	2079.02
548.682	2074.46
549.108	2065.1
549.535	2064.7
549.961	2067.79
550.387	2052.43
550.813	2045.68
551.24	2052.94
551.666	2054.08
552.092	2043.23
552.518	2034.75
552.943	2027.89
553.369	2036.59
553.795	2042.38
554.221	2042.89
554.646	2038.62
555.072	2050.73
555.498	2057
555.923	2068.82
556.349	2084.88
556.774	2094.83
557.199	2097.44
557.625	2104.55
558.05	2097.92
558.475	2111.72
558.9	2111.15
559.325	2102.37
559.75	2096.1
560.175	2089.07
560.6	2081.85
561.025	2080.93
561.449	2083.06
561.874	2090.57
562.299	2096.6
562.723	2105.26
563.148	2093.71
563.572	2099.64
563.997	2112.48
564.421	2119.72
564.846	2121.27
565.27	2126.33
565.694	2124.39
566.118	2139.79
566.542	2148.64
566.966	2142.44
567.39	2138.99
567.814	2127.36
568.238	2127.67
568.662	2135.01
569.086	2139.81
569.509	2150.46
569.933	2133.05
570.357	2126.5
570.78	2102.54
571.204	2089.21
571.627	2078.9
572.05	2077.67
572.474	2079.19
572.897	2065.97
573.32	2057.09
573.743	2046.19
574.166	2025.06
574.589	2026.5
575.012	2018.28
575.435	2018.41
575.858	2007.87
576.281	1994.81
576.704	1976.38
577.126	1961.4
577.549	1948.46
577.972	1937.68
578.394	1925.1
578.817	1917.23
579.239	1895.63
579.661	1878.58
580.084	1859.97
580.506	1844.28
580.928	1839.11
581.35	1827.2
581.772	1822.56
582.194	1807.62
582.616	1791.92
583.038	1776.39
583.46	1763.51
583.882	1760.18
584.303	1766.87
584.725	1760.72
585.147	1762.36
585.568	1775.15
585.99	1787.77
586.411	1795.47
586.833	1811.9
587.254	1814.5
587.675	1829.95
588.096	1844.7
588.518	1839.04
588.939	1818.27
589.36	1817.67
589.781	1806.88
590.202	1773.66
590.623	1764.91
591.043	1762.93
591.464	1748.76
591.885	1744.33
592.305	1738.12
592.726	1722.11
593.147	1723.4
593.567	1717.26
593.987	1708.03
594.408	1702.56
594.828	1700.82
595.248	1693.72
595.669	1672.41
596.089	1664.36
596.509	1657.2
596.929	1641.45
597.349	1642.83
597.769	1630.85
598.189	1624.22
598.608	1625.58
599.028	1627.81
599.448	1628.15
599.867	1613.79
600.287	1608.14
600.706	1602.84
601.126	1591.93
601.545	1590.64
601.965	1588.78
602.384	1582.34
602.803	1584.26
603.222	1578.3
603.641	1569.47
604.061	1564.01
604.48	1559.17
604.898	1568.36
605.317	1573.27
605.736	1574.16
606.155	1570.25
606.574	1559.66
606.992	1565.48
607.411	1560.6
607.829	1550.49
608.248	1545.86
608.666	1541.83
609.085	1540.23
609.503	1528.69
609.921	1520.96
610.339	1522.94
610.758	1520.72
611.176	1513.9
611.594	1501.48
612.012	1496.88
612.43	1499.2
612.847	1506.28
613.265	1506.04
613.683	1508.6
614.101	1509.85
614.518	1504.97
614.936	1492.03
615.353	1473.94
615.771	1468.95
616.188	1469.63
616.606	1464.57
617.023	1455.42
617.44	1437.89
617.857	1430.58
618.274	1420.89
618.691	1412.2
619.108	1399.79
619.525	1391.5
619.942	1398.94
620.359	1401.83
620.776	1395.21
621.192	1390.39
621.609	1387.43
622.026	1393.72
622.442	1399.32
622.859	1402.89
623.275	1395.9
623.691	1401.78
624.108	1415.07
624.524	1430.84
624.94	1429.09
625.356	1439.57
625.772	1453.65
626.188	1467.88
626.604	1470.46
627.02	1465.07
627.436	1461.87
627.852	1468.46
628.268	1483.11
628.683	1473.46
629.099	1463.2
629.514	1458.5
629.93	1462.34
630.345	1465.85
630.761	1460.02
631.176	1463.46
631.591	1457.8
632.007	1451.36
632.422	1448.09
632.837	1434.01
633.252	1430.52
633.667	1418.87
634.082	1408.68
634.497	1393.29
634.911	1371.07
635.326	1366.37
635.741	1345.92
636.155	1332.57
636.57	1332.71
636.984	1332.01
637.399	1332.98
637.813	1331.5
638.228	1328.97
638.642	1331.82
639.056	1320.68
639.47	1319.72
639.884	1307.85
640.298	1299.94
640.712	1297.56
641.126	1282.32
641.54	1271.67
641.954	1263.97
642.368	1247.65
642.781	1236.38
643.195	1214.72
643.609	1211.46
644.022	1202.21
644.436	1196.19
644.849	1180.26
645.262	1163.84
645.676	1161.87
646.089	1152.24
646.502	1132.6
646.915	1124.12
647.328	1103.67
647.741	1099.33
648.154	1082.08
648.567	1075.42
648.98	1058.72
649.393	1054.96
649.805	1049.14
650.218	1037.81
650.631	1018.84
651.043	1009.68
651.456	1000.63
651.868	997.47
652.28	1011.18
652.693	1021.82
653.105	1024.5
653.517	1031.51
653.929	1028.48
654.341	1029.53
654.753	1013.49
655.165	1016.13
655.577	1009.21
655.989	1000.94
656.401	988.97
656.813	948.01
657.224	924.11
657.636	891.43
658.047	867.3
658.459	843.53
658.87	829.28
659.282	812.73
659.693	787.48
660.104	768.06
660.515	748.88
660.926	741.02
661.338	732.47
661.749	719.73
662.159	705.82
662.57	695.03
662.981	684.35
663.392	671
663.803	667.47
664.213	657.82
664.624	647.09
665.035	642.52
665.445	624.75
665.855	613.05
666.266	601.13
666.676	593.64
667.086	581.71
667.497	577.04
667.907	568.26
668.317	557.06
668.727	552.13
669.137	549.42
669.547	544.3
669.956	542.14
670.366	540.61
670.776	539.4
671.186	539.84
671.595	540.56
672.005	540.05
672.414	537.86
672.824	535.81
673.233	535.93
673.642	536.9
674.052	538.93
674.461	540.97
674.87	543.61
675.279	540.9
675.688	541.42
676.097	541.69
676.506	538.98
676.915	548.71
677.323	550.36
677.732	549.52
678.141	549.64
678.549	542.45
678.958	543.05
679.366	543.67
679.775	548.97
680.183	559.8
680.592	566.7
681	575.24
681.408	574.89
681.816	585.57
682.224	598.45
682.632	612.6
683.04	643.02
683.448	669.44
683.856	703
684.264	741.88
684.671	778.2
685.079	823.41
685.487	873.08
685.894	938.78
686.302	997.93
686.709	1051.25
687.116	1112.09
687.524	1166.06
687.931	1217.02
688.338	1261.27
688.745	1301.62
689.152	1344.94
689.559	1401.58
689.966	1456.68
690.373	1490.68
690.78	1542.9
691.187	1616.24
691.593	1674.05
692	1724.93
692.407	1795.9
692.813	1881.6
693.22	1949.96
693.626	2021.47
694.032	2076.47
694.439	2159.36
694.845	2224.68
695.251	2305.19
695.657	2376.53
696.063	2481.91
696.469	2559.16
696.875	2630.39
697.281	2669.55
697.687	2719.05
698.093	2756.68
698.498	2834.87
698.904	2892.94
699.31	2982.35
699.715	3043.92
700.12	3135.45
700.526	3150.31
700.931	3218.34
701.337	3267.78
701.742	3297.1
702.147	3381.18
702.552	3409.57
702.957	3468.14
703.362	3483.41
703.767	3509.22
704.172	3547.09
704.577	3492.31
704.981	3536.43
705.386	3551.12
705.791	3537.72
706.195	3611.68
706.6	3615.51
707.004	3693.04
707.408	3655.85
707.813	3679.06
708.217	3660.6
708.621	3656.42
709.025	3753.34
709.43	3750.76
709.834	3805.76
710.237	3872.59
710.641	3852.46
711.045	3870.74
711.449	3861.37
711.853	3885.3
712.256	3923.03
712.66	3959.15
713.064	4033.31
713.467	4072.59
713.87	4181.68
714.274	4223.8
714.677	4329.71
715.08	4488.2
715.484	4653.25
715.887	4852.74
716.29	5051.74
716.693	5259.83
717.096	5494.07
717.499	5621.7
717.901	5644.72
718.304	5665.65
718.707	5688.08
719.109	5580.88
719.512	5544.89
719.915	5403.38
720.317	5340.92
720.719	5379.84
721.122	5345.29
721.524	5291.75
721.926	5246.03
722.328	5338.3
722.731	5325.05
723.133	5348.22
723.535	5538.26
723.937	5554.85
724.338	5604.29
724.74	5643.79
725.142	5576.03
725.544	5569.76
725.945	5593.07
726.347	5585.42
726.748	5574.95
727.15	5585.87
727.551	5543.62
727.952	5514.54
728.354	5484.72
728.755	5479.3
729.156	5435.19
729.557	5418.99
729.958	5298.95
730.359	5242.2
730.76	5221.32
731.161	5159.81
731.562	5130.95
731.962	5132.75
732.363	5067.63
732.763	5001.13
733.164	5035.48
733.564	4966.1
733.965	4869.72
734.365	4832.67
734.766	4857.88
735.166	4817.98
735.566	4762.58
735.966	4738.92
736.366	4733.98
736.766	4670.2
737.166	4700.14
737.566	4658.09
737.966	4631.96
738.365	4669.48
738.765	4663.12
739.165	4589.72
739.564	4561.15
739.964	4604.6
740.363	4557.4
740.763	4553.13
741.162	4541.32
741.561	4509.05
741.96	4465.15
742.36	4485.47
742.759	4488.85
743.158	4526.45
743.557	4540.15
743.955	4581.52
744.354	4534.04
744.753	4590.28
745.152	4547.21
745.55	4601.38
745.949	4593.04
746.348	4592.14
746.746	4605.84
747.144	4570.09
747.543	4545.66
747.941	4591.68
748.339	4521.63
748.737	4516.55
749.136	4506.35
749.534	4570.25
749.932	4541.52
750.33	4564.86
750.727	4619.3
751.125	4595.83
751.523	4578.41
751.921	4620.37
752.318	4587.09
752.716	4642.43
753.113	4654.24
753.511	4678.35
753.908	4678.85
754.305	4661.41
754.703	4721.01
755.1	4780.24
755.497	4837.82
755.894	5022.01
756.291	5193.74
756.688	5512.35
757.085	5939.18
757.482	6539.46
757.878	7193.12
758.275	7784.43
758.672	8595.96
759.068	9260.4
759.465	10201.87
759.861	11415.04
760.258	12829.71
760.654	13566.31
761.05	13458.77
761.447	12843.09
761.843	11951.02
762.239	11034.76
762.635	10615.97
763.031	10219.6
763.427	9646.85
763.822	9045.84
764.218	8456.6
764.614	7680.42
765.01	7162.96
765.405	6827.34
765.801	6571.84
766.196	6249.43
766.592	6066.97
766.987	5762.18
767.382	5555.66
767.778	5467.14
768.173	5341.09
768.568	5268.08
768.963	5148.36
769.358	5163.81
769.753	5119.12
770.148	5038.86
770.542	5034.62
770.937	5002.96
771.332	5092.53
771.726	5111.89
772.121	5050.14
772.515	5099.71
772.91	5086.36
773.304	5153.47
773.699	5089.15
774.093	5141.24
774.487	5195.32
774.881	5236.64
775.275	5233.95
775.669	5192.14
776.063	5234.76
776.457	5269.73
776.851	5200.76
777.245	5195.85
777.638	5228.03
778.032	5339.81
778.425	5302.45
778.819	5341.8
779.212	5301.46
779.606	5262.81
779.999	5283.5
780.392	5269
780.786	5348.35
781.179	5368.99
781.572	5410.25
781.965	5423.04
782.358	5369.2
782.751	5422.39
783.143	5376.26
783.536	5448.02
783.929	5489.66
784.322	5600.69
784.714	5629.49
785.107	5623.48
785.499	5695.66
785.891	5672.97
786.284	5654.37
786.676	5790.61
787.068	5773.06
787.46	5823.88
787.852	5844.03
788.245	5926.74
788.636	5953.81
789.028	6017.27
789.42	6059.08
789.812	6066.07
790.204	6157.81
790.595	6251.36
790.987	6064.22
791.378	6087.94
791.77	6211.57
792.161	6340.52
792.553	6394.24
792.944	6290.09
793.335	6225.8
793.726	6297.64
794.117	6379.89
794.508	6510.9
794.899	6483.86
795.29	6616.29
795.681	6672.9
796.072	6532.64
796.463	6354.03
796.853	6362.7
797.244	6509.02
797.634	6542.21
798.025	6537.78
798.415	6552.66
798.806	6639.44
799.196	6720.52
799.586	6767.31
799.976	6731.33
800.366	6954.17
800.756	7185.48
801.146	7143.79
801.536	7174.75
801.926	7243.58
802.316	7270.25
802.706	7334.58
803.095	7217.28
803.485	7316.82
803.874	7360.52
804.264	7607.89
804.653	7581.8
805.043	7719.89
805.432	7831.86
805.821	7833.53
806.21	7854.93
806.599	7970.57
806.988	8015.77
807.377	8116.65
807.766	8236.27
808.155	8509.9
808.544	8257.39
808.933	8270.8
809.321	8252.29
809.71	8531.44
810.098	8679.57
810.487	9121.09
810.875	9579.62
811.264	9604.46
811.652	9884.17
812.04	10029.03
812.428	10182.79
812.816	10920.44
813.204	11325.26
813.592	11858.56
813.98	12186.66
814.368	12105.72
814.756	12565.34
815.144	12484.56
815.531	12929.77
815.919	12854.46
816.306	13146.73
816.694	12845.72
817.081	12884.91
817.469	13218.58
817.856	13217.48
818.243	13473.64
818.63	13841.69
819.017	13442.94
819.404	13505.92
819.791	13877.17
820.178	14474.25
820.565	14717.11
820.952	15617.18
821.339	15151.14
821.725	15327.11
822.112	14611.62
822.498	14576.33
822.885	14700.3
823.271	14608.37
823.657	15016.45
824.044	15021.67
824.43	15093.36
824.816	15068.63
825.202	14649.54
825.588	15628.84
825.974	15646.41
826.36	16147.37
826.746	16180.95
827.132	16530.5
827.517	16506.42
827.903	15744.49
828.289	15778.02
828.674	15032.85
829.06	14932.16
829.445	15319.07
829.83	15658.68
830.216	16118.15
830.601	16464.95
830.986	16065.93
831.371	15932.87
831.756	16469.54
832.141	16065.93
832.526	16067.88
832.911	16338.04
833.295	16216.99
833.68	16656.46
834.065	16060.51
834.449	15181.57
834.834	15111.63
835.218	15115.41
835.603	15440.79
835.987	15242.18
836.371	16035.82
836.755	15925.96
837.139	16302.86
837.524	16543.51
837.908	16376.47
838.291	16435.42
838.675	16505.79
839.059	16706.66
839.443	16689.71
839.827	16472.93
840.21	16923.75
840.594	16782.77
840.977	16990.48
841.361	16975.01
841.744	17333.2
842.127	17187.35
842.511	17425.48
842.894	17998.39
843.277	18360.77
843.66	18886.97
844.043	18964.35
844.426	18192.2
844.809	17891.1
845.191	17916.21
845.574	17476.17
845.957	17117.19
846.339	17015.04
846.722	16513.06
847.104	16576.35
847.487	16414.87
847.869	16426.1
848.252	16692.37
848.634	17014.72
849.016	17265.5
849.398	17387.95
849.78	18202.09
850.162	18213.87
850.544	18611.83
850.926	19217.37
851.307	19126.91
851.689	19391.2
852.071	19824.09
852.452	20132.81
852.834	20114.71
853.215	20502.61
853.597	20649.25
853.978	20924.86
854.359	21370.09
854.741	20413.36
855.122	20312.27
855.503	20042.46
855.884	20170.37
856.265	20113.82
856.646	20227.12
857.026	19853.24
857.407	19788.71
857.788	19940.51
858.169	20223.36
858.549	19407.25
858.93	20012
859.31	20059.43
859.69	20260.32
860.071	19877.82
860.451	19663.29
860.831	18952.76
861.211	20057.52
861.591	20579.88
861.971	20554.92
862.351	20745.26
862.731	21120.31
863.111	21363.32
863.491	21678.38
863.87	22519.81
864.25	22846.1
864.629	22469.13
865.009	22959.06
865.388	23767.96
865.768	25483.05
866.147	25377.93
866.526	23967.38
866.905	24250.99
867.284	25610.4
867.663	24322.19
868.042	23311.15
868.421	23236.33
868.8	23614.17
869.179	23847.05
869.558	22460.4
869.936	20699.34
870.315	21077.09
870.693	21583.29
871.072	23263.23
871.45	22161.74
871.828	22445.34
872.207	23589.6
872.585	23228.85
872.963	23862.81
873.341	23042.92
873.719	22771.8
874.097	22486.89
874.475	22905.97
874.853	23431.49
875.23	22448.61
875.608	23391.12
875.986	25293.45
876.363	24190.94
876.741	24927.25
877.118	24299.48
877.495	25487.89
877.873	25913.21
878.25	27265.31
878.627	26155.53
879.004	26526.82
879.381	26411.27
879.758	25710.17
880.135	23929.38
880.512	25295.72
880.889	24629.86
881.265	24382.5
881.642	24190.92
882.019	24601.58
882.395	24106.27
882.772	25058.23
883.148	23976.03
883.524	23883.8
883.901	23740.79
884.277	24108.39
884.653	23956.64
885.029	24647.34
885.405	27292.98
885.781	27078.83
886.157	25966.83
886.532	26282.93
886.908	26277.42
887.284	29214.59
887.659	30168.97
888.035	31112.23
888.411	31914.24
888.786	32337.02
889.161	33457.28
889.537	32826.15
889.912	33874.3
890.287	33840.25
890.662	34722.86
891.037	34088.35
891.412	31782.46
891.787	31462.52
892.162	30373.39
892.536	31082.72
892.911	29915.81
893.286	29283.67
893.66	28119.4
894.035	28824.08
894.409	31385.76
894.784	30119.36
895.158	30625.09
895.532	32443.91
895.906	33329.1
896.281	34112.44
896.655	33567.99
897.029	38364.92
897.402	39970.59
897.776	44494.79
898.15	44355.82
898.524	43870.92
898.898	44463.35
899.271	49764.34
899.645	43106.65
900.018	41416.55
900.392	42951.3
900.765	43301.68
901.138	40079.06
901.511	39460.98
901.884	36201.47
902.258	33408.98
902.631	34523.41
903.003	39724.12
903.376	35856.5
903.749	40193.52
904.122	43005.08
904.495	47356.89
904.867	47929.34
905.24	41599.89
905.612	38733.37
905.985	39631.33
906.357	41424.53
906.729	39543.08
907.102	33780.3
907.474	32481.78
907.846	32694.03
908.218	32263.75
908.59	28498.7
908.962	27572.76
909.334	29684.11
909.705	31167.73
910.077	30255.14
910.449	31486.81
910.82	32378.89
911.192	35618.65
911.563	36994.2
911.935	39573.03
912.306	39618.41
912.677	40924.47
913.048	40510.67
913.419	43968.4
913.79	44225.19
914.161	47425.78
914.532	45323.17
914.903	41643.23
915.274	39553.71
915.645	38975.72
916.015	34309.03
916.386	32709.13
916.756	34804.87
917.127	35908.56
917.497	32088.1
917.868	34934.08
918.238	33200.21
918.608	34148.44
918.978	34852.46
919.348	36898.19
919.718	38112.48
920.088	36722.04
920.458	38149.9
920.828	40147.91
921.198	38070.26
921.567	40679.97
921.937	31487.61
922.306	31796.08
922.676	34291.93
923.045	28603.16
923.415	27173.01
923.784	24763.53
924.153	25464.6
924.522	25446.52
924.891	23922.13
925.26	25613.67
925.629	24987.72
925.998	28732.77
926.367	28048.27
926.736	26735.56
927.104	31862.19
927.473	34280.09
927.842	41391.94
928.21	41011.72
928.578	43109.35
928.947	40773
929.315	41058.86
929.683	48187.1
930.051	48559.8
930.42	56349.78
930.788	48143.74
931.156	47748.45
931.523	44741.8
931.891	41360.92
932.259	39705.9
932.627	46036.45
932.994	65155.96
933.362	53827.46
933.729	46732.34
934.097	44745.56
934.464	37877.55
934.831	43683.56
935.199	43071.34
935.566	41769.6
935.933	42392.25
936.3	51349.12
936.667	39996.76
937.034	36079.49
937.401	35679.67
937.767	30800.91
938.134	27448.11
938.501	38752.4
938.867	41309.48
939.234	69827.65
939.6	59580.58
939.967	65530.85
940.333	43859.62
940.699	37354.99
941.065	29975.82
941.431	39292.02
941.798	37884.1
942.163	49703.53
942.529	31053.2
942.895	28621.6
943.261	18527.31
943.627	24313.15
943.992	21269.22
944.358	21322.11
944.723	21380.13
945.089	20837.56
945.454	19281.92
945.82	20597.58
946.185	19804.12
946.55	22933.91
946.915	20556.57
947.28	24133.25
947.645	21248.11
948.01	19619.64
948.375	20456.94
948.74	24514.66
949.104	28599.83
949.469	41294.37
949.834	72916.66
950.198	69060.59
950.562	41337.81
950.927	34442.72
951.291	41419.31
951.655	35285.28
952.02	33149.63
952.384	25072.66
952.748	21832.14
953.112	21289.45
953.476	18518.64
953.839	17144.57
954.203	16977.32
954.567	21271.42
954.931	33549.43
955.294	28719.57
955.658	28876.9
956.021	49047.61
956.385	83117.97
956.748	122590.91
957.111	190011.77
957.474	213201.26
957.837	239723.92
958.2	181439.06
958.563	65189.77
958.926	44006.55
959.289	66773.22
959.652	74594.96
960.015	56023.75
960.377	80380.36
960.74	91706.03
961.102	158236.04
961.465	169904.29
961.827	91110.21
962.189	174784.39
962.552	121185.15
962.914	97204.19
963.276	63026.4
963.638	52112.76
964	51585.84
964.362	34870.9
964.724	33714.77
965.085	24068.84
965.447	19737.71
965.809	22468.75
966.17	22493.19
966.532	24361.17
966.893	22345.72
967.255	20337.17
967.616	23999.66
967.977	19227.49
968.338	21020.02
968.699	17274.43
969.061	17279.28
969.421	17383.23
969.782	19520.17
970.143	16485.87
970.504	17074.54
970.865	19406.05
971.225	19842.82
971.586	19421.02
971.946	27684.13
972.307	24001.87
972.667	31397.61
973.027	32327.63
973.388	39211.24
973.748	26672.99
974.108	29060.01
974.468	39300.01
974.828	30291.41
975.188	23321.14
975.548	21414.34
975.907	17973.17
976.267	20168.42
976.627	16970.35
976.986	17592.3
977.346	16775.71
977.705	16138.68
978.064	14701.41
978.424	12242.68
978.783	12664.67
979.142	14443.07
979.501	13830.48
979.86	14625.8
980.219	14094.53
980.578	18153.73
980.937	20322.76
981.296	18122.23
981.654	18647.86
982.013	29019.06
982.371	37639.69
982.73	35168.11
983.088	39846.16
983.447	42519.37
983.805	60774.85
984.163	126965.42
984.521	140818.95
984.879	206327.03
985.237	-335405.75
985.595	323173.53
985.953	80333.91
986.311	46391.58
986.669	26922.63
987.026	23270.87
987.384	31295.35
987.741	32326.36
988.099	23115.15
988.456	18428.38
988.814	17255.82
989.171	14979.32
989.528	14784.14
989.885	15610.14
990.242	12353.8
990.599	15402.55
990.956	12581.89
991.313	8796.78
991.67	7225.36
992.027	7666.47
992.383	6807.99
992.74	5974.11
993.096	6279.33
993.453	6526.6
993.809	6764.18
994.165	9009.96
994.522	8243.58
994.878	9081.05
995.234	11395.91
995.59	11240.68
995.946	10617.5
996.302	12136.44
996.658	14041.93
997.013	15473.73
997.369	18319.81
997.725	23475.32
998.08	15253.46
998.436	23543.24
998.791	32497
999.147	32525.39
999.502	35499.01
999.857	25860.21
1000.212	42141.29
1000.567	60038.8
1000.922	34563.96
1001.277	21943.54
1001.632	16245.27
1001.987	20897.89
1002.342	15005.17
1002.696	12015.03
1003.051	9579.8
1003.406	11614.97
1003.76	11555.97
1004.114	11394.02
1004.469	9549.92
1004.823	7928.53
1005.177	8555.29
1005.531	6808.62
1005.885	6027.05
1006.239	6793.05
1006.593	8508.43
1006.947	11380.47
1007.301	8509.64
1007.655	9279.43
1008.008	6817.15
1008.362	7689.02
1008.715	10963.92
1009.069	9972.97
1009.422	14953.55
1009.776	29991.74
1010.129	19917.16
1010.482	16643.05
1010.835	14076.98
1011.188	29396.56
1011.541	27600.35
1011.894	-168564.5
1012.247	495100.06
1012.6	33701.98
1012.952	21214.58
1013.305	10938.57
1013.657	7878.22
1014.01	7451.27
1014.362	6132.62
1014.715	5433.23
1015.067	4727.24
1015.419	4635.27
1015.771	4102.4
1016.123	3649.14
1016.475	3750.45
1016.827	4001.45
1017.179	4299.6
1017.531	4342.1
1017.883	4442.93
1018.234	4298.39
1018.586	5439.16
1018.938	5739.41
1019.289	7948.69
1019.64	9088.66
1019.992	8448.66
1020.343	7738.76
1020.694	6104.52
1021.045	5401.79
1021.396	6152.22
1021.747	6608.13
1022.098	7960.36
1022.449	5784.39
1022.8	5404.31
1023.151	3744.68
1023.501	3323.69
1023.852	3623.9
1024.202	3744.04
1024.553	4114.72
1024.903	4023.32
1025.253	3452.81
1025.604	3101.63
1025.954	3831.08
1026.304	4678.73
1026.654	5421.91
1027.004	7984.05
1027.354	12886.22
1027.703	12133.07
1028.053	15959.16
1028.403	23390.04
1028.753	33789.37
1029.102	45771.05
1029.452	234695.11
1029.801	10120.56
1030.15	6500.23
1030.499	5522.52
897.758	2581.9
901.051	2538.06
904.343	2571.21
907.636	2572.96
910.928	2635.84
914.22	2547.42
917.511	2553.97
920.803	2617.07
924.094	2630.64
927.384	2617.05
930.675	2581.29
933.965	2536.72
937.255	2549.21
940.544	2517.27
943.834	2470.16
947.123	2411.52
950.411	2507.57
953.7	2481.63
956.988	2449.04
960.276	2392.17
963.563	2466.41
966.851	2464.56
970.138	2518.84
973.424	2511.61
976.711	2464.19
979.997	2577.67
983.283	2618.45
986.568	2526.67
989.853	2540.95
993.138	2567.73
996.423	2648.08
999.708	2589.46
1002.992	2645.59
1006.275	2497.67
1009.559	2534.42
1012.842	2642.77
1016.125	2580.5
1019.408	2558.64
1022.69	2641.38
1025.972	2661.2
1029.254	2637.14
1032.536	2574.5
1035.817	2596.78
1039.098	2546.88
1042.379	2672.87
1045.659	2680.22
1048.939	2616.72
1052.219	2633.2
1055.498	2641.59
1058.778	2629.27
1062.057	2610.86
1065.335	2634.82
1068.614	2651.91
1071.892	2639.99
1075.17	2711.95
1078.447	2704.41
1081.724	2692.12
1085.001	2728.21
1088.278	2704.63
1091.554	2715.88
1094.83	2711.71
1098.106	2740.58
1101.382	2782.01
1104.657	2784.16
1107.932	2777.1
1111.206	2744.62
1114.481	2700.38
1117.755	2705.44
1121.029	2687.13
1124.302	2741.18
1127.575	2695.47
1130.848	2683.19
1134.121	2646.33
1137.393	2598.23
1140.665	2663.34
1143.937	2639
1147.208	2598.3
1150.48	2641.74
1153.75	2627.41
1157.021	2654.13
1160.291	2625.45
1163.561	2673.3
1166.831	2660.39
1170.101	2692.23
1173.37	2665.18
1176.639	2611.87
1179.907	2667.52
1183.176	2675.44
1186.444	2683.96
1189.711	2710.69
1192.979	2727.63
1196.246	2681.7
1199.513	2698.59
1202.78	2696.24
1206.046	2704.1
1209.312	2728.56
1212.578	2752.66
1215.843	2710.51
1219.108	2683.54
1222.373	2705.72
1225.638	2670.64
1228.902	2652.7
1232.166	2620.33
1235.43	2601.54
1238.693	2627.89
1241.956	2625.12
1245.219	2666.86
1248.482	2654.39
1251.744	2648.64
1255.006	2794.04
1258.268	2745.29
1261.529	2692.36
1264.79	2699.51
1268.051	2802.2
1271.312	2818.53
1274.572	2777.44
1277.832	2766.67
1281.092	2757.58
1284.351	2734.95
1287.61	2714.52
1290.869	2630.97
1294.128	2612.7
1297.386	2696.33
1300.644	2683.65
1303.902	2694.52
1307.159	2555.68
1310.416	2612.74
1313.673	2637.24
1316.93	2622.64
1320.186	2668
1323.442	2708.54
1326.697	2702.03
1329.953	2687.78
1333.208	2711.76
1336.463	2692.27
1339.717	2633.82
1342.972	2764.91
1346.226	2739.83
1349.479	2675.81
1352.733	2647.27
1355.986	2667.38
1359.238	2645.5
1362.491	2645.11
1365.743	2650.64
1368.995	2646.26
1372.247	2655.87
1375.498	2681.79
1378.749	2698
1382	2655.23
1385.251	2705.98
1388.501	2665.16
1391.751	2651.68
1395	2621.07
1398.25	2654.5
1401.499	2664.43
1404.748	2594.65
1407.996	2584.99
1411.244	2569.24
1414.492	2553.02
1417.74	2531.56
1420.987	2539.08
1424.234	2596.65
1427.481	2572.82
1430.728	2633.51
1433.974	2605.67
1437.22	2616.73
1440.465	2617.9
1443.711	2587.9
1446.956	2621.35
1450.201	2603.88
1453.445	2649.06
1456.689	2629.18
1459.933	2641.12
1463.177	2675.41
1466.42	2647.23
1469.663	2629.54
1472.906	2626.23
1476.148	2689.98
1479.391	2664.79
1482.633	2632
1485.874	2645.63
1489.115	2632.8
1492.356	2637.88
1495.597	2614.87
1498.838	2616.03
1502.078	2587.17
1505.318	2540.77
1508.557	2582.5
1511.797	2567.01
1515.036	2621.42
1518.274	2614.47
1521.513	2583.02
1524.751	2606.47
1527.989	2615.58
1531.227	2630.81
1534.464	2626.05
1537.701	2642.78
1540.938	2660.2
1544.174	2612.01
1547.41	2609.26
1550.646	2648.86
1553.882	2686.35
1557.117	2740.82
1560.352	2752.91
1563.587	2716.08
1566.821	2675.39
1570.055	2709.24
1573.289	2679.5
1576.523	2751.77
1579.756	2761.56
1582.989	2780.54
1586.222	2741.14
1589.454	2776.42
1592.686	2750.04
1595.918	2774.94
1599.15	2765.32
1602.381	2836.38
1605.612	2793.86
1608.843	2890.67
1612.073	2808.94
1615.303	2790.82
1618.533	2782.49
1621.762	2782.24
1624.992	2769.15
1628.221	2760.7
1631.449	2744.95
1634.678	2794.19
1637.906	2750.49
1641.134	2789.94
1644.361	2748.4
1647.588	2732.95
1650.815	2752.02
1654.042	2728.55
1657.269	2762.11
1660.495	2716.24
1663.72	2734.65
1666.946	2700.14
1670.171	2649.85
1673.396	2623.75
1676.621	2610.2
1679.845	2626.58
1683.069	2645.56
1686.293	2683.71
1689.517	2660.54
1692.74	2592.61
1695.963	2622.93
1699.185	2639.68
1702.408	2614.65
1705.63	2654.01
1708.852	2666.16
1712.073	2639.36
1715.294	2627.52
1718.515	2685.61
1721.736	2636.54
1724.956	2627.16
1728.176	2651.9
1731.396	2671.4
1734.616	2659.14
1737.835	2687.74
1741.054	2669
1744.272	2663.66
1747.491	2692.09
1750.709	2741.62
1753.927	2654.15
1757.144	2695.83
1760.361	2737.49
1763.578	2730.94
1766.795	2674.27
1770.011	2677.01
1773.227	2715.97
1776.443	2749.21
1779.658	2793.02
1782.874	2736.41
1786.089	2716.68
1789.303	2718.65
1792.518	2724.78
1795.732	2713.85
1798.945	2720.07
1802.159	2771.24
1805.372	2681.46
1808.585	2666.19
1811.797	2669.86
1815.01	2713.06
1818.222	2719.79
1821.434	2701.38
1824.645	2757.67
1827.856	2746.72
1831.067	2781.76
1834.278	2735.71
1837.488	2717.4
1840.698	2862.37
1843.908	2789.64
1847.117	2754.74
1850.326	2646.13
1853.535	2740.59
1856.744	2758.18
1859.952	2673.75
1863.16	2674.08
1866.368	2695.83
1869.575	2800.86
1872.782	2689.98
1875.989	2626.71
1879.196	2706.03
1882.402	2695.19
1885.608	2736.03
1888.814	2644.74
1892.019	2541.15
1895.224	2593.52
1898.429	2574.49
1901.634	2553.14
1904.838	2527.83
1908.042	2573.1
1911.246	2585.53
1914.449	2521.77
1917.652	2514.36
1920.855	2497.34
1924.058	2542.32
1927.26	2580.79
1930.462	2607.68
1933.664	2634.43
1936.865	2570
1940.066	2583.32
1943.267	2531.18
1946.467	2544
1949.668	2567.85
1952.868	2635.29
1956.067	2613.48
1959.267	2549.52
1962.466	2574.84
1965.665	2559.6
1968.863	2553.16
1972.061	2569.53
1975.259	2564.92
1978.457	2644.89
1981.654	2600.18
1984.852	2603.6
1988.048	2541.11
1991.245	2544.14
1994.441	2628.23
1997.637	2609.28
2000.833	2590.56
2004.028	2628.96
2007.223	2687.18
2010.418	2664.34
2013.613	2621.68
2016.807	2597.51
2020.001	2604.6
2023.194	2642.69
2026.388	2620.95
2029.581	2565.66
2032.774	2615.29
2035.966	2620.72
2039.158	2556.66
2042.35	2579.46
2045.542	2511.04
2048.733	2608.45
2051.924	2630.82
2055.115	2654
2058.306	2602.78
2061.496	2659.21
2064.686	2722.14
2067.875	2635.64
2071.065	2650.53
2074.254	2673.51
2077.442	2625.7
2080.631	2712.06
2083.819	2611.6
2087.007	2592.65
2090.195	2566.38
2093.382	2596.55
2096.569	2576.45
2099.756	2532.38
2102.942	2562.01
2106.128	2568.47
2109.314	2560.33
2112.5	2527.34
2115.685	2503.36
2118.87	2512.85
2122.055	2575.61
2125.239	2543.63
2128.424	2523.19
2131.608	2618.75
2134.791	2600.43
2137.974	2654.23
2141.157	2638.7
2144.34	2593.81
2147.523	2606.95
2150.705	2622.26
2153.887	2601.44
2157.068	2555.61
2160.25	2553.65
2163.431	2588.49
2166.611	2537.56
2169.792	2552.76
2172.972	2450.96
2176.152	2527.06
2179.331	2560.65
2182.511	2542.46
2185.69	2570.74
2188.868	2564.81
2192.047	2616.67
2195.225	2611.92
2198.403	2560.9
2201.58	2552.1
2204.758	2551.77
2207.935	2632.84
2211.111	2520.62
2214.288	2506.31
2217.464	2546.16
2220.64	2515.38
2223.815	2568.86
2226.991	2491.77
2230.166	2511.27
2233.34	2542.73
2236.515	2567.55
2239.689	2633.81
2242.863	2581.47
2246.036	2639.86
2249.209	2636.5
2252.382	2669.71
2255.555	2660.97
2258.727	2600.39
2261.9	2639.19
2265.071	2630.33
2268.243	2632.75
2271.414	2567.23
2274.585	2532.8
2277.756	2597.44
2280.926	2551.39
2284.096	2589.63
2287.266	2500.51
2290.436	2554.21
2293.605	2582.56
2296.774	2612.84
2299.942	2628.79
2303.111	2647.24
2306.279	2695.3
2309.447	2682.82
2312.614	2657.55
2315.781	2681.17
2318.948	2654.4
2322.115	2690.6
2325.281	2590.76
2328.447	2611.23
2331.613	2584.82
2334.779	2563.42
2337.944	2561.91
2341.109	2560.97
2344.274	2542.59
2347.438	2508.96
2350.602	2535.92
2353.766	2549.82
2356.929	2537.62
2360.092	2580.54
2363.255	2532.15
2366.418	2472.29
2369.58	2578.03
2372.742	2380.5
2375.904	2391.72
2379.066	2371.1
2382.227	2404.13
2385.388	2365.47
2388.548	2295.05
2391.709	2347.18
2394.869	2326.36
2398.029	2419.03
2401.188	2430.58
2404.347	2368.26
2407.506	2500.56
2410.665	2532.27
2413.823	2532.6
2416.981	2492.63
2420.139	2522.22
2423.296	2572.09
2426.453	2544.4
2429.61	2566.93
2432.767	2505.54
2435.923	2542.19
2439.079	2506.72
2442.235	2551.96
2445.391	2478.35
2448.546	2512.87
2451.701	2560.01
2454.855	2534.1
2458.009	2582.1
2461.163	2581.21
2464.317	2543.99
2467.471	2577.83
2470.624	2615.25
2473.777	2586.98
2476.929	2600.13
2480.082	2627.56
2483.234	2591.57
2486.385	2543.02
2489.537	2535.53
2492.688	2502.21
2495.839	2520.14
2498.989	2531.63
2502.14	2516.95
2505.29	2500.24
2508.439	2523.06
2511.589	2451.17
2514.738	2460.64
2517.887	2491.22
2521.035	2557.99
2524.183	2536.72
2527.331	2518.05
2530.479	2496.52
2533.627	2506.09
