Data from N_2_HIR_IL_4N_Splice17_12-10-54-683.txt Node
Date: Sat Mar 14 12:10:54 EDT 2020
User: sa697716
Spectrometer: FLMS03696
Trigger mode: 0
Integration Time (sec): 3.180400E-1
Scans to average: 20
Electric dark correction enabled: true
Nonlinearity correction enabled: true
Boxcar width: 5
XAxis mode: Wavelengths
Number of Pixels in Spectrum: 2048
>>>>>Begin Spectral Data<<<<<
187.83	-266303.83
188.298	1981.16
188.766	1119.08
189.233	941.61
189.701	1257.25
190.169	1775.47
190.636	685.78
191.104	577.19
191.571	86.64
192.039	-77.44
192.506	-77.98
192.974	261.04
193.441	-395.54
193.908	40.27
194.375	-20.03
194.842	15.8
195.31	101.89
195.777	167.93
196.244	401.97
196.711	458.68
197.177	612.53
197.644	863.36
198.111	1489.63
198.578	2111.64
199.045	1709.95
199.511	2795.13
199.978	3246.03
200.445	2759.11
200.911	3023.67
201.378	3330.02
201.844	3042.87
202.31	5159.34
202.777	5401.02
203.243	2999.1
203.709	2861.23
204.176	3378.89
204.642	2789.06
205.108	2593.83
205.574	2095.03
206.04	1923.76
206.506	1821.65
206.972	1712.42
207.438	1664.32
207.903	1886.27
208.369	1654.59
208.835	1637.22
209.301	1725.04
209.766	1753.38
210.232	1750.7
210.697	2168.72
211.163	2657.65
211.628	4006.99
212.094	3397.78
212.559	4122.89
213.024	2569.18
213.49	3137.16
213.955	3053.96
214.42	2979.8
214.885	2787.09
215.35	2643.48
215.815	2553.85
216.28	2699.29
216.745	2191.21
217.21	2319.75
217.675	2114.04
218.14	2339.7
218.604	2578.58
219.069	2906.11
219.534	3012.53
219.998	3451.28
220.463	4139.19
220.927	5031.13
221.392	4719.89
221.856	4735.07
222.32	5948.54
222.785	7322.22
223.249	9174.55
223.713	10195.25
224.177	10159.34
224.642	13004.22
225.106	15982.65
225.57	17483.9
226.034	12969.19
226.497	19677.1
226.961	17779.77
227.425	20713.9
227.889	22939.39
228.353	22960.05
228.816	47418.6
229.28	45298.29
229.744	38148.78
230.207	23166.11
230.671	22754.01
231.134	37586.43
231.597	43304.38
232.061	43179.99
232.524	41991.3
232.987	28886.2
233.45	25977.88
233.914	23303.51
234.377	23880.74
234.84	21854.67
235.303	25772.37
235.766	28708.09
236.229	29666.7
236.691	18677.59
237.154	20978.57
237.617	15781.32
238.08	16190.04
238.542	18925.51
239.005	13487.73
239.468	13390.33
239.93	12604.07
240.393	11442.35
240.855	10056.01
241.317	10307.14
241.78	12531.08
242.242	12947.82
242.704	13985.04
243.166	12143.22
243.629	11032.13
244.091	12707.67
244.553	13901.43
245.015	14940.22
245.477	19314.65
245.939	28258.59
246.4	29951.43
246.862	29131.93
247.324	27465.68
247.786	30720.21
248.247	40230.14
248.709	41489.42
249.17	31049.22
249.632	29307.15
250.093	33962.94
250.555	29334.54
251.016	17909.35
251.477	16992.41
251.939	18328.91
252.4	19225.17
252.861	22820.27
253.322	21254.32
253.783	25284.91
254.244	32746.27
254.705	25762.52
255.166	22905.16
255.627	22529.6
256.088	31744.95
256.549	33687.48
257.009	28987
257.47	35138
257.931	28623.35
258.391	21426.82
258.852	22066.71
259.312	23164.15
259.773	28606.26
260.233	24207.42
260.694	20420.34
261.154	23157.26
261.614	18594.66
262.074	16613.88
262.534	17270.62
262.994	16268.39
263.455	21684.55
263.915	18285.18
264.374	17204.61
264.834	18795.97
265.294	20798.53
265.754	21547.73
266.214	20412.58
266.673	19117.69
267.133	24150.74
267.593	23951.09
268.052	29315.78
268.512	25499.75
268.971	30779.47
269.431	33768.95
269.89	30249.34
270.349	45392.17
270.809	50651.77
271.268	45540.1
271.727	102083.24
272.186	66106.23
272.645	49643.58
273.104	35858.76
273.563	51906.74
274.022	40801.54
274.481	34772.46
274.94	26804.54
275.399	19942.2
275.857	23220.79
276.316	31416.22
276.775	27981.34
277.233	27576.88
277.692	25833.93
278.15	29223.32
278.609	30119.56
279.067	27896.08
279.525	25885.26
279.984	33429.59
280.442	40122.73
280.9	39571.48
281.358	26024.54
281.816	24309.33
282.274	23813.28
282.732	24603.39
283.19	24740.96
283.648	21354.57
284.106	22737.08
284.564	23141.39
285.021	21461.88
285.479	16011.45
285.937	14554.14
286.394	12810.24
286.852	13176.89
287.309	13853.49
287.767	13396.08
288.224	12751.94
288.682	13990.47
289.139	15375.99
289.596	14085.12
290.053	14641.33
290.511	18469.78
290.968	22425.4
291.425	30356.19
291.882	25271.95
292.339	22007.22
292.796	21823.29
293.252	20570.56
293.709	16346.12
294.166	14643.42
294.623	16166.49
295.079	15509.82
295.536	15592.62
295.992	14159.64
296.449	14002.02
296.905	14547.96
297.362	13938.48
297.818	14654.49
298.274	15191.36
298.731	15464.72
299.187	15290.73
299.643	16405.29
300.099	19865.68
300.555	21787.85
301.011	18193.35
301.467	17553.27
301.923	20537.47
302.379	20064.87
302.835	19712.25
303.291	19736.36
303.746	22472.95
304.202	28424.92
304.658	28556.12
305.113	19198.89
305.569	18797.97
306.024	20053.01
306.479	19080.67
306.935	16087.26
307.39	17571.78
307.845	16226.28
308.301	16336.65
308.756	15915.46
309.211	15332.71
309.666	15714.52
310.121	19513.57
310.576	19824.23
311.031	19661.99
311.486	22541.11
311.94	22534.33
312.395	30139.02
312.85	56649.44
313.305	278428.98
313.759	1442940.99
314.214	104660.07
314.668	83060.33
315.123	69860.03
315.577	25067.62
316.032	22317.44
316.486	27942.86
316.94	22049.54
317.394	15367.84
317.849	11959.57
318.303	11294.63
318.757	10666.02
319.211	11783.28
319.665	10311.18
320.119	10425.21
320.572	14924.39
321.026	13968.84
321.48	11640.21
321.934	12686.91
322.387	12711.06
322.841	13722.81
323.295	12360.31
323.748	14209.73
324.202	14421.68
324.655	17317.07
325.108	24233.98
325.562	17126.68
326.015	20288.1
326.468	15322.83
326.921	17145.42
327.374	15995.34
327.827	16684.54
328.28	18864.43
328.733	12658.15
329.186	11133.01
329.639	10612.53
330.092	8941.73
330.545	8534.14
330.997	8630.32
331.45	9445.63
331.903	11070.28
332.355	19037.28
332.808	18457.38
333.26	15259.32
333.713	16553.62
334.165	16667.9
334.617	22247.32
335.069	17968.56
335.522	32407.27
335.974	35889.32
336.426	32777.74
336.878	22707.18
337.33	11508.57
337.782	11243.07
338.234	14081.66
338.686	16842.2
339.137	19988.03
339.589	18812.49
340.041	14740.48
340.493	12687.09
340.944	12961.68
341.396	13979.14
341.847	11761.38
342.299	13888.35
342.75	16966.25
343.201	14806.74
343.653	17035.13
344.104	20890.58
344.555	16441.35
345.006	25605.88
345.457	19612.65
345.908	15628.56
346.359	14684.31
346.81	11960.02
347.261	12575.01
347.712	12374.74
348.163	13263.31
348.613	13444.34
349.064	12546.94
349.515	10977.96
349.965	11275.18
350.416	13578.34
350.866	14854.83
351.317	16759.07
351.767	27716.5
352.217	35103.22
352.668	29139.84
353.118	26698.68
353.568	25683.39
354.018	20311.9
354.468	21436.53
354.918	15346.05
355.368	13407.16
355.818	18918.45
356.268	54421.41
356.718	228136.57
357.168	56916.1
357.617	28549.65
358.067	31785.51
358.517	29816.73
358.966	34938.38
359.416	39226.02
359.865	42383.93
360.315	50549.07
360.764	23667.19
361.213	13262.26
361.663	12516.85
362.112	15422.48
362.561	24856.19
363.01	18763.76
363.459	15799.06
363.908	17159
364.357	14613.28
364.806	24665.42
365.255	16924.62
365.703	15501.74
366.152	15544.81
366.601	12606.07
367.05	10234.76
367.498	9308.21
367.947	9710.14
368.395	10085.79
368.844	8906.99
369.292	10699.81
369.74	7396.32
370.189	11353.53
370.637	13293.25
371.085	11469.82
371.533	13999.02
371.981	13465.13
372.429	12851.04
372.877	13379.66
373.325	11207.65
373.773	11438.31
374.221	10191.12
374.669	12649.75
375.116	10919.05
375.564	11001.19
376.012	12311.75
376.459	10169.64
376.907	12155.65
377.354	14716.48
377.801	13765.83
378.249	15829.96
378.696	20286.33
379.143	24576.33
379.591	26275.33
380.038	44584.62
380.485	32401.65
380.932	35086.55
381.379	32170.91
381.826	23737.61
382.273	16948.62
382.72	14841.03
383.166	14517.15
383.613	9451.37
384.06	8569.98
384.506	9939.14
384.953	7325.98
385.4	7388.18
385.846	6489.53
386.292	6348.63
386.739	6234.02
387.185	6185.74
387.631	6213.77
388.078	6073.86
388.524	6503.58
388.97	6034.62
389.416	5053.92
389.862	5387.1
390.308	5137.49
390.754	5236.69
391.2	5701.62
391.645	5865.18
392.091	5644.15
392.537	5477.82
392.983	5502.32
393.428	5445.63
393.874	5848.17
394.319	5906.44
394.765	5635.96
395.21	5820.81
395.655	5484.39
396.101	5170.91
396.546	4697.91
396.991	4761.53
397.436	4446.96
397.881	4315.22
398.326	4111.97
398.771	3918.1
399.216	3445.83
399.661	3127.99
400.106	3128.13
400.551	3225.48
400.995	2907.38
401.44	2884.31
401.885	2719.99
402.329	2763.77
402.774	2665.45
403.218	2588.26
403.663	2499.5
404.107	2578.58
404.551	2603.7
404.995	2399.15
405.44	2318.76
405.884	2361.33
406.328	2302.98
406.772	2304.86
407.216	2103.74
407.66	2035.5
408.104	1939.95
408.547	1820.49
408.991	1768.94
409.435	1707.78
409.879	1690.34
410.322	1673.94
410.766	1622.54
411.209	1544.84
411.653	1485.26
412.096	1458.11
412.54	1464.96
412.983	1459.63
413.426	1472.2
413.869	1474.15
414.312	1450.22
414.756	1401.12
415.199	1339.83
415.642	1302.7
416.085	1307.75
416.527	1301.58
416.97	1325.99
417.413	1261.89
417.856	1250.06
418.298	1237.25
418.741	1229.79
419.184	1227.72
419.626	1279.69
420.069	1281.7
420.511	1288.89
420.953	1260.17
421.396	1251.89
421.838	1220.41
422.28	1248.86
422.722	1256.51
423.164	1275.54
423.606	1254.82
424.048	1254.56
424.49	1194.78
424.932	1187.59
425.374	1173.72
425.816	1198.11
426.258	1220.17
426.699	1236.13
427.141	1216.63
427.582	1234.5
428.024	1228.95
428.465	1222.61
428.907	1191.93
429.348	1175.33
429.789	1175.62
430.231	1150.12
430.672	1162.51
431.113	1133.03
431.554	1115.6
431.995	1087.57
432.436	1049.64
432.877	1026.73
433.318	1010.85
433.759	1006.7
434.2	1004.86
434.64	996.07
435.081	1001.21
435.522	949.52
435.962	918.46
436.403	899.51
436.843	914.49
437.284	895.17
437.724	869.29
438.164	870.55
438.604	851.88
439.045	822.31
439.485	788.8
439.925	769.78
440.365	750.13
440.805	740.33
441.245	730.37
441.685	701.95
442.125	696.46
442.564	702.28
443.004	684.1
443.444	682.54
443.883	684.03
444.323	676.99
444.762	678.82
445.202	687.34
445.641	698.66
446.081	693.83
446.52	698.9
446.959	692.06
447.398	675.37
447.837	668.28
448.276	656.06
448.716	660.87
449.154	666.55
449.593	649.17
450.032	646.39
450.471	632.51
450.91	632.25
451.349	630.02
451.787	627.91
452.226	635.73
452.664	634.49
453.103	634.18
453.541	631.74
453.98	630.71
454.418	634.84
454.856	624.5
455.295	622.46
455.733	626.4
456.171	629.85
456.609	630.64
457.047	629.48
457.485	638.78
457.923	640.46
458.361	631.71
458.798	633.44
459.236	631.53
459.674	635.38
460.111	639
460.549	632.95
460.987	629.66
461.424	626.47
461.862	623.25
462.299	613.2
462.736	611.57
463.173	613.83
463.611	607.65
464.048	607.28
464.485	613.53
464.922	608.69
465.359	606.3
465.796	599.35
466.233	595.31
466.67	590.99
467.106	589.57
467.543	583.37
467.98	575.85
468.416	559.86
468.853	554.65
469.29	536.92
469.726	530.55
470.162	516.97
470.599	509.53
471.035	503.73
471.471	490.17
471.907	486.32
472.344	483.11
472.78	483.64
473.216	489.81
473.652	483.01
474.088	480.53
474.523	477.77
474.959	480.97
475.395	476.54
475.831	472.66
476.266	474.81
476.702	473.39
477.138	468.44
477.573	466.34
478.008	463.39
478.444	465.72
478.879	469.35
479.314	470.66
479.75	468.36
480.185	469.99
480.62	473.78
481.055	476.05
481.49	478.87
481.925	485.14
482.36	492.7
482.795	505.3
483.229	517.6
483.664	528.39
484.099	530.6
484.534	539.86
484.968	544.5
485.403	546.66
485.837	545.81
486.271	544.07
486.706	543.8
487.14	537.65
487.574	528.56
488.009	523.05
488.443	517.9
488.877	522.54
489.311	523.16
489.745	529.16
490.179	532.61
490.613	541.62
491.046	545.3
491.48	548.23
491.914	548.68
492.348	552.46
492.781	555.31
493.215	555.85
493.648	555.93
494.082	559.06
494.515	557.9
494.948	563.83
495.382	566.23
495.815	569.43
496.248	574.01
496.681	582.45
497.114	590.56
497.547	597.85
497.98	607.25
498.413	611.93
498.846	619.33
499.279	625.58
499.711	628.25
500.144	629.74
500.577	638.01
501.009	645.02
501.442	652.66
501.874	653.65
502.306	654.6
502.739	661.37
503.171	672.76
503.603	675.03
504.036	681.72
504.468	685.62
504.9	694.45
505.332	699.25
505.764	702.55
506.196	708.96
506.627	720.41
507.059	731.54
507.491	737.27
507.923	735.37
508.354	748.82
508.786	758.05
509.217	772.99
509.649	786.16
510.08	802.48
510.512	818.41
510.943	831.09
511.374	841.91
511.805	859.98
512.237	878.36
512.668	905.72
513.099	926.73
513.53	950.83
513.961	969.95
514.391	997.44
514.822	1026.4
515.253	1056.63
515.684	1079.22
516.114	1105.5
516.545	1124.75
516.975	1147.96
517.406	1166.19
517.836	1172.46
518.267	1180.4
518.697	1197.74
519.127	1203.42
519.558	1211.94
519.988	1217.56
520.418	1229.72
520.848	1247.56
521.278	1258.02
521.708	1280.39
522.138	1293.73
522.567	1322.74
522.997	1348.07
523.427	1364.8
523.857	1383.37
524.286	1395.71
524.716	1411.58
525.145	1431.28
525.575	1442.46
526.004	1457.31
526.433	1449.84
526.863	1452
527.292	1446.7
527.721	1453.71
528.15	1460.37
528.579	1462.7
529.008	1473.68
529.437	1495.57
529.866	1508.13
530.295	1525.63
530.724	1538.47
531.152	1565.36
531.581	1580.26
532.01	1596.86
532.438	1605.27
532.867	1619.64
533.295	1638.06
533.723	1644.64
534.152	1644.24
534.58	1645.65
535.008	1633.74
535.436	1636.34
535.865	1643.67
536.293	1658.12
536.721	1672.82
537.149	1697.33
537.576	1701.39
538.004	1712.7
538.432	1721.33
538.86	1720.46
539.287	1727.59
539.715	1740.09
540.143	1744.59
540.57	1742.34
540.998	1739.65
541.425	1719.93
541.852	1701.06
542.28	1700.05
542.707	1685.82
543.134	1673.3
543.561	1670.27
543.988	1663.81
544.415	1662.94
544.842	1657.77
545.269	1651.26
545.696	1652.46
546.123	1664.96
546.549	1656.35
546.976	1644.54
547.403	1644.64
547.829	1646.16
548.256	1648.27
548.682	1646.86
549.108	1641.09
549.535	1639.95
549.961	1642.72
550.387	1630.56
550.813	1625.08
551.24	1629.85
551.666	1629.44
552.092	1620.26
552.518	1613.8
552.943	1607.87
553.369	1612.68
553.795	1617.17
554.221	1617.36
554.646	1612.97
555.072	1621.68
555.498	1624.96
555.923	1632.64
556.349	1645.98
556.774	1652.97
557.199	1653.88
557.625	1659.19
558.05	1651.88
558.475	1659.48
558.9	1657.55
559.325	1647.83
559.75	1641.66
560.175	1634.38
560.6	1626.94
561.025	1622.75
561.449	1621.78
561.874	1625.13
562.299	1625.88
562.723	1630.54
563.148	1619.72
563.572	1621.1
563.997	1627.5
564.421	1629.09
564.846	1626.5
565.27	1627.57
565.694	1623.77
566.118	1631.63
566.542	1635.88
566.966	1628.29
567.39	1621.61
567.814	1609.74
568.238	1606.93
568.662	1610.18
569.086	1611.23
569.509	1616.12
569.933	1599.34
570.357	1591.41
570.78	1570.65
571.204	1556.87
571.627	1544.82
572.05	1541.57
572.474	1540.12
572.897	1527.06
573.32	1517.58
573.743	1507.24
574.166	1489.55
574.589	1488.63
575.012	1479.06
575.435	1476.78
575.858	1466.98
576.281	1456.34
576.704	1441.01
577.126	1427.25
577.549	1417.27
577.972	1408.42
578.394	1396.72
578.817	1389.45
579.239	1371.37
579.661	1359.28
580.084	1344.59
580.506	1332.11
580.928	1327.11
581.35	1316.34
581.772	1312.59
582.194	1299.83
582.616	1287.2
583.038	1274.78
583.46	1264.48
583.882	1261.04
584.303	1263.28
584.725	1258.03
585.147	1259.33
585.568	1268.61
585.99	1277.48
586.411	1281.92
586.833	1293.45
587.254	1293.92
587.675	1303.86
588.096	1313.65
588.518	1308.28
588.939	1292.88
589.36	1290.27
589.781	1279.76
590.202	1254.55
590.623	1246.48
591.043	1242.57
591.464	1231.43
591.885	1227.96
592.305	1221.98
592.726	1208.5
593.147	1208.62
593.567	1203.94
593.987	1197.11
594.408	1191.13
594.828	1188.09
595.248	1182.21
595.669	1166.31
596.089	1159.6
596.509	1153.22
596.929	1142.24
597.349	1142.52
597.769	1132.9
598.189	1127.57
598.608	1127.17
599.028	1128.83
599.448	1128.37
599.867	1117.59
600.287	1113.18
600.706	1108.74
601.126	1100.81
601.545	1099.13
601.965	1096.92
602.384	1092.8
602.803	1093.88
603.222	1090.15
603.641	1083.81
604.061	1080.4
604.48	1076.9
604.898	1082.66
605.317	1086.85
605.736	1087.07
606.155	1084.64
606.574	1077.16
606.992	1080.6
607.411	1076.07
607.829	1069.03
608.248	1066.42
608.666	1063.36
609.085	1061.9
609.503	1055.37
609.921	1048.75
610.339	1049.34
610.758	1048.06
611.176	1044.3
611.594	1036.81
612.012	1033.62
612.43	1035.31
612.847	1038.9
613.265	1039.75
613.683	1042.87
614.101	1043.16
614.518	1039.5
614.936	1031.46
615.353	1019.48
615.771	1016.84
616.188	1016.57
616.606	1012.91
617.023	1006.88
617.44	996.23
617.857	989.6
618.274	982.96
618.691	977.66
619.108	970.87
619.525	966.23
619.942	970.5
620.359	971.3
620.776	966.82
621.192	964.12
621.609	962.33
622.026	966.79
622.442	972.33
622.859	974.42
623.275	968.23
623.691	972.4
624.108	980.46
624.524	992.21
624.94	993.58
625.356	1001.2
625.772	1010.35
626.188	1018.99
626.604	1020.72
627.02	1015.7
627.436	1013.97
627.852	1019.75
628.268	1029.11
628.683	1022.6
629.099	1014.8
629.514	1010.05
629.93	1012.62
630.345	1016.26
630.761	1013.58
631.176	1015.5
631.591	1012.17
632.007	1006.83
632.422	1004.85
632.837	994.56
633.252	991.81
633.667	983.62
634.082	976.03
634.497	965.51
634.911	950.21
635.326	945.3
635.741	931.2
636.155	921.49
636.57	921.49
636.984	919.31
637.399	919.15
637.813	917.11
638.228	913.92
638.642	914.62
639.056	905.3
639.47	902.2
639.884	894.13
640.298	887.26
640.712	883.89
641.126	872.1
641.54	863.69
641.954	856.68
642.368	845.88
642.781	838.91
643.195	825
643.609	823.08
644.022	817.73
644.436	813.36
644.849	802.98
645.262	793.07
645.676	793.2
646.089	789.43
646.502	779.14
646.915	774.87
647.328	762.51
647.741	759.86
648.154	749.64
648.567	748.95
648.98	739.2
649.393	738.72
649.805	736.5
650.218	731.15
650.631	718.58
651.043	713.59
651.456	709.92
651.868	710.09
652.28	722.09
652.693	732.61
653.105	736.31
653.517	744.61
653.929	746.48
654.341	751.6
654.753	742.77
655.165	749.33
655.577	749.12
655.989	745.06
656.401	740.18
656.813	716.63
657.224	703.37
657.636	683.43
658.047	671.17
658.459	658.75
658.87	652.38
659.282	645.53
659.693	632.29
660.104	622.78
660.515	615.46
660.926	615.16
661.338	615.1
661.749	611.42
662.159	606.92
662.57	605.28
662.981	602.92
663.392	599.71
663.803	604.77
664.213	604.89
664.624	603.6
665.035	607.62
665.445	599.62
665.855	595.32
666.266	592.27
666.676	593.24
667.086	587.94
667.497	589.66
667.907	586.76
668.317	581.38
668.727	581.28
669.137	583.08
669.547	582.08
669.956	585.21
670.366	587.82
670.776	590.77
671.186	594.73
671.595	599.05
672.005	602.11
672.414	602.59
672.824	602.6
673.233	605.86
673.642	609.52
674.052	614.28
674.461	619
674.87	624.87
675.279	624.36
675.688	626.42
676.097	629
676.506	629.1
676.915	641.68
677.323	645.12
677.732	645.28
678.141	645.42
678.549	637.5
678.958	636.94
679.366	635.44
679.775	639.06
680.183	648.1
680.592	653.63
681	657.99
681.408	653.45
681.816	659.64
682.224	665.93
682.632	673.84
683.04	696.89
683.448	713.92
683.856	737.37
684.264	763.62
684.671	786.92
685.079	815.38
685.487	846.52
685.894	891.66
686.302	927.58
686.709	956.74
687.116	990.8
687.524	1018.13
687.931	1041.6
688.338	1061.07
688.745	1077.6
689.152	1095.94
689.559	1127.06
689.966	1158.13
690.373	1172.53
690.78	1203.6
691.187	1252.5
691.593	1290.24
692	1324.56
692.407	1375.84
692.813	1439.71
693.22	1490.23
693.626	1546.39
694.032	1591.83
694.439	1660.27
694.845	1715.54
695.251	1784.76
695.657	1848.48
696.063	1941.92
696.469	2015.38
696.875	2084.98
697.281	2130.22
697.687	2184.88
698.093	2231.18
698.498	2307.66
698.904	2370.5
699.31	2462.59
699.715	2533.53
700.12	2628.57
700.526	2659.61
700.931	2733.9
701.337	2797.01
701.742	2840.1
702.147	2930.99
702.552	2975.66
702.957	3046.37
703.362	3079.19
703.767	3121.34
704.172	3174.12
704.577	3144.69
704.981	3202.22
705.386	3234.26
705.791	3238.91
706.195	3325.38
706.6	3344.95
707.004	3433.5
707.408	3416.7
707.813	3457.9
708.217	3455.88
708.621	3468.22
709.025	3575.69
709.43	3588.08
709.834	3659.02
710.237	3741.01
710.641	3738.6
711.045	3776.25
711.449	3782.36
711.853	3824.71
712.256	3878.06
712.66	3928.59
713.064	4019.16
713.467	4070.35
713.87	4197.21
714.274	4254.4
714.677	4379.41
715.08	4557.69
715.484	4741.72
715.887	4962.38
716.29	5178.38
716.693	5406.46
717.096	5670.48
717.499	5816.49
717.901	5858.14
718.304	5895.79
718.707	5936.49
719.109	5839.79
719.512	5815.82
719.915	5681.88
720.317	5632.35
720.719	5688.81
721.122	5667.31
721.524	5622.49
721.926	5588.95
722.328	5706.27
722.731	5709.06
723.133	5748.21
723.535	5964.36
723.937	5996.65
724.338	6061.65
724.74	6114.81
725.142	6044.96
725.544	6051.83
725.945	6086.65
726.347	6089.89
726.748	6088.03
727.15	6107.95
727.551	6070.62
727.952	6044.9
728.354	6017.31
728.755	6026.38
729.156	5987.12
729.557	5990.1
729.958	5860.81
730.359	5804.41
730.76	5786.81
731.161	5723.74
731.562	5701.3
731.962	5710.82
732.363	5645.12
732.763	5579.63
733.164	5623.21
733.564	5552.47
733.965	5450.7
734.365	5417.67
734.766	5454.06
735.166	5416.18
735.566	5361.2
735.966	5336.04
736.366	5331.69
736.766	5265.7
737.166	5304.01
737.566	5259.51
737.966	5234.17
738.365	5280.23
738.765	5276.08
739.165	5195.15
739.564	5166.97
739.964	5219.25
740.363	5169.47
740.763	5167.46
741.162	5156.93
741.561	5122.93
741.96	5074.03
742.36	5096.49
742.759	5102.66
743.158	5146.28
743.557	5164.38
743.955	5209.96
744.354	5160.31
744.753	5225.82
745.152	5182.09
745.55	5242.28
745.949	5235.52
746.348	5235.86
746.746	5254.79
747.144	5209.58
747.543	5184
747.941	5239.71
748.339	5162.63
748.737	5153.92
749.136	5143.53
749.534	5218.63
749.932	5190.03
750.33	5218.49
750.727	5282.41
751.125	5258.72
751.523	5244.22
751.921	5293.55
752.318	5257.13
752.716	5324.95
753.113	5341.07
753.511	5371.97
753.908	5370.87
754.305	5349.92
754.703	5418.29
755.1	5486.57
755.497	5551.6
755.894	5763.41
756.291	5962.17
756.688	6325.48
757.085	6809.1
757.482	7495.69
757.878	8239.44
758.275	8912.99
758.672	9847.78
759.068	10605.21
759.465	11687.25
759.861	13089.22
760.258	14708.03
760.654	15545.59
761.05	15426.8
761.447	14725.41
761.843	13709.4
762.239	12663.57
762.635	12191.44
763.031	11733.43
763.427	11075.85
763.822	10385.54
764.218	9699.59
764.614	8812.1
765.01	8216.13
765.405	7832.74
765.801	7542.05
766.196	7170.26
766.592	6960.9
766.987	6608.71
767.382	6374.37
767.778	6277.68
768.173	6134.3
768.568	6056.61
768.963	5923.33
769.358	5942.93
769.753	5890.83
770.148	5795.61
770.542	5794.65
770.937	5760.72
771.332	5864.2
771.726	5885.25
772.121	5811.89
772.515	5871.09
772.91	5852.64
773.304	5927.57
773.699	5858.82
774.093	5917.54
774.487	5982.29
774.881	6030.53
775.275	6023.58
775.669	5979.27
776.063	6029.11
776.457	6073.93
776.851	5991.51
777.245	5984.28
777.638	6019.75
778.032	6145.46
778.425	6105.62
778.819	6149.56
779.212	6103.06
779.606	6061.18
779.999	6081.67
780.392	6063.96
780.786	6151.42
781.179	6174.93
781.572	6219.78
781.965	6234.27
782.358	6172.44
782.751	6235.33
783.143	6182.1
783.536	6264.78
783.929	6313.51
784.322	6439.84
784.714	6471.17
785.107	6466.94
785.499	6544.79
785.891	6521.32
786.284	6502.64
786.676	6658.21
787.068	6635.06
787.46	6693.98
787.852	6716.69
788.245	6809.71
788.636	6841.63
789.028	6916.61
789.42	6956.63
789.812	6967.14
790.204	7072.07
790.595	7177.46
790.987	6960.26
791.378	6986.76
791.77	7126.92
792.161	7269.35
792.553	7329.09
792.944	7204.22
793.335	7129.82
793.726	7214.65
794.117	7318.22
794.508	7471.86
794.899	7442.66
795.29	7599.93
795.681	7664.32
796.072	7510.03
796.463	7305.1
796.853	7316.53
797.244	7492.24
797.634	7527.9
798.025	7524.34
798.415	7533
798.806	7631.42
799.196	7718.52
799.586	7770.09
799.976	7727.55
800.366	7978.96
800.756	8244.02
801.146	8198.14
801.536	8232.15
801.926	8313.49
802.316	8339.31
802.706	8413.73
803.095	8277.04
803.485	8394.05
803.874	8442.03
804.264	8728.92
804.653	8700.5
805.043	8863.59
805.432	8984.07
805.821	8985.74
806.21	9009.98
806.599	9144.23
806.988	9193.9
807.377	9310.04
807.766	9452.99
808.155	9760.93
808.544	9466.63
808.933	9484.4
809.321	9458.77
809.71	9789.23
810.098	9954.82
810.487	10463.33
810.875	10991.17
811.264	11018.54
811.652	11333.62
812.04	11489.62
812.428	11674.52
812.816	12512.74
813.204	12972.27
813.592	13586.08
813.98	13955.48
814.368	13860.15
814.756	14382.9
815.144	14297.98
815.531	14810.45
815.919	14731.47
816.306	15070.37
816.694	14720.36
817.081	14777.82
817.469	15155.69
817.856	15145.37
818.243	15430.49
818.63	15863.11
819.017	15402.52
819.404	15466.27
819.791	15886.06
820.178	16568.18
820.565	16839.92
820.952	17866.69
821.339	17317.19
821.725	17518.16
822.112	16703.07
822.498	16664.98
822.885	16801.94
823.271	16694.01
823.657	17158.12
824.044	17164.74
824.43	17242.36
824.816	17206.68
825.202	16727.65
825.588	17861.81
825.974	17886.1
826.36	18457.95
826.746	18493.32
827.132	18886.79
827.517	18866.2
827.903	17995.68
828.289	18039.88
828.674	17185.97
829.06	17079.59
829.445	17522.94
829.83	17914.7
830.216	18432.14
830.601	18831.08
830.986	18375.72
831.371	18231.85
831.756	18841.36
832.141	18370.19
832.526	18364.35
832.911	18671.01
833.295	18543.64
833.68	19056.57
834.065	18366.89
834.449	17367.42
834.834	17284.7
835.218	17286.28
835.603	17660.34
835.987	17430
836.371	18347.1
836.755	18231.78
837.139	18671.05
837.524	18933.28
837.908	18742.43
838.291	18813.31
838.675	18891.65
839.059	19123.57
839.443	19113.72
839.827	18857.69
840.21	19375.43
840.594	19207.98
840.977	19432.98
841.361	19419.66
841.744	19833.75
842.127	19661.87
842.511	19925.53
842.894	20577.25
843.277	20992.62
843.66	21587.17
844.043	21680.69
844.426	20807.39
844.809	20482.16
845.191	20520.49
845.574	20010.05
845.957	19614.52
846.339	19495.94
846.722	18923.93
847.104	18999.47
847.487	18813.94
847.869	18827.66
848.252	19139.98
848.634	19507.09
849.016	19788.26
849.398	19924.89
849.78	20858.26
850.162	20865.15
850.544	21324.33
850.926	22030.89
851.307	21937.29
851.689	22247.31
852.071	22755.41
852.452	23101.28
852.834	23075.29
853.215	23517.94
853.597	23694.14
853.978	24016.4
854.359	24515.74
854.741	23418.38
855.122	23295.42
855.503	22981.1
855.884	23123.51
856.265	23050.62
856.646	23183.87
857.026	22759.34
857.407	22685.34
857.788	22859.33
858.169	23175.35
858.549	22242.2
858.93	22931.1
859.31	22990.08
859.69	23219.4
860.071	22781.07
860.451	22543.45
860.831	21732.77
861.211	23007.22
861.591	23603.28
861.971	23573.12
862.351	23786.71
862.731	24210.99
863.111	24493.18
863.491	24850.18
863.87	25815.97
864.25	26201.11
864.629	25759.27
865.009	26328.18
865.388	27260.73
865.768	29222.04
866.147	29102.23
866.526	27498.91
866.905	27827.1
867.284	29390.91
867.663	27914.98
868.042	26751.18
868.421	26663.48
868.8	27097.5
869.179	27348.89
869.558	25751.6
869.936	23742.23
870.315	24159.6
870.693	24747.27
871.072	26687.43
871.45	25422.5
871.828	25739.08
872.207	27046.59
872.585	26632.57
872.963	27361.96
873.341	26419.87
873.719	26105.26
874.097	25776.39
874.475	26279.2
874.853	26876.78
875.23	25740.93
875.608	26820.08
875.986	29010.49
876.363	27745.07
876.741	28568.78
877.118	27850.31
877.495	29229.36
877.873	29720.12
878.25	31287.88
878.627	29997.46
879.004	30412.68
879.381	30278.47
879.758	29473.62
880.135	27443.18
880.512	29031.94
880.889	28281.89
881.265	27989.39
881.642	27750.72
882.019	28225.4
882.395	27637.22
882.772	28729.62
883.148	27486.79
883.524	27373.1
883.901	27219.44
884.277	27614.87
884.653	27428.6
885.029	28220.01
885.405	31260.13
885.781	31019.08
886.157	29731.93
886.532	30102.03
886.908	30086.73
887.284	33452.73
887.659	34550.92
888.035	35628.8
888.411	36562.82
888.786	37061.54
889.161	38351.03
889.537	37634.82
889.912	38852.5
890.287	38823.78
890.662	39828.63
891.037	39122.7
891.412	36481.42
891.787	36135.86
892.162	34880.75
892.536	35704.36
892.911	34363.58
893.286	33643.11
893.66	32277.27
894.035	33086.93
894.409	36034.92
894.784	34593.29
895.158	35170.01
895.532	37253.52
895.906	38241.79
896.281	39136.34
896.655	38518.46
897.029	44027.85
897.402	45844.33
897.776	51068.9
898.15	50906.02
898.524	50357.1
898.898	51026.43
899.271	57126.11
899.645	49491.96
900.018	47559.84
900.392	49342.53
900.765	49714.87
901.138	45983.8
901.511	45281.47
901.884	41559.84
902.258	38330.3
902.631	39587.88
903.003	45543.27
903.376	41084.59
903.749	46053.47
904.122	49307.94
904.495	54289.76
904.867	54964.43
905.24	47747.58
905.612	44454.29
905.985	45482.65
906.357	47556.21
906.729	45398.04
907.102	38805.1
907.474	37334.41
907.846	37587.61
908.218	37104.21
908.59	32753.98
908.962	31694.24
909.334	34102.34
909.705	35821.84
910.077	34779.94
910.449	36174.45
910.82	37187.95
911.192	40873.48
911.563	42455.93
911.935	45401.96
912.306	45421.75
912.677	46914.84
913.048	46426.1
913.419	50369.55
913.79	50640.89
914.161	54291.09
914.532	51907.28
914.903	47667.33
915.274	45268.27
915.645	44585.06
916.015	39245.23
916.386	37412.56
916.756	39791.88
917.127	41048.58
917.497	36672.83
917.868	39896.52
918.238	37879.99
918.608	38974.44
918.978	39827.38
919.348	42210.28
919.718	43629.39
920.088	42034.68
920.458	43690.06
920.828	46001.11
921.198	43611.74
921.567	46599.13
921.937	36107.69
922.306	36454.38
922.676	39312.09
923.045	32783.87
923.415	31122.02
923.784	28350.28
924.153	29134.52
924.522	29091.09
924.891	27359.77
925.26	29309.66
925.629	28612.83
925.998	32900.79
926.367	32123.83
926.736	30578.97
927.104	36407.23
927.473	39161.82
927.842	47292.33
928.21	46854.28
928.578	49264.66
928.947	46564.35
929.315	46840.68
929.683	54943.11
930.051	55349.78
930.42	64257.95
930.788	54967.46
931.156	54545.27
931.523	51108.55
931.891	47231.15
932.259	45388.18
932.627	52619.82
932.994	74455.66
933.362	61533.46
933.729	53425.43
934.097	51151.57
934.464	43307.88
934.831	50004.8
935.199	49338.7
935.566	47862.82
935.933	48436.74
936.3	58635.98
936.667	45624.88
937.034	41174.24
937.401	40748.27
937.767	35162.74
938.134	31301.06
938.501	44153.79
938.867	47019.42
939.234	79434.38
939.6	67789.09
939.967	74810.99
940.333	50089.62
940.699	42661.48
941.065	34224.42
941.431	44853.58
941.798	43292.8
942.163	56859.36
942.529	35486.62
942.895	32666.65
943.261	21144.18
943.627	27718.4
943.992	24249.65
944.358	24275.92
944.723	24355.5
945.089	23764.04
945.454	21959.12
945.82	23421.05
946.185	22503.91
946.55	26101.63
946.915	23412.09
947.28	27450.51
947.645	24183.5
948.01	22334.07
948.375	23313.75
948.74	27958.65
949.104	32636.44
949.469	47115.16
949.834	83248.06
950.198	78961.74
950.562	47344.64
950.927	39392.2
951.291	47417.74
951.655	40396.94
952.02	37963.97
952.384	28719.74
952.748	24984.42
953.112	24318.63
953.476	21154.71
953.839	19565.07
954.203	19368.91
954.567	24215.09
954.931	38171.5
955.294	32652.07
955.658	32829.21
956.021	55786.79
956.385	94512.73
956.748	139542.74
957.111	216695.59
957.474	242979.2
957.837	273709.42
958.2	207041.29
958.563	74484.51
958.926	50365.8
959.289	76483.9
959.652	85475.65
960.015	64128.87
960.377	92049.57
960.74	105028.15
961.102	181251.09
961.465	194761.02
961.827	104292.03
962.189	200069.01
962.552	138621.48
962.914	111181.11
963.276	72040.55
963.638	59499.17
964	58972.5
964.362	39839.35
964.724	38504.24
965.085	27491.41
965.447	22561.05
965.809	25725.2
966.17	25781.52
966.532	27913.9
966.893	25594.93
967.255	23310.54
967.616	27533.74
967.977	22015.51
968.338	24066.05
968.699	19774.77
969.061	19749.41
969.421	19855.52
969.782	22262.79
970.143	18791.45
970.504	19449.18
970.865	22124.55
971.225	22602.96
971.586	22106.85
971.946	31523.81
972.307	27352.76
972.667	35770.98
973.027	36870.57
973.388	44713.51
973.748	30432.32
974.108	33121.46
974.468	44854.5
974.828	34533.17
975.188	26605.38
975.548	24448.99
975.907	20543.69
976.267	23039.98
976.627	19360.86
976.986	20048.34
977.346	19110.27
977.705	18397.87
978.064	16753.24
978.424	13943.99
978.783	14429.61
979.142	16473.18
979.501	15741.28
979.86	16627.76
980.219	16032.39
980.578	20678.11
980.937	23181.02
981.296	20680.56
981.654	21246.47
982.013	33095.19
982.371	42937.5
982.73	40120.89
983.088	45416.89
983.447	48613.32
983.805	69535.87
984.163	145232.38
984.521	161163.68
984.879	236131.43
985.237	-383622.52
985.595	370025.76
985.953	91965.24
986.311	53079.96
986.669	30839.56
987.026	26609.95
987.384	35749.97
987.741	36909.37
988.099	26348.46
988.456	20993.66
988.814	19651.77
989.171	17111.46
989.528	16894.12
989.885	17831.88
990.242	14142.94
990.599	17618.51
990.956	14400.8
991.313	10070.66
991.67	8267.12
992.027	8760.04
992.383	7795.38
992.74	6833.83
993.096	7161.22
993.453	7430.47
993.809	7722.43
994.165	10271.5
994.522	9396.67
994.878	10374.68
995.234	13021.57
995.59	12861.49
995.946	12196.86
996.302	13911.26
996.658	16108.55
997.013	17738.63
997.369	21009.39
997.725	26867.54
998.08	17427.37
998.436	26945.05
998.791	37122.11
999.147	37059.82
999.502	40357.07
999.857	29343.57
1000.212	47751.98
1000.567	67886.45
1000.922	39269.91
1001.277	24990.6
1001.632	18521.51
1001.987	23848.34
1002.342	17096.98
1002.696	13690.52
1003.051	10923.09
1003.406	13255.71
1003.76	13207.31
1004.114	13023.8
1004.469	10950.55
1004.823	9050.29
1005.177	9741.9
1005.531	7716.87
1005.885	6842.32
1006.239	7715.31
1006.593	9671.26
1006.947	12954.34
1007.301	9702.77
1007.655	10551.54
1008.008	7749.65
1008.362	8702.3
1008.715	12404.43
1009.069	11262.34
1009.422	16918.53
1009.776	34000.23
1010.129	22547.03
1010.482	18853.98
1010.835	15924.59
1011.188	33222.44
1011.541	31277.6
1011.894	-191201.45
1012.247	562291.56
1012.6	38361.61
1012.952	24267.65
1013.305	12533.87
1013.657	8988.59
1014.01	8506.59
1014.362	7001.83
1014.715	6208.94
1015.067	5401.5
1015.419	5291.68
1015.771	4677.14
1016.123	4161.66
1016.475	4270.71
1016.827	4549.75
1017.179	4884.75
1017.531	4952.03
1017.883	5063.11
1018.234	4881.11
1018.586	6145.62
1018.938	6514.94
1019.289	8987.6
1019.64	10324.14
1019.992	9627.12
1020.343	8819.63
1020.694	6965.21
1021.045	6166.33
1021.396	7026.45
1021.747	7527.46
1022.098	9093.88
1022.449	6636.1
1022.8	6153.3
1023.151	4280.76
1023.501	3782.65
1023.852	4107.58
1024.202	4251.04
1024.553	4662.79
1024.903	4534.58
1025.253	3856.42
1025.604	3464.99
1025.954	4278.59
1026.304	5207.41
1026.654	6070.08
1027.004	8934.31
1027.354	14469.74
1027.703	13617.89
1028.053	18006.13
1028.403	26174.46
1028.753	37952.52
1029.102	51813.3
1029.452	267020.55
1029.801	11521.75
1030.15	7445.55
1030.499	6308.86
897.758	2326.69
901.051	2264.95
904.343	2299.68
907.636	2306.83
910.928	2367.38
914.22	2281.87
917.511	2286.91
920.803	2340.18
924.094	2343.1
927.384	2336.98
930.675	2299.6
933.965	2262.24
937.255	2287.07
940.544	2250.36
943.834	2239.3
947.123	2175.97
950.411	2268.9
953.7	2247.49
956.988	2225.2
960.276	2165.87
963.563	2224.3
966.851	2232.43
970.138	2278.18
973.424	2277.2
976.711	2232.76
979.997	2296.68
983.283	2345.32
986.568	2268.71
989.853	2268.26
993.138	2296.2
996.423	2378.72
999.708	2330.66
1002.992	2364.86
1006.275	2261.08
1009.559	2273.9
1012.842	2375.35
1016.125	2325.74
1019.408	2303.76
1022.69	2368.57
1025.972	2395.32
1029.254	2370.58
1032.536	2325.79
1035.817	2341.83
1039.098	2308.46
1042.379	2382.67
1045.659	2406.85
1048.939	2351.27
1052.219	2361.43
1055.498	2362.01
1058.778	2355.5
1062.057	2334.56
1065.335	2358.64
1068.614	2370.5
1071.892	2362.71
1075.17	2423.96
1078.447	2421.58
1081.724	2415.02
1085.001	2447.48
1088.278	2422.3
1091.554	2432.06
1094.83	2424.94
1098.106	2462.07
1101.382	2493.57
1104.657	2496.96
1107.932	2495.17
1111.206	2469.33
1114.481	2426.63
1117.755	2427.45
1121.029	2415.21
1124.302	2473.01
1127.575	2435.43
1130.848	2432.9
1134.121	2395.25
1137.393	2357.36
1140.665	2417.86
1143.937	2395.66
1147.208	2345.16
1150.48	2397.51
1153.75	2384.63
1157.021	2396.19
1160.291	2373.06
1163.561	2422
1166.831	2396.29
1170.101	2425.32
1173.37	2390.1
1176.639	2341.87
1179.907	2392.13
1183.176	2413.31
1186.444	2414.29
1189.711	2443.3
1192.979	2463.2
1196.246	2416.18
1199.513	2428.68
1202.78	2433.63
1206.046	2444.27
1209.312	2469.95
1212.578	2490.86
1215.843	2450.71
1219.108	2418.94
1222.373	2445.72
1225.638	2412.46
1228.902	2403.71
1232.166	2364.87
1235.43	2353.92
1238.693	2376.43
1241.956	2368.14
1245.219	2413.09
1248.482	2398.21
1251.744	2397.13
1255.006	2526.1
1258.268	2474.84
1261.529	2427.85
1264.79	2427.8
1268.051	2530.52
1271.312	2539.09
1274.572	2507.42
1277.832	2495.58
1281.092	2483.04
1284.351	2467.56
1287.61	2450.77
1290.869	2382.1
1294.128	2372.21
1297.386	2434.01
1300.644	2425.01
1303.902	2432.76
1307.159	2302.01
1310.416	2354.33
1313.673	2383.3
1316.93	2375.29
1320.186	2410.28
1323.442	2446.9
1326.697	2441.54
1329.953	2421.57
1333.208	2451.25
1336.463	2428.36
1339.717	2382.66
1342.972	2491.99
1346.226	2467.95
1349.479	2411.13
1352.733	2386.46
1355.986	2398.18
1359.238	2377.03
1362.491	2381.37
1365.743	2382.6
1368.995	2374.39
1372.247	2386.96
1375.498	2408.23
1378.749	2443.48
1382	2394.67
1385.251	2436.24
1388.501	2389.59
1391.751	2385.66
1395	2351.65
1398.25	2381.15
1401.499	2397.76
1404.748	2342.4
1407.996	2320.35
1411.244	2308.81
1414.492	2291.26
1417.74	2272.59
1420.987	2278.02
1424.234	2337.32
1427.481	2304.26
1430.728	2362.14
1433.974	2336.9
1437.22	2337.9
1440.465	2335.8
1443.711	2325.81
1446.956	2351.98
1450.201	2330.27
1453.445	2371.78
1456.689	2357.53
1459.933	2372.64
1463.177	2407.76
1466.42	2379.21
1469.663	2361.24
1472.906	2370.66
1476.148	2423.73
1479.391	2410.71
1482.633	2382.93
1485.874	2402.6
1489.115	2404.17
1492.356	2394.4
1495.597	2372.07
1498.838	2370.76
1502.078	2352.27
1505.318	2318.32
1508.557	2354.59
1511.797	2350.01
1515.036	2384.13
1518.274	2366.75
1521.513	2326.72
1524.751	2339.69
1527.989	2362.61
1531.227	2378.11
1534.464	2386.66
1537.701	2386.45
1540.938	2401.07
1544.174	2350.57
1547.41	2343.14
1550.646	2381.81
1553.882	2424.96
1557.117	2483.48
1560.352	2494.17
1563.587	2453.98
1566.821	2419.46
1570.055	2439.31
1573.289	2420.08
1576.523	2482.96
1579.756	2496.53
1582.989	2515.89
1586.222	2476.38
1589.454	2512.1
1592.686	2492.45
1595.918	2520.85
1599.15	2515.79
1602.381	2569
1605.612	2542.72
1608.843	2638.77
1612.073	2559.78
1615.303	2544.96
1618.533	2542.96
1621.762	2545.14
1624.992	2518.78
1628.221	2515.11
1631.449	2502.79
1634.678	2538.39
1637.906	2502.76
1641.134	2535.54
1644.361	2497.23
1647.588	2485.25
1650.815	2507.44
1654.042	2475.26
1657.269	2501.12
1660.495	2472.73
1663.72	2469.41
1666.946	2437.31
1670.171	2402.27
1673.396	2376.47
1676.621	2358.79
1679.845	2362.31
1683.069	2373.69
1686.293	2404.01
1689.517	2390.67
1692.74	2337.07
1695.963	2361.79
1699.185	2394.21
1702.408	2366.34
1705.63	2400.72
1708.852	2414.68
1712.073	2388.24
1715.294	2392.05
1718.515	2439.8
1721.736	2398.9
1724.956	2377.48
1728.176	2400.8
1731.396	2422.24
1734.616	2408.82
1737.835	2443.64
1741.054	2416.97
1744.272	2408.22
1747.491	2442.84
1750.709	2475.6
1753.927	2411.21
1757.144	2441.41
1760.361	2497.05
1763.578	2476.27
1766.795	2422.95
1770.011	2416.68
1773.227	2445.38
1776.443	2483.52
1779.658	2530.09
1782.874	2470.56
1786.089	2458.1
1789.303	2460.27
1792.518	2459.15
1795.732	2444.86
1798.945	2459.08
1802.159	2502.69
1805.372	2433.48
1808.585	2424.35
1811.797	2425.65
1815.01	2453.72
1818.222	2470.61
1821.434	2437.96
1824.645	2482.07
1827.856	2486.08
1831.067	2520.39
1834.278	2463.18
1837.488	2446.82
1840.698	2577.44
1843.908	2515.92
1847.117	2481.57
1850.326	2395.02
1853.535	2467.07
1856.744	2494.56
1859.952	2415.9
1863.16	2416.34
1866.368	2429.52
1869.575	2537.22
1872.782	2424.42
1875.989	2358.73
1879.196	2414.98
1882.402	2404.1
1885.608	2440.69
1888.814	2370.19
1892.019	2274.49
1895.224	2325.89
1898.429	2296.52
1901.634	2278.8
1904.838	2254.74
1908.042	2306.27
1911.246	2315.71
1914.449	2271.48
1917.652	2257.15
1920.855	2237.63
1924.058	2270.81
1927.26	2312.8
1930.462	2337.88
1933.664	2372.22
1936.865	2314.66
1940.066	2328.6
1943.267	2272.48
1946.467	2285.56
1949.668	2304.98
1952.868	2377.31
1956.067	2363.87
1959.267	2301.73
1962.466	2325.83
1965.665	2307.98
1968.863	2301.68
1972.061	2307.49
1975.259	2304.27
1978.457	2381.34
1981.654	2338.78
1984.852	2342.67
1988.048	2287.52
1991.245	2279.97
1994.441	2364.73
1997.637	2332.57
2000.833	2316.47
2004.028	2352.69
2007.223	2413.26
2010.418	2395.8
2013.613	2350.87
2016.807	2339.4
2020.001	2337.59
2023.194	2367.77
2026.388	2350.21
2029.581	2296.07
2032.774	2352.81
2035.966	2360.21
2039.158	2303.53
2042.35	2325.53
2045.542	2251.82
2048.733	2340.69
2051.924	2342.19
2055.115	2361.13
2058.306	2318.78
2061.496	2374.74
2064.686	2426.96
2067.875	2339.89
2071.065	2347.15
2074.254	2366.46
2077.442	2318.86
2080.631	2404.52
2083.819	2321.61
2087.007	2311.05
2090.195	2291.47
2093.382	2314.58
2096.569	2297.52
2099.756	2258.42
2102.942	2297.8
2106.128	2309.29
2109.314	2299.53
2112.5	2279.21
2115.685	2249.4
2118.87	2258.5
2122.055	2320.93
2125.239	2298.42
2128.424	2281.36
2131.608	2351.68
2134.791	2336.76
2137.974	2379.23
2141.157	2366.21
2144.34	2332.5
2147.523	2331.91
2150.705	2354.45
2153.887	2324.91
2157.068	2291.06
2160.25	2280.32
2163.431	2305.71
2166.611	2269.38
2169.792	2287.11
2172.972	2195.2
2176.152	2253.84
2179.331	2283.42
2182.511	2277.79
2185.69	2303.04
2188.868	2305.17
2192.047	2344.58
2195.225	2350.98
2198.403	2302.53
2201.58	2290.71
2204.758	2280.07
2207.935	2356.58
2211.111	2263.05
2214.288	2251.55
2217.464	2287.44
2220.64	2248.15
2223.815	2299.69
2226.991	2231.14
2230.166	2246.45
2233.34	2284.16
2236.515	2299.38
2239.689	2366.14
2242.863	2313.13
2246.036	2368.77
2249.209	2357.87
2252.382	2380.76
2255.555	2384.07
2258.727	2330.07
2261.9	2359.82
2265.071	2354.08
2268.243	2352.62
2271.414	2297.71
2274.585	2274.8
2277.756	2337.11
2280.926	2293.56
2284.096	2322.84
2287.266	2247.62
2290.436	2293.77
2293.605	2318.3
2296.774	2354.56
2299.942	2360.67
2303.111	2379.07
2306.279	2429.17
2309.447	2414.35
2312.614	2387.66
2315.781	2410.54
2318.948	2386.76
2322.115	2423.37
2325.281	2323.81
2328.447	2332.77
2331.613	2306.16
2334.779	2294.07
2337.944	2288.47
2341.109	2290
2344.274	2278.66
2347.438	2245.74
2350.602	2267.46
2353.766	2278.59
2356.929	2266.42
2360.092	2309.07
2363.255	2273.58
2366.418	2229.44
2369.58	2309.52
2372.742	2161.62
2375.904	2162.74
2379.066	2144.79
2382.227	2170.98
2385.388	2132.44
2388.548	2075.43
2391.709	2121.7
2394.869	2103.23
2398.029	2172.36
2401.188	2172.08
2404.347	2127.12
2407.506	2223.15
2410.665	2257.64
2413.823	2248.76
2416.981	2223.5
2420.139	2247.25
2423.296	2290.63
2426.453	2263.25
2429.61	2283.28
2432.767	2243.67
2435.923	2283.69
2439.079	2236.55
2442.235	2274.12
2445.391	2213.39
2448.546	2253.14
2451.701	2290.13
2454.855	2277.56
2458.009	2312.76
2461.163	2307.68
2464.317	2279.82
2467.471	2306.72
2470.624	2338.32
2473.777	2321.16
2476.929	2335.69
2480.082	2359.21
2483.234	2327.5
2486.385	2274.11
2489.537	2267.84
2492.688	2250.66
2495.839	2265.75
2498.989	2279.21
2502.14	2264.57
2505.29	2254.33
2508.439	2276.84
2511.589	2213.44
2514.738	2217.2
2517.887	2242.51
2521.035	2313.72
2524.183	2281.36
2527.331	2267.78
2530.479	2255.4
2533.627	2259.87
