Data from N_2_DEC_VA_2N_Splice17_12-07-23-953.txt Node
Date: Sat Mar 14 12:07:23 EDT 2020
User: sa697716
Spectrometer: FLMS03696
Trigger mode: 0
Integration Time (sec): 3.180400E-1
Scans to average: 20
Electric dark correction enabled: true
Nonlinearity correction enabled: true
Boxcar width: 5
XAxis mode: Wavelengths
Number of Pixels in Spectrum: 2048
>>>>>Begin Spectral Data<<<<<
187.83	-362675.37
188.298	2615.45
188.766	1396.32
189.233	1221.8
189.701	1708.48
190.169	2234.69
190.636	815.04
191.104	674.32
191.571	100.72
192.039	-41.36
192.506	-70.44
192.974	454.5
193.441	-667.97
193.908	-119.84
194.375	-84.64
194.842	5.28
195.31	32.58
195.777	120.26
196.244	412.11
196.711	597.86
197.177	776.98
197.644	1141.54
198.111	1987.35
198.578	2819.86
199.045	2267.56
199.511	3733.12
199.978	4326.6
200.445	3654.33
200.911	4080.21
201.378	4573.71
201.844	4115.61
202.31	7027.43
202.777	7265.65
203.243	4055.69
203.709	3845.31
204.176	4590.8
204.642	3782.51
205.108	3543.42
205.574	2904.07
206.04	2659.06
206.506	2513.4
206.972	2395.95
207.438	2320.99
207.903	2662.21
208.369	2326.48
208.835	2309.53
209.301	2412.79
209.766	2488.15
210.232	2463.09
210.697	3059
211.163	3794.28
211.628	5701.19
212.094	4762.13
212.559	5805.91
213.024	3617.35
213.49	4379.02
213.955	4294.64
214.42	4207.92
214.885	3903.83
215.35	3741.75
215.815	3555.65
216.28	3765.06
216.745	3090.57
217.21	3342.36
217.675	3095.79
218.14	3507.11
218.604	3972.35
219.069	4546.82
219.534	4775.55
219.998	5596.66
220.463	6818.07
220.927	8494.84
221.392	8038.67
221.856	8127.36
222.32	10291.98
222.785	12730.05
223.249	16026.59
223.713	17887.85
224.177	17898.9
224.642	23033.51
225.106	28324.14
225.57	30999.46
226.034	22996.51
226.497	34972.69
226.961	31591.36
227.425	36741.23
227.889	40784.81
228.353	40715.1
228.816	83949.27
229.28	80304.44
229.744	67683.81
230.207	41096.2
230.671	40386.82
231.134	66839.99
231.597	76937.67
232.061	76852.46
232.524	74932.62
232.987	51568.11
233.45	46404.07
233.914	41629.7
234.377	42641.06
234.84	38984.36
235.303	45909.99
235.766	51194.17
236.229	52810.88
236.691	33252.25
237.154	37353.24
237.617	28055.47
238.08	28691.44
238.542	33593.41
239.005	23997.05
239.468	23796.91
239.93	22401.15
240.393	20363.57
240.855	17847.24
241.317	18293.7
241.78	22242.09
242.242	22977.8
242.704	24783.57
243.166	21532.39
243.629	19479.56
244.091	22393.79
244.553	24470.07
245.015	26275.83
245.477	33923.57
245.939	49703.42
246.4	52635.53
246.862	51094.17
247.324	48071.72
247.786	53735.56
248.247	70426.29
248.709	72765.07
249.17	54380.89
249.632	51207.97
250.093	59262.14
250.555	51140.19
251.016	31120.78
251.477	29460.24
251.939	31739.8
252.4	33244.72
252.861	39516.19
253.322	36706.52
253.783	43666.92
254.244	56576.84
254.705	44572.88
255.166	39584.95
255.627	38948.56
256.088	54923.72
256.549	58337.65
257.009	50239.8
257.47	60993.13
257.931	49664.82
258.391	37216.05
258.852	38366.89
259.312	40249.29
259.773	49777.38
260.233	42070.51
260.694	35444.44
261.154	40210.3
261.614	32245.61
262.074	28836.75
262.534	29931.99
262.994	28171.88
263.455	37556.44
263.915	31591.14
264.374	29699.53
264.834	32386.74
265.294	35900.81
265.754	37185.63
266.214	35185.87
266.673	32976.59
267.133	41615.98
267.593	41281.08
268.052	50502.29
268.512	43845.75
268.971	52824.18
269.431	57926.09
269.89	51847.78
270.349	77636.85
270.809	86501.76
271.268	77685.84
271.727	174121.03
272.186	112671.11
272.645	84497.62
273.104	60998.49
273.563	88313.62
274.022	69498.77
274.481	59114.08
274.94	45546.53
275.399	33867.18
275.857	39460.53
276.316	53396.52
276.775	47491.61
277.233	46754.74
277.692	43757.06
278.15	49427.48
278.609	50833.4
279.067	47051.63
279.525	43703.31
279.984	56368.31
280.442	67707.46
280.9	66695.54
281.358	43842.34
281.816	40878.31
282.274	40033.56
282.732	41371.89
283.19	41607.11
283.648	35932.48
284.106	38261.3
284.564	38904.09
285.021	36110.69
285.479	26912
285.937	24508.85
286.394	21510.58
286.852	22145.7
287.309	23288.07
287.767	22473.03
288.224	21374.62
288.682	23454.85
289.139	25736.6
289.596	23540.5
290.053	24455.2
290.511	30867.69
290.968	37364.54
291.425	50617.31
291.882	42051.21
292.339	36525.49
292.796	36231.8
293.252	34098.64
293.709	27031.06
294.166	24196.63
294.623	26716.24
295.079	25608.69
295.536	25689.3
295.992	23280.47
296.449	23015.14
296.905	23913.28
297.362	22920.78
297.818	24098.54
298.274	24984.98
298.731	25481.26
299.187	25191.99
299.643	27053.32
300.099	32711.17
300.555	35886.67
301.011	30030.78
301.467	28944.63
301.923	33898.23
302.379	33090.52
302.835	32507.55
303.291	32558.12
303.746	37034.3
304.202	46845.85
304.658	47040.46
305.113	31633.96
305.569	30975.72
306.024	33033.95
306.479	31490.84
306.935	26532.28
307.39	29011.5
307.845	26791.56
308.301	26959.07
308.756	26279.11
309.211	25291.11
309.666	25904.08
310.121	32162.88
310.576	32663.94
311.031	32385.59
311.486	37097.71
311.94	37084.46
312.395	49539.2
312.85	93204.49
313.305	457899.53
313.759	2368634.49
314.214	171753.62
314.668	136089.19
315.123	114444.41
315.577	41050.08
316.032	36523.37
316.486	45728.89
316.94	36046.24
317.394	25116.46
317.849	19483.44
318.303	18440.78
318.757	17392.19
319.211	19203.45
319.665	16823.05
320.119	17016.62
320.572	24395.37
321.026	22771.93
321.48	18945.26
321.934	20660.29
322.387	20686.94
322.841	22339.17
323.295	20034.5
323.748	23092.11
324.202	23419.1
324.655	28092.45
325.108	39195.57
325.562	27667.29
326.015	32857.77
326.468	24797.58
326.921	27739.82
327.374	25852.02
327.827	26916.59
328.28	30513.4
328.733	20433.88
329.186	17984.48
329.639	17135.63
330.092	14447.25
330.545	13766.26
330.997	13885.56
331.45	15193.48
331.903	17797.71
332.355	30630.3
332.808	29779.75
333.26	24562.51
333.713	26666.81
334.165	26835.14
334.617	35872.49
335.069	29053.17
335.522	52527.41
335.974	58269.68
336.426	53283.77
336.878	36928.11
337.33	18747.95
337.782	18304.79
338.234	22935.07
338.686	27461.89
339.137	32581.66
339.589	30684.76
340.041	24012.78
340.493	20652.02
340.944	21120.06
341.396	22731.06
341.847	19106.59
342.299	22527.23
342.75	27483.03
343.201	24006.55
343.653	27609.06
344.104	33913.74
344.555	26660.2
345.006	41553.37
345.457	31754.81
345.908	25241.2
346.359	23745.79
346.81	19332.34
347.261	20359.8
347.712	20023.1
348.163	21496.42
348.613	21727.08
349.064	20277.31
349.515	17753.49
349.965	18175.75
350.416	21899.84
350.866	24025.57
351.317	27201.05
351.767	45049.35
352.217	56941.97
352.668	47297.7
353.118	43295.87
353.568	41787.62
354.018	33054.84
354.468	34876.08
354.918	25073.21
355.368	21952.52
355.818	31059.35
356.268	89311.74
356.718	373280.41
357.168	93055.16
357.617	46736.24
358.067	52023.8
358.517	48740.98
358.966	57091.64
359.416	64002.96
359.865	69156.15
360.315	82437.78
360.764	38471.42
361.213	21538.26
361.663	20455.49
362.112	25239.47
362.561	40751.47
363.01	30686.73
363.459	25848.51
363.908	28015.2
364.357	23795.51
364.806	40143.5
365.255	27560.04
365.703	25235.55
366.152	25292.3
366.601	20474.56
367.05	16610.42
367.498	15119.82
367.947	15822.28
368.395	16472.97
368.844	14606.06
369.292	17616.37
369.74	12188.61
370.189	18691.86
370.637	21935.67
371.085	18918.49
371.533	23115.08
371.981	22319.81
372.429	21265.82
372.877	22171.88
373.325	18572.71
373.773	18952.93
374.221	16926.03
374.669	21043.29
375.116	18248.37
375.564	18433.55
376.012	20710.13
376.459	17124.5
376.907	20516.14
377.354	24894.21
377.801	23298.69
378.249	26860.17
378.696	34471.87
379.143	41859.05
379.591	44912.21
380.038	76289.47
380.485	55345.57
380.932	60039.6
381.379	55189.08
381.826	40842.95
382.273	29222.31
382.72	25701.57
383.166	25197.68
383.613	16440.78
384.06	14940.6
384.506	17389.22
384.953	12859.06
385.4	13049.26
385.846	11507.95
386.292	11284.52
386.739	11130.25
387.185	11099.46
387.631	11191.14
388.078	10944.03
388.524	11800.52
388.97	10977.05
389.416	9211.09
389.862	9869.22
390.308	9420.76
390.754	9645.84
391.2	10566.63
391.645	10916.43
392.091	10493.88
392.537	10214.3
392.983	10322.29
393.428	10196.21
393.874	11010.95
394.319	11122.47
394.765	10606.57
395.21	10997.33
395.655	10376.29
396.101	9756.11
396.546	8836.67
396.991	8962.33
397.436	8369.14
397.881	8111.71
398.326	7721.64
398.771	7322.89
399.216	6434.64
399.661	5817.92
400.106	5798.45
400.551	5938.01
400.995	5335.99
401.44	5281.47
401.885	4968.93
402.329	5014.2
402.774	4812.06
403.218	4648.19
403.663	4479.61
404.107	4591.65
404.551	4621.26
404.995	4233.89
405.44	4080.34
405.884	4148.49
406.328	4018.49
406.772	4000.54
407.216	3639.43
407.66	3515.24
408.104	3345.78
408.547	3125.2
408.991	3023.81
409.435	2907.08
409.879	2864.42
410.322	2822.6
410.766	2714.17
411.209	2573.73
411.653	2471.58
412.096	2417.37
412.54	2412.33
412.983	2392.38
413.426	2394.74
413.869	2390.86
414.312	2339.74
414.756	2251.15
415.199	2142.54
415.642	2079.74
416.085	2077.29
416.527	2056.17
416.97	2087.41
417.413	1979.85
417.856	1954.08
418.298	1931.55
418.741	1918.16
419.184	1914.98
419.626	1995.88
420.069	1997.17
420.511	2005.1
420.953	1959.65
421.396	1939.9
421.838	1887.39
422.28	1925.4
422.722	1933.72
423.164	1957.52
423.606	1919.95
424.048	1911.78
424.49	1811.29
424.932	1798.29
425.374	1770.37
425.816	1798.85
426.258	1828.99
426.699	1842.38
427.141	1808.3
427.582	1833.66
428.024	1823.38
428.465	1808.77
428.907	1762.66
429.348	1738.16
429.789	1731.92
430.231	1688.5
430.672	1708.3
431.113	1666.39
431.554	1645.34
431.995	1605.38
432.436	1542.28
432.877	1506.97
433.318	1478.92
433.759	1471.55
434.2	1473.08
434.64	1462.61
435.081	1468.05
435.522	1390.92
435.962	1342.55
436.403	1314.62
436.843	1336.33
437.284	1314.32
437.724	1283.19
438.164	1295.25
438.604	1269.4
439.045	1222.32
439.485	1173.19
439.925	1153.45
440.365	1130.14
440.805	1119.75
441.245	1108.38
441.685	1073.43
442.125	1071.82
442.564	1084.94
443.004	1063.05
443.444	1066.78
443.883	1076.12
444.323	1076.35
444.762	1089.9
445.202	1112.06
445.641	1138.74
446.081	1142.81
446.52	1158.6
446.959	1153.63
447.398	1130.72
447.837	1125.28
448.276	1114.17
448.716	1135.12
449.154	1154.62
449.593	1133.72
450.032	1138.76
450.471	1126.88
450.91	1135.69
451.349	1139.24
451.787	1142.18
452.226	1167.31
452.664	1175.12
453.103	1182.96
453.541	1184.75
453.98	1184.44
454.418	1196.38
454.856	1178.83
455.295	1180.09
455.733	1190.82
456.171	1201.68
456.609	1205.22
457.047	1207
457.485	1224.17
457.923	1226.94
458.361	1212.81
458.798	1218.54
459.236	1218.82
459.674	1230.3
460.111	1237.27
460.549	1224.83
460.987	1222.14
461.424	1219.57
461.862	1214.63
462.299	1198.03
462.736	1196.85
463.173	1200.9
463.611	1186.13
464.048	1182.26
464.485	1191.95
464.922	1181.75
465.359	1176.45
465.796	1152.85
466.233	1143.02
466.67	1127.88
467.106	1123.47
467.543	1114.18
467.98	1101.83
468.416	1076.56
468.853	1068.63
469.29	1036.88
469.726	1025.33
470.162	999.37
470.599	994.52
471.035	987.41
471.471	967.84
471.907	964.47
472.344	959.98
472.78	961.94
473.216	976.02
473.652	964.2
474.088	964.44
474.523	963.09
474.959	973.73
475.395	964.8
475.831	961.12
476.266	968.7
476.702	967.64
477.138	957.64
477.573	955.61
478.008	952.56
478.444	958.16
478.879	965.88
479.314	970.08
479.75	970.99
480.185	976.91
480.62	986.95
481.055	993.46
481.49	1001.61
481.925	1017.01
482.36	1034.84
482.795	1066.48
483.229	1098.7
483.664	1124.64
484.099	1132.44
484.534	1152.02
484.968	1166.1
485.403	1172.03
485.837	1174.71
486.271	1177.17
486.706	1183.63
487.14	1176.03
487.574	1161.25
488.009	1154.36
488.443	1150.38
488.877	1166.21
489.311	1175.39
489.745	1195.38
490.179	1212.37
490.613	1237.89
491.046	1254
491.48	1269.17
491.914	1278.6
492.348	1294.43
492.781	1310.05
493.215	1320.49
493.648	1331.47
494.082	1351.23
494.515	1358.56
494.948	1381.35
495.382	1401.24
495.815	1419.38
496.248	1439.05
496.681	1473.9
497.114	1507.4
497.547	1536.65
497.98	1571.8
498.413	1593.18
498.846	1621.36
499.279	1651.08
499.711	1669.94
500.144	1685.37
500.577	1714.66
501.009	1749.22
501.442	1776.72
501.874	1787.72
502.306	1801.85
502.739	1823.6
503.171	1864.73
503.603	1879.24
504.036	1908.65
504.468	1929.62
504.9	1962.14
505.332	1984.95
505.764	1999.39
506.196	2022.82
506.627	2060.72
507.059	2095.06
507.491	2123.71
507.923	2123.48
508.354	2161.24
508.786	2186.86
509.217	2229.09
509.649	2263
510.08	2308.6
510.512	2345.37
510.943	2378.66
511.374	2403.2
511.805	2447.19
512.237	2489.71
512.668	2559.31
513.099	2617.06
513.53	2673.47
513.961	2712.64
514.391	2776.84
514.822	2839.22
515.253	2910.54
515.684	2957.02
516.114	3013.49
516.545	3050.28
516.975	3096
517.406	3124.94
517.836	3118.75
518.267	3120.59
518.697	3146.11
519.127	3143.63
519.558	3149.83
519.988	3146.45
520.418	3157.02
520.848	3181.45
521.278	3187.52
521.708	3163.08
522.138	3176.69
522.567	3229.8
522.997	3270.02
523.427	3291.05
523.857	3313.63
524.286	3323.87
524.716	3342.84
525.145	3368.24
525.575	3378.99
526.004	3396.67
526.433	3417.26
526.863	3407.74
527.292	3375.38
527.721	3376.16
528.15	3379.2
528.579	3371.93
529.008	3383.22
529.437	3421.29
529.866	3441.45
530.295	3469.62
530.724	3486.67
531.152	3532.12
531.581	3553.52
532.01	3583.08
532.438	3596
532.867	3620.37
533.295	3651.51
533.723	3659.27
534.152	3649.99
534.58	3645.92
535.008	3609.75
535.436	3608.03
535.865	3621.22
536.293	3648.49
536.721	3679.67
537.149	3727.78
537.576	3729.93
538.004	3753.14
538.432	3768.47
538.86	3763.29
539.287	3777.55
539.715	3804.11
540.143	3811.56
540.57	3803.34
540.998	3794.45
541.425	3744.86
541.852	3700.49
542.28	3696.52
542.707	3663.17
543.134	3634.54
543.561	3627.32
543.988	3610.5
544.415	3609.25
544.842	3596.98
545.269	3580.54
545.696	3580.9
546.123	3605.66
546.549	3584.36
546.976	3557.17
547.403	3555.55
547.829	3555.83
548.256	3557.48
548.682	3549.8
549.108	3530.79
549.535	3528.22
549.961	3531.66
550.387	3506.56
550.813	3493.15
551.24	3504.55
551.666	3506.51
552.092	3486.81
552.518	3474.42
552.943	3460.07
553.369	3473.02
553.795	3485.15
554.221	3489.48
554.646	3483.72
555.072	3503.28
555.498	3515.92
555.923	3536.76
556.349	3568.54
556.774	3587.78
557.199	3594.16
557.625	3612.12
558.05	3602.24
558.475	3626.05
558.9	3625.96
559.325	3612.12
559.75	3602.79
560.175	3594.85
560.6	3584.75
561.025	3584.74
561.449	3591.09
561.874	3607.65
562.299	3620.17
562.723	3641.02
563.148	3628.13
563.572	3642.83
563.997	3669.96
564.421	3689.99
564.846	3698.75
565.27	3715.82
565.694	3719.52
566.118	3752.21
566.542	3774.81
566.966	3770.16
567.39	3771.19
567.814	3756.56
568.238	3765.55
568.662	3787.74
569.086	3802.61
569.509	3828.84
569.933	3803.97
570.357	3798.17
570.78	3763.06
571.204	3744.2
571.627	3732
572.05	3738.23
572.474	3747.45
572.897	3729.59
573.32	3720.24
573.743	3709.05
574.166	3677.46
574.589	3688.35
575.012	3681.18
575.435	3688.18
575.858	3677.28
576.281	3661.91
576.704	3634.61
577.126	3615.43
577.549	3597.78
577.972	3584.1
578.394	3566.82
578.817	3555.18
579.239	3519.7
579.661	3494.41
580.084	3463.85
580.506	3439.65
580.928	3435.58
581.35	3417.11
581.772	3413.66
582.194	3390.03
582.616	3369.33
583.038	3344.06
583.46	3327.05
583.882	3324.22
584.303	3340.12
584.725	3335.95
585.147	3338.14
585.568	3365.43
585.99	3394.62
586.411	3411.54
586.833	3447.88
587.254	3453.39
587.675	3488.98
588.096	3518.73
588.518	3509.74
588.939	3474.84
589.36	3473.07
589.781	3460.99
590.202	3395.56
590.623	3380.18
591.043	3378.78
591.464	3353.41
591.885	3345.82
592.305	3334.33
592.726	3306.38
593.147	3312.1
593.567	3301.4
593.987	3286.69
594.408	3277.13
594.828	3279.17
595.248	3265.56
595.669	3223.39
596.089	3208.15
596.509	3196.65
596.929	3168.2
597.349	3171
597.769	3149.77
598.189	3137.08
598.608	3142.21
599.028	3147.17
599.448	3149.81
599.867	3123.98
600.287	3117.5
600.706	3111
601.126	3089.61
601.545	3087.98
601.965	3087.39
602.384	3077.84
602.803	3087.34
603.222	3077.14
603.641	3065.47
604.061	3058.45
604.48	3052.38
604.898	3073.76
605.317	3088.47
605.736	3096.38
606.155	3092.72
606.574	3076.04
606.992	3092.23
607.411	3084.02
607.829	3071.05
608.248	3068.25
608.666	3067.24
609.085	3069.47
609.503	3053.81
609.921	3042.27
610.339	3051.01
610.758	3055.54
611.176	3049.11
611.594	3031.41
612.012	3027.63
612.43	3039.24
612.847	3058.4
613.265	3063.46
613.683	3078.77
614.101	3086.3
614.518	3082.43
614.936	3064.93
615.353	3033.97
615.771	3031.68
616.188	3036.62
616.606	3032.82
617.023	3019.08
617.44	2990.37
617.857	2980.39
618.274	2964.46
618.691	2952.44
619.108	2934.32
619.525	2923.59
619.942	2941.4
620.359	2949.55
620.776	2941.63
621.192	2935.05
621.609	2932.42
622.026	2949.08
622.442	2965.06
622.859	2976.14
623.275	2962.89
623.691	2977.11
624.108	3004.39
624.524	3041.2
624.94	3043.04
625.356	3068.05
625.772	3101.67
626.188	3132.37
626.604	3138.92
627.02	3130.49
627.436	3123.94
627.852	3138.19
628.268	3168.56
628.683	3150.19
629.099	3130.27
629.514	3121.05
629.93	3131.46
630.345	3142.29
630.761	3134.28
631.176	3142.03
631.591	3125.52
632.007	3112.98
632.422	3113.04
632.837	3087.23
633.252	3079.21
633.667	3055.86
634.082	3035.4
634.497	3003.43
634.911	2955.07
635.326	2945.48
635.741	2903.53
636.155	2882.69
636.57	2883.91
636.984	2882.36
637.399	2882.07
637.813	2883
638.228	2880.08
638.642	2888.36
639.056	2863.37
639.47	2865.13
639.884	2843.88
640.298	2828.51
640.712	2822.55
641.126	2792.47
641.54	2771.01
641.954	2762.85
642.368	2729.78
642.781	2702.25
643.195	2658.22
643.609	2657.11
644.022	2638.58
644.436	2626.63
644.849	2597.09
645.262	2567.79
645.676	2570.44
646.089	2554.42
646.502	2511.17
646.915	2496.92
647.328	2458.99
647.741	2448.75
648.154	2413.51
648.567	2399.44
648.98	2364.96
649.393	2361.47
649.805	2349.75
650.218	2327.86
650.631	2289.05
651.043	2273.74
651.456	2257.78
651.868	2258.28
652.28	2300.08
652.693	2331.58
653.105	2348.79
653.517	2370.5
653.929	2370.66
654.341	2380.35
654.753	2351.49
655.165	2364.99
655.577	2356.78
655.989	2343.53
656.401	2325.25
656.813	2236.11
657.224	2187.52
657.636	2121.35
658.047	2074.77
658.459	2027.11
658.87	2005.52
659.282	1974.69
659.693	1922.01
660.104	1884.51
660.515	1849.31
660.926	1837.2
661.338	1826.18
661.749	1804.6
662.159	1775.54
662.57	1760.59
662.981	1741.45
663.392	1715.88
663.803	1714.24
664.213	1699.96
664.624	1680.2
665.035	1676.19
665.445	1638.33
665.855	1610.05
666.266	1582.29
666.676	1567.52
667.086	1538.54
667.497	1526.14
667.907	1504.28
668.317	1477.18
668.727	1458.05
669.137	1452.87
669.547	1439.62
669.956	1437.48
670.366	1434.14
670.776	1430.68
671.186	1431.88
671.595	1432.54
672.005	1434.59
672.414	1425.87
672.824	1417.42
673.233	1424.28
673.642	1423.6
674.052	1425.16
674.461	1424.36
674.87	1432.41
675.279	1424.89
675.688	1427.03
676.097	1428.1
676.506	1421.77
676.915	1451.74
677.323	1458.89
677.732	1456.05
678.141	1458.59
678.549	1445.45
678.958	1449.83
679.366	1456.08
679.775	1473.79
680.183	1499.07
680.592	1522
681	1544.93
681.408	1545.18
681.816	1576.28
682.224	1614.54
682.632	1651.33
683.04	1731.68
683.448	1805.23
683.856	1891
684.264	1992.62
684.671	2094.82
685.079	2210.64
685.487	2340.44
685.894	2510.46
686.302	2659.51
686.709	2782.58
687.116	2926.47
687.524	3041.77
687.931	3143.73
688.338	3233.52
688.745	3308.73
689.152	3386.24
689.559	3486.93
689.966	3578.86
690.373	3615.34
690.78	3693.28
691.187	3823.38
691.593	3909.34
692	3981.12
692.407	4093.52
692.813	4226.9
693.22	4323.7
693.626	4424.76
694.032	4490.1
694.439	4613.28
694.845	4695.88
695.251	4810.04
695.657	4900.7
696.063	5066.13
696.469	5169.45
696.875	5258.21
697.281	5287.87
697.687	5332.71
698.093	5359.08
698.498	5459.37
698.904	5524.92
699.31	5648.6
699.715	5716.95
700.12	5846.86
700.526	5829.12
700.931	5915.23
701.337	5963.16
701.742	5974.75
702.147	6085.93
702.552	6096
702.957	6165.9
703.362	6155.97
703.767	6165.12
704.172	6200.46
704.577	6072.53
704.981	6116.98
705.386	6104.86
705.791	6051.87
706.195	6150.77
706.6	6130.69
707.004	6236.15
707.408	6145.85
707.813	6157.74
708.217	6105.24
708.621	6075.24
709.025	6209.45
709.43	6176.95
709.834	6247.54
710.237	6339.39
710.641	6283.06
711.045	6288.2
711.449	6248.75
711.853	6264.58
712.256	6308.45
712.66	6342.82
713.064	6437.89
713.467	6477.25
713.87	6636.35
714.274	6686.11
714.677	6836.39
715.08	7070.52
715.484	7314.93
715.887	7607.53
716.29	7901.32
716.693	8201.92
717.096	8549.19
717.499	8726.67
717.901	8743.35
718.304	8757.74
718.707	8768.19
719.109	8585.59
719.512	8511.61
719.915	8277.3
720.317	8168.92
720.719	8214.76
721.122	8150.83
721.524	8056.61
721.926	7969.06
722.328	8098.59
722.731	8067.34
723.133	8091.9
723.535	8363.17
723.937	8376.58
724.338	8436.69
724.74	8482.88
725.142	8328.31
725.544	8309.49
725.945	8324.28
726.347	8311.81
726.748	8288.23
727.15	8294.85
727.551	8222.72
727.952	8166.17
728.354	8113.2
728.755	8104
729.156	8032.6
729.557	8044.86
729.958	7856.12
730.359	7772.74
730.76	7732.68
731.161	7637.04
731.562	7589.4
731.962	7587.92
732.363	7487.79
732.763	7384.88
733.164	7430.52
733.564	7326.2
733.965	7178.88
734.365	7122.96
734.766	7156.36
735.166	7095.34
735.566	7010.65
735.966	6967.66
736.366	6955.52
736.766	6861.71
737.166	6905
737.566	6840.3
737.966	6798.04
738.365	6850.06
738.765	6833.71
739.165	6724.04
739.564	6680.99
739.964	6743.31
740.363	6673.76
740.763	6668.33
741.162	6645.45
741.561	6593.12
741.96	6524.67
742.36	6551.87
742.759	6555.97
743.158	6609.73
743.557	6628.53
743.955	6684.4
744.354	6614.52
744.753	6696.31
745.152	6635.41
745.55	6715.47
745.949	6707.22
746.348	6707.93
746.746	6728.87
747.144	6669.46
747.543	6636.65
747.941	6706.73
748.339	6605.18
748.737	6593.72
749.136	6577.94
749.534	6665.65
749.932	6622.18
750.33	6653.12
750.727	6730.11
751.125	6691.4
751.523	6668.26
751.921	6725.83
752.318	6674.03
752.716	6755.56
753.113	6776.47
753.511	6809.68
753.908	6810.27
754.305	6783.68
754.703	6869.11
755.1	6952.4
755.497	7038.75
755.894	7307.34
756.291	7559.76
756.688	8021.52
757.085	8639.61
757.482	9502.2
757.878	10448.67
758.275	11304.98
758.672	12489.29
759.068	13449.71
759.465	14824.96
759.861	16591.25
760.258	18637.06
760.654	19705.24
761.05	19539
761.447	18644.13
761.843	17356.21
762.239	16023.68
762.635	15418.1
763.031	14835.78
763.427	14006.37
763.822	13127.17
764.218	12264.07
764.614	11143.17
765.01	10386.15
765.405	9903.46
765.801	9531.7
766.196	9061.75
766.592	8803.32
766.987	8365.74
767.382	8066.76
767.778	7936.92
768.173	7754.38
768.568	7650.28
768.963	7476.36
769.358	7502.04
769.753	7438.2
770.148	7319.98
770.542	7318.15
770.937	7271.27
771.332	7394.88
771.726	7422.37
772.121	7333.73
772.515	7410.53
772.91	7394.36
773.304	7489.46
773.699	7398.04
774.093	7468.97
774.487	7550.56
774.881	7611
775.275	7606.32
775.669	7545.73
776.063	7607.46
776.457	7662.66
776.851	7559.19
777.245	7544.71
777.638	7597
778.032	7756.63
778.425	7708.21
778.819	7761.74
779.212	7702.82
779.606	7646.8
779.999	7676.52
780.392	7656.15
780.786	7770.17
781.179	7800.66
781.572	7857.32
781.965	7873.51
782.358	7795.31
782.751	7876.01
783.143	7809.66
783.536	7910.74
783.929	7971.68
784.322	8132.41
784.714	8174.49
785.107	8167.09
785.499	8264.66
785.891	8236.6
786.284	8209.9
786.676	8406.09
787.068	8376.28
787.46	8447.57
787.852	8475.48
788.245	8595.11
788.636	8633.44
789.028	8728.27
789.42	8780.4
789.812	8791.37
790.204	8929.78
790.595	9065.25
790.987	8788.55
791.378	8819.6
791.77	9003.26
792.161	9195.81
792.553	9272.3
792.944	9121.6
793.335	9027.03
793.726	9129.74
794.117	9254.76
794.508	9442.51
794.899	9401.55
795.29	9600.17
795.681	9683.52
796.072	9481.05
796.463	9210.04
796.853	9221.92
797.244	9438.87
797.634	9481.48
798.025	9479.07
798.415	9496.54
798.806	9614.05
799.196	9728.82
799.586	9798.31
799.976	9742.15
800.366	10066.4
800.756	10415.22
801.146	10361.54
801.536	10404
801.926	10506.3
802.316	10541.86
802.706	10638.44
803.095	10469.38
803.485	10615.89
803.874	10675.09
804.264	11042.43
804.653	11005.11
805.043	11199.76
805.432	11349.44
805.821	11346.73
806.21	11374.15
806.599	11539.75
806.988	11607.66
807.377	11758.44
807.766	11935.58
808.155	12326.9
808.544	11955.93
808.933	11976.44
809.321	11945.79
809.71	12363.88
810.098	12579.8
810.487	13224.98
810.875	13895.6
811.264	13922.05
811.652	14314.94
812.04	14514.98
812.428	14742.07
812.816	15801.93
813.204	16380.39
813.592	17153.02
813.98	17607.37
814.368	17478.25
814.756	18144.9
815.144	18027.67
815.531	18668.86
815.919	18579.99
816.306	19005.17
816.694	18577.39
817.081	18650.11
817.469	19121.45
817.856	19124.31
818.243	19503.76
818.63	20052.72
819.017	19461.35
819.404	19545.97
819.791	20077.87
820.178	20929.15
820.565	21273.76
820.952	22555.38
821.339	21868.6
821.725	22132.22
822.112	21094.56
822.498	21032.39
822.885	21211.55
823.271	21086.79
823.657	21664.15
824.044	21667.51
824.43	21764.23
824.816	21717.45
825.202	21117.27
825.588	22526.9
825.974	22553.58
826.36	23266.07
826.746	23309.05
827.132	23803.8
827.517	23751.61
827.903	22664.88
828.289	22715.36
828.674	21639.21
829.06	21494.08
829.445	22048.1
829.83	22541.99
830.216	23192.98
830.601	23698.76
830.986	23127.43
831.371	22939.65
831.756	23720.83
832.141	23128.72
832.526	23125.3
832.911	23514.67
833.295	23364.36
833.68	24012.61
834.065	23151.75
834.449	21888.24
834.834	21788.64
835.218	21794.72
835.603	22263.7
835.987	21975.99
836.371	23138.06
836.755	22996.16
837.139	23553.37
837.524	23882.59
837.908	23639.81
838.291	23719.78
838.675	23813.76
839.059	24105.74
839.443	24083.58
839.827	23767.21
840.21	24433.13
840.594	24219.35
840.977	24512.43
841.361	24485.48
841.744	25015.19
842.127	24787.87
842.511	25142.92
842.894	25978.42
843.277	26502.17
843.66	27265.52
844.043	27378.26
844.426	26258.5
844.809	25836.98
845.191	25878.39
845.574	25243.83
845.957	24740.2
846.339	24595.04
846.722	23858.3
847.104	23947.79
847.487	23707.14
847.869	23719.19
848.252	24104.7
848.634	24562.62
849.016	24927.5
849.398	25099.5
849.78	26288.17
850.162	26298.03
850.544	26882.24
850.926	27765.06
851.307	27654
851.689	28042.16
852.071	28681.16
852.452	29138.15
852.834	29115.88
853.215	29665.56
853.597	29873.59
853.978	30278.74
854.359	30902.52
854.741	29516.62
855.122	29374.6
855.503	28975.48
855.884	29173.39
856.265	29088.55
856.646	29253.69
857.026	28709.13
857.407	28618.81
857.788	28844.36
858.169	29236.48
858.549	28046.06
858.93	28910.75
859.31	28972.89
859.69	29255.91
860.071	28679.52
860.451	28372.1
860.831	27343.17
861.211	28944.24
861.591	29694.89
861.971	29651.16
862.351	29913.93
862.731	30461.49
863.111	30815.3
863.491	31271.92
863.87	32476.24
864.25	32962.02
864.629	32399.11
865.009	33094.42
865.388	34271.64
865.768	36746.16
866.147	36605.71
866.526	34575
866.905	34982.47
867.284	36957.17
867.663	35088.77
868.042	33628.03
868.421	33529.17
868.8	34083.47
869.179	34410.91
869.558	32395.48
869.936	29849.37
870.315	30388.6
870.693	31134.02
871.072	33587.67
871.45	32004.36
871.828	32405.28
872.207	34063.12
872.585	33531.93
872.963	34456.61
873.341	33272.5
873.719	32868.5
874.097	32464.38
874.475	33067.93
874.853	33815.15
875.23	32395.67
875.608	33739.34
875.986	36504.26
876.363	34916.62
876.741	35983.1
877.118	35084.83
877.495	36805.78
877.873	37429.92
878.25	39400.6
878.627	37802.57
879.004	38335.72
879.381	38152.58
879.758	37150.07
880.135	34586.04
880.512	36575.25
880.889	35605.42
881.265	35233.67
881.642	34955.02
882.019	35558.97
882.395	34831.72
882.772	36214.08
883.148	34651.72
883.524	34509.77
883.901	34308.78
884.277	34830.81
884.653	34612.31
885.029	35612.23
885.405	39423.15
885.781	39129.43
886.157	37523.42
886.532	37990.98
886.908	37964.69
887.284	42209.05
887.659	43584.64
888.035	44944.13
888.411	46092.35
888.786	46697.79
889.161	48318.66
889.537	47462.94
889.912	48981.14
890.287	48921.86
890.662	50187.97
891.037	49301.77
891.412	45982.88
891.787	45541.92
892.162	43956.37
892.536	45000.75
892.911	43320.79
893.286	42405.45
893.66	40676.32
894.035	41708.84
894.409	45414.96
894.784	43579.22
895.158	44285.71
895.532	46910.02
895.906	48175.88
896.281	49316.07
896.655	48515
897.029	55420.24
897.402	57723.73
897.776	64263.12
898.15	64044.64
898.524	63365.45
898.898	64195.32
899.271	71881.45
899.645	62252.31
900.018	59810.65
900.392	62036.63
900.765	62561.08
901.138	57905.61
901.511	57024.68
901.884	52371.38
902.258	48308.49
902.631	49900.01
903.003	57424.03
903.376	51810.92
903.749	58082.76
904.122	62170.81
904.495	68445.87
904.867	69305.07
905.24	60160.12
905.612	56009.03
905.985	57239.54
906.357	59857.93
906.729	57158.02
907.102	48832.13
907.474	46954.83
907.846	47250.62
908.218	46617.04
908.59	41166.13
908.962	39809.19
909.334	42873.7
909.705	45033.77
910.077	43729.99
910.449	45504.29
910.82	46766.72
911.192	51460.84
911.563	53466.96
911.935	57235.29
912.306	57309.24
912.677	59195.89
913.048	58582.98
913.419	63563.24
913.79	63941.66
914.161	68590.35
914.532	65523.8
914.903	60243.11
915.274	57197.98
915.645	56369.57
916.015	49604.83
916.386	47303.44
916.756	50358.95
917.127	51965.12
917.497	46419.71
917.868	50514.42
918.238	47993.93
918.608	49404.64
918.978	50398.46
919.348	53383.32
919.718	55167.72
920.088	53141.23
920.458	55202.22
920.828	58106.52
921.198	55085.62
921.567	58830.51
921.937	45559.35
922.306	45983.33
922.676	49575.81
923.045	41335.25
923.415	39247.04
923.784	35737.55
924.153	36739.02
924.522	36677.56
924.891	34452.84
925.26	36903.78
925.629	36050.76
925.998	41421.78
926.367	40412.6
926.736	38472.5
927.104	45846.52
927.473	49301.53
927.842	59512.64
928.21	58952.97
928.578	62005.8
928.947	58646.6
929.315	58963.46
929.683	69117.19
930.051	69672.38
930.42	80928.08
930.788	69164.22
931.156	68660.01
931.523	64371.65
931.891	59515.88
932.259	57141.05
932.627	66215.45
932.994	93720.26
933.362	77455.68
933.729	67234.12
934.097	64349.29
934.464	54455.39
934.831	62879.31
935.199	61977.5
935.566	60097.82
935.933	60950.27
936.3	73856.98
936.667	57514.63
937.034	51800.68
937.401	51259.31
937.767	44265.27
938.134	39434.75
938.501	55647.3
938.867	59280.86
939.234	100206.89
939.6	85538.83
939.967	94080.08
940.333	62914.04
940.699	53565.25
941.065	43033.67
941.431	56384.49
941.798	54330.19
942.163	71289.98
942.529	44501.41
942.895	40946.04
943.261	26490.94
943.627	34742.62
943.992	30419.19
944.358	30490.89
944.723	30558.52
945.089	29798.41
945.454	27520.84
945.82	29393.99
946.185	28223.6
946.55	32706.31
946.915	29330.05
947.28	34404.86
947.645	30268.81
948.01	27936.95
948.375	29128.1
948.74	34962.76
949.104	40777.71
949.469	58999.81
949.834	104260.03
950.198	98877.29
950.562	59282.85
950.927	49417.94
951.291	59471.59
951.655	50708.21
952.02	47698.42
952.384	36069.5
952.748	31373.84
953.112	30575.96
953.476	26592.72
953.839	24590.16
954.203	24348.91
954.567	30476.01
954.931	48025.68
955.294	41085.86
955.658	41302.66
956.021	70239.76
956.385	119184.31
956.748	175983.69
957.111	273348.18
957.474	306911.88
957.837	345784.36
958.2	261820.44
958.563	94047.44
958.926	63607.61
959.289	96577.05
959.652	107901.62
960.015	80895.61
960.377	116119.83
960.74	132560.13
961.102	228800.87
961.465	245518.39
961.827	131357.65
962.189	252203.34
962.552	175026.18
962.914	140296.71
963.276	91028.67
963.638	75302.14
964	74645.07
964.362	50436.83
964.724	48760.26
965.085	34757.37
965.447	28502.93
965.809	32542.81
966.17	32579.84
966.532	35253.97
966.893	32362.06
967.255	29445.08
967.616	34772.91
967.977	27828.82
968.338	30423.82
968.699	24988.9
969.061	24995.22
969.421	25158.02
969.782	28231.79
970.143	23833.6
970.504	24675.97
970.865	28040.44
971.225	28648.73
971.586	28028.31
971.946	39957.39
972.307	34657.13
972.667	45311.1
973.027	46701.89
973.388	56635.42
973.748	38544.67
974.108	41971.29
974.468	56802.34
974.828	43747.6
975.188	33710.61
975.548	30944.87
975.907	25984.15
976.267	29141.35
976.627	24491
976.986	25395.15
977.346	24224.91
977.705	23317.6
978.064	21241.67
978.424	17678.91
978.783	18328.89
979.142	20923.58
979.501	20026.39
979.86	21147.36
980.219	20398.35
980.578	26322.08
980.937	29456
981.296	26258.43
981.654	26982.62
982.013	42030.61
982.371	54560.81
982.73	50931.17
983.088	57686.95
983.447	61671.08
983.805	88250.15
984.163	184286.91
984.521	204669.02
984.879	300211.93
985.237	-487808.89
985.595	470124.3
985.953	116805.35
986.311	67530.23
986.669	39227.84
987.026	33847.63
987.384	45516.01
987.741	47082.36
988.099	33619.61
988.456	26785.31
988.814	25076.27
989.171	21809.31
989.528	21538.99
989.885	22734.08
990.242	17993.46
990.599	22378.87
990.956	18314.13
991.313	12801.11
991.67	10505.93
992.027	11111.73
992.383	9876.41
992.74	8643.91
993.096	9064.56
993.453	9396.49
993.809	9758.49
994.165	12997.37
994.522	11881.76
994.878	13080.53
995.234	16408.35
995.59	16199.46
995.946	15386.86
996.302	17536.65
996.658	20319.2
997.013	22380.69
997.369	26536.81
997.725	33907.46
998.08	21997.24
998.436	34050.11
998.791	46944.94
999.147	46882.67
999.502	51104.88
999.857	37207.74
1000.212	60689.79
1000.567	86337.68
1000.922	49884.46
1001.277	31627.36
1001.632	23461.11
1001.987	30153.83
1002.342	21634.75
1002.696	17338.65
1003.051	13829.15
1003.406	16728.61
1003.76	16647.26
1004.114	16408.32
1004.469	13832.63
1004.823	11432.93
1005.177	12376.36
1005.531	9816.47
1005.885	8708.3
1006.239	9824.51
1006.593	12307.01
1006.947	16484.1
1007.301	12400.14
1007.655	13507.8
1008.008	9929.4
1008.362	11120.49
1008.715	15915.05
1009.069	14470.96
1009.422	21714.93
1009.776	43642.82
1010.129	28998.33
1010.482	24233.92
1010.835	20503.97
1011.188	42701.85
1011.541	40199.8
1011.894	-245620.81
1012.247	723434.23
1012.6	49129.02
1012.952	30935.18
1013.305	16017.18
1013.657	11529.22
1014.01	10905.28
1014.362	9007.31
1014.715	7972.12
1015.067	6921.75
1015.419	6771.46
1015.771	6001.86
1016.123	5334.06
1016.475	5491.21
1016.827	5855.78
1017.179	6273.19
1017.531	6318.64
1017.883	6449.58
1018.234	6180.86
1018.586	7806.3
1018.938	8231.23
1019.289	11340.46
1019.64	12980.22
1019.992	12103.75
1020.343	11092.7
1020.694	8741.29
1021.045	7711.32
1021.396	8839.03
1021.747	9470.01
1022.098	11416.71
1022.449	8283.22
1022.8	7718.46
1023.151	5375.36
1023.501	4761.94
1023.852	5176.44
1024.202	5350.97
1024.553	5884.39
1024.903	5738.92
1025.253	4868.98
1025.604	4381.49
1025.954	5454.23
1026.304	6688.07
1026.654	7806.35
1027.004	11466.32
1027.354	18541.44
1027.703	17421.82
1028.053	22925.59
1028.403	33416.24
1028.753	48856.15
1029.102	66685.64
1029.452	342908.49
1029.801	14774.47
1030.15	9505.51
1030.499	8049.93
897.758	2251.95
901.051	2185.59
904.343	2221.85
907.636	2229.74
910.928	2293
914.22	2210.33
917.511	2216.04
920.803	2267.91
924.094	2267.66
927.384	2269.86
930.675	2233.14
933.965	2195.42
937.255	2225.55
940.544	2190.9
943.834	2189.36
947.123	2127.76
950.411	2219.73
953.7	2198.61
956.988	2181.78
960.276	2118.72
963.563	2171.29
966.851	2181.56
970.138	2226.59
973.424	2227.66
976.711	2184.04
979.997	2234.22
983.283	2277.62
986.568	2206.22
989.853	2200.4
993.138	2228.06
996.423	2313.33
999.708	2268.19
1002.992	2301.35
1006.275	2206.34
1009.559	2214.46
1012.842	2312.99
1016.125	2264.91
1019.408	2246.94
1022.69	2307.24
1025.972	2340.35
1029.254	2314.82
1032.536	2274.72
1035.817	2287.29
1039.098	2257.82
1042.379	2317.73
1045.659	2346.58
1048.939	2293.97
1052.219	2302.61
1055.498	2299.81
1058.778	2296.62
1062.057	2272.75
1065.335	2298
1068.614	2310.33
1071.892	2305.95
1075.17	2362.07
1078.447	2367.15
1081.724	2360.72
1085.001	2387.97
1088.278	2366.6
1091.554	2370.88
1094.83	2364.67
1098.106	2402.53
1101.382	2434.95
1104.657	2436.65
1107.932	2434.65
1111.206	2409.55
1114.481	2363.9
1117.755	2364.49
1121.029	2355.26
1124.302	2418.84
1127.575	2383.76
1130.848	2379.54
1134.121	2347.08
1137.393	2308.41
1140.665	2370.18
1143.937	2350.04
1147.208	2300.14
1150.48	2356.55
1153.75	2345.63
1157.021	2353.01
1160.291	2327.19
1163.561	2382.56
1166.831	2352.46
1170.101	2382.51
1173.37	2340.14
1176.639	2292.55
1179.907	2339.63
1183.176	2365.36
1186.444	2364.67
1189.711	2392.6
1192.979	2414.6
1196.246	2368.58
1199.513	2382.73
1202.78	2387.23
1206.046	2395.91
1209.312	2424.13
1212.578	2445.4
1215.843	2409.15
1219.108	2372.28
1222.373	2399.36
1225.638	2369.82
1228.902	2362.96
1232.166	2318.21
1235.43	2303.06
1238.693	2328.05
1241.956	2320.12
1245.219	2370.92
1248.482	2350.18
1251.744	2349.2
1255.006	2477.56
1258.268	2424.51
1261.529	2376.54
1264.79	2375.42
1268.051	2480.04
1271.312	2492.64
1274.572	2463.36
1277.832	2450.19
1281.092	2429.91
1284.351	2420.58
1287.61	2405.12
1290.869	2337.68
1294.128	2333.11
1297.386	2385.38
1300.644	2378.53
1303.902	2386.91
1307.159	2251.38
1310.416	2303.48
1313.673	2332.99
1316.93	2330.56
1320.186	2363.03
1323.442	2399.53
1326.697	2397.57
1329.953	2369.09
1333.208	2404.67
1336.463	2378.37
1339.717	2336.82
1342.972	2445.37
1346.226	2415.13
1349.479	2359.41
1352.733	2337.76
1355.986	2345.7
1359.238	2323.65
1362.491	2329.99
1365.743	2331.8
1368.995	2321.69
1372.247	2333.99
1375.498	2353.95
1378.749	2393.39
1382	2345.27
1385.251	2384.09
1388.501	2336.38
1391.751	2333.75
1395	2297.04
1398.25	2322.21
1401.499	2342.94
1404.748	2291.72
1407.996	2266.13
1411.244	2254.03
1414.492	2239.97
1417.74	2222.35
1420.987	2228.31
1424.234	2288.33
1427.481	2250.97
1430.728	2310.69
1433.974	2285.81
1437.22	2285.64
1440.465	2283.36
1443.711	2282
1446.956	2307.38
1450.201	2278.55
1453.445	2323.76
1456.689	2310.26
1459.933	2323.22
1463.177	2364.25
1466.42	2336.47
1469.663	2321.8
1472.906	2336.6
1476.148	2385.25
1479.391	2363.63
1482.633	2337.34
1485.874	2363.32
1489.115	2366.62
1492.356	2354.32
1495.597	2331.9
1498.838	2328.33
1502.078	2311.67
1505.318	2278.98
1508.557	2316.11
1511.797	2315.15
1515.036	2357.86
1518.274	2331.92
1521.513	2289.2
1524.751	2302.46
1527.989	2326.12
1531.227	2345.46
1534.464	2360.15
1537.701	2355.11
1540.938	2369.85
1544.174	2317.74
1547.41	2308.04
1550.646	2345.19
1553.882	2398.05
1557.117	2455.04
1560.352	2466.39
1563.587	2428.55
1566.821	2392.86
1570.055	2409.55
1573.289	2392.66
1576.523	2454.77
1579.756	2466.95
1582.989	2489.67
1586.222	2452.04
1589.454	2481.36
1592.686	2464.24
1595.918	2492.33
1599.15	2488.28
1602.381	2539.16
1605.612	2517.23
1608.843	2613.36
1612.073	2534.03
1615.303	2523.11
1618.533	2522.43
1621.762	2518.4
1624.992	2493.91
1628.221	2496.1
1631.449	2482.35
1634.678	2512.95
1637.906	2478.48
1641.134	2509.15
1644.361	2473.49
1647.588	2459.32
1650.815	2481
1654.042	2442.57
1657.269	2473.21
1660.495	2449.57
1663.72	2435.75
1666.946	2404.58
1670.171	2375.01
1673.396	2347.91
1676.621	2327.99
1679.845	2325.92
1683.069	2336.42
1686.293	2367.84
1689.517	2357.14
1692.74	2306.01
1695.963	2328.16
1699.185	2369.18
1702.408	2339.34
1705.63	2369.47
1708.852	2387.51
1712.073	2358.69
1715.294	2368.06
1718.515	2411.29
1721.736	2368.8
1724.956	2345.85
1728.176	2367.12
1731.396	2390.88
1734.616	2375.28
1737.835	2412.13
1741.054	2384.54
1744.272	2373.02
1747.491	2414.19
1750.709	2438.24
1753.927	2381.62
1757.144	2408.11
1760.361	2468.03
1763.578	2444.05
1766.795	2390.36
1770.011	2379.36
1773.227	2407.06
1776.443	2447.03
1779.658	2493.91
1782.874	2427.49
1786.089	2421.44
1789.303	2423.11
1792.518	2420.58
1795.732	2406.93
1798.945	2423.24
1802.159	2463.66
1805.372	2402.58
1808.585	2397.2
1811.797	2396.78
1815.01	2420.43
1818.222	2444.45
1821.434	2400.8
1824.645	2443.48
1827.856	2450.63
1831.067	2483.31
1834.278	2418.21
1837.488	2403.11
1840.698	2530.54
1843.908	2466.17
1847.117	2434.1
1850.326	2353.19
1853.535	2417.7
1856.744	2450.57
1859.952	2372.45
1863.16	2373.27
1866.368	2384.35
1869.575	2499
1872.782	2377.87
1875.989	2307.09
1879.196	2361.81
1882.402	2349.24
1885.608	2383.52
1888.814	2317.73
1892.019	2222.85
1895.224	2272.61
1898.429	2239.76
1901.634	2223.07
1904.838	2194.5
1908.042	2249.74
1911.246	2261
1914.449	2216.75
1917.652	2200.67
1920.855	2179.08
1924.058	2208.04
1927.26	2251.79
1930.462	2275.46
1933.664	2310.06
1936.865	2253.47
1940.066	2270.1
1943.267	2216.5
1946.467	2226.36
1949.668	2247.41
1952.868	2317.19
1956.067	2306.25
1959.267	2246.46
1962.466	2270.05
1965.665	2252.47
1968.863	2248.52
1972.061	2249.98
1975.259	2245.72
1978.457	2318.7
1981.654	2279.47
1984.852	2282.94
1988.048	2235.54
1991.245	2226.41
1994.441	2313.94
1997.637	2274.61
2000.833	2255.95
2004.028	2292.7
2007.223	2356.91
2010.418	2342.61
2013.613	2295.64
2016.807	2288.88
2020.001	2280.27
2023.194	2305
2026.388	2288.97
2029.581	2232.41
2032.774	2295.06
2035.966	2306.1
2039.158	2250.7
2042.35	2270.11
2045.542	2193.99
2048.733	2280.51
2051.924	2273.85
2055.115	2294.64
2058.306	2256.56
2061.496	2310.75
2064.686	2363.55
2067.875	2272.22
2071.065	2274.22
2074.254	2293.63
2077.442	2246.58
2080.631	2331.98
2083.819	2257.49
2087.007	2250.28
2090.195	2233.01
2093.382	2252
2096.569	2234.97
2099.756	2194.79
2102.942	2238.94
2106.128	2254.21
2109.314	2239.88
2112.5	2223.07
2115.685	2193.4
2118.87	2200.82
2122.055	2262.48
2125.239	2239.86
2128.424	2225.65
2131.608	2290.96
2134.791	2274.59
2137.974	2315.53
2141.157	2304.87
2144.34	2276.1
2147.523	2268.09
2150.705	2292.33
2153.887	2260.23
2157.068	2231.07
2160.25	2215.51
2163.431	2238.4
2166.611	2205.61
2169.792	2226.34
2172.972	2134.51
2176.152	2188.49
2179.331	2215.79
2182.511	2217.22
2185.69	2240.4
2188.868	2242.64
2192.047	2281.47
2195.225	2293.86
2198.403	2244.62
2201.58	2229.2
2204.758	2218.43
2207.935	2294.41
2211.111	2206.56
2214.288	2197.33
2217.464	2229.94
2220.64	2185.88
2223.815	2238.12
2226.991	2166.94
2230.166	2182.47
2233.34	2222.78
2236.515	2239.39
2239.689	2300.77
2242.863	2251.55
2246.036	2303.5
2249.209	2285.04
2252.382	2307.04
2255.555	2315.01
2258.727	2263.62
2261.9	2293.68
2265.071	2284.32
2268.243	2282.7
2271.414	2229.38
2274.585	2213.78
2277.756	2274.76
2280.926	2226.95
2284.096	2258.56
2287.266	2187.79
2290.436	2233.17
2293.605	2253.75
2296.774	2290.14
2299.942	2296.6
2303.111	2311.8
2306.279	2362.27
2309.447	2345.02
2312.614	2315.16
2315.781	2342.25
2318.948	2318.93
2322.115	2354.91
2325.281	2254.88
2328.447	2262.33
2331.613	2234
2334.779	2223.82
2337.944	2220.51
2341.109	2221.77
2344.274	2209.52
2347.438	2178.97
2350.602	2202.59
2353.766	2210.57
2356.929	2198.24
2360.092	2237.05
2363.255	2206.79
2366.418	2168.71
2369.58	2240.24
2372.742	2103.47
2375.904	2101.43
2379.066	2085.99
2382.227	2110.09
2385.388	2070.77
2388.548	2018.65
2391.709	2063.94
2394.869	2049.76
2398.029	2109.94
2401.188	2107.38
2404.347	2068.01
2407.506	2155.26
2410.665	2191.42
2413.823	2179.06
2416.981	2156.32
2420.139	2174.7
2423.296	2217.77
2426.453	2189.44
2429.61	2211.19
2432.767	2177.32
2435.923	2217.53
2439.079	2166.3
2442.235	2202.98
2445.391	2142.42
2448.546	2185.08
2451.701	2221.09
2454.855	2213.35
2458.009	2245.67
2461.163	2234.1
2464.317	2205.47
2467.471	2232.22
2470.624	2261.48
2473.777	2250.63
2476.929	2264.44
2480.082	2287.17
2483.234	2260
2486.385	2201.87
2489.537	2197.15
2492.688	2183.02
2495.839	2201.72
2498.989	2215.92
2502.14	2202.68
2505.29	2194.09
2508.439	2217.23
2511.589	2157.16
2514.738	2158.28
2517.887	2182.39
2521.035	2253.86
2524.183	2216.37
2527.331	2202.79
2530.479	2193.42
2533.627	2196.57
