Data from N_2_DEC_ON_6N_Splice17_12-15-04-163.txt Node
Date: Sat Mar 14 12:15:04 EDT 2020
User: sa697716
Spectrometer: FLMS03696
Trigger mode: 0
Integration Time (sec): 3.180400E-1
Scans to average: 20
Electric dark correction enabled: true
Nonlinearity correction enabled: true
Boxcar width: 5
XAxis mode: Wavelengths
Number of Pixels in Spectrum: 2048
>>>>>Begin Spectral Data<<<<<
187.83	-280127.07
188.298	1992.84
188.766	1157.05
189.233	1010.52
189.701	1480.42
190.169	2098.59
190.636	773.45
191.104	611.69
191.571	66.35
192.039	-71.13
192.506	-44.38
192.974	391.74
193.441	-677.01
193.908	86.38
194.375	15.3
194.842	92.86
195.31	236.71
195.777	205.95
196.244	453.31
196.711	555.13
197.177	708.08
197.644	999.49
198.111	1723.36
198.578	2431.89
199.045	1942.28
199.511	3245.71
199.978	3848.77
200.445	3259.16
200.911	3603.91
201.378	4022.38
201.844	3632.01
202.31	6208.26
202.777	6489.19
203.243	3623.06
203.709	3453.33
204.176	4132.31
204.642	3390.4
205.108	3168.53
205.574	2589.33
206.04	2392.46
206.506	2241.91
206.972	2137.83
207.438	2072.09
207.903	2381.63
208.369	2083.56
208.835	2073.27
209.301	2161.88
209.766	2215.69
210.232	2185.68
210.697	2720.11
211.163	3357.16
211.628	5109.67
212.094	4286.99
212.559	5263.03
213.024	3271.85
213.49	3992.48
213.955	3901.43
214.42	3846.95
214.885	3594.29
215.35	3458.94
215.815	3293.81
216.28	3490.84
216.745	2847.35
217.21	3087.06
217.675	2855.33
218.14	3241.38
218.604	3654.4
219.069	4197.23
219.534	4418.69
219.998	5170
220.463	6302.18
220.927	7862.77
221.392	7452.93
221.856	7574.36
222.32	9608.01
222.785	11902.91
223.249	15024.38
223.713	16810.53
224.177	16836.28
224.642	21664.75
225.106	26729.68
225.57	29248.98
226.034	21729.1
226.497	33109.25
226.961	29946.54
227.425	34832.27
227.889	38659.53
228.353	38629.03
228.816	79777.42
229.28	76345.1
229.744	64434.36
230.207	39129.97
230.671	38450.15
231.134	63661.79
231.597	73281.83
232.061	73202.74
232.524	71440.83
232.987	49164.13
233.45	44209.49
233.914	39630.92
234.377	40621.95
234.84	37113.52
235.303	43731.67
235.766	48833.65
236.229	50417.31
236.691	31771.86
237.154	35671.77
237.617	26806.22
238.08	27461.38
238.542	32138.02
239.005	22992.92
239.468	22822.56
239.93	21517.96
240.393	19544.83
240.855	17150.43
241.317	17557.67
241.78	21367.86
242.242	22093.17
242.704	23842.03
243.166	20735.93
243.629	18811.92
244.091	21634.9
244.553	23665.74
245.015	25421.71
245.477	32898.88
245.939	48180.52
246.4	51087.55
246.862	49590.59
247.324	46711.51
247.786	52209.75
248.247	68446.24
248.709	70634.47
249.17	52773.31
249.632	49725.52
250.093	57568.81
250.555	49612.36
251.016	30236.08
251.477	28648.83
251.939	30859.54
252.4	32334.31
252.861	38434.43
253.322	35662.53
253.783	42398.67
254.244	54920.84
254.705	43220.9
255.166	38357.58
255.627	37721.42
256.088	53066.01
256.549	56297.85
257.009	48464.31
257.47	58790.46
257.931	47819.5
258.391	35814.97
258.852	36870.38
259.312	38604.7
259.773	47571.62
260.233	40117.3
260.694	33782.76
261.154	38263.72
261.614	30659.19
262.074	27365.9
262.534	28357.25
262.994	26671.53
263.455	35469.32
263.915	29830.6
264.374	28072.05
264.834	30626.93
265.294	33930.9
265.754	35118.42
266.214	33200
266.673	31045.22
267.133	39159.17
267.593	38811.72
268.052	47418.9
268.512	41226.96
268.971	49630.24
269.431	54347.62
269.89	48621.05
270.349	72789.1
270.809	81030.28
271.268	72807.64
271.727	163243.09
272.186	105569.5
272.645	79111.93
273.104	57100.1
273.563	82603.59
274.022	64971.15
274.481	55252.49
274.94	42529.38
275.399	31598.2
275.857	36763.13
276.316	49694.67
276.775	44210.42
277.233	43523.81
277.692	40703.33
278.15	45999.31
278.609	47266.2
279.067	43706.6
279.525	40551.72
279.984	52413.12
280.442	62988.83
280.9	62055.53
281.358	40843.76
281.816	38080.47
282.274	37289.84
282.732	38561.96
283.19	38759.56
283.648	33457.94
284.106	35654.55
284.564	36293.6
285.021	33650.89
285.479	25079.58
285.937	22852.08
286.394	20039.2
286.852	20641.79
287.309	21700.54
287.767	20959.34
288.224	19932.06
288.682	21880.3
289.139	24037.29
289.596	21989.37
290.053	22859.01
290.511	28852.14
290.968	34945.78
291.425	47433.74
291.882	39419.69
292.339	34267.8
292.796	33998.86
293.252	32012.83
293.709	25410.14
294.166	22747.89
294.623	25140.23
295.079	24116.44
295.536	24231.48
295.992	22028.59
296.449	21792.11
296.905	22682.83
297.362	21761.83
297.818	22907.07
298.274	23794.9
298.731	24294.16
299.187	24080.6
299.643	25864.29
300.099	31293.98
300.555	34313.41
301.011	28675.75
301.467	27643.97
301.923	32369.49
302.379	31630.17
302.835	31071.45
303.291	31081.38
303.746	35342.79
304.202	44614.89
304.658	44843.22
305.113	30166.46
305.569	29613.84
306.024	31620.49
306.479	30159.78
306.935	25398.38
307.39	27771.17
307.845	25686.16
308.301	25901.16
308.756	25292.25
309.211	24422.04
309.666	25036.65
310.121	31127.11
310.576	31633.87
311.031	31441.48
311.486	36034.4
311.94	36066.92
312.395	48323.97
312.85	90896.95
313.305	446954.87
313.759	2314780.14
314.214	167478.08
314.668	132820.86
315.123	111785.79
315.577	40129.31
316.032	35683.1
316.486	44686.51
316.94	35256.62
317.394	24516.17
317.849	19046.51
318.303	18027.53
318.757	17002.22
319.211	18811.03
319.665	16473.47
320.119	16660.6
320.572	23871.12
321.026	22282.6
321.48	18561.4
321.934	20256.44
322.387	20338.18
322.841	21978.12
323.295	19772.12
323.748	22802.41
324.202	23154.72
324.655	27826.72
325.108	38848.92
325.562	27459.25
326.015	32666.43
326.468	24692.02
326.921	27637.6
327.374	25728.37
327.827	26810.56
328.28	30333.58
328.733	20309.36
329.186	17872.13
329.639	17038.9
330.092	14398.36
330.545	13698.02
330.997	13799.25
331.45	15076.28
331.903	17636.66
332.355	30391.82
332.808	29521.12
333.26	24362.53
333.713	26428.71
334.165	26612.15
334.617	35503.41
335.069	28625.07
335.522	51776.67
335.974	57397.83
336.426	52505.41
336.878	36402.26
337.33	18434.98
337.782	18002.86
338.234	22541.04
338.686	27006.97
339.137	32002.8
339.589	30147.3
340.041	23648.98
340.493	20333.83
340.944	20819.73
341.396	22395.72
341.847	18856.91
342.299	22243.2
342.75	27101.27
343.201	23692.17
343.653	27237.22
344.104	33458.24
344.555	26322
345.006	40972.83
345.457	31342.4
345.908	24894.79
346.359	23393.34
346.81	19027.42
347.261	20071.51
347.712	19781.48
348.163	21228.25
348.613	21473.5
349.064	20055.68
349.515	17533.03
349.965	17980.79
350.416	21646.07
350.866	23754.75
351.317	26912.23
351.767	44584.82
352.217	56307.49
352.668	46719.88
353.118	42734.43
353.568	41186.74
354.018	32556.86
354.468	34363.02
354.918	24654
355.368	21606.43
355.818	30536.96
356.268	87787.99
356.718	366862.34
357.168	91273.29
357.617	45787.45
358.067	50978.61
358.517	47878.59
358.966	56169.22
359.416	62990.78
359.865	68121.81
360.315	80960.29
360.764	37749.3
361.213	21138.04
361.663	20046.8
362.112	24765
362.561	40068.24
363.01	30202.1
363.459	25427.1
363.908	27465.94
364.357	23303.57
364.806	39341.68
365.255	27047.24
365.703	24786.24
366.152	24816.35
366.601	20098.27
367.05	16283.68
367.498	14770.21
367.947	15431.56
368.395	16022.42
368.844	14198.66
369.292	17126.71
369.74	11823.73
370.189	18131.87
370.637	21254.53
371.085	18337.1
371.533	22343.86
371.981	21574.28
372.429	20559.82
372.877	21397.53
373.325	17885.79
373.773	18217.15
374.221	16215.62
374.669	20112.65
375.116	17395.89
375.564	17528.32
376.012	19604.37
376.459	16170.44
376.907	19306.08
377.354	23328.56
377.801	21728.01
378.249	24997.21
378.696	31967.95
379.143	38643.31
379.591	41214.56
380.038	69571.2
380.485	50290.12
380.932	54323.85
381.379	49638.47
381.826	36511.85
382.273	25967.81
382.72	22755.33
383.166	22179.38
383.613	14355.3
384.06	12962.24
384.506	14984.63
384.953	11012.52
385.4	11074.13
385.846	9689.09
386.292	9442.15
386.739	9246.5
387.185	9130.45
387.631	9122.62
388.078	8852.79
388.524	9471.45
388.97	8739.33
389.416	7275.56
389.862	7728.56
390.308	7315.58
390.754	7418.12
391.2	8050.65
391.645	8236.68
392.091	7884.06
392.537	7617.14
392.983	7619.45
393.428	7508.72
393.874	8047.35
394.319	8081.21
394.765	7667.89
395.21	7897.97
395.655	7419.88
396.101	6944.82
396.546	6260.56
396.991	6316.7
397.436	5862.36
397.881	5658.27
398.326	5350.4
398.771	5056.89
399.216	4424.97
399.661	3981.84
400.106	3957.89
400.551	4046.27
400.995	3630.59
401.44	3588.89
401.885	3367.17
402.329	3396.78
402.774	3256.92
403.218	3145.75
403.663	3032
404.107	3110.69
404.551	3131.28
404.995	2875.08
405.44	2768.51
405.884	2809.11
406.328	2717.84
406.772	2710.2
407.216	2473.21
407.66	2391.33
408.104	2274.53
408.547	2130.86
408.991	2062
409.435	1981.1
409.879	1950.47
410.322	1923.89
410.766	1856.52
411.209	1767.58
411.653	1697.32
412.096	1658.82
412.54	1659.09
412.983	1647.84
413.426	1650.92
413.869	1650.87
414.312	1622.26
414.756	1563.75
415.199	1493.5
415.642	1449.49
416.085	1450.81
416.527	1440.91
416.97	1465.76
417.413	1390.33
417.856	1374.87
418.298	1358.46
418.741	1349.37
419.184	1344.21
419.626	1399.91
420.069	1400.09
420.511	1406.38
420.953	1373.24
421.396	1359.32
421.838	1324.34
422.28	1354.39
422.722	1360.86
423.164	1380.08
423.606	1354.32
424.048	1354.78
424.49	1290.06
424.932	1279.84
425.374	1263.7
425.816	1285.35
426.258	1309.54
426.699	1321.21
427.141	1300.1
427.582	1321.14
428.024	1317.7
428.465	1311.89
428.907	1278.5
429.348	1260.7
429.789	1261.77
430.231	1234.64
430.672	1254.49
431.113	1226.33
431.554	1211.25
431.995	1182.67
432.436	1141.95
432.877	1116.29
433.318	1098.23
433.759	1095.72
434.2	1094.67
434.64	1086.59
435.081	1089.72
435.522	1033.81
435.962	997.57
436.403	978.07
436.843	993.07
437.284	972.84
437.724	947.41
438.164	950.73
438.604	928.39
439.045	895.65
439.485	857.56
439.925	841.41
440.365	819.52
440.805	808.09
441.245	797.64
441.685	768.98
442.125	764.5
442.564	768.85
443.004	750.9
443.444	752.05
443.883	754.48
444.323	750.38
444.762	753.06
445.202	763.99
445.641	778.44
446.081	776.47
446.52	784.85
446.959	777.25
447.398	760.83
447.837	753.67
448.276	739.07
448.716	747.27
449.154	754.43
449.593	738.03
450.032	738.03
450.471	725.33
450.91	725.58
451.349	722.74
451.787	720.24
452.226	733.53
452.664	734.06
453.103	735.88
453.541	734.73
453.98	733.25
454.418	739.06
454.856	727.9
455.295	727.1
455.733	732.3
456.171	736.84
456.609	738.6
457.047	736.7
457.485	747.23
457.923	749.36
458.361	739.18
458.798	743.32
459.236	741.34
459.674	745.29
460.111	749.46
460.549	742.79
460.987	740.4
461.424	738.05
461.862	734.34
462.299	722.87
462.736	722.68
463.173	725.44
463.611	717.1
464.048	714.67
464.485	721.34
464.922	714.24
465.359	711.05
465.796	702.58
466.233	696.17
466.67	690.83
467.106	689.8
467.543	682.99
467.98	675.01
468.416	658.48
468.853	653.1
469.29	633.64
469.726	626.98
470.162	610.3
470.599	602.34
471.035	597.49
471.471	583.5
471.907	580.28
472.344	576.44
472.78	576.86
473.216	583.93
473.652	578.04
474.088	576.98
474.523	575.49
474.959	580.23
475.395	574.17
475.831	570.73
476.266	573.43
476.702	571.47
477.138	564.96
477.573	563.21
478.008	560.69
478.444	561.95
478.879	566.25
479.314	568.17
479.75	568.39
480.185	571.15
480.62	575.69
481.055	577.15
481.49	580.71
481.925	588.78
482.36	598.46
482.795	615.02
483.229	632.43
483.664	645.43
484.099	647.92
484.534	657.59
484.968	664.39
485.403	667.26
485.837	667.64
486.271	667.83
486.706	669.8
487.14	662.68
487.574	651.63
488.009	645.56
488.443	640.21
488.877	646.87
489.311	649.68
489.745	657.51
490.179	663.61
490.613	675.58
491.046	680.79
491.48	685.39
491.914	686.84
492.348	693.05
492.781	698.25
493.215	700.63
493.648	703.08
494.082	709.33
494.515	710.12
494.948	718.4
495.382	723.47
495.815	728.91
496.248	735.98
496.681	750.49
497.114	762.53
497.547	774.37
497.98	789.32
498.413	796.47
498.846	808
499.279	819.35
499.711	825.77
500.144	831.48
500.577	845.75
501.009	858.99
501.442	871.74
501.874	876.59
502.306	880.4
502.739	891.34
503.171	910.73
503.603	916.71
504.036	930.14
504.468	939.79
504.9	955.46
505.332	965.38
505.764	973.11
506.196	984.38
506.627	1004.08
507.059	1022.43
507.491	1035.78
507.923	1037.61
508.354	1058.77
508.786	1074.43
509.217	1098.8
509.649	1119.49
510.08	1145.48
510.512	1169.18
510.943	1190.52
511.374	1207.32
511.805	1235.15
512.237	1262.56
512.668	1303.93
513.099	1339.5
513.53	1374.73
513.961	1402.67
514.391	1443.16
514.822	1485.23
515.253	1530.8
515.684	1564.33
516.114	1602.68
516.545	1631.87
516.975	1666.51
517.406	1690.89
517.836	1697.01
518.267	1709.31
518.697	1734.5
519.127	1743.84
519.558	1756.78
519.988	1765.24
520.418	1782.87
520.848	1808.59
521.278	1823.65
521.708	1838.77
522.138	1858.02
522.567	1900.86
522.997	1935.19
523.427	1957.72
523.857	1982.14
524.286	1997.47
524.716	2019.39
525.145	2044.38
525.575	2060.72
526.004	2080.48
526.433	2084.91
526.863	2088.38
527.292	2075.97
527.721	2084.59
528.15	2093.31
528.579	2094.74
529.008	2110.99
529.437	2140.13
529.866	2158.86
530.295	2181.36
530.724	2197.98
531.152	2233.16
531.581	2252.38
532.01	2277.33
532.438	2290.42
532.867	2310.31
533.295	2336.73
533.723	2345.6
534.152	2344.56
534.58	2346.26
535.008	2327.42
535.436	2331.2
535.865	2342.05
536.293	2360.16
536.721	2381.8
537.149	2414.66
537.576	2420.56
538.004	2436.94
538.432	2448.28
538.86	2447.9
539.287	2457.87
539.715	2476.89
540.143	2481.46
540.57	2477.19
540.998	2473.55
541.425	2444.41
541.852	2418.43
542.28	2416.65
542.707	2394.96
543.134	2376.46
543.561	2371.17
543.988	2361.03
544.415	2359.38
544.842	2350.9
545.269	2341.31
545.696	2343.5
546.123	2359.19
546.549	2343.9
546.976	2325.3
547.403	2326.15
547.829	2328.96
548.256	2330.81
548.682	2326.3
549.108	2316.44
549.535	2317.49
549.961	2320.18
550.387	2303.06
550.813	2295.23
551.24	2303.89
551.666	2304.88
552.092	2290.87
552.518	2281.41
552.943	2273.06
553.369	2281.19
553.795	2288.28
554.221	2288.28
554.646	2283.61
555.072	2297.59
555.498	2304.27
555.923	2314.83
556.349	2333.5
556.774	2346.15
557.199	2346.93
557.625	2354.21
558.05	2346.23
558.475	2358.75
558.9	2356.3
559.325	2344.33
559.75	2334.35
560.175	2324.64
560.6	2315.77
561.025	2312.59
561.449	2310.64
561.874	2317.46
562.299	2321.34
562.723	2329.91
563.148	2316.5
563.572	2321.06
563.997	2333.79
564.421	2341.02
564.846	2340.71
565.27	2345.26
565.694	2341.48
566.118	2356.66
566.542	2364.61
566.966	2356.77
567.39	2348.97
567.814	2333.26
568.238	2331.41
568.662	2337.56
569.086	2339.06
569.509	2347.39
569.933	2325.82
570.357	2315.08
570.78	2287.15
571.204	2269.12
571.627	2253.71
572.05	2250.37
572.474	2249.06
572.897	2231.84
573.32	2219.55
573.743	2206.7
574.166	2182
574.589	2179.71
575.012	2168.98
575.435	2166.33
575.858	2153.27
576.281	2137.92
576.704	2116.77
577.126	2099.96
577.549	2085.84
577.972	2071.61
578.394	2056.46
578.817	2046.35
579.239	2022.28
579.661	2004.08
580.084	1980.69
580.506	1962.69
580.928	1956.76
581.35	1941.97
581.772	1935.26
582.194	1916.24
582.616	1899.46
583.038	1880.2
583.46	1866.54
583.882	1862.08
584.303	1866.73
584.725	1861.98
585.147	1863.19
585.568	1875.42
585.99	1889.51
586.411	1897.05
586.833	1915.55
587.254	1917.53
587.675	1935.5
588.096	1951.14
588.518	1944.36
588.939	1922.9
589.36	1919.51
589.781	1907.26
590.202	1869.95
590.623	1857.96
591.043	1854.16
591.464	1836.69
591.885	1831.68
592.305	1822.4
592.726	1804.55
593.147	1805.79
593.567	1797.62
593.987	1788.55
594.408	1782.09
594.828	1780.66
595.248	1772.14
595.669	1749.67
596.089	1741.72
596.509	1733.16
596.929	1716.72
597.349	1716.37
597.769	1703.53
598.189	1695.89
598.608	1696.86
599.028	1698.29
599.448	1698.5
599.867	1683.24
600.287	1677.3
600.706	1671.67
601.126	1658.67
601.545	1657.3
601.965	1655.37
602.384	1647.78
602.803	1651.58
603.222	1644.61
603.641	1636.66
604.061	1631.49
604.48	1627.36
604.898	1636.37
605.317	1640.84
605.736	1643.2
606.155	1637.95
606.574	1625.28
606.992	1631.05
607.411	1623.62
607.829	1613.25
608.248	1607.9
608.666	1603.73
609.085	1600.69
609.503	1590.17
609.921	1582.63
610.339	1584.24
610.758	1582.91
611.176	1577
611.594	1564.93
612.012	1559.07
612.43	1561.88
612.847	1568.21
613.265	1567.66
613.683	1571.7
614.101	1571.28
614.518	1565.51
614.936	1552.2
615.353	1533.34
615.771	1528.25
616.188	1526.96
616.606	1522.51
617.023	1512.63
617.44	1494.21
617.857	1486.25
618.274	1475.45
618.691	1467.99
619.108	1456.2
619.525	1448.98
619.942	1455.75
620.359	1458.27
620.776	1451.93
621.192	1446.28
621.609	1442.93
622.026	1449.34
622.442	1455.69
622.859	1459.23
623.275	1449.62
623.691	1455.12
624.108	1466.49
624.524	1482.85
624.94	1482.41
625.356	1494.9
625.772	1509.45
626.188	1524.07
626.604	1526.72
627.02	1520.78
627.436	1517.72
627.852	1524.97
628.268	1539.24
628.683	1529.51
629.099	1520.24
629.514	1513.94
629.93	1517.56
630.345	1522.96
630.761	1517.77
631.176	1521.18
631.591	1513.35
632.007	1505.77
632.422	1502.93
632.837	1488.63
633.252	1484.79
633.667	1471.1
634.082	1460.54
634.497	1443.51
634.911	1419.7
635.326	1413.74
635.741	1393.68
636.155	1380.99
636.57	1380.37
636.984	1378.84
637.399	1378.35
637.813	1375.54
638.228	1373.07
638.642	1376.3
639.056	1364.29
639.47	1363.16
639.884	1351.11
640.298	1341.17
640.712	1337.21
641.126	1321.71
641.54	1308.98
641.954	1302
642.368	1287.03
642.781	1276.04
643.195	1254.19
643.609	1252.11
644.022	1242.74
644.436	1237.27
644.849	1221.75
645.262	1207.87
645.676	1207.36
646.089	1200.89
646.502	1180.91
646.915	1173.25
647.328	1152.36
647.741	1147.94
648.154	1130.84
648.567	1126.44
648.98	1109.94
649.393	1109.76
649.805	1102.84
650.218	1093.44
650.631	1075.58
651.043	1068.97
651.456	1061.83
651.868	1060.63
652.28	1077.65
652.693	1091.33
653.105	1096.21
653.517	1105.09
653.929	1104.39
654.341	1109.1
654.753	1093.74
655.165	1097.45
655.577	1092.11
655.989	1084.12
656.401	1074.72
656.813	1033.74
657.224	1011.25
657.636	979.59
658.047	958.47
658.459	935.09
658.87	923.75
659.282	909.77
659.693	887.43
660.104	871.39
660.515	856.4
660.926	852.03
661.338	847.75
661.749	838.8
662.159	827.15
662.57	821.87
662.981	816.23
663.392	807.2
663.803	811.43
664.213	807.65
664.624	801.67
665.035	802.48
665.445	788.43
665.855	780.87
666.266	772.32
666.676	769.48
667.086	758.87
667.497	756.63
667.907	750.77
668.317	740.96
668.727	737.23
669.137	737.61
669.547	735.13
669.956	736.58
670.366	737.57
670.776	739.18
671.186	742.73
671.595	747.18
672.005	749.83
672.414	749.27
672.824	746.54
673.233	750.11
673.642	751.88
674.052	754.95
674.461	757.96
674.87	762.98
675.279	760.74
675.688	761.68
676.097	762.56
676.506	760.87
676.915	774.9
677.323	779.3
677.732	778.98
678.141	779.69
678.549	769.59
678.958	768.56
679.366	768.87
679.775	774.2
680.183	786.31
680.592	793.06
681	799.36
681.408	794.3
681.816	802.68
682.224	812.57
682.632	823.8
683.04	855.07
683.448	882.11
683.856	913.73
684.264	952.44
684.671	986.69
685.079	1030.56
685.487	1078.58
685.894	1145.51
686.302	1201.46
686.709	1247.82
687.116	1302.08
687.524	1350.61
687.931	1391.85
688.338	1429.03
688.745	1460.66
689.152	1498.44
689.559	1548.91
689.966	1600.52
690.373	1625.18
690.78	1673.49
691.187	1748.11
691.593	1805.87
692	1855.88
692.407	1931.58
692.813	2022.07
693.22	2095.35
693.626	2172.45
694.032	2232.57
694.439	2322.94
694.845	2399.1
695.251	2492.08
695.657	2574.08
696.063	2696.98
696.469	2791.7
696.875	2878.57
697.281	2930.61
697.687	2993.3
698.093	3047.9
698.498	3148.1
698.904	3225.35
699.31	3338.84
699.715	3420
700.12	3538.69
700.526	3569.57
700.931	3661.13
701.337	3728.4
701.742	3777.59
702.147	3888.9
702.552	3932.36
702.957	4012.22
703.362	4046.59
703.767	4089.07
704.172	4147.28
704.577	4098.12
704.981	4163.89
705.386	4190.34
705.791	4191.78
706.195	4292
706.6	4309.98
707.004	4416.31
707.408	4384.65
707.813	4423.11
708.217	4413.66
708.621	4423.38
709.025	4549.41
709.43	4553.81
709.834	4635.62
710.237	4727.17
710.641	4713.3
711.045	4745.56
711.449	4744.59
711.853	4783.88
712.256	4841.75
712.66	4893.09
713.064	4990.26
713.467	5046.53
713.87	5194.43
714.274	5258.23
714.677	5400.79
715.08	5607.27
715.484	5826.07
715.887	6085.37
716.29	6344.49
716.693	6612.86
717.096	6926.56
717.499	7098.65
717.901	7134.59
718.304	7172.42
718.707	7204.92
719.109	7077.25
719.512	7039.34
719.915	6867.22
720.317	6798.02
720.719	6857.7
721.122	6823.42
721.524	6760.64
721.926	6707.7
722.328	6842.11
722.731	6832.01
723.133	6869.27
723.535	7117.28
723.937	7147.01
724.338	7217.12
724.74	7271.69
725.142	7165.46
725.544	7163.76
725.945	7193.36
726.347	7193.27
726.748	7184.58
727.15	7204.39
727.551	7153.47
727.952	7123.35
728.354	7090.51
728.755	7089.45
729.156	7036.86
729.557	7048.68
729.958	6893.96
730.359	6827.77
730.76	6805.25
731.161	6730.51
731.562	6699.14
731.962	6707.73
732.363	6626.44
732.763	6546.72
733.164	6598.28
733.564	6513.2
733.965	6388.84
734.365	6344.49
734.766	6381.97
735.166	6335.42
735.566	6263.81
735.966	6231.51
736.366	6225.42
736.766	6144.76
737.166	6184.06
737.566	6127.44
737.966	6097.06
738.365	6148.59
738.765	6142.98
739.165	6048.52
739.564	6014.32
739.964	6072.48
740.363	6011.99
740.763	6010.85
741.162	5996.66
741.561	5957.29
741.96	5902.59
742.36	5928.76
742.759	5937.3
743.158	5987.55
743.557	6006.79
743.955	6058.52
744.354	5999.51
744.753	6073.16
745.152	6018
745.55	6089.5
745.949	6080.38
746.348	6080.48
746.746	6100.68
747.144	6045.74
747.543	6017.32
747.941	6080.59
748.339	5990.97
748.737	5980.99
749.136	5972.74
749.534	6058.77
749.932	6019.54
750.33	6048.42
750.727	6117.97
751.125	6087.74
751.523	6068.34
751.921	6120.58
752.318	6074.21
752.716	6146.06
753.113	6163.8
753.511	6191.69
753.908	6189.69
754.305	6168.69
754.703	6247.22
755.1	6325.82
755.497	6398.16
755.894	6641.6
756.291	6871.73
756.688	7293.07
757.085	7857.27
757.482	8644.32
757.878	9508.91
758.275	10289.3
758.672	11366.7
759.068	12247.05
759.465	13498.3
759.861	15116.85
760.258	16990.62
760.654	17963.34
761.05	17825.17
761.447	17008.19
761.843	15835.14
762.239	14623.48
762.635	14077.26
763.031	13553.52
763.427	12797.88
763.822	12003.32
764.218	11214.49
764.614	10190.87
765.01	9503.38
765.405	9061.34
765.801	8724.29
766.196	8302.9
766.592	8063.55
766.987	7658.09
767.382	7383.27
767.778	7265.65
768.173	7097.56
768.568	7006.57
768.963	6846.66
769.358	6871.74
769.753	6810.4
770.148	6705.34
770.542	6701.08
770.937	6661.92
771.332	6780.56
771.726	6805.99
772.121	6725.31
772.515	6795.29
772.91	6777.48
773.304	6871.45
773.699	6787.65
774.093	6858.06
774.487	6929.1
774.881	6984.96
775.275	6979.57
775.669	6927.02
776.063	6983.51
776.457	7027.44
776.851	6934.05
777.245	6922.64
777.638	6962.34
778.032	7110.9
778.425	7063
778.819	7115.16
779.212	7059.47
779.606	7006.66
779.999	7030.78
780.392	7009.14
780.786	7117.59
781.179	7138.91
781.572	7191.58
781.965	7206.05
782.358	7130.93
782.751	7205.86
783.143	7145.07
783.536	7239.57
783.929	7292.41
784.322	7436.62
784.714	7473.61
785.107	7467.25
785.499	7558.09
785.891	7528.16
786.284	7503.62
786.676	7686.15
787.068	7656.72
787.46	7718.26
787.852	7741.78
788.245	7853.72
788.636	7894.55
789.028	7980.76
789.42	8031.5
789.812	8046.75
790.204	8173.61
790.595	8303.07
790.987	8049.84
791.378	8079.14
791.77	8249.08
792.161	8426.15
792.553	8494.12
792.944	8349.71
793.335	8266.36
793.726	8358.48
794.117	8473.95
794.508	8648.94
794.899	8605.98
795.29	8786.57
795.681	8861.7
796.072	8676.59
796.463	8427.88
796.853	8439.3
797.244	8641.24
797.634	8681.91
798.025	8680.03
798.415	8694.23
798.806	8805.92
799.196	8917.86
799.586	8979.21
799.976	8929.91
800.366	9223.89
800.756	9541.36
801.146	9493.19
801.536	9526.33
801.926	9622.86
802.316	9655.1
802.706	9743.58
803.095	9587.3
803.485	9718.63
803.874	9769.36
804.264	10099.47
804.653	10069.96
805.043	10251.58
805.432	10392.86
805.821	10405.31
806.21	10432.68
806.599	10586.12
806.988	10646.48
807.377	10785.12
807.766	10948.04
808.155	11312.9
808.544	10977.81
808.933	10997.09
809.321	10971.3
809.71	11347.08
810.098	11538.72
810.487	12125.46
810.875	12733.77
811.264	12757.62
811.652	13116.29
812.04	13303.41
812.428	13513.13
812.816	14485.96
813.204	15012.58
813.592	15714.62
813.98	16140.31
814.368	16018.19
814.756	16624.62
815.144	16525.06
815.531	17117.44
815.919	17033.21
816.306	17417.79
816.694	17018.56
817.081	17081.18
817.469	17516.03
817.856	17510.05
818.243	17854.61
818.63	18354.02
819.017	17814.49
819.404	17889.72
819.791	18380.49
820.178	19163.7
820.565	19474.97
820.952	20654.98
821.339	20017.21
821.725	20254.5
822.112	19314.72
822.498	19263.63
822.885	19428.8
823.271	19303.83
823.657	19838.31
824.044	19838.39
824.43	19921.7
824.816	19881.14
825.202	19334.25
825.588	20634.94
825.974	20667.46
826.36	21318.14
826.746	21360.81
827.132	21809.61
827.517	21788.07
827.903	20788.23
828.289	20837.7
828.674	19861.76
829.06	19724.96
829.445	20220.46
829.83	20679.53
830.216	21268.25
830.601	21734.76
830.986	21212.52
831.371	21044.86
831.756	21741.14
832.141	21194.23
832.526	21201.65
832.911	21551.55
833.295	21414.92
833.68	22018.64
834.065	21230.16
834.449	20083.64
834.834	19998.83
835.218	19998.81
835.603	20431.06
835.987	20175.06
836.371	21243.02
836.755	21098.57
837.139	21614.16
837.524	21936.55
837.908	21718.89
838.291	21796.07
838.675	21876.87
839.059	22132.21
839.443	22120.71
839.827	21838.19
840.21	22453.97
840.594	22261.19
840.977	22533.53
841.361	22506.59
841.744	22975.47
842.127	22770.86
842.511	23093.22
842.894	23854.2
843.277	24344.98
843.66	25027.87
844.043	25133.03
844.426	24105.7
844.809	23712.06
845.191	23754.4
845.574	23171
845.957	22707.95
846.339	22569.15
846.722	21898.87
847.104	21987.9
847.487	21770.72
847.869	21798.59
848.252	22145.34
848.634	22558.32
849.016	22897.66
849.398	23052.77
849.78	24137.02
850.162	24144.55
850.544	24674.43
850.926	25476.01
851.307	25367.18
851.689	25721.19
852.071	26304.68
852.452	26724.64
852.834	26702.74
853.215	27203.36
853.597	27395.93
853.978	27759.06
854.359	28332.68
854.741	27070.8
855.122	26932.86
855.503	26562.6
855.884	26734.29
856.265	26640.28
856.646	26779.14
857.026	26280.05
857.407	26192.91
857.788	26389.93
858.169	26764.4
858.549	25676.43
858.93	26465.69
859.31	26528
859.69	26787.73
860.071	26262.09
860.451	25982.19
860.831	25037.77
861.211	26512.4
861.591	27205.48
861.971	27175.38
862.351	27415.48
862.731	27909.98
863.111	28244.74
863.491	28653.89
863.87	29763.36
864.25	30219.92
864.629	29708.49
865.009	30363.72
865.388	31429.6
865.768	33687.77
866.147	33554.27
866.526	31688.22
866.905	32078.99
867.284	33880.14
867.663	32189.82
868.042	30852.85
868.421	30743.03
868.8	31259.08
869.179	31576.19
869.558	29741.75
869.936	27410.93
870.315	27901.74
870.693	28579.55
871.072	30812.67
871.45	29348.77
871.828	29729.23
872.207	31259.9
872.585	30791.9
872.963	31631.42
873.341	30529.55
873.719	30168.48
874.097	29810.15
874.475	30384.02
874.853	31104.62
875.23	29813.24
875.608	31075.56
875.986	33603.38
876.363	32136.18
876.741	33118.16
877.118	32302.18
877.495	33908.34
877.873	34471.87
878.25	36289.75
878.627	34809.84
879.004	35282.17
879.381	35117.38
879.758	34181.86
880.135	31824.95
880.512	33658.83
880.889	32773.32
881.265	32427
881.642	32157.92
882.019	32732.7
882.395	32055.21
882.772	33320.03
883.148	31882.41
883.524	31773.86
883.901	31605.34
884.277	32087.5
884.653	31887.63
885.029	32806.65
885.405	36345.91
885.781	36068.19
886.157	34584.2
886.532	35021.34
886.908	35013.66
887.284	38943
887.659	40194.85
888.035	41449.79
888.411	42518.02
888.786	43080.32
889.161	44585.16
889.537	43763.46
889.912	45174.16
890.287	45113.94
890.662	46265.22
891.037	45443.39
891.412	42365.9
891.787	41948.28
892.162	40473.42
892.536	41417.35
892.911	39851.04
893.286	38998.73
893.66	37416.81
894.035	38345.58
894.409	41769.21
894.784	40096.12
895.158	40747.74
895.532	43156.24
895.906	44328.37
896.281	45363.89
896.655	44628.06
897.029	51009.59
897.402	53117.67
897.776	59147.38
898.15	58970.82
898.524	58322.69
898.898	59091.15
899.271	66138.32
899.645	57309.48
900.018	55060.12
900.392	57110.11
900.765	57605.99
901.138	53319.67
901.511	52530.02
901.884	48213.06
902.258	44481.32
902.631	45951.07
903.003	52885.7
903.376	47741.29
903.749	53492.72
904.122	57251.99
904.495	63060.87
904.867	63853.6
905.24	55451
905.612	51614.91
905.985	52782.72
906.357	55183.12
906.729	52682.84
907.102	45002.89
907.474	43264.91
907.846	43579.59
908.218	43005.42
908.59	37987.74
908.962	36746.69
909.334	39562.8
909.705	41564.85
910.077	40374.79
910.449	42033.21
910.82	43232.15
911.192	47566.38
911.563	49422.09
911.935	52871.76
912.306	52957.7
912.677	54702.88
913.048	54125.4
913.419	58718.11
913.79	59037.31
914.161	63310.93
914.532	60485.91
914.903	55550.83
915.274	52760.7
915.645	51986.96
916.015	45777.58
916.386	43651.19
916.756	46456.93
917.127	47939.31
917.497	42825.15
917.868	46610.44
918.238	44274.21
918.608	45579.03
918.978	46522.34
919.348	49271.01
919.718	50957.4
920.088	49076.6
920.458	50972.76
920.828	53635.12
921.198	50835.85
921.567	54310.89
921.937	42068.16
922.306	42494.03
922.676	45788.98
923.045	38203.62
923.415	36291.4
923.784	33022.03
924.153	33937.95
924.522	33908.98
924.891	31875
925.26	34153.43
925.629	33338.87
925.998	38341.25
926.367	37425.85
926.736	35651.21
927.104	42475.97
927.473	45687.04
927.842	55191.82
928.21	54678.19
928.578	57492.18
928.947	54382.67
929.315	54714.85
929.683	64205.94
930.051	64692.56
930.42	75128.73
930.788	64242.02
931.156	63711.15
931.523	59718.72
931.891	55180.69
932.259	53004.01
932.627	61413.29
932.994	86892.82
933.362	71797.65
933.729	62341.51
934.097	59703.27
934.464	50507.1
934.831	58307.64
935.199	57537.8
935.566	55822.15
935.933	56581.11
936.3	68541.78
936.667	53411.54
937.034	48141.15
937.401	47628.13
937.767	41117.12
938.134	36596.84
938.501	51606.34
938.867	54947.97
939.234	92910.26
939.6	79281.62
939.967	87437.28
940.333	58549.98
940.699	49788.31
941.065	39994.12
941.431	52452.13
941.798	50566.85
942.163	66422.95
942.529	41539.52
942.895	38243.06
943.261	24724.26
943.627	32416.77
943.992	28381.74
944.358	28423.77
944.723	28520.99
945.089	27808.9
945.454	25677.65
945.82	27418.19
946.185	26333.63
946.55	30489.93
946.915	27377.44
947.28	32137.6
947.645	28305.09
948.01	26112.19
948.375	27212.25
948.74	32633.03
949.104	38057.01
949.469	55048.26
949.834	97271.71
950.198	92300.35
950.562	55340.07
950.927	46092.99
951.291	55398.4
951.655	47211.51
952.02	44329.13
952.384	33538.95
952.748	29212.06
953.112	28473.64
953.476	24745.5
953.839	22891.97
954.203	22638.71
954.567	28303.75
954.931	44559.15
955.294	38129.19
955.658	38319.48
956.021	65181.04
956.385	110583.05
956.748	163101.97
957.111	253220.95
957.474	284271.32
957.837	319985.68
958.2	242401.23
958.563	87257.14
958.926	59002.85
959.289	89594.68
959.652	100050.08
960.015	75061.32
960.377	107751.05
960.74	123126.3
961.102	212654.65
961.465	228428.35
961.827	122255.74
962.189	234568.96
962.552	162495.65
962.914	130341.02
963.276	84532.77
963.638	69940.67
964	69322.81
964.362	46810.05
964.724	45219.63
965.085	32254.8
965.447	26456.95
965.809	30203.7
966.17	30264.06
966.532	32764.99
966.893	30077.69
967.255	27409.39
967.616	32352.84
967.977	25893.87
968.338	28293.83
968.699	23235.1
969.061	23228.58
969.421	23369.05
969.782	26222.77
970.143	22146.98
970.504	22924.45
970.865	26034.84
971.225	26591.05
971.586	26021.35
971.946	37117.73
972.307	32246.3
972.667	42233.88
973.027	43452.99
973.388	52736.39
973.748	35836.25
974.108	38989.64
974.468	52825.22
974.828	40729.17
975.188	31387.83
975.548	28845.79
975.907	24206.1
976.267	27154.3
976.627	22783.1
976.986	23631.5
977.346	22517.68
977.705	21676.48
978.064	19738.31
978.424	16420.61
978.783	17009.7
979.142	19405.32
979.501	18541.12
979.86	19604.58
980.219	18883.55
980.578	24360.22
980.937	27301.27
981.296	24363.09
981.654	25053.82
982.013	39107.42
982.371	50801.61
982.73	47413.61
983.088	53607.83
983.447	57343.92
983.805	82035.38
984.163	171461.23
984.521	190440.92
984.879	279349.78
985.237	-453856.91
985.595	438267.93
985.953	108762.99
986.311	62771.05
986.669	36443.15
987.026	31588.94
987.384	42518.52
987.741	43934.79
988.099	31411.51
988.456	25038.32
988.814	23443.73
989.171	20368.3
989.528	20094.86
989.885	21244.21
990.242	16814.03
990.599	20973.35
990.956	17121.96
991.313	11964.49
991.67	9835.42
992.027	10402.32
992.383	9247.23
992.74	8099.54
993.096	8498.91
993.453	8819.23
993.809	9149.8
994.165	12210.27
994.522	11151.23
994.878	12281.16
995.234	15425.22
995.59	15199.14
995.946	14414.27
996.302	16436.94
996.658	19033.99
997.013	20989.02
997.369	24877.08
997.725	31797.51
998.08	20600.07
998.436	31850.36
998.791	43916.98
999.147	43761.74
999.502	47716.92
999.857	34810.61
1000.212	56837.69
1000.567	80929.95
1000.922	46644.77
1001.277	29658.35
1001.632	22029.47
1001.987	28318.41
1002.342	20324.82
1002.696	16280.68
1003.051	13010.59
1003.406	15752.24
1003.76	15628.75
1004.114	15392.05
1004.469	12931.62
1004.823	10724.84
1005.177	11571.54
1005.531	9161.7
1005.885	8118.05
1006.239	9146.86
1006.593	11448.78
1006.947	15308.76
1007.301	11516.34
1007.655	12570.8
1008.008	9218.76
1008.362	10358.65
1008.715	14800.86
1009.069	13423.04
1009.422	20130
1009.776	40470.55
1010.129	26890.39
1010.482	22541.08
1010.835	19098.39
1011.188	39760.21
1011.541	37433.69
1011.894	-229238.42
1012.247	674265.28
1012.6	45845.95
1012.952	28946.31
1013.305	15005.46
1013.657	10808.91
1014.01	10265.37
1014.362	8450
1014.715	7460.43
1015.067	6464.36
1015.419	6316.97
1015.771	5581.26
1016.123	4963.46
1016.475	5084.69
1016.827	5424.55
1017.179	5798.27
1017.531	5850.07
1017.883	5950.74
1018.234	5723.52
1018.586	7266.13
1018.938	7692.63
1019.289	10614.21
1019.64	12209.97
1019.992	11352.5
1020.343	10426.23
1020.694	8208.6
1021.045	7276.51
1021.396	8306.91
1021.747	8920.2
1022.098	10767.03
1022.449	7796.18
1022.8	7244.18
1023.151	5025.54
1023.501	4430.22
1023.852	4840.44
1024.202	5011.4
1024.553	5529.78
1024.903	5379.51
1025.253	4574.17
1025.604	4100.88
1025.954	5082.4
1026.304	6225.34
1026.654	7259.39
1027.004	10701.91
1027.354	17328.81
1027.703	16184.66
1028.053	21242.37
1028.403	30784.01
1028.753	44783.2
1029.102	61464.04
1029.452	318409.71
1029.801	13775.82
1030.15	8855.33
1030.499	7530.66
897.758	2415.87
901.051	2359.3
904.343	2392.72
907.636	2398.18
910.928	2462.49
914.22	2376.03
917.511	2382.32
920.803	2435.34
924.094	2444.82
927.384	2437.71
930.675	2402.49
933.965	2360.64
937.255	2381.62
940.544	2346.49
943.834	2322.56
947.123	2258.59
950.411	2351.89
953.7	2328.84
956.988	2306.43
960.276	2247.53
963.563	2310.94
966.851	2313.01
970.138	2363.94
973.424	2360.73
976.711	2317.21
979.997	2402.16
983.283	2446.91
986.568	2366.28
989.853	2371.11
993.138	2400.25
996.423	2480.3
999.708	2427.73
1002.992	2474.64
1006.275	2352.61
1009.559	2374.44
1012.842	2478.73
1016.125	2420.92
1019.408	2402.33
1022.69	2473.51
1025.972	2499.81
1029.254	2474.4
1032.536	2422.94
1035.817	2443.13
1039.098	2402.41
1042.379	2498.12
1045.659	2517.41
1048.939	2460.32
1052.219	2473.12
1055.498	2477.37
1058.778	2469.34
1062.057	2448.74
1065.335	2472.91
1068.614	2487.03
1071.892	2477.6
1075.17	2545.54
1078.447	2539.59
1081.724	2533.33
1085.001	2565.5
1088.278	2540.97
1091.554	2552.91
1094.83	2548.07
1098.106	2580.4
1101.382	2617.15
1104.657	2621.21
1107.932	2617.94
1111.206	2586.29
1114.481	2546.16
1117.755	2546.41
1121.029	2533.66
1124.302	2593.37
1127.575	2548.39
1130.848	2541.22
1134.121	2506.33
1137.393	2462.76
1140.665	2524.08
1143.937	2501.59
1147.208	2457.24
1150.48	2505.68
1153.75	2491.67
1157.021	2508.95
1160.291	2482.59
1163.561	2531.67
1166.831	2512.96
1170.101	2543.87
1173.37	2509.52
1176.639	2460.2
1179.907	2512.89
1183.176	2528.64
1186.444	2530.29
1189.711	2560.71
1192.979	2575.92
1196.246	2532.76
1199.513	2547.31
1202.78	2546.33
1206.046	2556.67
1209.312	2585.77
1212.578	2607.12
1215.843	2565.18
1219.108	2533.27
1222.373	2559.72
1225.638	2524.64
1228.902	2514.62
1232.166	2475.27
1235.43	2461.67
1238.693	2484
1241.956	2477.66
1245.219	2520.27
1248.482	2506.71
1251.744	2504.74
1255.006	2641.88
1258.268	2591.9
1261.529	2541.25
1264.79	2545.42
1268.051	2648.28
1271.312	2661.32
1274.572	2630.19
1277.832	2618.54
1281.092	2604.31
1284.351	2587.72
1287.61	2569.26
1290.869	2493.89
1294.128	2481.46
1297.386	2549.73
1300.644	2539.92
1303.902	2550.55
1307.159	2413.26
1310.416	2467.01
1313.673	2493.25
1316.93	2483.48
1320.186	2522.05
1323.442	2559.86
1326.697	2557.08
1329.953	2536.37
1333.208	2567.39
1336.463	2545.84
1339.717	2493.31
1342.972	2614.68
1346.226	2589.27
1349.479	2528.31
1352.733	2505.49
1355.986	2520.22
1359.238	2497.2
1362.491	2499.66
1365.743	2502.96
1368.995	2496.98
1372.247	2511.05
1375.498	2535.12
1378.749	2562.73
1382	2514.06
1385.251	2560.04
1388.501	2513.33
1391.751	2503.5
1395	2469.92
1398.25	2499.79
1401.499	2514.54
1404.748	2449.09
1407.996	2427.6
1411.244	2413.56
1414.492	2394.8
1417.74	2374.55
1420.987	2383.18
1424.234	2440.53
1427.481	2412.57
1430.728	2472.25
1433.974	2446.07
1437.22	2452.5
1440.465	2451.78
1443.711	2434.47
1446.956	2460.85
1450.201	2446.66
1453.445	2488.98
1456.689	2469.94
1459.933	2484.31
1463.177	2522.5
1466.42	2493.98
1469.663	2474.72
1472.906	2478.17
1476.148	2540.18
1479.391	2532.33
1482.633	2504.11
1485.874	2516.64
1489.115	2516.18
1492.356	2512.67
1495.597	2488.34
1498.838	2486.41
1502.078	2464.97
1505.318	2426.82
1508.557	2467.5
1511.797	2456.93
1515.036	2488.55
1518.274	2474.41
1521.513	2440.27
1524.751	2458.63
1527.989	2476.42
1531.227	2494.6
1534.464	2499.07
1537.701	2505.76
1540.938	2522.4
1544.174	2472.97
1547.41	2467.31
1550.646	2506.57
1553.882	2552.22
1557.117	2605.83
1560.352	2618.31
1563.587	2579.1
1566.821	2541.54
1570.055	2567.69
1573.289	2543.35
1576.523	2612.01
1579.756	2622.47
1582.989	2642.32
1586.222	2604.68
1589.454	2638.21
1592.686	2618.37
1595.918	2646.17
1599.15	2638.4
1602.381	2700.15
1605.612	2669.04
1608.843	2766.28
1612.073	2683.82
1615.303	2668.07
1618.533	2663.55
1621.762	2664.21
1624.992	2644.5
1628.221	2639.97
1631.449	2624.07
1634.678	2666.44
1637.906	2628.19
1641.134	2660.07
1644.361	2623.21
1647.588	2610.12
1650.815	2631.88
1654.042	2602.66
1657.269	2631.57
1660.495	2595.43
1663.72	2601.56
1666.946	2568.32
1670.171	2527.02
1673.396	2499.93
1676.621	2482.12
1679.845	2491.95
1683.069	2506.56
1686.293	2540.86
1689.517	2523.17
1692.74	2462.93
1695.963	2489.03
1699.185	2516.14
1702.408	2487.66
1705.63	2526.73
1708.852	2538.3
1712.073	2515.28
1715.294	2510.13
1718.515	2562
1721.736	2516.99
1724.956	2498.97
1728.176	2522.25
1731.396	2545.76
1734.616	2530.7
1737.835	2565.28
1741.054	2537.15
1744.272	2531.52
1747.491	2563.37
1750.709	2603.23
1753.927	2528.63
1757.144	2563.15
1760.361	2616.32
1763.578	2600.46
1766.795	2543.4
1770.011	2542.66
1773.227	2574.04
1776.443	2612.78
1779.658	2657.74
1782.874	2598.13
1786.089	2582.33
1789.303	2584.68
1792.518	2585.68
1795.732	2572.4
1798.945	2585.73
1802.159	2632.22
1805.372	2552.08
1808.585	2543.2
1811.797	2541.96
1815.01	2577.33
1818.222	2589.73
1821.434	2559.31
1824.645	2609.7
1827.856	2606.05
1831.067	2638.84
1834.278	2583.18
1837.488	2568.79
1840.698	2703.75
1843.908	2635.21
1847.117	2599.62
1850.326	2503.11
1853.535	2586.5
1856.744	2612.36
1859.952	2526.81
1863.16	2528.47
1866.368	2545.24
1869.575	2653.01
1872.782	2534.52
1875.989	2468.63
1879.196	2533.68
1882.402	2524.35
1885.608	2561.86
1888.814	2481.28
1892.019	2379.54
1895.224	2432.88
1898.429	2403.35
1901.634	2385.16
1904.838	2357.82
1908.042	2409.37
1911.246	2419.7
1914.449	2366.48
1917.652	2356.55
1920.855	2338.52
1924.058	2374.12
1927.26	2415.68
1930.462	2440.75
1933.664	2472.51
1936.865	2414.68
1940.066	2428.27
1943.267	2369.33
1946.467	2384.7
1949.668	2406.75
1952.868	2476.34
1956.067	2458.28
1959.267	2396.19
1962.466	2421
1965.665	2404.33
1968.863	2400.15
1972.061	2406.51
1975.259	2400.98
1978.457	2481.43
1981.654	2440.58
1984.852	2444.3
1988.048	2385.09
1991.245	2382.04
1994.441	2465.93
1997.637	2437.83
2000.833	2418.33
2004.028	2456.58
2007.223	2515.14
2010.418	2498.91
2013.613	2455.39
2016.807	2435.17
2020.001	2435.41
2023.194	2472.19
2026.388	2450.16
2029.581	2397.37
2032.774	2454.03
2035.966	2464.92
2039.158	2404
2042.35	2426.27
2045.542	2353.67
2048.733	2447.06
2051.924	2455.25
2055.115	2477.54
2058.306	2429.14
2061.496	2486.34
2064.686	2543.86
2067.875	2453.66
2071.065	2459.23
2074.254	2481.07
2077.442	2434.83
2080.631	2522.78
2083.819	2432.06
2087.007	2419.81
2090.195	2397.98
2093.382	2422.44
2096.569	2406.08
2099.756	2362.78
2102.942	2398.8
2106.128	2411.32
2109.314	2401.58
2112.5	2375.96
2115.685	2347.68
2118.87	2357.14
2122.055	2418.93
2125.239	2392.17
2128.424	2375.56
2131.608	2455.1
2134.791	2439.5
2137.974	2487.72
2141.157	2474.4
2144.34	2435.77
2147.523	2440.96
2150.705	2459.79
2153.887	2433.93
2157.068	2396.1
2160.25	2386.91
2163.431	2413.46
2166.611	2373.84
2169.792	2389.4
2172.972	2294.58
2176.152	2358.31
2179.331	2389.39
2182.511	2378.6
2185.69	2405.82
2188.868	2402.74
2192.047	2446.73
2195.225	2448.9
2198.403	2404.34
2201.58	2390.79
2204.758	2384.26
2207.935	2460.33
2211.111	2362.51
2214.288	2350.43
2217.464	2386.86
2220.64	2349.06
2223.815	2402.13
2226.991	2331.46
2230.166	2349.47
2233.34	2382.13
2236.515	2399.63
2239.689	2467.69
2242.863	2415.45
2246.036	2471.06
2249.209	2461.59
2252.382	2487.2
2255.555	2487.15
2258.727	2431.07
2261.9	2465.26
2265.071	2457.39
2268.243	2457.71
2271.414	2399.37
2274.585	2370.23
2277.756	2433.88
2280.926	2387.43
2284.096	2424.71
2287.266	2344.3
2290.436	2393.89
2293.605	2419.47
2296.774	2449.97
2299.942	2460.22
2303.111	2478.2
2306.279	2528.26
2309.447	2514.59
2312.614	2486.79
2315.781	2510.37
2318.948	2482.15
2322.115	2518.83
2325.281	2419.86
2328.447	2432.44
2331.613	2407.26
2334.779	2391.31
2337.944	2389.71
2341.109	2389.79
2344.274	2376.95
2347.438	2341.6
2350.602	2364.98
2353.766	2379.71
2356.929	2368.38
2360.092	2408.31
2363.255	2369.38
2366.418	2319.57
2369.58	2408.59
2372.742	2240.16
2375.904	2244.61
2379.066	2224.66
2382.227	2257.18
2385.388	2219.59
2388.548	2155.63
2391.709	2203.05
2394.869	2185.96
2398.029	2264.46
2401.188	2268.14
2404.347	2217.55
2407.506	2325.79
2410.665	2359.46
2413.823	2355.27
2416.981	2323.74
2420.139	2348.14
2423.296	2392.64
2426.453	2366
2429.61	2391.6
2432.767	2340.77
2435.923	2378.33
2439.079	2333.62
2442.235	2372.82
2445.391	2308.8
2448.546	2342.8
2451.701	2385.16
2454.855	2367.43
2458.009	2408.97
2461.163	2404.67
2464.317	2367.3
2467.471	2395.88
2470.624	2431.92
2473.777	2411.33
2476.929	2428.26
2480.082	2450.22
2483.234	2420.37
2486.385	2367.76
2489.537	2361.92
2492.688	2337.5
2495.839	2353.51
2498.989	2366.52
2502.14	2354.63
2505.29	2341.05
2508.439	2363.79
2511.589	2297.37
2514.738	2303.12
2517.887	2329.07
2521.035	2400.67
2524.183	2373.23
2527.331	2356.2
2530.479	2341.11
2533.627	2347.02
