Data from N_2_DIV_PA_2N_Splice17_12-39-39-808.txt Node
Date: Sat Mar 14 12:39:39 EDT 2020
User: sa697716
Spectrometer: FLMS03696
Trigger mode: 0
Integration Time (sec): 3.180400E-1
Scans to average: 20
Electric dark correction enabled: true
Nonlinearity correction enabled: true
Boxcar width: 5
XAxis mode: Wavelengths
Number of Pixels in Spectrum: 2048
>>>>>Begin Spectral Data<<<<<
187.83	-471235.09
188.298	3321.3
188.766	1707.6
189.233	1562.35
189.701	2204.36
190.169	3074.56
190.636	1106.65
191.104	816.78
191.571	101.19
192.039	-122.45
192.506	-177.59
192.974	282.05
193.441	-548.65
193.908	-279.94
194.375	-36.06
194.842	-10.52
195.31	166.62
195.777	177.3
196.244	416.48
196.711	501.65
197.177	638.48
197.644	909.07
198.111	1563.4
198.578	2222.18
199.045	1818.18
199.511	2971.47
199.978	3494.56
200.445	2953.17
200.911	3264.71
201.378	3594.69
201.844	3261.07
202.31	5541.75
202.777	5820.69
203.243	3224.46
203.709	3051.99
204.176	3606.22
204.642	2963.54
205.108	2771.27
205.574	2244.98
206.04	2047.42
206.506	1937.66
206.972	1824.26
207.438	1766.81
207.903	2006.19
208.369	1752.48
208.835	1750.82
209.301	1835.98
209.766	1868.73
210.232	1846.46
210.697	2282.27
211.163	2801.89
211.628	4197.32
212.094	3534.63
212.559	4361.8
213.024	2698.9
213.49	3315.26
213.955	3219.56
214.42	3129.17
214.885	2911.09
215.35	2785.3
215.815	2687.1
216.28	2849.72
216.745	2319.53
217.21	2473.68
217.675	2247.69
218.14	2509.76
218.604	2770.47
219.069	3137.55
219.534	3285.23
219.998	3796.84
220.463	4553.46
220.927	5553.43
221.392	5187.43
221.856	5221.59
222.32	6542.78
222.785	8065.79
223.249	10100.99
223.713	11257.39
224.177	11256.01
224.642	14399.22
225.106	17669.87
225.57	19278.01
226.034	14363.06
226.497	21882.14
226.961	19783.41
227.425	23061.16
227.889	25534.37
228.353	25523.75
228.816	52578.32
229.28	50177.75
229.744	42235.4
230.207	25614.28
230.671	25184.76
231.134	41551.85
231.597	47884.8
232.061	47792.29
232.524	46550.21
232.987	32026.5
233.45	28900.77
233.914	25916.31
234.377	26543.4
234.84	24282.67
235.303	28646.98
235.766	31967.65
236.229	33021.1
236.691	20770.11
237.154	23339.89
237.617	17581.27
238.08	17994.88
238.542	21006.72
239.005	15035.47
239.468	14928.52
239.93	14073.93
240.393	12798.66
240.855	11237.2
241.317	11499.27
241.78	13995.82
242.242	14461.42
242.704	15603.15
243.166	13588.16
243.629	12347.03
244.091	14218.56
244.553	15570.72
245.015	16729.52
245.477	21603.85
245.939	31685
246.4	33631.03
246.862	32659.25
247.324	30785.76
247.786	34432.58
248.247	45064.05
248.709	46429.42
249.17	34679.42
249.632	32712.44
250.093	37932.99
250.555	32763.97
251.016	19961.61
251.477	18911.71
251.939	20399.06
252.4	21375.62
252.861	25407
253.322	23659.96
253.783	28146.59
254.244	36500.92
254.705	28761.66
255.166	25531.82
255.627	25135.83
256.088	35460.18
256.549	37686.99
257.009	32439.33
257.47	39346.45
257.931	31989
258.391	23948.5
258.852	24685.24
259.312	25849.73
259.773	31893.54
260.233	26973.58
260.694	22725.31
261.154	25746.12
261.614	20668.95
262.074	18457.62
262.534	19190.45
262.994	18099.51
263.455	24076.74
263.915	20289.98
264.374	19110.44
264.834	20853.79
265.294	23116.09
265.754	23981.46
266.214	22706.39
266.673	21255.5
267.133	26836.57
267.593	26597.36
268.052	32554.5
268.512	28353.67
268.971	34228.99
269.431	37585.41
269.89	33696.2
270.349	50521.71
270.809	56315.77
271.268	50605.09
271.727	113493.52
272.186	73519.39
272.645	55188.84
273.104	39807.63
273.563	57618.96
274.022	45274.45
274.481	38506.23
274.94	29648.48
275.399	22037.12
275.857	25650.19
276.316	34701.04
276.775	30880.13
277.233	30467.36
277.692	28545.01
278.15	32323.3
278.609	33292.61
279.067	30839.24
279.525	28643.04
279.984	37008.8
280.442	44498.54
280.9	43941.48
281.358	28942.66
281.816	27012.94
282.274	26455.02
282.732	27317.03
283.19	27453.45
283.648	23708.07
284.106	25247.3
284.564	25709.32
285.021	23857.08
285.479	17764.88
285.937	16157.6
286.394	14207.39
286.852	14638.91
287.309	15389.74
287.767	14894.95
288.224	14178.39
288.682	15573.67
289.139	17105.08
289.596	15648.42
290.053	16287.44
290.511	20594.32
290.968	24973.47
291.425	33825.9
291.882	28144.69
292.339	24476.54
292.796	24267.93
293.252	22838.4
293.709	18164.12
294.166	16298.9
294.623	18023.75
295.079	17277.21
295.536	17377.97
295.992	15791.06
296.449	15623.6
296.905	16231.84
297.362	15571.73
297.818	16395.8
298.274	17030.79
298.731	17324.86
299.187	17129.02
299.643	18397.33
300.099	22242.47
300.555	24350.71
301.011	20348.04
301.467	19636.68
301.923	22989.59
302.379	22496.71
302.835	22100.61
303.291	22142.79
303.746	25229.42
304.202	31896.83
304.658	32040.91
305.113	21589.35
305.569	21182.06
306.024	22551.47
306.479	21468.3
306.935	18115.16
307.39	19756.21
307.845	18256.67
308.301	18384.97
308.756	17919.04
309.211	17275.29
309.666	17693.58
310.121	21993.43
310.576	22332.43
311.031	22216.11
311.486	25448.64
311.94	25464.37
312.395	34094.02
312.85	64025.2
313.305	314537.98
313.759	1632156.09
314.214	118524
314.668	94196.8
315.123	79347.48
315.577	28490.3
316.032	25348.75
316.486	31807.8
316.94	25104.93
317.394	17488.19
317.849	13604.16
318.303	12892.35
318.757	12166.08
319.211	13433.1
319.665	11747.2
320.119	11865.87
320.572	17006.29
321.026	15889.16
321.48	13207.52
321.934	14390.69
322.387	14423.23
322.841	15591.01
323.295	14012.03
323.748	16093.46
324.202	16337.93
324.655	19612.69
325.108	27422.13
325.562	19371.5
326.015	22998.4
326.468	17444.07
326.921	19528.72
327.374	18254.52
327.827	19016.24
328.28	21557.05
328.733	14483.07
329.186	12755.99
329.639	12191.03
330.092	10292.06
330.545	9835.46
330.997	9941.1
331.45	10854.79
331.903	12728.72
332.355	21847.15
332.808	21263.65
333.26	17537.76
333.713	19052.47
334.165	19175.95
334.617	25595.83
335.069	20639.96
335.522	37272.87
335.974	41297.73
336.426	37746.19
336.878	26156.84
337.33	13271.79
337.782	12946.48
338.234	16249.44
338.686	19467.83
339.137	23065.04
339.589	21701
340.041	17062.54
340.493	14668.19
340.944	15035.87
341.396	16199.43
341.847	13636.83
342.299	16152.62
342.75	19771.25
343.201	17262.65
343.653	19847.1
344.104	24430.13
344.555	19212.52
345.006	29829.26
345.457	22839.96
345.908	18150.36
346.359	17126.91
346.81	13952.92
347.261	14673.42
347.712	14429.99
348.163	15475.14
348.613	15673.36
349.064	14627.09
349.515	12832.14
349.965	13186.39
350.416	15863.36
350.866	17400.73
351.317	19615.98
351.767	32453.82
352.217	41043.55
352.668	34075.02
353.118	31280.28
353.568	30134.74
354.018	23863.7
354.468	25167.34
354.918	18083.9
355.368	15872.16
355.818	22472
356.268	64650.75
356.718	271359.37
357.168	67576.01
357.617	33969.26
358.067	37755.31
358.517	35484.07
358.966	41668.97
359.416	46824.8
359.865	50578.78
360.315	60256.84
360.764	28126.93
361.213	15799.6
361.663	14960.54
362.112	18480.76
362.561	29856.34
363.01	22560.07
363.459	18981.54
363.908	20580.38
364.357	17513.43
364.806	29625.07
365.255	20369.89
365.703	18692.84
366.152	18723.46
366.601	15207.31
367.05	12368.3
367.498	11259.78
367.947	11770.64
368.395	12254.09
368.844	10852.75
369.292	13084.26
369.74	9044.49
370.189	13879.77
370.637	16250.88
371.085	14050.68
371.533	17094.29
371.981	16493.87
372.429	15750.82
372.877	16411.83
373.325	13746.82
373.773	14024.33
374.221	12493.36
374.669	15515.96
375.116	13411.6
375.564	13582.16
376.012	15230.42
376.459	12622.05
376.907	15074.75
377.354	18255.08
377.801	17079.53
378.249	19705.09
378.696	25248.22
379.143	30710.02
379.591	32930.81
380.038	56089.62
380.485	40681.45
380.932	44076.51
381.379	40524.85
381.826	30057.86
382.273	21427.16
382.72	18791.92
383.166	18392.97
383.613	11977.02
384.06	10833.7
384.506	12563.48
384.953	9232.45
385.4	9327.7
385.846	8205.95
386.292	8004.4
386.739	7857.26
387.185	7809.24
387.631	7856
388.078	7662
388.524	8240.09
388.97	7643.41
389.416	6407.78
389.862	6844.14
390.308	6516.42
390.754	6641.13
391.2	7252.57
391.645	7447.8
392.091	7164.4
392.537	6956.09
392.983	6990.53
393.428	6896.71
393.874	7421.86
394.319	7483.03
394.765	7137.3
395.21	7358.72
395.655	6928.46
396.101	6503.78
396.546	5898.42
396.991	5962.75
397.436	5553.15
397.881	5383.56
398.326	5114.4
398.771	4847.61
399.216	4243.86
399.661	3830.48
400.106	3833.23
400.551	3933.1
400.995	3538.12
401.44	3503.88
401.885	3297.56
402.329	3339.96
402.774	3207.16
403.218	3118.07
403.663	3013.57
404.107	3110.86
404.551	3145.79
404.995	2887.18
405.44	2789.59
405.884	2843.07
406.328	2761.53
406.772	2766.99
407.216	2524.81
407.66	2449.55
408.104	2326.92
408.547	2183.29
408.991	2117.04
409.435	2042.31
409.879	2021.4
410.322	2000.59
410.766	1935.36
411.209	1841.65
411.653	1772.24
412.096	1742.16
412.54	1745.95
412.983	1739.94
413.426	1749.23
413.869	1751.43
414.312	1722.64
414.756	1663.85
415.199	1589.18
415.642	1546.06
416.085	1552.76
416.527	1542.86
416.97	1570.82
417.413	1490.09
417.856	1477.61
418.298	1465.93
418.741	1455.01
419.184	1451.38
419.626	1514.43
420.069	1516.64
420.511	1524.95
420.953	1493.73
421.396	1479.85
421.838	1440.26
422.28	1477.83
422.722	1481.27
423.164	1499.11
423.606	1477.87
424.048	1475.08
424.49	1402.05
424.932	1394.74
425.374	1376.22
425.816	1400.21
426.258	1426.14
426.699	1443.22
427.141	1422.78
427.582	1449.48
428.024	1446.41
428.465	1439.12
428.907	1407.39
429.348	1390.74
429.789	1394.36
430.231	1366.81
430.672	1388
431.113	1358.79
431.554	1339.68
431.995	1306.46
432.436	1260.03
432.877	1230.45
433.318	1209.07
433.759	1204.54
434.2	1204.78
434.64	1190.37
435.081	1194.47
435.522	1132.18
435.962	1091.8
436.403	1069.84
436.843	1086.28
437.284	1064.31
437.724	1037.05
438.164	1042.24
438.604	1018.65
439.045	980.78
439.485	943.94
439.925	923.35
440.365	898.57
440.805	885
441.245	873.98
441.685	839.66
442.125	832.04
442.564	837.97
443.004	816.11
443.444	812.97
443.883	812.45
444.323	801.25
444.762	801.14
445.202	811.98
445.641	827.04
446.081	821.61
446.52	828.15
446.959	820.36
447.398	799.05
447.837	788.92
448.276	773.7
448.716	779.09
449.154	786.4
449.593	766.97
450.032	763.25
450.471	747.65
450.91	746.46
451.349	742.54
451.787	737.12
452.226	746.63
452.664	745.72
453.103	746.52
453.541	745.41
453.98	743.15
454.418	748.41
454.856	736.76
455.295	734.79
455.733	739.2
456.171	744.01
456.609	745.67
457.047	744.05
457.485	754.59
457.923	755.8
458.361	745.45
458.798	747.53
459.236	745.1
459.674	748.37
460.111	751.26
460.549	744.21
460.987	740.21
461.424	735.99
461.862	733.6
462.299	722.18
462.736	721.92
463.173	724.11
463.611	716.82
464.048	714.95
464.485	721.58
464.922	715.29
465.359	711.36
465.796	704.56
466.233	699.7
466.67	693.22
467.106	692.54
467.543	684.15
467.98	674.74
468.416	657.4
468.853	651.8
469.29	631.75
469.726	624.34
470.162	607.37
470.599	596.74
471.035	591.24
471.471	576.16
471.907	571
472.344	567.37
472.78	568.12
473.216	574.3
473.652	567.09
474.088	565.21
474.523	563.77
474.959	569.05
475.395	563.71
475.831	560.55
476.266	562.71
476.702	561.8
477.138	555.55
477.573	552.97
478.008	550.53
478.444	553.14
478.879	557.65
479.314	559.23
479.75	556.87
480.185	558.82
480.62	562.45
481.055	564.51
481.49	567.79
481.925	575.29
482.36	585.33
482.795	600.27
483.229	614.83
483.664	626.58
484.099	628.11
484.534	638.54
484.968	643.54
485.403	644.63
485.837	642.04
486.271	639.28
486.706	637.61
487.14	628.11
487.574	617.12
488.009	609.99
488.443	602.68
488.877	606.93
489.311	606.6
489.745	612.43
490.179	615.5
490.613	626.74
491.046	628.6
491.48	630.35
491.914	629.07
492.348	630.4
492.781	631.29
493.215	630.15
493.648	627.76
494.082	628.94
494.515	625.37
494.948	629.28
495.382	628.71
495.815	629.16
496.248	630.89
496.681	637.08
497.114	642.22
497.547	646.99
497.98	653.74
498.413	654.29
498.846	657.36
499.279	659.52
499.711	656.71
500.144	652.91
500.577	656.65
501.009	659.3
501.442	661.71
501.874	657.33
502.306	652.01
502.739	653.32
503.171	658.62
503.603	654.43
504.036	654.12
504.468	652.35
504.9	653.77
505.332	650.8
505.764	647.14
506.196	645
506.627	647.95
507.059	649.65
507.491	646.2
507.923	637.7
508.354	641.2
508.786	641.87
509.217	646.77
509.649	649.95
510.08	655.55
510.512	659.79
510.943	663.48
511.374	664.48
511.805	671.32
512.237	676.73
512.668	689.85
513.099	700.09
513.53	710.72
513.961	717.57
514.391	730.77
514.822	747.01
515.253	762.82
515.684	772.88
516.114	785.11
516.545	793.43
516.975	804.97
517.406	811.69
517.836	809.38
518.267	809.38
518.697	817.4
519.127	817.53
519.558	816.98
519.988	817.47
520.418	820.66
520.848	829.11
521.278	832.49
521.708	865.5
522.138	872.33
522.567	888.66
522.997	903.89
523.427	911.44
523.857	920.89
524.286	927.6
524.716	937.14
525.145	949.39
525.575	956.65
526.004	966.04
526.433	940.5
526.863	941.58
527.292	938.9
527.721	942.83
528.15	947.69
528.579	950.08
529.008	958.03
529.437	971.27
529.866	980.61
530.295	991.49
530.724	1000.84
531.152	1016.72
531.581	1026.38
532.01	1037.13
532.438	1043.17
532.867	1053.52
533.295	1065.35
533.723	1070
534.152	1070.52
534.58	1071.4
535.008	1062.95
535.436	1064.88
535.865	1070.14
536.293	1079.12
536.721	1089
537.149	1105.48
537.576	1107.6
538.004	1116.46
538.432	1122.11
538.86	1122.55
539.287	1127.17
539.715	1136.75
540.143	1138.5
540.57	1137.92
540.998	1136
541.425	1124.69
541.852	1112.09
542.28	1111.31
542.707	1102.23
543.134	1094.57
543.561	1092.52
543.988	1089.56
544.415	1089.58
544.842	1086.53
545.269	1082.6
545.696	1085.2
546.123	1092.76
546.549	1087.77
546.976	1081.49
547.403	1082.03
547.829	1083.54
548.256	1085.17
548.682	1083.5
549.108	1081.27
549.535	1081.92
549.961	1083.09
550.387	1075.5
550.813	1074.32
551.24	1077.81
551.666	1078.06
552.092	1072.15
552.518	1067.89
552.943	1064.72
553.369	1068.51
553.795	1070.35
554.221	1070.35
554.646	1068.44
555.072	1075.35
555.498	1076.12
555.923	1080.65
556.349	1088.57
556.774	1092.18
557.199	1091.28
557.625	1093.08
558.05	1088.95
558.475	1094.11
558.9	1092.94
559.325	1088.36
559.75	1083.01
560.175	1077.65
560.6	1072.54
561.025	1069.66
561.449	1069.84
561.874	1072.51
562.299	1072.97
562.723	1074.83
563.148	1067.33
563.572	1067.36
563.997	1071.12
564.421	1070.66
564.846	1068.44
565.27	1068.67
565.694	1065.52
566.118	1069.69
566.542	1072.58
566.966	1067.02
567.39	1061.6
567.814	1052.45
568.238	1050.54
568.662	1050.13
569.086	1050.32
569.509	1051.62
569.933	1042.5
570.357	1036.89
570.78	1022.63
571.204	1014.46
571.627	1007.56
572.05	1005.88
572.474	1005.92
572.897	997.84
573.32	993.11
573.743	986.84
574.166	976.72
574.589	975.02
575.012	970.41
575.435	969.23
575.858	963.14
576.281	956.05
576.704	946.28
577.126	937.31
577.549	930.16
577.972	923.95
578.394	918.27
578.817	916.52
579.239	906.03
579.661	898.04
580.084	890.36
580.506	883.51
580.928	881.83
581.35	876.35
581.772	874.36
582.194	867.56
582.616	860.17
583.038	852.36
583.46	844.55
583.882	843.32
584.303	845.52
584.725	842.96
585.147	847.06
585.568	853.98
585.99	861.42
586.411	866.95
586.833	876.04
587.254	878.45
587.675	885.31
588.096	893.29
588.518	890.31
588.939	881.5
589.36	880.84
589.781	871.01
590.202	856.98
590.623	852.7
591.043	851.14
591.464	844.04
591.885	842.6
592.305	840.2
592.726	832.56
593.147	833.51
593.567	831.01
593.987	826.18
594.408	823.29
594.828	819.8
595.248	816.59
595.669	806.58
596.089	802.38
596.509	797.72
596.929	789.89
597.349	791.02
597.769	785.78
598.189	782.63
598.608	784.41
599.028	785.88
599.448	785.34
599.867	777.54
600.287	774.04
600.706	772.66
601.126	767.67
601.545	767.8
601.965	766.04
602.384	762.82
602.803	764.37
603.222	760.93
603.641	756.61
604.061	755.33
604.48	754
604.898	758.82
605.317	761.22
605.736	762.54
606.155	762.18
606.574	757.88
606.992	760.49
607.411	758.35
607.829	754.21
608.248	753.4
608.666	752.15
609.085	752.25
609.503	748.7
609.921	747.18
610.339	748.82
610.758	748.09
611.176	745.45
611.594	742.13
612.012	740.66
612.43	744.34
612.847	749.04
613.265	751.59
613.683	754.73
614.101	756.2
614.518	753.57
614.936	749.11
615.353	742.03
615.771	741.89
616.188	743.5
616.606	743.31
617.023	740.01
617.44	732.39
617.857	728.25
618.274	724.49
618.691	722.21
619.108	717.82
619.525	714.6
619.942	719.83
620.359	721.99
620.776	719.71
621.192	718.95
621.609	719.06
622.026	724.71
622.442	729.44
622.859	732.05
623.275	728.72
623.691	732.82
624.108	740.65
624.524	749.05
624.94	750.5
625.356	757.11
625.772	764.33
626.188	770.67
626.604	772.25
627.02	769.75
627.436	768.98
627.852	774.33
628.268	781.4
628.683	776.87
629.099	772.41
629.514	769.48
629.93	771.41
630.345	773.66
630.761	772.43
631.176	774.44
631.591	772.8
632.007	770.58
632.422	768.52
632.837	762.43
633.252	763.02
633.667	758.19
634.082	754.8
634.497	749.44
634.911	740.95
635.326	740.32
635.741	732.08
636.155	728.05
636.57	730.88
636.984	733.98
637.399	739.85
637.813	741.28
638.228	744.08
638.642	749.44
639.056	746.37
639.47	750.28
639.884	748.87
640.298	749.55
640.712	753.04
641.126	749.78
641.54	749.31
641.954	748.88
642.368	746.75
642.781	748.27
643.195	741.43
643.609	747.87
644.022	748.43
644.436	750.14
644.849	745.7
645.262	743.16
645.676	748.47
646.089	749.65
646.502	745.66
646.915	745.68
647.328	736.82
647.741	740.25
648.154	733.74
648.567	736.83
648.98	731.69
649.393	735.73
649.805	736.19
650.218	733.79
650.631	725.61
651.043	722.61
651.456	720.88
651.868	723.01
652.28	737.91
652.693	749.25
653.105	754.83
653.517	763.7
653.929	767.08
654.341	773.72
654.753	766.62
655.165	773.71
655.577	774.42
655.989	774.57
656.401	771.94
656.813	748.63
657.224	737.69
657.636	719.34
658.047	710.84
658.459	699.96
658.87	696.17
659.282	692
659.693	681.55
660.104	675.59
660.515	669.5
660.926	674.78
661.338	677.49
661.749	677.41
662.159	675.9
662.57	677.01
662.981	678.07
663.392	677.94
663.803	686.97
664.213	688.43
664.624	688.58
665.035	695.25
665.445	686.9
665.855	686.02
666.266	684.63
666.676	687.12
667.086	682.77
667.497	686.19
667.907	683.78
668.317	678.7
668.727	679.97
669.137	684.47
669.547	685.94
669.956	691.08
670.366	693.62
670.776	696.66
671.186	701.5
671.595	705.91
672.005	709.88
672.414	711.19
672.824	710.2
673.233	713.51
673.642	716.82
674.052	719.66
674.461	721.7
674.87	725.5
675.279	722.87
675.688	723.84
676.097	725.4
676.506	721.69
676.915	733.67
677.323	735.79
677.732	732.32
678.141	729.11
678.549	717.12
678.958	713.37
679.366	710.79
679.775	712.67
680.183	720.28
680.592	721.64
681	723.77
681.408	714.33
681.816	718.12
682.224	721.92
682.632	726.24
683.04	748.15
683.448	763.19
683.856	780.52
684.264	802.42
684.671	817.51
685.079	838.86
685.487	862.6
685.894	897.25
686.302	918.73
686.709	934.88
687.116	952.3
687.524	961.17
687.931	966.05
688.338	967.92
688.745	961.35
689.152	959.82
689.559	965.33
689.966	968.88
690.373	959.37
690.78	962.89
691.187	980.32
691.593	988.16
692	993.74
692.407	1011.54
692.813	1040.57
693.22	1060.91
693.626	1081.94
694.032	1099.7
694.439	1133.54
694.845	1159.72
695.251	1197.35
695.657	1230.75
696.063	1284.53
696.469	1325.3
696.875	1366.31
697.281	1390.48
697.687	1423.58
698.093	1454.59
698.498	1507.81
698.904	1550.86
699.31	1614.73
699.715	1665.6
700.12	1734.78
700.526	1763.52
700.931	1822.45
701.337	1871.87
701.742	1913.04
702.147	1986.53
702.552	2027.33
702.957	2086.59
703.362	2123.2
703.767	2164.62
704.172	2214.85
704.577	2204.75
704.981	2257.3
705.386	2294.62
705.791	2314.93
706.195	2388.3
706.6	2419.14
707.004	2499.68
707.408	2503.58
707.813	2549.3
708.217	2567.55
708.621	2594.38
709.025	2694.36
709.43	2724.52
709.834	2796.65
710.237	2876.03
710.641	2891.56
711.045	2936.5
711.449	2961.2
711.853	3012.15
712.256	3073.05
712.66	3129.56
713.064	3216.5
713.467	3279.34
713.87	3400.46
714.274	3465.2
714.677	3586.35
715.08	3754.62
715.484	3929.67
715.887	4134.86
716.29	4339.75
716.693	4554.82
717.096	4800.34
717.499	4954.43
717.901	5011.64
718.304	5067.52
718.707	5127.99
719.109	5068.44
719.512	5072.73
719.915	4979.64
720.317	4955.96
720.719	5028.19
721.122	5031.79
721.524	5015.04
721.926	5006.49
722.328	5131.02
722.731	5153.05
723.133	5209.81
723.535	5426.62
723.937	5476.63
724.338	5558.89
724.74	5630.43
725.142	5602.42
725.544	5627.97
725.945	5683.65
726.347	5704.78
726.748	5726.08
727.15	5763.9
727.551	5743.93
727.952	5740.07
728.354	5730.75
728.755	5750.78
729.156	5729.32
729.557	5729.67
729.958	5620.25
730.359	5577.98
730.76	5575.02
731.161	5526.53
731.562	5519.02
731.962	5541.54
732.363	5488.06
732.763	5436.8
733.164	5489.82
733.564	5430.94
733.965	5342.55
734.365	5317.32
734.766	5362.52
735.166	5333.92
735.566	5286.06
735.966	5267.68
736.366	5272.47
736.766	5216.59
737.166	5259.18
737.566	5225.34
737.966	5206.21
738.365	5260.2
738.765	5263.29
739.165	5187.08
739.564	5167.23
739.964	5228.06
740.363	5184.86
740.763	5189.84
741.162	5184.42
741.561	5157.93
741.96	5113.66
742.36	5142.63
742.759	5155.6
743.158	5208.12
743.557	5233.49
743.955	5282.65
744.354	5236.47
744.753	5308.15
745.152	5267.28
745.55	5334.75
745.949	5329.93
746.348	5335.8
746.746	5360.98
747.144	5319.25
747.543	5296.01
747.941	5353.51
748.339	5278.63
748.737	5272.01
749.136	5262.79
749.534	5339.98
749.932	5309.52
750.33	5344.16
750.727	5409.66
751.125	5383.68
751.523	5368.36
751.921	5420.06
752.318	5384.5
752.716	5455.38
753.113	5472.55
753.511	5504.35
753.908	5505.22
754.305	5489.42
754.703	5557.51
755.1	5629.94
755.497	5700.23
755.894	5920.91
756.291	6124.98
756.688	6500.89
757.085	7001.94
757.482	7712.16
757.878	8484.56
758.275	9185.73
758.672	10149.53
759.068	10938.77
759.465	12056.47
759.861	13505.95
760.258	15174.1
760.654	16048.1
761.05	15935.28
761.447	15210.66
761.843	14172.12
762.239	13089.94
762.635	12603.53
763.031	12136.54
763.427	11462.89
763.822	10751.01
764.218	10045.23
764.614	9131.04
765.01	8521.47
765.405	8124.43
765.801	7824.35
766.196	7435.79
766.592	7226.87
766.987	6864.23
767.382	6619.82
767.778	6517.28
768.173	6369
768.568	6288.21
768.963	6144.82
769.358	6165.6
769.753	6114.75
770.148	6018.97
770.542	6020.9
770.937	5984.35
771.332	6092.73
771.726	6115.36
772.121	6043.09
772.515	6106.01
772.91	6087.44
773.304	6172.68
773.699	6096.78
774.093	6157.41
774.487	6225.5
774.881	6274.76
775.275	6269.65
775.669	6219.29
776.063	6269.17
776.457	6310.72
776.851	6227.49
777.245	6219.6
777.638	6257.37
778.032	6390.08
778.425	6347.2
778.819	6396.84
779.212	6349.88
779.606	6306.33
779.999	6333.78
780.392	6316.26
780.786	6415.12
781.179	6435.86
781.572	6487.05
781.965	6502.53
782.358	6435.3
782.751	6499.17
783.143	6440.54
783.536	6522.71
783.929	6569.19
784.322	6701.38
784.714	6739.79
785.107	6733.33
785.499	6819.64
785.891	6793.62
786.284	6772.36
786.676	6939.66
787.068	6921.27
787.46	6979.77
787.852	7006.22
788.245	7104.43
788.636	7135.64
789.028	7212.85
789.42	7255.19
789.812	7261.64
790.204	7372.44
790.595	7488.66
790.987	7262.63
791.378	7287.69
791.77	7440.42
792.161	7593.59
792.553	7662.05
792.944	7537.5
793.335	7461.25
793.726	7545.04
794.117	7654.86
794.508	7815.65
794.899	7777.83
795.29	7937.95
795.681	8008.22
796.072	7845.51
796.463	7632.68
796.853	7643.03
797.244	7826.37
797.634	7864.18
798.025	7867.36
798.415	7877.32
798.806	7978.3
799.196	8077.46
799.586	8140.4
799.976	8100.32
800.366	8367.13
800.756	8647.3
801.146	8603.77
801.536	8633.35
801.926	8716.74
802.316	8747.45
802.706	8828.86
803.095	8686.14
803.485	8808.5
803.874	8856.74
804.264	9154.93
804.653	9125.48
805.043	9295.67
805.432	9420.86
805.821	9425.29
806.21	9452.96
806.599	9585.32
806.988	9640.09
807.377	9765.41
807.766	9912.77
808.155	10237.87
808.544	9931.11
808.933	9950.58
809.321	9921.57
809.71	10263.16
810.098	10446.88
810.487	10980.96
810.875	11542.34
811.264	11567.85
811.652	11902.22
812.04	12070.39
812.428	12258.24
812.816	13141.73
813.204	13619.16
813.592	14259.04
813.98	14643.38
814.368	14528.85
814.756	15074.63
815.144	14977.14
815.531	15527.1
815.919	15442.13
816.306	15795.85
816.694	15437.67
817.081	15496.6
817.469	15895.49
817.856	15893.97
818.243	16205.85
818.63	16667.94
819.017	16186.71
819.404	16260.53
819.791	16690.91
820.178	17406.38
820.565	17696.32
820.952	18775.19
821.339	18208.72
821.725	18417.13
822.112	17557.12
822.498	17509.31
822.885	17661.78
823.271	17557.58
823.657	18049.16
824.044	18062.74
824.43	18150.96
824.816	18113.43
825.202	17606.95
825.588	18785.9
825.974	18804.16
826.36	19402.92
826.746	19452.58
827.132	19857.45
827.517	19826.62
827.903	18913.7
828.289	18947.02
828.674	18040.25
829.06	17920.01
829.445	18379.2
829.83	18777.72
830.216	19329.93
830.601	19751.85
830.986	19281.11
831.371	19120.46
831.756	19752.96
832.141	19256.69
832.526	19264.51
832.911	19591.71
833.295	19454.98
833.68	20000.6
834.065	19289.88
834.449	18239.05
834.834	18153.23
835.218	18143.58
835.603	18538.53
835.987	18304.75
836.371	19266.5
836.755	19131.89
837.139	19590.95
837.524	19875.5
837.908	19663
838.291	19736.69
838.675	19811.71
839.059	20053.73
839.443	20037.99
839.827	19768.17
840.21	20313.94
840.594	20145.76
840.977	20391.34
841.361	20376.42
841.744	20803.91
842.127	20630.25
842.511	20912.25
842.894	21607.05
843.277	22042.44
843.66	22667.87
844.043	22764.92
844.426	21835.45
844.809	21474.58
845.191	21514.82
845.574	20974.72
845.957	20556.32
846.339	20430.82
846.722	19822.7
847.104	19895.25
847.487	19693.32
847.869	19703.94
848.252	20028.24
848.634	20410.25
849.016	20709.88
849.398	20844.69
849.78	21822.89
850.162	21827.1
850.544	22304.64
850.926	23025.5
851.307	22935.72
851.689	23262.86
852.071	23792.37
852.452	24159.04
852.834	24134.36
853.215	24588.26
853.597	24771.12
853.978	25122.06
854.359	25648.37
854.741	24495.76
855.122	24386.23
855.503	24041.9
855.884	24198.72
856.265	24126.07
856.646	24266.15
857.026	23814.33
857.407	23750.13
857.788	23932.73
858.169	24249.85
858.549	23268.22
858.93	23992.5
859.31	24042.05
859.69	24283.81
860.071	23816.41
860.451	23562.75
860.831	22713.11
861.211	24050.62
861.591	24683.8
861.971	24651.13
862.351	24875.82
862.731	25326.75
863.111	25635.25
863.491	26026.21
863.87	27032.39
864.25	27433.59
864.629	26976.96
865.009	27564.46
865.388	28547.71
865.768	30588
866.147	30473.19
866.526	28794.91
866.905	29144.01
867.284	30772.83
867.663	29210.9
868.042	27997.53
868.421	27905.42
868.8	28385.72
869.179	28666.93
869.558	26998.54
869.936	24878.59
870.315	25315.57
870.693	25930.82
871.072	27964.36
871.45	26647.15
871.828	27007.25
872.207	28401.78
872.585	27984.68
872.963	28736.9
873.341	27752.75
873.719	27423.41
874.097	27101.99
874.475	27634.6
874.853	28270.21
875.23	27093.32
875.608	28220.49
875.986	30507.04
876.363	29173.32
876.741	30051.23
877.118	29304.16
877.495	30753.43
877.873	31279.41
878.25	32906.37
878.627	31561.69
879.004	31998.8
879.381	31841.89
879.758	31000.72
880.135	28874.36
880.512	30540.23
880.889	29725.29
881.265	29411.5
881.642	29159.65
882.019	29630.4
882.395	29047.25
882.772	30192
883.148	28877.91
883.524	28766.24
883.901	28602.9
884.277	29029.99
884.653	28845.72
885.029	29683.21
885.405	32872.55
885.781	32609.73
886.157	31271.64
886.532	31642.63
886.908	31634.6
887.284	35183.63
887.659	36325.19
888.035	37449.71
888.411	38398.12
888.786	38884.36
889.161	40221.5
889.537	39470.08
889.912	40734.98
890.287	40694.4
890.662	41745.96
891.037	40970.72
891.412	38206.31
891.787	37820.54
892.162	36511.85
892.536	37376.32
892.911	35996.15
893.286	35245.86
893.66	33819.61
894.035	34675.08
894.409	37752.2
894.784	36231.32
895.158	36848.09
895.532	39033.3
895.906	40104.53
896.281	41040.78
896.655	40390.73
897.029	46158.96
897.402	48064.67
897.776	53507.69
898.15	53318.17
898.524	52761.91
898.898	53467.48
899.271	59850.48
899.645	51820.53
900.018	49779.59
900.392	51630.94
900.765	52042.09
901.138	48134.63
901.511	47416.64
901.884	43549.39
902.258	40197.66
902.631	41549.4
903.003	47823.05
903.376	43145.36
903.749	48397.83
904.122	51811.23
904.495	57056.56
904.867	57786.41
905.24	50171.62
905.612	46725.85
905.985	47779.16
906.357	49980.08
906.729	47690.86
907.102	40718.58
907.474	39166.84
907.846	39418.91
908.218	38908.28
908.59	34375.59
908.962	33241.66
909.334	35803.2
909.705	37600.26
910.077	36513.44
910.449	37984.95
910.82	39053.61
911.192	42987.13
911.563	44669.15
911.935	47808.85
912.306	47847.09
912.677	49424.24
913.048	48920.84
913.419	53078.36
913.79	53360.07
914.161	57217.72
914.532	54678.52
914.903	50240.79
915.274	47717.35
915.645	47028.21
916.015	41397.68
916.386	39487.62
916.756	42002.94
917.127	43324.55
917.497	38710
917.868	42157.57
918.238	40066.08
918.608	41233.63
918.978	42082.16
919.348	44598.21
919.718	46077.2
920.088	44380.67
920.458	46085.89
920.828	48537.46
921.198	46018.25
921.567	49177.07
921.937	38079
922.306	38434.67
922.676	41448.01
923.045	34599.2
923.415	32843.44
923.784	29899.61
924.153	30740.37
924.522	30720.91
924.891	28872.99
925.26	30946.88
925.629	30211.63
925.998	34735.12
926.367	33897.12
926.736	32268.28
927.104	38432.28
927.473	41333
927.842	49929.97
928.21	49464.26
928.578	52018.15
928.947	49193.3
929.315	49484.34
929.683	58026.31
930.051	58456.68
930.42	67873.76
930.788	58016.48
931.156	57604.48
931.523	53997.33
931.891	49907.38
932.259	47906.85
932.627	55545.21
932.994	78635
933.362	65025.97
933.729	56486.04
934.097	54103.35
934.464	45860
934.831	52967.4
935.199	52201.36
935.566	50640.81
935.933	51419.84
936.3	62325.22
936.667	48538.02
937.034	43772.58
937.401	43293.63
937.767	37389.62
938.134	33299.28
938.501	46919.35
938.867	50005.35
939.234	84545.79
939.6	72120.94
939.967	79265.24
940.333	53049.7
940.699	45106.17
941.065	36190.82
941.431	47452.7
941.798	45719.65
942.163	60042.01
942.529	37562.42
942.895	34539.49
943.261	22322.57
943.627	29288.02
943.992	25618.55
944.358	25664.46
944.723	25730.41
945.089	25067.82
945.454	23129.83
945.82	24708.65
946.185	23712.82
946.55	27421.84
946.915	24599.41
947.28	28865.28
947.645	25403.99
948.01	23465.71
948.375	24446.81
948.74	29344.63
949.104	34234.93
949.469	49466.96
949.834	87298.53
950.198	82751.71
950.562	49596.48
950.927	41286.96
951.291	49715.92
951.655	42365.79
952.02	39790.12
952.384	30098.08
952.748	26195.83
953.112	25531.59
953.476	22211.35
953.839	20541.31
954.203	20325.49
954.567	25423.14
954.931	40117.45
955.294	34328.64
955.658	34498.26
956.021	58702.57
956.385	99581.57
956.748	146925.97
957.111	227968.14
957.474	255991.46
957.837	288529.66
958.2	218419.49
958.563	78557.56
958.926	53063.92
959.289	80514.79
959.652	89986.34
960.015	67512.54
960.377	96840.06
960.74	110595.23
961.102	190902.78
961.465	204971.31
961.827	109796.56
962.189	210809.88
962.552	146183.95
962.914	117227.06
963.276	75964.5
963.638	62796.27
964	62171.04
964.362	42057.55
964.724	40601.94
965.085	28990.55
965.447	23758.82
965.809	27058.19
966.17	27090.62
966.532	29329.43
966.893	26894.58
967.255	24480.3
967.616	28899.1
967.977	23157.33
968.338	25280.3
968.699	20795.84
969.061	20776.4
969.421	20913.36
969.782	23477.44
970.143	19835.79
970.504	20553.16
970.865	23372.19
971.225	23924.89
971.586	23415.28
971.946	33357.48
972.307	28965.57
972.667	37840.83
973.027	38988.38
973.388	47285.47
973.748	32161.52
974.108	35042
974.468	47377.01
974.828	36569.79
975.188	28162.9
975.548	25863.36
975.907	21724.79
976.267	24350.37
976.627	20491.37
976.986	21244.44
977.346	20259.4
977.705	19498.82
978.064	17747.03
978.424	14778.37
978.783	15261.93
979.142	17418.9
979.501	16668.49
979.86	17615.69
980.219	17008.11
980.578	21937.08
980.937	24536.97
981.296	21873.35
981.654	22490.48
982.013	35047.89
982.371	45523.76
982.73	42562.1
983.088	48191.28
983.447	51577.31
983.805	73752.11
984.163	154012.86
984.521	170759.09
984.879	250588.37
985.237	-407836.15
985.595	393284.1
985.953	97682.58
986.311	56380.12
986.669	32734.83
987.026	28272.08
987.384	37965.08
987.741	39297.41
988.099	28046.95
988.456	22352.9
988.814	20936.26
989.171	18186.27
989.528	17958.79
989.885	18951.05
990.242	15003.15
990.599	18678.29
990.956	15268.27
991.313	10673.2
991.67	8740.3
992.027	9292.81
992.383	8267.26
992.74	7242.35
993.096	7604.58
993.453	7890.84
993.809	8183.3
994.165	10915.15
994.522	10009.63
994.878	11025.63
995.234	13856.03
995.59	13695.03
995.946	12936.1
996.302	14774.66
996.658	17112.69
997.013	18867.81
997.369	22362.37
997.725	28647.7
998.08	18543.16
998.436	28591.98
998.791	39433.16
999.147	39332.44
999.502	42843.16
999.857	31133.22
1000.212	50665.2
1000.567	72235.54
1000.922	41637.9
1001.277	26428.96
1001.632	19589.51
1001.987	25244.67
1002.342	18091.03
1002.696	14493.8
1003.051	11562.38
1003.406	14042.64
1003.76	14015.55
1004.114	13835.12
1004.469	11614.51
1004.823	9614.96
1005.177	10393.68
1005.531	8236.44
1005.885	7306.67
1006.239	8255.03
1006.593	10353.66
1006.947	13862.5
1007.301	10388.06
1007.655	11308.52
1008.008	8298.71
1008.362	9328.92
1008.715	13316.84
1009.069	12106.4
1009.422	18193.48
1009.776	36536.7
1010.129	24272.92
1010.482	20210.34
1010.835	17107.61
1011.188	35574.3
1011.541	33559.82
1011.894	-205524.53
1012.247	604161.73
1012.6	41076.24
1012.952	25871.46
1013.305	13355.99
1013.657	9603.96
1014.01	9097.71
1014.362	7533.57
1014.715	6682.81
1015.067	5822.87
1015.419	5667.33
1015.771	5013.99
1016.123	4459.33
1016.475	4599.43
1016.827	4895.85
1017.179	5261.3
1017.531	5310.05
1017.883	5423.76
1018.234	5217.65
1018.586	6588.14
1018.938	6972.32
1019.289	9617.81
1019.64	10983.68
1019.992	10241.76
1020.343	9371.14
1020.694	7398.77
1021.045	6570.64
1021.396	7522.17
1021.747	8060.09
1022.098	9700.71
1022.449	7040.11
1022.8	6539.67
1023.151	4574.95
1023.501	4056.51
1023.852	4411.62
1024.202	4549.69
1024.553	4998.54
1024.903	4872.1
1025.253	4156.76
1025.604	3751.26
1025.954	4650.33
1026.304	5663.91
1026.654	6585.46
1027.004	9685.49
1027.354	15665.15
1027.703	14714.49
1028.053	19466.59
1028.403	28361.52
1028.753	41029.25
1029.102	55507.56
1029.452	283298.41
1029.801	12180.97
1030.15	7860.25
1030.499	6676.78
897.758	3057.1
901.051	3037.09
904.343	3079.06
907.636	3070.37
910.928	3138.75
914.22	3040.76
917.511	3050.17
920.803	3131.96
924.094	3171.27
927.384	3128.37
930.675	3097.76
933.965	3043.55
937.255	3040.05
940.544	3004.08
943.834	2890.84
947.123	2843.72
950.411	2948.41
953.7	2914.52
956.988	2862.96
960.276	2813.21
963.563	2924.35
966.851	2906.5
970.138	2980.36
973.424	2959.95
976.711	2907.98
979.997	3120.39
983.283	3142.09
986.568	3023.34
989.853	3064.49
993.138	3095.44
996.423	3168.23
999.708	3086.05
1002.992	3190.54
1006.275	2953.78
1009.559	3043.54
1012.842	3172.94
1016.125	3089.85
1019.408	3065.9
1022.69	3179.35
1025.972	3184.03
1029.254	3156.54
1032.536	3063.82
1035.817	3109.43
1039.098	3021.32
1042.379	3249.69
1045.659	3214.12
1048.939	3136.25
1052.219	3167.38
1055.498	3199.97
1058.778	3175.92
1062.057	3166.41
1065.335	3183.4
1068.614	3211.11
1071.892	3179.83
1075.17	3277.99
1078.447	3256.03
1081.724	3243.17
1085.001	3286.68
1088.278	3260.89
1091.554	3277.57
1094.83	3275.45
1098.106	3300.81
1101.382	3357.47
1104.657	3361.57
1107.932	3353.44
1111.206	3305.16
1114.481	3267
1117.755	3276.18
1121.029	3243.08
1124.302	3286.35
1127.575	3223.18
1130.848	3200.79
1134.121	3154.66
1137.393	3093.6
1140.665	3169.8
1143.937	3140.47
1147.208	3079.68
1150.48	3099.82
1153.75	3079.08
1157.021	3142.88
1160.291	3107.17
1163.561	3144.57
1166.831	3159.65
1170.101	3193.33
1173.37	3186.63
1176.639	3113.3
1179.907	3190.76
1183.176	3211.4
1186.444	3226.1
1189.711	3260.17
1192.979	3260.19
1196.246	3217.79
1199.513	3242.37
1202.78	3235.18
1206.046	3240.92
1209.312	3267.11
1212.578	3299.1
1215.843	3234.53
1219.108	3218.02
1222.373	3238.16
1225.638	3190.34
1228.902	3166.84
1232.166	3139.39
1235.43	3111.31
1238.693	3133.56
1241.956	3138.03
1245.219	3164.02
1248.482	3168.09
1251.744	3157.35
1255.006	3332.85
1258.268	3296.48
1261.529	3230.06
1264.79	3245.02
1268.051	3359.02
1271.312	3384.23
1274.572	3334.65
1277.832	3328.46
1281.092	3329.71
1284.351	3283.68
1287.61	3258.23
1290.869	3150.69
1294.128	3106.55
1297.386	3237.4
1300.644	3218.77
1303.902	3229.8
1307.159	3080.32
1310.416	3139.41
1313.673	3153.98
1316.93	3130.91
1320.186	3190.16
1323.442	3242.73
1326.697	3224.28
1329.953	3228.56
1333.208	3237.72
1336.463	3226.09
1339.717	3145.52
1342.972	3263.21
1346.226	3254.32
1349.479	3171.69
1352.733	3126.05
1355.986	3170.24
1359.238	3140.7
1362.491	3135.98
1365.743	3144.6
1368.995	3144.8
1372.247	3154.85
1375.498	3178.84
1378.749	3204.4
1382	3159.52
1385.251	3232.03
1388.501	3201.19
1391.751	3165.95
1395	3143
1398.25	3179.17
1401.499	3172.5
1404.748	3076.59
1407.996	3034.65
1411.244	3020.52
1414.492	2997.14
1417.74	2966.79
1420.987	2983.46
1424.234	3032.52
1427.481	3032.42
1430.728	3089.52
1433.974	3061.93
1437.22	3092.66
1440.465	3101.57
1443.711	3073.37
1446.956	3114.68
1450.201	3121.39
1453.445	3168.32
1456.689	3133.03
1459.933	3151.43
1463.177	3177.75
1466.42	3147.67
1469.663	3125.8
1472.906	3097.65
1476.148	3221.47
1479.391	3132.98
1482.633	3115.56
1485.874	3114.52
1489.115	3082.22
1492.356	3110.55
1495.597	3079.29
1498.838	3088.83
1502.078	3041.14
1505.318	2972.23
1508.557	3021.72
1511.797	2954.53
1515.036	3093.28
1518.274	3081.93
1521.513	3065.06
1524.751	3098.49
1527.989	3098.75
1531.227	3109.76
1534.464	3082.43
1537.701	3130.2
1540.938	3157.06
1544.174	3117.35
1547.41	3125.29
1550.646	3164.23
1553.882	3185.43
1557.117	3243.06
1560.352	3262.49
1563.587	3216.69
1566.821	3167.99
1570.055	3225.57
1573.289	3189.84
1576.523	3282.04
1579.756	3279.73
1582.989	3294.14
1586.222	3256.1
1589.454	3305.73
1592.686	3269.17
1595.918	3291.67
1599.15	3274.16
1602.381	3376.51
1605.612	3305.35
1608.843	3403.36
1612.073	3311.88
1615.303	3293.03
1618.533	3279.17
1621.762	3283.93
1624.992	3285.91
1628.221	3253.3
1631.449	3236.98
1634.678	3324.38
1637.906	3268.24
1641.134	3321.17
1644.361	3266.57
1647.588	3247.99
1650.815	3262.45
1654.042	3257.12
1657.269	3291.06
1660.495	3234.27
1663.72	3206.37
1666.946	3188.02
1670.171	3095.94
1673.396	3073.28
1676.621	3071.88
1679.845	3116.72
1683.069	3150.47
1686.293	3204.5
1689.517	3159.3
1692.74	3064.73
1695.963	3085.36
1699.185	3157.5
1702.408	3113.13
1705.63	3166.25
1708.852	3172.3
1712.073	3143.05
1715.294	3103.7
1718.515	3166.64
1721.736	3102.9
1724.956	3097.13
1728.176	3127.44
1731.396	3149.22
1734.616	3139
1737.835	3153.47
1741.054	3148.36
1744.272	3143.62
1747.491	3159.95
1750.709	3243.1
1753.927	3119.04
1757.144	3183.39
1760.361	3216.46
1763.578	3230.66
1766.795	3161.91
1770.011	3183.63
1773.227	3243.07
1776.443	3264.21
1779.658	3307.4
1782.874	3257.1
1786.089	3221.39
1789.303	3224.84
1792.518	3237.86
1795.732	3227.99
1798.945	3227.75
1802.159	3290.87
1805.372	3156.31
1808.585	3126.47
1811.797	3131.72
1815.01	3209.12
1818.222	3206.14
1821.434	3113.82
1824.645	3209.77
1827.856	3165
1831.067	3205.4
1834.278	3164.49
1837.488	3142.79
1840.698	3316.94
1843.908	3225.16
1847.117	3186.84
1850.326	3025.13
1853.535	3158.9
1856.744	3251.25
1859.952	3137.02
1863.16	3140.84
1866.368	3169.59
1869.575	3280.56
1872.782	3170.22
1875.989	3113.66
1879.196	3231.89
1882.402	3223.25
1885.608	3270.56
1888.814	3136.68
1892.019	3021.9
1895.224	3073.12
1898.429	3070.25
1901.634	3039.48
1904.838	3024.7
1908.042	3068.63
1911.246	3072.31
1914.449	2973.52
1917.652	2986.79
1920.855	2973.32
1924.058	3046.36
1927.26	3072.69
1930.462	3109.22
1933.664	3121.33
1936.865	3055.72
1940.066	3051.03
1943.267	3002.05
1946.467	3024.21
1949.668	3058.85
1952.868	3119.39
1956.067	3083.67
1959.267	3009.89
1962.466	3042.72
1965.665	3026.14
1968.863	3027.83
1972.061	3055.65
1975.259	3061.79
1978.457	3141.62
1981.654	3095.37
1984.852	3091.88
1988.048	3008.14
1991.245	3022.86
1994.441	3101.77
1997.637	3112.31
2000.833	3096.68
2004.028	3137.28
2007.223	3181.63
2010.418	3145.26
2013.613	3118.23
2016.807	3064.64
2020.001	3087.73
2023.194	3151.74
2026.388	3117.93
2029.581	3068.56
2032.774	3101.64
2035.966	3096.99
2039.158	3014.54
2042.35	3050.63
2045.542	2978.71
2048.733	3099.06
2051.924	3153.4
2055.115	3193.43
2058.306	3116.28
2061.496	3182.07
2064.686	3257.51
2067.875	3181.08
2071.065	3212.26
2074.254	3247.24
2077.442	3196.19
2080.631	3297.29
2083.819	3146.48
2087.007	3118.24
2090.195	3072.49
2093.382	3127.83
2096.569	3105
2099.756	3047.96
2102.942	3052.03
2106.128	3042.64
2109.314	3038.3
2112.5	2980.92
2115.685	2965.04
2118.87	2979.88
2122.055	3047.53
2125.239	3000.78
2128.424	2959.27
2131.608	3105.76
2134.791	3090.12
2137.974	3169.9
2141.157	3150.64
2144.34	3082.62
2147.523	3121.19
2150.705	3121.61
2153.887	3111.42
2157.068	3040.18
2160.25	3065.24
2163.431	3120.78
2166.611	3040.23
2169.792	3050.47
2172.972	2925.48
2176.152	3036.86
2179.331	3078.8
2182.511	3040.84
2185.69	3072.21
2188.868	3058.98
2192.047	3135.73
2195.225	3099.85
2198.403	3048.81
2201.58	3046.24
2204.758	3049.9
2207.935	3141.85
2211.111	2999.02
2214.288	2979.15
2217.464	3023.68
2220.64	3018.11
2223.815	3076.96
2226.991	2987.06
2230.166	3009.2
2233.34	3022.61
2236.515	3062.2
2239.689	3141.09
2242.863	3080.33
2246.036	3141.83
2249.209	3158.97
2252.382	3210.15
2255.555	3174.88
2258.727	3099.37
2261.9	3147.62
2265.071	3139.4
2268.243	3150.02
2271.414	3066.62
2274.585	3007
2277.756	3079.83
2280.926	3040.04
2284.096	3094.11
2287.266	2978.61
2290.436	3039.93
2293.605	3077.18
2296.774	3100.22
2299.942	3136.77
2303.111	3153.86
2306.279	3196.49
2309.447	3188.71
2312.614	3163.85
2315.781	3176.22
2318.948	3136.82
2322.115	3175.92
2325.281	3082.62
2328.447	3117.32
2331.613	3096.49
2334.779	3054.2
2337.944	3062.67
2341.109	3055.6
2344.274	3030.57
2347.438	2997.78
2350.602	3026.63
2353.766	3050.79
2356.929	3033.72
2360.092	3080.99
2363.255	3010.89
2366.418	2914.01
2369.58	3068.58
2372.742	2778.59
2375.904	2809.95
2379.066	2776.24
2382.227	2823.47
2385.388	2786.64
2388.548	2686.65
2391.709	2754.17
2394.869	2722.73
2398.029	2867.77
2401.188	2897.18
2404.347	2804.66
2407.506	2998.75
2410.665	3025.02
2413.823	3049.51
2416.981	2983.13
2420.139	3028.52
2423.296	3087.39
2426.453	3061.33
2429.61	3092.95
2432.767	2986.56
2435.923	3031.55
2439.079	2942.93
2442.235	3020.81
2445.391	2930.97
2448.546	2942.47
2451.701	3008.77
2454.855	2954.54
2458.009	3031.62
2461.163	3048.85
2464.317	2992.28
2467.471	3035.72
2470.624	3076.43
2473.777	3099.83
2476.929	3095.27
2480.082	3123.15
2483.234	3087.61
2486.385	2994.18
2489.537	2989.81
2492.688	2921.05
2495.839	2942.67
2498.989	2944.52
2502.14	2924.49
2505.29	2897.74
2508.439	2925.94
2511.589	2833.67
2514.738	2861.96
2517.887	2892.11
2521.035	3010.62
2524.183	3011.63
2527.331	2984.06
2530.479	2935.16
2533.627	2954.6
