Data from N_2_DIV_IL_4N_Splice17_12-35-29-847.txt Node
Date: Sat Mar 14 12:35:29 EDT 2020
User: sa697716
Spectrometer: FLMS03696
Trigger mode: 0
Integration Time (sec): 3.180400E-1
Scans to average: 20
Electric dark correction enabled: true
Nonlinearity correction enabled: true
Boxcar width: 5
XAxis mode: Wavelengths
Number of Pixels in Spectrum: 2048
>>>>>Begin Spectral Data<<<<<
187.83	-312206.65
188.298	2246.05
188.766	1249.86
189.233	1112.51
189.701	1555.35
190.169	2214.2
190.636	816.74
191.104	695.29
191.571	93.22
192.039	-91.95
192.506	-176.33
192.974	284.44
193.441	-538.74
193.908	63.7
194.375	4.79
194.842	6.74
195.31	74.2
195.777	146.47
196.244	389.31
196.711	447.18
197.177	553.79
197.644	787.74
198.111	1393.32
198.578	1988.85
199.045	1578.15
199.511	2592.56
199.978	3044.84
200.445	2593.04
200.911	2863.62
201.378	3181.45
201.844	2894.1
202.31	4948.5
202.777	5169.98
203.243	2858.19
203.709	2695.31
204.176	3223.92
204.642	2684.78
205.108	2532.02
205.574	2068.4
206.04	1884.28
206.506	1758.36
206.972	1654.5
207.438	1598.32
207.903	1797.08
208.369	1577.55
208.835	1579.13
209.301	1653.48
209.766	1686.69
210.232	1661.28
210.697	2059.06
211.163	2566.31
211.628	3927.27
212.094	3331.87
212.559	4167.75
213.024	2631.78
213.49	3224.45
213.955	3170.27
214.42	3123.05
214.885	2905.64
215.35	2816.65
215.815	2749.52
216.28	2928.65
216.745	2402.78
217.21	2608.23
217.675	2413.84
218.14	2755.78
218.604	3137.23
219.069	3654.85
219.534	3900.85
219.998	4612.1
220.463	5674.68
220.927	7098.33
221.392	6778.71
221.856	6936.73
222.32	8868.7
222.785	11034.78
223.249	14015.4
223.713	15786.4
224.177	15874.54
224.642	20474.25
225.106	25346.88
225.57	27814.77
226.034	20710.31
226.497	31649.85
226.961	28640.91
227.425	33417.16
227.889	37247.99
228.353	37326.06
228.816	77167.42
229.28	74041.38
229.744	62649.02
230.207	38136.89
230.671	37623.37
231.134	62474.15
231.597	72077.39
232.061	72301.55
232.524	70745.87
232.987	48801.35
233.45	44003.35
233.914	39542.86
234.377	40625.68
234.84	37217.79
235.303	43976.07
235.766	49141.08
236.229	50827.4
236.691	32065.19
237.154	36053.51
237.617	27143.78
238.08	27841.82
238.542	32619
239.005	23346.32
239.468	23148.11
239.93	21841.71
240.393	19881.7
240.855	17444.97
241.317	17892.78
241.78	21796.35
242.242	22556.41
242.704	24342.64
243.166	21209.81
243.629	19262.53
244.091	22201.76
244.553	24353.9
245.015	26173.5
245.477	33859.21
245.939	49711.61
246.4	52783.41
246.862	51369.62
247.324	48472.47
247.786	54326.27
248.247	71180.75
248.709	73609.3
249.17	55089.93
249.632	51967.38
250.093	60305.79
250.555	52104.7
251.016	31780.67
251.477	30146.89
251.939	32512.58
252.4	34100.77
252.861	40567.48
253.322	37754.78
253.783	44934.65
254.244	58281.08
254.705	45942.66
255.166	40881.24
255.627	40253.14
256.088	56793.92
256.549	60348.5
257.009	52018.64
257.47	63176.53
257.931	51417.24
258.391	38502.48
258.852	39699.83
259.312	41606.15
259.773	51388.03
260.233	43416.37
260.694	36613.44
261.154	41527.71
261.614	33297.92
262.074	29756.66
262.534	30906.42
262.994	29112.59
263.455	38780.94
263.915	32655.31
264.374	30784.86
264.834	33594.48
265.294	37205.74
265.754	38530.08
266.214	36457.67
266.673	34161.63
267.133	43124.51
267.593	42765.95
268.052	52304.94
268.512	45494.47
268.971	54810.45
269.431	60040.03
269.89	53769.45
270.349	80641.9
270.809	89867.95
271.268	80789.27
271.727	181213.52
272.186	117329.72
272.645	87987.17
273.104	63483.32
273.563	91946.56
274.022	72321.42
274.481	61486.1
274.94	47393.75
275.399	35194.75
275.857	40973.81
276.316	55375.86
276.775	49254.42
277.233	48481.37
277.692	45357.59
278.15	51322.03
278.609	52734.05
279.067	48789.27
279.525	45317.35
279.984	58485.09
280.442	70237.53
280.9	69210.11
281.358	45525.03
281.816	42450.41
282.274	41564.79
282.732	42954.83
283.19	43179.56
283.648	37277.92
284.106	39719.97
284.564	40416.51
285.021	37468.57
285.479	27956.25
285.937	25441.95
286.394	22331.76
286.852	22988.43
287.309	24174.95
287.767	23347.78
288.224	22209.65
288.682	24396.66
289.139	26761.61
289.596	24499.39
290.053	25488.31
290.511	32195.82
290.968	39068.02
291.425	53065.26
291.882	44141.71
292.339	38431.49
292.796	38159.17
293.252	35987.5
293.709	28611.67
294.166	25683.52
294.623	28414.18
295.079	27269.92
295.536	27398.55
295.992	24868.74
296.449	24598.34
296.905	25585.88
297.362	24554.78
297.818	25852.15
298.274	26804.62
298.731	27320.56
299.187	27075.39
299.643	29080.92
300.099	35208.53
300.555	38663.39
301.011	32373.67
301.467	31238.95
301.923	36626.23
302.379	35778.2
302.835	35181.61
303.291	35240.87
303.746	40135.61
304.202	50721.4
304.658	50949.77
305.113	34288.1
305.569	33602.13
306.024	35818.75
306.479	34124.02
306.935	28755.1
307.39	31448.48
307.845	29038.78
308.301	29277.02
308.756	28548.8
309.211	27502.72
309.666	28183.95
310.121	34984.37
310.576	35504.77
311.031	35241.47
311.486	40358.44
311.94	40374.68
312.395	54000.97
312.85	101594.69
313.305	499330.06
313.759	2583681.13
314.214	187180.33
314.668	148599.04
315.123	124911.86
315.577	44785.02
316.032	39867.05
316.486	50001.98
316.94	39395.94
317.394	27421.98
317.849	21322.18
318.303	20190.96
318.757	19056.83
319.211	21094.72
319.665	18465.3
320.119	18706.23
320.572	26856.25
321.026	25100.09
321.48	20896.2
321.934	22819.86
322.387	22870.89
322.841	24717.38
323.295	22199.22
323.748	25611.28
324.202	25967.43
324.655	31157.61
325.108	43498.37
325.562	30733.52
326.015	36555.62
326.468	27638
326.921	30931.66
327.374	28876.55
327.827	30052.9
328.28	34034.14
328.733	22770.58
329.186	20055.86
329.639	19143.34
330.092	16160.64
330.545	15391.98
330.997	15497.45
331.45	16934.45
331.903	19828.06
332.355	34107.38
332.808	33164.33
333.26	27379.29
333.713	29773.52
334.165	29967.81
334.617	39987.9
335.069	32330.71
335.522	58472.39
335.974	64797.39
336.426	59259.87
336.878	41112.08
337.33	20825.96
337.782	20325.78
338.234	25446.05
338.686	30439.22
339.137	36077.43
339.589	33966.11
340.041	26598.03
340.493	22870.52
340.944	23435.33
341.396	25238.11
341.847	21204.6
342.299	25019.17
342.75	30534.61
343.201	26682.35
343.653	30710.67
344.104	37768.9
344.555	29718.91
345.006	46292.72
345.457	35432.32
345.908	28215.5
346.359	26535.46
346.81	21626.92
347.261	22839.31
347.712	22511.54
348.163	24134.21
348.613	24390.49
349.064	22787.95
349.515	19974.33
349.965	20503.29
350.416	24704.92
350.866	27067.01
351.317	30598.15
351.767	50633.79
352.217	63918.01
352.668	52992.74
353.118	48589.89
353.568	46913.78
354.018	37057.95
354.468	39074.97
354.918	27988.28
355.368	24482.53
355.818	34613.86
356.268	99632.54
356.718	417037.55
357.168	103824.94
357.617	52158.09
358.067	58043.94
358.517	54411.9
358.966	63785.02
359.416	71487.8
359.865	77327.26
360.315	92181.31
360.764	43135.9
361.213	24164.19
361.663	22926.95
362.112	28308.43
362.561	45810.21
363.01	34560.94
363.459	29076.68
363.908	31494.11
364.357	26772.68
364.806	45255.94
365.255	31115.96
365.703	28438.67
366.152	28507.57
366.601	23104.42
367.05	18746.05
367.498	17019.09
367.947	17785.69
368.395	18494.93
368.844	16360.6
369.292	19738.61
369.74	13633.53
370.189	20916.73
370.637	24519.45
371.085	21150.43
371.533	25743.94
371.981	24812.07
372.429	23601.25
372.877	24579.72
373.325	20573.91
373.773	20976.4
374.221	18659.8
374.669	23141.29
375.116	19959.25
375.564	20109.95
376.012	22511.48
376.459	18571.46
376.907	22223.74
377.354	26888.43
377.801	25072.28
378.249	28846.33
378.696	36860.7
379.143	44636.18
379.591	47679.56
380.038	80668.13
380.485	58346.62
380.932	63001.73
381.379	57574.61
381.826	42296.58
382.273	30065.02
382.72	26264.76
383.166	25556.75
383.613	16569.02
384.06	14915.61
384.506	17222.99
384.953	12640.11
385.4	12723.05
385.846	11132.1
386.292	10859.17
386.739	10637.55
387.185	10512.37
387.631	10516.22
388.078	10193.32
388.524	10911.15
388.97	10100.84
389.416	8417.38
389.862	8951.65
390.308	8461.47
390.754	8581.12
391.2	9305.34
391.645	9513.45
392.091	9087.3
392.537	8784.07
392.983	8804.62
393.428	8647.05
393.874	9255.85
394.319	9285.19
394.765	8790.27
395.21	9041.04
395.655	8486.27
396.101	7936.67
396.546	7155.43
396.991	7224.21
397.436	6698.52
397.881	6459.11
398.326	6109.74
398.771	5763.1
399.216	5032.34
399.661	4526.48
400.106	4500.2
400.551	4592.63
400.995	4109.84
401.44	4060.89
401.885	3812.73
402.329	3849.68
402.774	3691.39
403.218	3568.79
403.663	3441.11
404.107	3535.19
404.551	3558.8
404.995	3257.88
405.44	3136.87
405.884	3185.35
406.328	3078.83
406.772	3064.28
407.216	2788.24
407.66	2690.65
408.104	2555.09
408.547	2386.48
408.991	2305.4
409.435	2215.53
409.879	2186.18
410.322	2155.98
410.766	2079.72
411.209	1978.2
411.653	1898.68
412.096	1856.2
412.54	1854.82
412.983	1839.38
413.426	1841.39
413.869	1840.1
414.312	1803.14
414.756	1735.88
415.199	1653.22
415.642	1602.88
416.085	1602.4
416.527	1588.59
416.97	1612.11
417.413	1527.8
417.856	1511.61
418.298	1493.14
418.741	1481.43
419.184	1479.71
419.626	1539.43
420.069	1539.81
420.511	1547.34
420.953	1509.29
421.396	1493.54
421.838	1454.93
422.28	1487.6
422.722	1494.29
423.164	1517.46
423.606	1490.92
424.048	1485.32
424.49	1411.32
424.932	1401.75
425.374	1383.39
425.816	1410.89
426.258	1434.69
426.699	1450.79
427.141	1428.79
427.582	1450.26
428.024	1444.17
428.465	1437.46
428.907	1401.13
429.348	1384.27
429.789	1384.84
430.231	1356.03
430.672	1374.8
431.113	1345.78
431.554	1326.04
431.995	1294.72
432.436	1249.44
432.877	1221.13
433.318	1198.68
433.759	1195.46
434.2	1195.5
434.64	1183.86
435.081	1186.68
435.522	1123.22
435.962	1081.48
436.403	1058.38
436.843	1074.08
437.284	1049.31
437.724	1022.61
438.164	1025.35
438.604	999.92
439.045	961.68
439.485	922.93
439.925	902.95
440.365	881.28
440.805	869.65
441.245	858.7
441.685	825.3
442.125	820.55
442.564	823.94
443.004	804.63
443.444	805.27
443.883	806.47
444.323	799.75
444.762	800.95
445.202	812.25
445.641	827.52
446.081	823.03
446.52	830.75
446.959	821.6
447.398	802.26
447.837	793.57
448.276	779.11
448.716	786.39
449.154	794.12
449.593	776.57
450.032	771.02
450.471	756.66
450.91	758.19
451.349	757.93
451.787	755.15
452.226	767.3
452.664	766.64
453.103	768.22
453.541	767.63
453.98	766.05
454.418	770.49
454.856	759.33
455.295	758.56
455.733	762.56
456.171	765.15
456.609	765.69
457.047	764.93
457.485	776.79
457.923	777.95
458.361	767.31
458.798	770.49
459.236	768.34
459.674	774.88
460.111	778.13
460.549	771.15
460.987	769.23
461.424	767.41
461.862	764.09
462.299	753.14
462.736	752.97
463.173	756.3
463.611	747.27
464.048	745.81
464.485	752.43
464.922	745.32
465.359	741.07
465.796	732.23
466.233	726.3
466.67	718.44
467.106	714.23
467.543	706.75
467.98	696.46
468.416	677.52
468.853	672.71
469.29	651.81
469.726	644.58
470.162	628
470.599	618.24
471.035	612.5
471.471	597.9
471.907	595.17
472.344	591.32
472.78	592.27
473.216	599.72
473.652	591.47
474.088	589.58
474.523	587.76
474.959	592.65
475.395	587.21
475.831	583.57
476.266	586.21
476.702	584.27
477.138	577.53
477.573	576.73
478.008	575
478.444	577.76
478.879	583.09
479.314	584.45
479.75	584.11
480.185	587.28
480.62	592.7
481.055	596.3
481.49	600.87
481.925	609.42
482.36	619.72
482.795	636.49
483.229	652.64
483.664	665.65
484.099	668.92
484.534	679.66
484.968	685.71
485.403	687.38
485.837	686.02
486.271	684.65
486.706	686.13
487.14	677.73
487.574	667.09
488.009	661.3
488.443	655.23
488.877	662.02
489.311	663.97
489.745	671.43
490.179	678.05
490.613	691.24
491.046	696.12
491.48	700.06
491.914	700.74
492.348	705.41
492.781	709.66
493.215	711.33
493.648	711.73
494.082	716.47
494.515	716.25
494.948	722.94
495.382	727.48
495.815	732.43
496.248	737.97
496.681	750.96
497.114	761.93
497.547	771.51
497.98	784.13
498.413	790.26
498.846	798.87
499.279	806.97
499.711	811.55
500.144	812
500.577	821.49
501.009	831.68
501.442	839.45
501.874	839.97
502.306	840.37
502.739	847.57
503.171	861.63
503.603	864.31
504.036	873.44
504.468	877.63
504.9	888.07
505.332	894.01
505.764	896.95
506.196	904.29
506.627	917.79
507.059	931.41
507.491	939.79
507.923	937.14
508.354	951.74
508.786	961.16
509.217	978.8
509.649	993.19
510.08	1010.9
510.512	1026.69
510.943	1040.37
511.374	1051.17
511.805	1070.12
512.237	1087.56
512.668	1118.42
513.099	1144.65
513.53	1170.06
513.961	1189.35
514.391	1219.8
514.822	1251.59
515.253	1285.82
515.684	1309.66
516.114	1337.06
516.545	1357.2
516.975	1381.62
517.406	1398.51
517.836	1399.56
518.267	1405.67
518.697	1421.41
519.127	1424.08
519.558	1430.3
519.988	1433.01
520.418	1442.92
520.848	1460.34
521.278	1467.41
521.708	1476.01
522.138	1487.66
522.567	1518.15
522.997	1542.79
523.427	1558.08
523.857	1575.47
524.286	1585.51
524.716	1600.44
525.145	1618.47
525.575	1629.27
526.004	1643.54
526.433	1643.59
526.863	1642.44
527.292	1630.89
527.721	1636.17
528.15	1640.95
528.579	1640.83
529.008	1650.61
529.437	1672.14
529.866	1684.81
530.295	1700.7
530.724	1712.44
531.152	1739.31
531.581	1753.89
532.01	1771.66
532.438	1778.78
532.867	1792.58
533.295	1810.23
533.723	1816.37
534.152	1814.33
534.58	1814.17
535.008	1797.77
535.436	1800.12
535.865	1808.43
536.293	1821.77
536.721	1837.55
537.149	1863.2
537.576	1866.71
538.004	1879.77
538.432	1886.97
538.86	1885.06
539.287	1892.06
539.715	1907.17
540.143	1909.04
540.57	1904.81
540.998	1901.49
541.425	1877.99
541.852	1856.3
542.28	1854.13
542.707	1837.47
543.134	1822.66
543.561	1819.21
543.988	1811.46
544.415	1809.54
544.842	1804.25
545.269	1796.91
545.696	1798.47
546.123	1811.28
546.549	1800.53
546.976	1787.87
547.403	1787.09
547.829	1789.51
548.256	1789.86
548.682	1785.22
549.108	1777.32
549.535	1776.21
549.961	1777.63
550.387	1764.24
550.813	1758.79
551.24	1765.09
551.666	1765.84
552.092	1755.83
552.518	1749.49
552.943	1744.11
553.369	1752.59
553.795	1759.52
554.221	1760.28
554.646	1758.4
555.072	1770.15
555.498	1774.84
555.923	1784.97
556.349	1800.14
556.774	1808.73
557.199	1810.53
557.625	1816.67
558.05	1810.41
558.475	1820.25
558.9	1820.47
559.325	1812.54
559.75	1806.13
560.175	1800.74
560.6	1793.94
561.025	1791.07
561.449	1792.39
561.874	1797.33
562.299	1802.86
562.723	1809.74
563.148	1799.38
563.572	1802.9
563.997	1811.89
564.421	1817.21
564.846	1816.44
565.27	1819.53
565.694	1817.37
566.118	1829.12
566.542	1837.11
566.966	1830.4
567.39	1825.86
567.814	1813.97
568.238	1813.61
568.662	1817.64
569.086	1819.3
569.509	1826.8
569.933	1811.74
570.357	1805.19
570.78	1783.8
571.204	1769.61
571.627	1758.32
572.05	1756.37
572.474	1757.05
572.897	1743.89
573.32	1736.51
573.743	1726.7
574.166	1708.61
574.589	1708.29
575.012	1699.8
575.435	1699.6
575.858	1691.18
576.281	1679.29
576.704	1664
577.126	1651.57
577.549	1641.3
577.972	1631.91
578.394	1622.07
578.817	1614.97
579.239	1596.51
579.661	1583.64
580.084	1568.09
580.506	1555.55
580.928	1552
581.35	1540.41
581.772	1535.62
582.194	1521.44
582.616	1509.45
583.038	1495.21
583.46	1484.64
583.882	1482.31
584.303	1486.26
584.725	1481.08
585.147	1483.4
585.568	1494.31
585.99	1508.18
586.411	1515.68
586.833	1531.82
587.254	1533.51
587.675	1547.96
588.096	1560.74
588.518	1555.31
588.939	1539.34
589.36	1537.84
589.781	1527.18
590.202	1500.21
590.623	1489.76
591.043	1487.07
591.464	1474.93
591.885	1470.61
592.305	1466.03
592.726	1452.83
593.147	1453.91
593.567	1448.61
593.987	1441.22
594.408	1435.94
594.828	1433.51
595.248	1429.35
595.669	1411.76
596.089	1404.61
596.509	1398.89
596.929	1385.17
597.349	1385.35
597.769	1375.28
598.189	1369.55
598.608	1371.4
599.028	1374.2
599.448	1374.87
599.867	1361.49
600.287	1357.55
600.706	1353.18
601.126	1343.84
601.545	1342.86
601.965	1341.95
602.384	1338.07
602.803	1340.57
603.222	1335.77
603.641	1328.75
604.061	1325.48
604.48	1321.95
604.898	1329.78
605.317	1334.22
605.736	1335.99
606.155	1332.56
606.574	1323.86
606.992	1328.03
607.411	1323.85
607.829	1315.12
608.248	1312.38
608.666	1308.92
609.085	1307.27
609.503	1297.88
609.921	1292.24
610.339	1293.53
610.758	1292.02
611.176	1287.74
611.594	1279.44
612.012	1274.89
612.43	1278.39
612.847	1282.57
613.265	1282.79
613.683	1288.16
614.101	1288.87
614.518	1284.94
614.936	1274.42
615.353	1260.66
615.771	1256.25
616.188	1255.33
616.606	1251.99
617.023	1244.84
617.44	1232.18
617.857	1224.57
618.274	1214.68
618.691	1209.38
619.108	1199.68
619.525	1194.2
619.942	1200.85
620.359	1203.36
620.776	1198.56
621.192	1194.18
621.609	1192.46
622.026	1197.97
622.442	1203.7
622.859	1206.77
623.275	1199.94
623.691	1204.75
624.108	1216.17
624.524	1228.47
624.94	1228.7
625.356	1238.05
625.772	1250.98
626.188	1261.62
626.604	1263.26
627.02	1260.84
627.436	1260.41
627.852	1266.82
628.268	1279.51
628.683	1270.51
629.099	1262.91
629.514	1258
629.93	1261.53
630.345	1265.81
630.761	1261.76
631.176	1264.95
631.591	1258.51
632.007	1252.19
632.422	1250.2
632.837	1238.15
633.252	1236.11
633.667	1226.51
634.082	1218.25
634.497	1206
634.911	1187.28
635.326	1183.48
635.741	1168.44
636.155	1159.67
636.57	1161.36
636.984	1161.54
637.399	1164.63
637.813	1164.32
638.228	1164.1
638.642	1168.78
639.056	1160.65
639.47	1162.05
639.884	1155.86
640.298	1151.58
640.712	1150.66
641.126	1139.86
641.54	1132.91
641.954	1128.42
642.368	1118.53
642.781	1113.3
643.195	1098.27
643.609	1100.81
644.022	1097.75
644.436	1095.52
644.849	1084.05
645.262	1074.99
645.676	1077.86
646.089	1074.93
646.502	1061.67
646.915	1057.54
647.328	1041.17
647.741	1039.15
648.154	1024.73
648.567	1022.22
648.98	1009.09
649.393	1009.77
649.805	1007.02
650.218	999.58
650.631	983.55
651.043	977.27
651.456	972.07
651.868	972.23
652.28	989.25
652.693	1002.76
653.105	1007.25
653.517	1017.21
653.929	1017.79
654.341	1021.81
654.753	1009.13
655.165	1014.63
655.577	1012.45
655.989	1007.46
656.401	998.97
656.813	964.04
657.224	944.82
657.636	917.63
658.047	899.82
658.459	880.61
658.87	872.41
659.282	861.87
659.693	842.67
660.104	829.47
660.515	816.35
660.926	816.67
661.338	814.32
661.749	808.42
662.159	799.69
662.57	796.33
662.981	793.02
663.392	786.31
663.803	791.03
664.213	788.86
664.624	784.94
665.035	788.41
665.445	774.77
665.855	768.08
666.266	762.33
666.676	760.48
667.086	750.99
667.497	750.99
667.907	745.85
668.317	737.63
668.727	735.65
669.137	736.5
669.547	734.54
669.956	737.19
670.366	738.67
670.776	740.41
671.186	744.99
671.595	749.52
672.005	751.89
672.414	751.03
672.824	748.71
673.233	752.29
673.642	753.72
674.052	756.92
674.461	757.92
674.87	762.69
675.279	758.82
675.688	759.04
676.097	758.51
676.506	754.46
676.915	766.37
677.323	768.03
677.732	765.11
678.141	763.49
678.549	751.01
678.958	749.57
679.366	747.26
679.775	750.61
680.183	760.31
680.592	765.1
681	769.18
681.408	762.25
681.816	768.49
682.224	775.24
682.632	783.25
683.04	811.26
683.448	833.66
683.856	862.19
684.264	893.71
684.671	921.47
685.079	955.2
685.487	994.92
685.894	1050.27
686.302	1094.51
686.709	1129.7
687.116	1172.13
687.524	1204.13
687.931	1232.47
688.338	1253.79
688.745	1272.53
689.152	1293.41
689.559	1327.61
689.966	1360.31
690.373	1373.87
690.78	1404.63
691.187	1457.29
691.593	1494.91
692	1528.08
692.407	1579.34
692.813	1646.03
693.22	1696.46
693.626	1749.76
694.032	1793
694.439	1859.97
694.845	1911.97
695.251	1977.99
695.657	2037.4
696.063	2127.6
696.469	2195.72
696.875	2257.38
697.281	2291.42
697.687	2336.39
698.093	2374.55
698.498	2443.88
698.904	2497.37
699.31	2580
699.715	2640.79
700.12	2726.72
700.526	2745.55
700.931	2812.12
701.337	2863.5
701.742	2896.56
702.147	2977.7
702.552	3008.41
702.957	3068.86
703.362	3093.4
703.767	3122.54
704.172	3163.44
704.577	3122.58
704.981	3170.49
705.386	3188.18
705.791	3184.02
706.195	3257.72
706.6	3269.41
707.004	3348.29
707.408	3321.94
707.813	3348.03
708.217	3341.26
708.621	3347.69
709.025	3443.79
709.43	3448.4
709.834	3509.43
710.237	3578.25
710.641	3567.17
711.045	3593.17
711.449	3590.98
711.853	3621.91
712.256	3665.62
712.66	3703.76
713.064	3777.94
713.467	3822.06
713.87	3933.68
714.274	3983.76
714.677	4093.89
715.08	4254.75
715.484	4420.14
715.887	4623.62
716.29	4820.54
716.693	5027.82
717.096	5262.06
717.499	5390.02
717.901	5416.34
718.304	5444.27
718.707	5466.61
719.109	5369.47
719.512	5342.18
719.915	5210.74
720.317	5157.04
720.719	5200.93
721.122	5175.71
721.524	5132.64
721.926	5096.57
722.328	5197.21
722.731	5188.18
723.133	5220.15
723.535	5410.96
723.937	5431.46
724.338	5486.56
724.74	5530.44
725.142	5476.77
725.544	5477.28
725.945	5508.91
726.347	5507.72
726.748	5501.96
727.15	5518.75
727.551	5482.51
727.952	5456.54
728.354	5430.35
728.755	5433.33
729.156	5391.59
729.557	5375.45
729.958	5254.48
730.359	5197.42
730.76	5181.76
731.161	5123.78
731.562	5104.72
731.962	5109.83
732.363	5047.86
732.763	4985.15
733.164	5019.35
733.564	4953.28
733.965	4863.21
734.365	4832.36
734.766	4861.37
735.166	4822.45
735.566	4771.33
735.966	4745
736.366	4738.14
736.766	4680.24
737.166	4712.33
737.566	4671.42
737.966	4646.25
738.365	4683.36
738.765	4677.74
739.165	4605.36
739.564	4581.89
739.964	4627.07
740.363	4582.43
740.763	4580.02
741.162	4567.45
741.561	4536.75
741.96	4494.64
742.36	4516.13
742.759	4522.21
743.158	4558.39
743.557	4572
743.955	4610.73
744.354	4563.61
744.753	4618.63
745.152	4581.76
745.55	4636.68
745.949	4631.34
746.348	4632.07
746.746	4646.42
747.144	4606.59
747.543	4585.74
747.941	4633.4
748.339	4564.11
748.737	4558.59
749.136	4550.01
749.534	4611.49
749.932	4584.13
750.33	4606.36
750.727	4659.97
751.125	4637
751.523	4621.75
751.921	4664.17
752.318	4630.27
752.716	4688.28
753.113	4701.76
753.511	4727.6
753.908	4728.81
754.305	4711.11
754.703	4771.55
755.1	4832.41
755.497	4891.21
755.894	5077.51
756.291	5252.85
756.688	5573.95
757.085	6000.92
757.482	6606.17
757.878	7264.32
758.275	7862.23
758.672	8687.61
759.068	9357.96
759.465	10307.88
759.861	11539.63
760.258	12968.4
760.654	13707.66
761.05	13606.15
761.447	12996.52
761.843	12096.68
762.239	11165.2
762.635	10744.98
763.031	10341.55
763.427	9761
763.822	9155.77
764.218	8556.23
764.614	7773.24
765.01	7249.33
765.405	6910.63
765.801	6651.15
766.196	6324.74
766.592	6148.12
766.987	5840.45
767.382	5629.59
767.778	5544.41
768.173	5419.78
768.568	5349.03
768.963	5227.04
769.358	5245.49
769.753	5200.18
770.148	5114.37
770.542	5112.98
770.937	5079.79
771.332	5168.34
771.726	5189.73
772.121	5128.82
772.515	5179.62
772.91	5163.92
773.304	5234.09
773.699	5169.04
774.093	5222.63
774.487	5279.95
774.881	5319.27
775.275	5316.71
775.669	5275.02
776.063	5317.29
776.457	5349.95
776.851	5277.34
777.245	5268.3
777.638	5300.87
778.032	5413
778.425	5375.62
778.819	5419.58
779.212	5381.79
779.606	5341.67
779.999	5362.03
780.392	5344.69
780.786	5424.31
781.179	5443.41
781.572	5485.43
781.965	5497.82
782.358	5440.72
782.751	5498.13
783.143	5446.4
783.536	5514.26
783.929	5552.97
784.322	5661.77
784.714	5689.31
785.107	5684.41
785.499	5754.95
785.891	5734.9
786.284	5716.1
786.676	5855.11
787.068	5837.15
787.46	5892.08
787.852	5912.08
788.245	5999.55
788.636	6030.03
789.028	6100.71
789.42	6137
789.812	6144.37
790.204	6239.03
790.595	6337.66
790.987	6148.45
791.378	6171.28
791.77	6295.99
792.161	6430
792.553	6480.04
792.944	6369.99
793.335	6300.6
793.726	6377.24
794.117	6468.02
794.508	6599.23
794.899	6568.81
795.29	6702.47
795.681	6757.78
796.072	6616.06
796.463	6438.51
796.853	6453.51
797.244	6611.46
797.634	6645.74
798.025	6641.9
798.415	6655.38
798.806	6745.57
799.196	6825.56
799.586	6878.23
799.976	6839.21
800.366	7068.91
800.756	7301.41
801.146	7258.12
801.536	7280.87
801.926	7351.76
802.316	7380.76
802.706	7447.03
803.095	7325.38
803.485	7427.73
803.874	7467.61
804.264	7717.63
804.653	7689.9
805.043	7829.35
805.432	7934.82
805.821	7939.71
806.21	7960.95
806.599	8073.37
806.988	8117.03
807.377	8222.16
807.766	8346.08
808.155	8620.23
808.544	8367.94
808.933	8378.98
809.321	8362.24
809.71	8654.32
810.098	8806.69
810.487	9257.03
810.875	9727.41
811.264	9750.15
811.652	10033.86
812.04	10176.47
812.428	10341.21
812.816	11080.12
813.204	11491.35
813.592	12026.07
813.98	12346.46
814.368	12251.67
814.756	12717.9
815.144	12641
815.531	13095.68
815.919	13017.3
816.306	13317.12
816.694	13011.1
817.081	13070.76
817.469	13408.33
817.856	13408.44
818.243	13675.78
818.63	14066.75
819.017	13661.45
819.404	13720.03
819.791	14085.9
820.178	14688.73
820.565	14936.01
820.952	15849.32
821.339	15366.39
821.725	15547.55
822.112	14816.23
822.498	14779.86
822.885	14897.31
823.271	14800.38
823.657	15203.88
824.044	15217.91
824.43	15287.3
824.816	15248.92
825.202	14817.2
825.588	15802.57
825.974	15828.12
826.36	16330.05
826.746	16357.37
827.132	16716.01
827.517	16692.49
827.903	15928.03
828.289	15964.57
828.674	15209.31
829.06	15107.65
829.445	15500.9
829.83	15851.68
830.216	16308.52
830.601	16671.95
830.986	16281.03
831.371	16144.51
831.756	16684.9
832.141	16278.6
832.526	16269.22
832.911	16539.44
833.295	16430.42
833.68	16884.8
834.065	16282.47
834.449	15380.26
834.834	15302.08
835.218	15304.03
835.603	15641.37
835.987	15434.73
836.371	16243.12
836.755	16141.58
837.139	16536.38
837.524	16770.43
837.908	16594.91
838.291	16652.18
838.675	16729.67
839.059	16943.08
839.443	16917.27
839.827	16690.62
840.21	17158.73
840.594	17005.45
840.977	17211.72
841.361	17187.88
841.744	17554.28
842.127	17410.32
842.511	17648.6
842.894	18226.23
843.277	18596.28
843.66	19131.74
844.043	19203.87
844.426	18422.39
844.809	18118.35
845.191	18146.46
845.574	17703.02
845.957	17347.74
846.339	17233.48
846.722	16718.89
847.104	16778.16
847.487	16599.75
847.869	16612.74
848.252	16886.46
848.634	17207.76
849.016	17474.73
849.398	17595.91
849.78	18422.48
850.162	18428.7
850.544	18826.87
850.926	19432.18
851.307	19356.88
851.689	19627.75
852.071	20068.1
852.452	20381.36
852.834	20357.12
853.215	20731.51
853.597	20875.86
853.978	21165.68
854.359	21608.95
854.741	20657.54
855.122	20568.64
855.503	20282.32
855.884	20425.08
856.265	20356.18
856.646	20465.77
857.026	20087.51
857.407	20022.84
857.788	20176.72
858.169	20442.83
858.549	19608.58
858.93	20203.62
859.31	20246.44
859.69	20444.18
860.071	20046.47
860.451	19838.56
860.831	19125.88
861.211	20243.14
861.591	20777.79
861.971	20745.4
862.351	20930.18
862.731	21310.24
863.111	21573.75
863.491	21894.56
863.87	22746.11
864.25	23075.91
864.629	22691.44
865.009	23188.44
865.388	24011.97
865.768	25714.44
866.147	25634.47
866.526	24220.64
866.905	24506.22
867.284	25873.41
867.663	24573.8
868.042	23555.49
868.421	23478.33
868.8	23865.22
869.179	24086.85
869.558	22690.98
869.936	20926.39
870.315	21294.26
870.693	21812.6
871.072	23525.5
871.45	22409.11
871.828	22690.54
872.207	23860.87
872.585	23500.37
872.963	24137.76
873.341	23318.01
873.719	23038.16
874.097	22754.97
874.475	23181.62
874.853	23708.98
875.23	22722.19
875.608	23673.61
875.986	25607.13
876.363	24486.1
876.741	25234.51
877.118	24601.23
877.495	25807.41
877.873	26245.93
878.25	27634.55
878.627	26504.25
879.004	26887.81
879.381	26757.48
879.758	26055.18
880.135	24257.72
880.512	25648.78
880.889	24977.52
881.265	24724.75
881.642	24520.47
882.019	24918.37
882.395	24399.14
882.772	25374.56
883.148	24259.1
883.524	24166.44
883.901	24029.49
884.277	24392.13
884.653	24240.74
885.029	24947.48
885.405	27632.41
885.781	27413.75
886.157	26296.3
886.532	26628.02
886.908	26605.76
887.284	29587.06
887.659	30547.99
888.035	31491.14
888.411	32294.65
888.786	32710.85
889.161	33834.91
889.537	33200.19
889.912	34261.76
890.287	34233.32
890.662	35109.52
891.037	34481.36
891.412	32164.23
891.787	31836.09
892.162	30736.88
892.536	31453.77
892.911	30288.65
893.286	29647.77
893.66	28441.89
894.035	29164.88
894.409	31745.41
894.784	30465.5
895.158	30970.07
895.532	32804.05
895.906	33702.65
896.281	34474.88
896.655	33938.39
897.029	38768.37
897.402	40376.54
897.776	44966.98
898.15	44821
898.524	44359.34
898.898	44949.57
899.271	50316.57
899.645	43590.69
900.018	41868.08
900.392	43435.45
900.765	43782.81
901.138	40527.91
901.511	39915.64
901.884	36656.64
902.258	33813.06
902.631	34922.59
903.003	40199.88
903.376	36279.68
903.749	40681.27
904.122	43549.14
904.495	47949.71
904.867	48547.96
905.24	42131.64
905.612	39205.95
905.985	40059.08
906.357	41873.15
906.729	39951.13
907.102	34129.56
907.474	32809.35
907.846	32999.6
908.218	32554.33
908.59	28756.93
908.962	27802.93
909.334	29935.71
909.705	31433.54
910.077	30532.47
910.449	31778.09
910.82	32682.94
911.192	35945.33
911.563	37358.28
911.935	39978.36
912.306	40060.63
912.677	41364.27
913.048	40948.77
913.419	44436.15
913.79	44682.43
914.161	47923.06
914.532	45810.5
914.903	42109.93
915.274	40006.67
915.645	39398.2
916.015	34685.44
916.386	33053.5
916.756	35180.51
917.127	36305.66
917.497	32430.12
917.868	35324.28
918.238	33568.48
918.608	34556.07
918.978	35258.41
919.348	37351.42
919.718	38616.95
920.088	37182.28
920.458	38640.42
920.828	40678.62
921.198	38569.75
921.567	41209.42
921.937	31920.68
922.306	32222.71
922.676	34738.01
923.045	28987.88
923.415	27529.37
923.784	25077.7
924.153	25786.92
924.522	25766.37
924.891	24218.21
925.26	25952.96
925.629	25355.29
925.998	29140.38
926.367	28433.3
926.736	27076.55
927.104	32260.11
927.473	34681.64
927.842	41861
928.21	41478.72
928.578	43595.82
928.947	41244.71
929.315	41482.8
929.683	48641.08
930.051	49038.81
930.42	56973.56
930.788	48733.54
931.156	48374.42
931.523	45338.48
931.891	41918.3
932.259	40278.38
932.627	46666.35
932.994	66038.38
933.362	54570.95
933.729	47387.61
934.097	45352.25
934.464	38393.11
934.831	44277.91
935.199	43648.24
935.566	42317.87
935.933	42858.44
936.3	51874.06
936.667	40418.62
937.034	36478.76
937.401	36090.38
937.767	31139.96
938.134	27731.27
938.501	39095.69
938.867	41675.25
939.234	70474.08
939.6	60131.78
939.967	66343.55
940.333	44397.84
940.699	37795.68
941.065	30269.2
941.431	39653.55
941.798	38243.49
942.163	50209.1
942.529	31376.53
942.895	28861.83
943.261	18636.95
943.627	24467.31
943.992	21387.18
944.358	21425.6
944.723	21474.09
945.089	20956.67
945.454	19361.12
945.82	20661.7
946.185	19846.52
946.55	22970.59
946.915	20596.31
947.28	24172.44
947.645	21265.42
948.01	19633.57
948.375	20453.84
948.74	24533.2
949.104	28613.21
949.469	41376.14
949.834	73132.37
950.198	69287.16
950.562	41517.59
950.927	34591.49
951.291	41617.74
951.655	35456.52
952.02	33306.75
952.384	25193.76
952.748	21945.76
953.112	21392.03
953.476	18595.83
953.839	17190.47
954.203	17033.5
954.567	21303.99
954.931	33557.12
955.294	28720.15
955.658	28887.54
956.021	49128
956.385	83304.29
956.748	122903.83
957.111	190701.95
957.474	214183.99
957.837	241269.09
958.2	182486.35
958.563	65701.51
958.926	44408.85
959.289	67437.17
959.652	75280.24
960.015	56528.12
960.377	81208.42
960.74	92732.02
961.102	160249.76
961.465	171885.65
961.827	92028.42
962.189	176628.24
962.552	122374.25
962.914	98229.6
963.276	63696.88
963.638	52762.07
964	52224.16
964.362	35273.7
964.724	34081.6
965.085	24296.84
965.447	19953.32
965.809	22765.17
966.17	22794.22
966.532	24678.01
966.893	22631.45
967.255	20587.7
967.616	24306.2
967.977	19465.1
968.338	21254.86
968.699	17482.01
969.061	17482.98
969.421	17593.9
969.782	19736.62
970.143	16686.88
970.504	17290.86
970.865	19667.88
971.225	20151.44
971.586	19710.07
971.946	28092.56
972.307	24407.48
972.667	31891.69
973.027	32830.32
973.388	39738.96
973.748	27035.06
974.108	29440.96
974.468	39810.95
974.828	30714.44
975.188	23613.05
975.548	21673.09
975.907	18200.82
976.267	20416.26
976.627	17170.85
976.986	17801.45
977.346	16990.62
977.705	16337.5
978.064	14889.57
978.424	12396.63
978.783	12799.51
979.142	14612.52
979.501	13991.91
979.86	14806.21
980.219	14263.78
980.578	18378.6
980.937	20608.16
981.296	18378.24
981.654	18907.57
982.013	29371.2
982.371	38144.22
982.73	35723.91
983.088	40441.78
983.447	43191.23
983.805	61656.57
984.163	128892.42
984.521	142930.75
984.879	209492.04
985.237	-340638.87
985.595	329065
985.953	81839.86
986.311	47320.68
986.669	27411.57
987.026	23672.08
987.384	31840.8
987.741	32974.83
988.099	23605.02
988.456	18852.6
988.814	17638.33
989.171	15353.2
989.528	15144.2
989.885	15983.48
990.242	12631.09
990.599	15748.57
990.956	12868.14
991.313	9000.75
991.67	7387.47
992.027	7837.46
992.383	6963.39
992.74	6104.8
993.096	6407.55
993.453	6633.37
993.809	6882.09
994.165	9176.59
994.522	8398.11
994.878	9267.77
995.234	11612.44
995.59	11448.34
995.946	10814.71
996.302	12334.17
996.658	14290.78
997.013	15716.27
997.369	18654.46
997.725	23884.63
998.08	15476.87
998.436	23905.77
998.791	32978.23
999.147	33034.6
999.502	36028.54
999.857	26177.95
1000.212	42684.25
1000.567	60639.49
1000.922	35021.88
1001.277	22263.7
1001.632	16530.89
1001.987	21313.55
1002.342	15277.97
1002.696	12218.83
1003.051	9712.02
1003.406	11750.05
1003.76	11697.84
1004.114	11542.66
1004.469	9710.93
1004.823	8033.85
1005.177	8687.08
1005.531	6884.66
1005.885	6098.19
1006.239	6868.89
1006.593	8626.83
1006.947	11586.32
1007.301	8695.29
1007.655	9484.73
1008.008	6960.76
1008.362	7821.61
1008.715	11178.88
1009.069	10121.97
1009.422	15252.41
1009.776	30610.32
1010.129	20321.41
1010.482	16927.44
1010.835	14276.3
1011.188	29791.83
1011.541	28045.5
1011.894	-171586.97
1012.247	505446.71
1012.6	34332.7
1012.952	21592.13
1013.305	11104.21
1013.657	8010.56
1014.01	7588.29
1014.362	6257.22
1014.715	5575.39
1015.067	4848.96
1015.419	4745.04
1015.771	4196.38
1016.123	3723.74
1016.475	3831.64
1016.827	4093.2
1017.179	4410.74
1017.531	4436.54
1017.883	4524.09
1018.234	4382.73
1018.586	5538.98
1018.938	5881.61
1019.289	8120.78
1019.64	9288.2
1019.992	8661.5
1020.343	7938.04
1020.694	6292.76
1021.045	5525.88
1021.396	6307.72
1021.747	6787.21
1022.098	8132.25
1022.449	5881.85
1022.8	5447.88
1023.151	3781.33
1023.501	3348.12
1023.852	3649.05
1024.202	3782.81
1024.553	4153.92
1024.903	4073.28
1025.253	3482.83
1025.604	3139.18
1025.954	3911.08
1026.304	4756.72
1026.654	5542.89
1027.004	8162.7
1027.354	13293.17
1027.703	12500.64
1028.053	16355.11
1028.403	23643.43
1028.753	34434.5
1029.102	46816.11
1029.452	239933.06
1029.801	10274.01
1030.15	6648.17
1030.499	5636.33
897.758	2850.25
901.051	2823.35
904.343	2859.53
907.636	2855.13
910.928	2921.68
914.22	2827.1
917.511	2837.8
920.803	2909.1
924.094	2937.84
927.384	2906.33
930.675	2876.05
933.965	2825.21
937.255	2824.1
940.544	2792.6
943.834	2708.21
947.123	2656.28
950.411	2757.97
953.7	2728.37
956.988	2686.56
960.276	2630.08
963.563	2725.98
966.851	2713.73
970.138	2778.57
973.424	2766.67
976.711	2714.33
979.997	2885.52
983.283	2913.6
986.568	2806.27
989.853	2834.45
993.138	2863.67
996.423	2943.79
999.708	2872.37
1002.992	2956.05
1006.275	2758.14
1009.559	2825.03
1012.842	2944.79
1016.125	2869.93
1019.408	2847.54
1022.69	2947.26
1025.972	2957.25
1029.254	2930.03
1032.536	2849.29
1035.817	2884.13
1039.098	2812.63
1042.379	2998.94
1045.659	2979.54
1048.939	2909.62
1052.219	2935.23
1055.498	2956.57
1058.778	2936.91
1062.057	2925.76
1065.335	2946.06
1068.614	2967.44
1071.892	2942.33
1075.17	3028.89
1078.447	3011.29
1081.724	2998.44
1085.001	3040.71
1088.278	3010.59
1091.554	3028.93
1094.83	3025.05
1098.106	3051.32
1101.382	3102.95
1104.657	3106.94
1107.932	3100.98
1111.206	3055.93
1114.481	3015.99
1117.755	3024.9
1121.029	2996.55
1124.302	3046.78
1127.575	2990.55
1130.848	2975
1134.121	2932.03
1137.393	2875.02
1140.665	2946.3
1143.937	2919.52
1147.208	2886.77
1150.48	2917.66
1153.75	2903.11
1157.021	2948.79
1160.291	2914.9
1163.561	2954.75
1166.831	2952.92
1170.101	2988.22
1173.37	2971.05
1176.639	2908.07
1179.907	2974.86
1183.176	2976.15
1186.444	2982.86
1189.711	3012.4
1192.979	3018.78
1196.246	2977.07
1199.513	2999.26
1202.78	2995.84
1206.046	3002.07
1209.312	3024.97
1212.578	3054.62
1215.843	2999.03
1219.108	2976.18
1222.373	3001.25
1225.638	2958.57
1228.902	2937.39
1232.166	2907.38
1235.43	2884.47
1238.693	2907.99
1241.956	2909.5
1245.219	2944.69
1248.482	2941.21
1251.744	2935.07
1255.006	3093.58
1258.268	3051.7
1261.529	2990.66
1264.79	3002.57
1268.051	3111.39
1271.312	3132.83
1274.572	3090.14
1277.832	3080.09
1281.092	3076.74
1284.351	3039.57
1287.61	3015.82
1290.869	2921.11
1294.128	2888.85
1297.386	2999.91
1300.644	2982.72
1303.902	2996.87
1307.159	2849.04
1310.416	2906.4
1313.673	2926.06
1316.93	2906.3
1320.186	2959.82
1323.442	3007.83
1326.697	2993.67
1329.953	2993.65
1333.208	3007.94
1336.463	2996.48
1339.717	2920.89
1342.972	3072.12
1346.226	3051.82
1349.479	2978.7
1352.733	2943.15
1355.986	2974.22
1359.238	2946.7
1362.491	2945.44
1365.743	2953.32
1368.995	2950.64
1372.247	2960.22
1375.498	2990.22
1378.749	2986.59
1382	2945.86
1385.251	3008.67
1388.501	2972.87
1391.751	2947.81
1395	2921.62
1398.25	2958.07
1401.499	2957.98
1404.748	2870.77
1407.996	2867.08
1411.244	2847.41
1414.492	2828.65
1417.74	2799.52
1420.987	2813.17
1424.234	2869.32
1427.481	2857.45
1430.728	2918.23
1433.974	2890.63
1437.22	2910.28
1440.465	2918.31
1443.711	2865.95
1446.956	2906.5
1450.201	2903.33
1453.445	2951.88
1456.689	2922.32
1459.933	2939.55
1463.177	2966.81
1466.42	2936.18
1469.663	2917.71
1472.906	2899.37
1476.148	2998.5
1479.391	2935.81
1482.633	2912.8
1485.874	2919.06
1489.115	2895.14
1492.356	2912.72
1495.597	2880.92
1498.838	2891.62
1502.078	2853.2
1505.318	2792.55
1508.557	2840.75
1511.797	2796.37
1515.036	2898.32
1518.274	2887.48
1521.513	2864.35
1524.751	2892.59
1527.989	2900.4
1531.227	2914.04
1534.464	2896.16
1537.701	2929.47
1540.938	2953.14
1544.174	2906.73
1547.41	2907.68
1550.646	2948.48
1553.882	2978.52
1557.117	3034.67
1560.352	3050.04
1563.587	3004.37
1566.821	2959.98
1570.055	3004.06
1573.289	2971.24
1576.523	3055.42
1579.756	3060.78
1582.989	3079.29
1586.222	3039
1589.454	3080.75
1592.686	3048.07
1595.918	3074
1599.15	3058.81
1602.381	3146.51
1605.612	3090.47
1608.843	3190.92
1612.073	3097.41
1615.303	3080.14
1618.533	3066.53
1621.762	3072.57
1624.992	3067.59
1628.221	3043.6
1631.449	3029.49
1634.678	3099.74
1637.906	3051.3
1641.134	3098.71
1644.361	3047.5
1647.588	3033.87
1650.815	3048.08
1654.042	3033.3
1657.269	3064.38
1660.495	3007.07
1663.72	3007.45
1666.946	2972.46
1670.171	2899.65
1673.396	2874.44
1676.621	2867.94
1679.845	2901.3
1683.069	2929.82
1686.293	2977.78
1689.517	2943.77
1692.74	2861.99
1695.963	2891.3
1699.185	2932.02
1702.408	2904.69
1705.63	2952.64
1708.852	2962.01
1712.073	2932.02
1715.294	2904.86
1718.515	2971.72
1721.736	2914.95
1724.956	2912.14
1728.176	2939.79
1731.396	2963.73
1734.616	2952.81
1737.835	2974.32
1741.054	2959.34
1744.272	2954.03
1747.491	2977.12
1750.709	3044.22
1753.927	2930.07
1757.144	2986.27
1760.361	3019.85
1763.578	3023.39
1766.795	2956.91
1770.011	2970.3
1773.227	3021.99
1776.443	3051.34
1779.658	3094.32
1782.874	3041.23
1786.089	3012.35
1789.303	3015.04
1792.518	3021.86
1795.732	3010.3
1798.945	3014.3
1802.159	3075.03
1805.372	2958.66
1808.585	2935.78
1811.797	2939.98
1815.01	3001.68
1818.222	3000.19
1821.434	2942.8
1824.645	3017.58
1827.856	2986.1
1831.067	3023.17
1834.278	2993.39
1837.488	2970.42
1840.698	3132.53
1843.908	3046.96
1847.117	3010.13
1850.326	2872.11
1853.535	2990.97
1856.744	3048.52
1859.952	2948.07
1863.16	2952.89
1866.368	2977.76
1869.575	3071.83
1872.782	2961.76
1875.989	2901.32
1879.196	3005.11
1882.402	2994.65
1885.608	3039.78
1888.814	2927.11
1892.019	2813.4
1895.224	2867.28
1898.429	2854.5
1901.634	2830.82
1904.838	2812.88
1908.042	2857.16
1911.246	2864.04
1914.449	2777.74
1917.652	2784.82
1920.855	2766.46
1924.058	2825.61
1927.26	2861.1
1930.462	2891.27
1933.664	2911.37
1936.865	2847.81
1940.066	2846.92
1943.267	2798.29
1946.467	2816.51
1949.668	2847.71
1952.868	2912.29
1956.067	2885.64
1959.267	2813.65
1962.466	2842.77
1965.665	2826.92
1968.863	2827.38
1972.061	2844.84
1975.259	2848.53
1978.457	2928.7
1981.654	2885.22
1984.852	2884.4
1988.048	2806.05
1991.245	2816.67
1994.441	2901.68
1997.637	2897.73
2000.833	2881.55
2004.028	2920.36
2007.223	2975.61
2010.418	2945.78
2013.613	2909.21
2016.807	2868.65
2020.001	2883
2023.194	2936.56
2026.388	2908.05
2029.581	2854.94
2032.774	2898.21
2035.966	2898.05
2039.158	2822.89
2042.35	2850.36
2045.542	2780.27
2048.733	2891.88
2051.924	2933.84
2055.115	2966.88
2058.306	2899.58
2061.496	2962.84
2064.686	3033.32
2067.875	2950.81
2071.065	2974.94
2074.254	3004.91
2077.442	2953.79
2080.631	3048.68
2083.819	2920.6
2087.007	2894.63
2090.195	2858.61
2093.382	2903.2
2096.569	2880.41
2099.756	2828.43
2102.942	2843.06
2106.128	2840.97
2109.314	2836.33
2112.5	2791.12
2115.685	2767.76
2118.87	2778.77
2122.055	2846.67
2125.239	2805.9
2128.424	2773.64
2131.608	2896.64
2134.791	2883.1
2137.974	2948.84
2141.157	2933.02
2144.34	2873.33
2147.523	2903.32
2150.705	2913.87
2153.887	2896.52
2157.068	2834.02
2160.25	2847.78
2163.431	2894.05
2166.611	2828.91
2169.792	2836.95
2172.972	2724.33
2176.152	2817.57
2179.331	2856.36
2182.511	2825.88
2185.69	2855.56
2188.868	2849.5
2192.047	2915.58
2195.225	2890.93
2198.403	2839.64
2201.58	2834.88
2204.758	2838.03
2207.935	2923.14
2211.111	2796.95
2214.288	2779.5
2217.464	2819.47
2220.64	2802.67
2223.815	2859.96
2226.991	2773.58
2230.166	2796.82
2233.34	2819.91
2236.515	2853.03
2239.689	2926.5
2242.863	2868.2
2246.036	2928.71
2249.209	2936.87
2252.382	2980.13
2255.555	2958.67
2258.727	2888.03
2261.9	2931.5
2265.071	2924.36
2268.243	2927.76
2271.414	2849.78
2274.585	2802.37
2277.756	2872.78
2280.926	2830
2284.096	2876.59
2287.266	2772.35
2290.436	2829.53
2293.605	2862.52
2296.774	2891
2299.942	2919.96
2303.111	2936.56
2306.279	2983.86
2309.447	2970.59
2312.614	2949.13
2315.781	2963.33
2318.948	2931.92
2322.115	2969.26
2325.281	2874.8
2328.447	2901.69
2331.613	2879.32
2334.779	2842.02
2337.944	2852.12
2341.109	2845.37
2344.274	2824.13
2347.438	2788.55
2350.602	2816.13
2353.766	2833.77
2356.929	2819.63
2360.092	2862.6
2363.255	2803.49
2366.418	2720.03
2369.58	2854.17
2372.742	2601.26
2375.904	2625.66
2379.066	2597.13
2382.227	2639.12
2385.388	2602.66
2388.548	2517
2391.709	2579.54
2394.869	2548.99
2398.029	2673.42
2401.188	2694.49
2404.347	2615.79
2407.506	2783.96
2410.665	2812.02
2413.823	2826.23
2416.981	2771.43
2420.139	2813.81
2423.296	2864.87
2426.453	2837.35
2429.61	2868.99
2432.767	2782
2435.923	2818.71
2439.079	2763.13
2442.235	2820.56
2445.391	2736.84
2448.546	2758.92
2451.701	2816.9
2454.855	2769.27
2458.009	2836.72
2461.163	2847.93
2464.317	2797.05
2467.471	2834.47
2470.624	2883.35
2473.777	2867.43
2476.929	2878.76
2480.082	2908.23
2483.234	2867.36
2486.385	2812.59
2489.537	2805.93
2492.688	2754.82
2495.839	2771.2
2498.989	2780
2502.14	2760.64
2505.29	2736.64
2508.439	2767.95
2511.589	2681.34
2514.738	2699.17
2517.887	2733.67
2521.035	2812.63
2524.183	2806.28
2527.331	2780.73
2530.479	2745.47
2533.627	2759.9
