Data from N_2_DEC_ON_6N_Splice17_12-15-03-996.txt Node
Date: Sat Mar 14 12:15:03 EDT 2020
User: sa697716
Spectrometer: FLMS03696
Trigger mode: 0
Integration Time (sec): 3.180400E-1
Scans to average: 20
Electric dark correction enabled: true
Nonlinearity correction enabled: true
Boxcar width: 5
XAxis mode: Wavelengths
Number of Pixels in Spectrum: 2048
>>>>>Begin Spectral Data<<<<<
187.83	-244876.47
188.298	1809.08
188.766	1023.21
189.233	965.38
189.701	1422.47
190.169	1856.95
190.636	731.13
191.104	670.24
191.571	178.35
192.039	-7.63
192.506	15.25
192.974	500.32
193.441	-746.34
193.908	-197.34
194.375	61.59
194.842	140.23
195.31	219.06
195.777	216.95
196.244	455.06
196.711	632.08
197.177	766.86
197.644	1088.63
198.111	1882.07
198.578	2607.73
199.045	2121.29
199.511	3439.52
199.978	4045.29
200.445	3429.99
200.911	3791.53
201.378	4251.89
201.844	3794.13
202.31	6486.29
202.777	6779.37
203.243	3788.88
203.709	3625.54
204.176	4276.03
204.642	3527.8
205.108	3296.88
205.574	2690.74
206.04	2479.06
206.506	2338.14
206.972	2243.17
207.438	2159.23
207.903	2462.32
208.369	2138.52
208.835	2134.82
209.301	2257.72
209.766	2325.88
210.232	2309.47
210.697	2882.66
211.163	3597.46
211.628	5490.21
212.094	4625.91
212.559	5708.86
213.024	3577.73
213.49	4407.11
213.955	4351.2
214.42	4325.43
214.885	4050.83
215.35	3917.17
215.815	3743.17
216.28	4007.07
216.745	3338.16
217.21	3674.88
217.675	3486.25
218.14	4031.72
218.604	4661.72
219.069	5476.87
219.534	5874.74
219.998	7056.05
220.463	8766.86
220.927	11155.1
221.392	10711.08
221.856	10982.99
222.32	14096.54
222.785	17599.63
223.249	22379.99
223.713	25149.77
224.177	25305.55
224.642	32721.04
225.106	40471.7
225.57	44459.15
226.034	33080.48
226.497	50483.02
226.961	45675.24
227.425	53244.82
227.889	59271.51
228.353	59423.5
228.816	123152.9
229.28	118091.32
229.744	99738.9
230.207	60583.78
230.671	59683.85
231.134	99229.82
231.597	114498.91
232.061	114713.95
232.524	112169.06
232.987	77366.25
233.45	69664.57
233.914	62582.98
234.377	64295.21
234.84	58941.23
235.303	69661.76
235.766	77845.41
236.229	80420.62
236.691	50739.39
237.154	57094.49
237.617	42953.26
238.08	44052.27
238.542	51658.42
239.005	36942.69
239.468	36670.08
239.93	34583.06
240.393	31470.99
240.855	27645.4
241.317	28365.9
241.78	34576.45
242.242	35782.5
242.704	38620.65
243.166	33626.38
243.629	30505.38
244.091	35199.97
244.553	38645.67
245.015	41576.55
245.477	53890.3
245.939	79171.29
246.4	84061.11
246.862	81768.32
247.324	77144.97
247.786	86574.81
248.247	113723.92
248.709	117811.02
249.17	88189.3
249.632	83046.79
250.093	96307.9
250.555	83190.82
251.016	50729.06
251.477	48172.86
251.939	52018.94
252.4	54631.35
252.861	65037.3
253.322	60499.56
253.783	72061.43
254.244	93490.14
254.705	73828.95
255.166	65716.68
255.627	64705.14
256.088	91194.72
256.549	96853.13
257.009	83472.01
257.47	101316.55
257.931	82471.55
258.391	61750.89
258.852	63580.37
259.312	66641.77
259.773	82256.7
260.233	69348.52
260.694	58416.22
261.154	66315.24
261.614	53122.9
262.074	47483.21
262.534	49305.94
262.994	46425.08
263.455	61883.18
263.915	52100.1
264.374	49064.44
264.834	53563.57
265.294	59457.12
265.754	61567.71
266.214	58268.74
266.673	54631
267.133	68944.92
267.593	68398.17
268.052	83668.8
268.512	72742.59
268.971	87641.4
269.431	96058.4
269.89	85970.36
270.349	128794.68
270.809	143601.09
271.268	129009.07
271.727	289252.35
272.186	187268.02
272.645	140340.24
273.104	101253.88
273.563	146567.63
274.022	115366.66
274.481	98050.87
274.94	75474.86
275.399	56102.53
275.857	65326.02
276.316	88315.92
276.775	78590.75
277.233	77302.66
277.692	72293.67
278.15	81672.11
278.609	83929.59
279.067	77643.06
279.525	72084.58
279.984	93161.01
280.442	111859.47
280.9	110129.31
281.358	72414.07
281.816	67445.69
282.274	66051.37
282.732	68332.59
283.19	68751.43
283.648	59365.79
284.106	63247.62
284.564	64384.66
285.021	59689.3
285.479	44493.73
285.937	40538.55
286.394	35567.82
286.852	36640.25
287.309	38509.77
287.767	37161.31
288.224	35339.27
288.682	38782.02
289.139	42555.61
289.596	38941.04
290.053	40486.43
290.511	51185.45
290.968	62076.6
291.425	84376.19
291.882	70149.77
292.339	61135.67
292.796	60769.49
293.252	57335.03
293.709	45560.65
294.166	40861.51
294.623	45224.41
295.079	43469.36
295.536	43684.93
295.992	39710.41
296.449	39326.49
296.905	40923.94
297.362	39232.42
297.818	41342.18
298.274	42910.69
298.731	43831.43
299.187	43447.57
299.643	46693.76
300.099	56514.65
300.555	62052.46
301.011	51910.97
301.467	49976.25
301.923	58661.35
302.379	57376.09
302.835	56379.28
303.291	56487.25
303.746	64332.42
304.202	81353.34
304.658	81772.5
305.113	55083.67
305.569	54012.19
306.024	57627.67
306.479	55011.3
306.935	46347.29
307.39	50737.01
307.845	46908.76
308.301	47223.39
308.756	46086.2
309.211	44431.03
309.666	45554.58
310.121	56475.08
310.576	57410.84
311.031	57054.2
311.486	65421.35
311.94	65470.46
312.395	87549.75
312.85	164626.3
313.305	811058.68
313.759	4186851.55
314.214	303645.58
314.668	240868.85
315.123	202800.9
315.577	72714.96
316.032	64648.83
316.486	81050.09
316.94	63986.05
317.394	44563.93
317.849	34629.03
318.303	32807.92
318.757	30998.49
319.211	34308.87
319.665	30051.15
320.119	30434.54
320.572	43703.76
321.026	40865.01
321.48	34061.48
321.934	37224.63
322.387	37334.15
322.841	40366.63
323.295	36230.29
323.748	41892.69
324.202	42521.95
324.655	51045.15
325.108	71255.71
325.562	50346.19
326.015	59870.33
326.468	45242.54
326.921	50569.58
327.374	47181.18
327.827	49050.32
328.28	55594.15
328.733	37195.32
329.186	32707.26
329.639	31172.4
330.092	26316.27
330.545	25032.09
330.997	25248.71
331.45	27578.33
331.903	32256.8
332.355	55538.27
332.808	54067.51
333.26	44611.85
333.713	48403.19
334.165	48741.71
334.617	65126.34
335.069	52713.93
335.522	95511.41
335.974	105680.92
336.426	96599.58
336.878	67093.95
337.33	34012.95
337.782	33235.19
338.234	41527.72
338.686	49725.54
339.137	58910.22
339.589	55520.68
340.041	43479.98
340.493	37384.96
340.944	38315.38
341.396	41251.69
341.847	34646.92
342.299	40828.75
342.75	49739.83
343.201	43681.22
343.653	50275.37
344.104	61935.67
344.555	48751.73
345.006	76031.65
345.457	58114.83
345.908	46263.42
346.359	43592.31
346.81	35547.33
347.261	37547.03
347.712	37074.29
348.163	39707.96
348.613	40136.96
349.064	37513.01
349.515	32871.89
349.965	33660.01
350.416	40628.34
350.866	44620.42
351.317	50490.77
351.767	83628.25
352.217	105713.77
352.668	87813.64
353.118	80557.6
353.568	77976.33
354.018	61579.49
354.468	64918.78
354.918	46659.11
355.368	40820.62
355.818	57639.1
356.268	166157.2
356.718	695579.61
357.168	173114.04
357.617	86886.51
358.067	96709.13
358.517	90557.8
358.966	106077.7
359.416	118909.85
359.865	128671.58
360.315	153368.17
360.764	71709.86
361.213	40123.33
361.663	38066.01
362.112	47023.68
362.561	75985.93
363.01	57350.29
363.459	48339.69
363.908	52441.5
364.357	44536.15
364.806	75345.02
365.255	51838.36
365.703	47425.36
366.152	47471.86
366.601	38505.36
367.05	31226.06
367.498	28357.26
367.947	29648.57
368.395	30833.12
368.844	27275.69
369.292	32987.04
369.74	22752.64
370.189	34869.22
370.637	40900.82
371.085	35348.67
371.533	43068.75
371.981	41597.38
372.429	39611.56
372.877	41248.53
373.325	34504.65
373.773	35228.53
374.221	31353.65
374.669	38892.12
375.116	33638.32
375.564	33905.64
376.012	37903.54
376.459	31219.87
376.907	37303.58
377.354	45222.66
377.801	42122.13
378.249	48353.77
378.696	61767.83
379.143	74809.27
379.591	79791.67
380.038	134831.26
380.485	97337.09
380.932	105065.99
381.379	95889.2
381.826	70487.86
382.273	50024.58
382.72	43788.45
383.166	42647.39
383.613	27623.89
384.06	24902.59
384.506	28771.24
384.953	21137.06
385.4	21302.49
385.846	18660.94
386.292	18225.61
386.739	17835.69
387.185	17655.04
387.631	17630.43
388.078	17072.71
388.524	18255.9
388.97	16829.04
389.416	14014.54
389.862	14877.59
390.308	14068.71
390.754	14250.88
391.2	15458.92
391.645	15816.06
392.091	15043.86
392.537	14505.67
392.983	14530.93
393.428	14227.54
393.874	15227.01
394.319	15249.83
394.765	14412.63
395.21	14816.23
395.655	13892.73
396.101	12984.71
396.546	11704.39
396.991	11834.62
397.436	10991.14
397.881	10617.49
398.326	10080.51
398.771	9510.9
399.216	8318.93
399.661	7491.98
400.106	7448.49
400.551	7603.42
400.995	6812.95
401.44	6732.05
401.885	6314.64
402.329	6373.53
402.774	6104.62
403.218	5884.82
403.663	5678.08
404.107	5823.97
404.551	5859.19
404.995	5372.85
405.44	5180.65
405.884	5254.24
406.328	5088.27
406.772	5070.77
407.216	4614.29
407.66	4462.07
408.104	4247.1
408.547	3969.59
408.991	3836.13
409.435	3691.69
409.879	3631.46
410.322	3579.58
410.766	3450.46
411.209	3271.33
411.653	3137.7
412.096	3066.17
412.54	3063.89
412.983	3035.9
413.426	3037.84
413.869	3036.62
414.312	2969.93
414.756	2861.73
415.199	2725.07
415.642	2645.89
416.085	2646.98
416.527	2627.78
416.97	2668
417.413	2526.46
417.856	2501.29
418.298	2477.7
418.741	2462.49
419.184	2462.01
419.626	2566.48
420.069	2568.28
420.511	2577.47
420.953	2518.14
421.396	2491.73
421.838	2428.72
422.28	2483.23
422.722	2494.27
423.164	2528.41
423.606	2482.5
424.048	2479.72
424.49	2351.96
424.932	2341.42
425.374	2312.55
425.816	2356.64
426.258	2402.55
426.699	2426.74
427.141	2387.14
427.582	2427.1
428.024	2415.8
428.465	2405.91
428.907	2345.62
429.348	2321.64
429.789	2314.74
430.231	2261.9
430.672	2288.73
431.113	2234.48
431.554	2204.87
431.995	2154.24
432.436	2072.03
432.877	2020.68
433.318	1980.13
433.759	1970.07
434.2	1966
434.64	1948.76
435.081	1954.94
435.522	1850.58
435.962	1785.12
436.403	1744.55
436.843	1769.38
437.284	1730.92
437.724	1687.09
438.164	1697.01
438.604	1658.14
439.045	1591.91
439.485	1522.32
439.925	1489.68
440.365	1453.73
440.805	1431.89
441.245	1412.94
441.685	1361.56
442.125	1353.69
442.564	1366.21
443.004	1334.91
443.444	1333.37
443.883	1336.42
444.323	1331.42
444.762	1337.31
445.202	1358.01
445.641	1381.09
446.081	1375.74
446.52	1385.68
446.959	1373.02
447.398	1337.02
447.837	1319.44
448.276	1298.1
448.716	1315.53
449.154	1328.08
449.593	1296.21
450.032	1290.01
450.471	1270.91
450.91	1272.79
451.349	1270.41
451.787	1265.35
452.226	1284.79
452.664	1286.7
453.103	1288.89
453.541	1286.13
453.98	1281.97
454.418	1291.22
454.856	1272.04
455.295	1269.13
455.733	1280.14
456.171	1288.93
456.609	1290.77
457.047	1291.17
457.485	1308.34
457.923	1309.87
458.361	1293.77
458.798	1300.15
459.236	1298.19
459.674	1309.71
460.111	1315.79
460.549	1301.63
460.987	1296.23
461.424	1293.36
461.862	1287.8
462.299	1268.43
462.736	1265.41
463.173	1268.43
463.611	1249.78
464.048	1245.2
464.485	1253.38
464.922	1242.69
465.359	1236.51
465.796	1211.38
466.233	1200.45
466.67	1185.48
467.106	1180.51
467.543	1170.74
467.98	1156.04
468.416	1129.72
468.853	1122.79
469.29	1089.78
469.726	1077.81
470.162	1049.61
470.599	1044.06
471.035	1036
471.471	1014.22
471.907	1011.86
472.344	1005.62
472.78	1008.18
473.216	1021.24
473.652	1008.16
474.088	1005.97
474.523	1001.19
474.959	1010.68
475.395	1001.21
475.831	993.94
476.266	998.4
476.702	995.6
477.138	984.27
477.573	980.99
478.008	976.74
478.444	980.53
478.879	987.2
479.314	991.85
479.75	990.62
480.185	995.44
480.62	1004.94
481.055	1010.09
481.49	1016.17
481.925	1030.77
482.36	1046.52
482.795	1076.24
483.229	1106.41
483.664	1131.1
484.099	1136.34
484.534	1154.34
484.968	1165.63
485.403	1168.98
485.837	1168.22
486.271	1166.26
486.706	1168.63
487.14	1157.99
487.574	1138.95
488.009	1127.42
488.443	1117.11
488.877	1126.84
489.311	1129.35
489.745	1141.5
490.179	1150.7
490.613	1170
491.046	1179.39
491.48	1186.28
491.914	1186.1
492.348	1194.22
492.781	1200.41
493.215	1202.55
493.648	1203.28
494.082	1211.9
494.515	1210.19
494.948	1220.98
495.382	1227.8
495.815	1233.61
496.248	1240.57
496.681	1259.77
497.114	1277.17
497.547	1291.41
497.98	1309.55
498.413	1315.79
498.846	1329.04
499.279	1341.05
499.711	1346.6
500.144	1348.62
500.577	1361.74
501.009	1377.79
501.442	1390.16
501.874	1389.3
502.306	1390.13
502.739	1396.5
503.171	1419.66
503.603	1421.75
504.036	1434.97
504.468	1440.07
504.9	1455.31
505.332	1462.86
505.764	1465.73
506.196	1473.92
506.627	1493.97
507.059	1511.46
507.491	1524.86
507.923	1516.83
508.354	1536.86
508.786	1548.54
509.217	1573.31
509.649	1591.41
510.08	1618.56
510.512	1639.73
510.943	1659.36
511.374	1671.53
511.805	1698.4
512.237	1723.6
512.668	1769.88
513.099	1807.7
513.53	1845.7
513.961	1871.76
514.391	1915.9
514.822	1959.04
515.253	2008.56
515.684	2041.02
516.114	2079.1
516.545	2104.91
516.975	2138.97
517.406	2160.35
517.836	2156.58
518.267	2160.5
518.697	2181.59
519.127	2182.49
519.558	2187.54
519.988	2187.53
520.418	2197.34
520.848	2219.02
521.278	2226.14
521.708	2225.99
522.138	2239.48
522.567	2280.3
522.997	2312.59
523.427	2330.43
523.857	2350.41
524.286	2362.14
524.716	2379.08
525.145	2402.62
525.575	2413.62
526.004	2431.45
526.433	2438.07
526.863	2434.68
527.292	2416.44
527.721	2419.62
528.15	2425.92
528.579	2424.14
529.008	2436.39
529.437	2466.56
529.866	2484.08
530.295	2507.6
530.724	2522.13
531.152	2557.14
531.581	2575.15
532.01	2599.56
532.438	2611.07
532.867	2630.19
533.295	2653.3
533.723	2660.53
534.152	2656.88
534.58	2654.58
535.008	2629.15
535.436	2631.1
535.865	2642.42
536.293	2662.08
536.721	2684.13
537.149	2719.03
537.576	2720.75
538.004	2739.41
538.432	2750.34
538.86	2747.63
539.287	2757.98
539.715	2777.74
540.143	2781.75
540.57	2775.03
540.998	2769.02
541.425	2734.43
541.852	2704.19
542.28	2702.02
542.707	2677.17
543.134	2656.18
543.561	2648.08
543.988	2636.18
544.415	2634.99
544.842	2626.6
545.269	2614.61
545.696	2615.98
546.123	2633.11
546.549	2616.58
546.976	2597.38
547.403	2595.87
547.829	2598.1
548.256	2601.07
548.682	2595.01
549.108	2581.34
549.535	2578.86
549.961	2581.66
550.387	2562.31
550.813	2553.83
551.24	2562.48
551.666	2562.82
552.092	2549.64
552.518	2540.11
552.943	2531.06
553.369	2541.03
553.795	2550.95
554.221	2554.15
554.646	2549.45
555.072	2565.76
555.498	2573.03
555.923	2586.59
556.349	2608.68
556.774	2622.81
557.199	2625.08
557.625	2633.57
558.05	2625.44
558.475	2641.18
558.9	2639.17
559.325	2628.95
559.75	2621.09
560.175	2614.2
560.6	2606.81
561.025	2605.5
561.449	2606.4
561.874	2615.5
562.299	2624.49
562.723	2638.21
563.148	2625.07
563.572	2632.3
563.997	2649.09
564.421	2659.19
564.846	2660.91
565.27	2667.74
565.694	2665.4
566.118	2684.39
566.542	2697.77
566.966	2691.31
567.39	2685.99
567.814	2672.55
568.238	2674.78
568.662	2684.21
569.086	2689.48
569.509	2703.97
569.933	2684.66
570.357	2677.9
570.78	2650.94
571.204	2634.15
571.627	2619.57
572.05	2620.05
572.474	2621.61
572.897	2607.25
573.32	2598.64
573.743	2587.99
574.166	2563.56
574.589	2565.89
575.012	2556.52
575.435	2556.7
575.858	2545.72
576.281	2531.87
576.704	2510.83
577.126	2495.79
577.549	2480.27
577.972	2467.54
578.394	2453.1
578.817	2441.81
579.239	2415.73
579.661	2397.67
580.084	2374.78
580.506	2356.25
580.928	2354.08
581.35	2338.19
581.772	2332.98
582.194	2313.9
582.616	2296.72
583.038	2276.91
583.46	2263.57
583.882	2260.4
584.303	2268.21
584.725	2264.11
585.147	2265.09
585.568	2279.57
585.99	2299.22
586.411	2309.73
586.833	2334.11
587.254	2338.73
587.675	2361.35
588.096	2382.13
588.518	2374.33
588.939	2351.14
589.36	2349.47
589.781	2339.03
590.202	2296.45
590.623	2284.04
591.043	2282.04
591.464	2263.59
591.885	2257.66
592.305	2249.44
592.726	2229.29
593.147	2232.76
593.567	2223.5
593.987	2212.48
594.408	2206.41
594.828	2206.61
595.248	2197.79
595.669	2169.87
596.089	2160.18
596.509	2151.94
596.929	2132.09
597.349	2134.41
597.769	2118.78
598.189	2110.72
598.608	2112.67
599.028	2116.07
599.448	2116.3
599.867	2099.08
600.287	2094.53
600.706	2088.36
601.126	2073.55
601.545	2071.96
601.965	2070.55
602.384	2064.12
602.803	2070.54
603.222	2063.65
603.641	2053.42
604.061	2048.77
604.48	2043.32
604.898	2055.51
605.317	2064.81
605.736	2069.13
606.155	2066.16
606.574	2053.46
606.992	2062.62
607.411	2056.6
607.829	2047.71
608.248	2046.68
608.666	2044.93
609.085	2045.38
609.503	2033.46
609.921	2023.73
610.339	2028.12
610.758	2029.73
611.176	2024.37
611.594	2012.4
612.012	2007.53
612.43	2012.92
612.847	2022.16
613.265	2023.72
613.683	2031.2
614.101	2035.65
614.518	2032.62
614.936	2019.43
615.353	1997.61
615.771	1994.29
616.188	1996.59
616.606	1992.89
617.023	1984.04
617.44	1963.77
617.857	1956.28
618.274	1945.41
618.691	1936.15
619.108	1923.05
619.525	1914.89
619.942	1926
620.359	1931.08
620.776	1924.26
621.192	1918.17
621.609	1915.55
622.026	1927.96
622.442	1937.29
622.859	1943.62
623.275	1934.1
623.691	1944.31
624.108	1962.44
624.524	1985.95
624.94	1985.98
625.356	2002.88
625.772	2025.68
626.188	2044.03
626.604	2045.43
627.02	2039.28
627.436	2036.51
627.852	2048.07
628.268	2065.76
628.683	2052.58
629.099	2039.34
629.514	2032.91
629.93	2038.21
630.345	2043.96
630.761	2038.97
631.176	2043.91
631.591	2033.61
632.007	2022.87
632.422	2021.49
632.837	2004.22
633.252	2000.53
633.667	1986.32
634.082	1973.91
634.497	1954.04
634.911	1924.42
635.326	1920.42
635.741	1895.82
636.155	1883.53
636.57	1887.43
636.984	1887.32
637.399	1892.39
637.813	1894.48
638.228	1895.5
638.642	1904.86
639.056	1892.28
639.47	1895.95
639.884	1885.66
640.298	1878.56
640.712	1879.78
641.126	1864.88
641.54	1856.64
641.954	1851.91
642.368	1835.46
642.781	1823.78
643.195	1798.78
643.609	1802.94
644.022	1797.32
644.436	1794.42
644.849	1780.5
645.262	1766.26
645.676	1773.44
646.089	1769.41
646.502	1748.15
646.915	1743.46
647.328	1720.6
647.741	1719.32
648.154	1699.94
648.567	1694.96
648.98	1673.83
649.393	1676.03
649.805	1670.44
650.218	1657.16
650.631	1629.84
651.043	1620.6
651.456	1611.35
651.868	1613.52
652.28	1643.7
652.693	1666.95
653.105	1680
653.517	1697.91
653.929	1697.71
654.341	1707.43
654.753	1688.75
655.165	1701.44
655.577	1698.79
655.989	1692.22
656.401	1681.09
656.813	1621.87
657.224	1590.78
657.636	1547.64
658.047	1518.81
658.459	1489.51
658.87	1477.42
659.282	1460.91
659.693	1427.6
660.104	1406.43
660.515	1385.23
660.926	1383.37
661.338	1380.95
661.749	1373.94
662.159	1359.24
662.57	1355.75
662.981	1349.98
663.392	1340.03
663.803	1348.23
664.213	1347.55
664.624	1341.79
665.035	1350.14
665.445	1331.17
665.855	1319.74
666.266	1305.32
666.676	1302.89
667.086	1288.31
667.497	1288.77
667.907	1280.4
668.317	1266.61
668.727	1259.22
669.137	1262.6
669.547	1259.29
669.956	1262.36
670.366	1267.29
670.776	1271.38
671.186	1278.91
671.595	1285.32
672.005	1290.06
672.414	1286.97
672.824	1282.52
673.233	1292.01
673.642	1293.41
674.052	1296.51
674.461	1300.12
674.87	1306.09
675.279	1300
675.688	1301.75
676.097	1300.75
676.506	1295.62
676.915	1318.63
677.323	1321.86
677.732	1316.44
678.141	1314.57
678.549	1297.25
678.958	1294.18
679.366	1291.86
679.775	1300.97
680.183	1314.24
680.592	1322.52
681	1330.21
681.408	1316.45
681.816	1327.86
682.224	1341.29
682.632	1353.4
683.04	1398.9
683.448	1435.14
683.856	1481.85
684.264	1534.43
684.671	1583.39
685.079	1644.94
685.487	1708.72
685.894	1803.19
686.302	1876.73
686.709	1934.01
687.116	2004.59
687.524	2053.28
687.931	2094.89
688.338	2127.38
688.745	2149.11
689.152	2180.28
689.559	2224.16
689.966	2269.04
690.373	2277.61
690.78	2318.29
691.187	2390.64
691.593	2439.1
692	2482.63
692.407	2552.33
692.813	2639.07
693.22	2706.47
693.626	2775.97
694.032	2826.89
694.439	2913.88
694.845	2979.9
695.251	3067.83
695.657	3140.79
696.063	3262.57
696.469	3347.79
696.875	3423.85
697.281	3462.28
697.687	3512.14
698.093	3551.48
698.498	3641.7
698.904	3706.93
699.31	3814.42
699.715	3883.09
700.12	3996.07
700.526	4008.03
700.931	4090.32
701.337	4151.32
701.742	4185.69
702.147	4290.21
702.552	4320.51
702.957	4392.12
703.362	4412.79
703.767	4441.65
704.172	4486.92
704.577	4417.18
704.981	4472.88
705.386	4485.97
705.791	4468.19
706.195	4558.11
706.6	4561.7
707.004	4661.18
707.408	4612.01
707.813	4640.84
708.217	4620.29
708.621	4617.18
709.025	4738.82
709.43	4732.86
709.834	4807.52
710.237	4893.86
710.641	4870.92
711.045	4894.68
711.449	4880.34
711.853	4911.49
712.256	4960.3
712.66	5003.72
713.064	5097.34
713.467	5144.3
713.87	5284.55
714.274	5336.5
714.677	5472
715.08	5675.35
715.484	5886.78
715.887	6143.72
716.29	6396.38
716.693	6657.7
717.096	6961.37
717.499	7123.88
717.901	7154.26
718.304	7182.8
718.707	7209.2
719.109	7074.85
719.512	7029.74
719.915	6849.15
720.317	6770.29
720.719	6822.6
721.122	6778.25
721.524	6708.91
721.926	6650.96
722.328	6772.27
722.731	6759.13
723.133	6792.27
723.535	7031.82
723.937	7050.59
724.338	7111.95
724.74	7159.81
725.142	7051.17
725.544	7046.33
725.945	7069.53
726.347	7065.89
726.748	7055.02
727.15	7068.08
727.551	7015.92
727.952	6977.15
728.354	6940.75
728.755	6941.42
729.156	6886.96
729.557	6891.92
729.958	6737.39
730.359	6670.41
730.76	6642.64
731.161	6567.37
731.562	6534.76
731.962	6538.92
732.363	6457.3
732.763	6375.8
733.164	6420.09
733.564	6332.98
733.965	6214.14
734.365	6170.64
734.766	6203.38
735.166	6152.38
735.566	6077.86
735.966	6042.98
736.366	6036.31
736.766	5957.1
737.166	5994.91
737.566	5940.59
737.966	5907.72
738.365	5954.88
738.765	5945.28
739.165	5854.02
739.564	5821.33
739.964	5879.33
740.363	5820.56
740.763	5814.13
741.162	5800.86
741.561	5761.8
741.96	5706.87
742.36	5734.19
742.759	5737.71
743.158	5786.87
743.557	5804.65
743.955	5853.79
744.354	5797.76
744.753	5869.1
745.152	5818.08
745.55	5885.22
745.949	5876.29
746.348	5876.88
746.746	5896.3
747.144	5845.88
747.543	5818.95
747.941	5877.81
748.339	5788.34
748.737	5777.3
749.136	5765.81
749.534	5846.68
749.932	5810.11
750.33	5837.83
750.727	5906.06
751.125	5874.45
751.523	5855.78
751.921	5904.6
752.318	5859.16
752.716	5934.95
753.113	5952.69
753.511	5983.41
753.908	5983.2
754.305	5959.44
754.703	6035.82
755.1	6109.58
755.497	6184.5
755.894	6418.79
756.291	6642.07
756.688	7053.43
757.085	7593.7
757.482	8354.28
757.878	9188
758.275	9940.99
758.672	10986.06
759.068	11831.81
759.465	13038.86
759.861	14596.15
760.258	16407.33
760.654	17345.37
761.05	17207.47
761.447	16421.52
761.843	15285.69
762.239	14119.6
762.635	13594.18
763.031	13084.13
763.427	12353.44
763.822	11586.3
764.218	10825.49
764.614	9835.73
765.01	9171.24
765.405	8745.98
765.801	8422.42
766.196	8011.29
766.592	7777.4
766.987	7387.78
767.382	7125.49
767.778	7012.43
768.173	6853.08
768.568	6761.21
768.963	6606.51
769.358	6629.02
769.753	6569.45
770.148	6466.09
770.542	6466.22
770.937	6429.35
771.332	6541.65
771.726	6565.28
772.121	6488.01
772.515	6554.14
772.91	6537.94
773.304	6626.51
773.699	6547.83
774.093	6614.44
774.487	6682.37
774.881	6736.8
775.275	6733.63
775.669	6679.96
776.063	6737.39
776.457	6783.1
776.851	6687.65
777.245	6680.3
777.638	6722.37
778.032	6865.63
778.425	6821.48
778.819	6874.21
779.212	6816.49
779.606	6764.5
779.999	6793.71
780.392	6770.72
780.786	6873.06
781.179	6901.21
781.572	6949.5
781.965	6964.5
782.358	6890.31
782.751	6957.39
783.143	6898.31
783.536	6989.47
783.929	7041.58
784.322	7180.37
784.714	7217.26
785.107	7212.57
785.499	7301.89
785.891	7278.05
786.284	7254.2
786.676	7429.83
787.068	7406.6
787.46	7472.54
787.852	7501.7
788.245	7606.9
788.636	7641.15
789.028	7723.84
789.42	7769.93
789.812	7779.38
790.204	7896.22
790.595	8021.19
790.987	7776.7
791.378	7810.26
791.77	7972.33
792.161	8138.72
792.553	8210.19
792.944	8072.84
793.335	7995.05
793.726	8087.5
794.117	8199.48
794.508	8370.14
794.899	8333.28
795.29	8510.21
795.681	8576.94
796.072	8397.09
796.463	8158.73
796.853	8171.18
797.244	8364.73
797.634	8401.98
798.025	8397
798.415	8416.68
798.806	8527.26
799.196	8630.45
799.586	8697.79
799.976	8649.76
800.366	8938.62
800.756	9243.5
801.146	9193.47
801.536	9231.98
801.926	9320.71
802.316	9358.23
802.706	9445.61
803.095	9291.5
803.485	9418.71
803.874	9468.39
804.264	9794.62
804.653	9758.09
805.043	9943.75
805.432	10080.5
805.821	10082.08
806.21	10111.07
806.599	10253.82
806.988	10306.18
807.377	10442.1
807.766	10599.08
808.155	10943.36
808.544	10617.32
808.933	10637.02
809.321	10607.81
809.71	10972.33
810.098	11169.36
810.487	11736.54
810.875	12330.53
811.264	12359.21
811.652	12715.76
812.04	12903.19
812.428	13105.9
812.816	14051.14
813.204	14563.73
813.592	15245.91
813.98	15662.3
814.368	15550.47
814.756	16139.6
815.144	16039.78
815.531	16611.01
815.919	16516.87
816.306	16884.64
816.694	16505.19
817.081	16565.54
817.469	16995.75
817.856	16990.87
818.243	17317.32
818.63	17796.5
819.017	17281.34
819.404	17357.47
819.791	17831.11
820.178	18596.8
820.565	18909.69
820.952	20062.93
821.339	19452.99
821.725	19663.77
822.112	18744.31
822.498	18702.7
822.885	18855.72
823.271	18733.35
823.657	19247.85
824.044	19252.16
824.43	19339.12
824.816	19297.94
825.202	18760.01
825.588	20022.77
825.974	20059.94
826.36	20702.96
826.746	20743.69
827.132	21190.18
827.517	21169.93
827.903	20198.59
828.289	20248.84
828.674	19291
829.06	19165.13
829.445	19652.52
829.83	20082.81
830.216	20670.32
830.601	21124.83
830.986	20612.35
831.371	20445.08
831.756	21127.43
832.141	20608.7
832.526	20604.26
832.911	20947.01
833.295	20799.27
833.68	21378.08
834.065	20617.1
834.449	19494.18
834.834	19395.94
835.218	19398.52
835.603	19825.73
835.987	19577.23
836.371	20605.41
836.755	20480.02
837.139	20981.2
837.524	21291.64
837.908	21074.83
838.291	21152.15
838.675	21239.98
839.059	21510.16
839.443	21495.27
839.827	21208.99
840.21	21801.9
840.594	21617.87
840.977	21881.11
841.361	21860.41
841.744	22325.67
842.127	22146.27
842.511	22451.42
842.894	23185.75
843.277	23659.37
843.66	24339.05
844.043	24441.22
844.426	23448.39
844.809	23080.4
845.191	23115.33
845.574	22541.37
845.957	22087.39
846.339	21943.67
846.722	21297.89
847.104	21382.93
847.487	21164.74
847.869	21178.19
848.252	21524.75
848.634	21928.19
849.016	22252.52
849.398	22402.3
849.78	23455.11
850.162	23462.07
850.544	23979.45
850.926	24761.95
851.307	24656.79
851.689	25004.8
852.071	25561.4
852.452	25953.31
852.834	25928.19
853.215	26399.99
853.597	26589.41
853.978	26954.24
854.359	27513.45
854.741	26282.49
855.122	26153.97
855.503	25786.67
855.884	25947.52
856.265	25872.57
856.646	26023.13
857.026	25547.64
857.407	25471.14
857.788	25666.17
858.169	26010.51
858.549	24956.28
858.93	25717.44
859.31	25775.5
859.69	26037.64
860.071	25533.81
860.451	25257.69
860.831	24340.33
861.211	25765.38
861.591	26433.55
861.971	26403.2
862.351	26645.36
862.731	27132.26
863.111	27457.75
863.491	27859.25
863.87	28930.62
864.25	29354.87
864.629	28865.84
865.009	29494.33
865.388	30528.44
865.768	32729.08
866.147	32599.06
866.526	30791.28
866.905	31146.76
867.284	32897.03
867.663	31240.53
868.042	29950.38
868.421	29868.2
868.8	30367.76
869.179	30660.79
869.558	28878.49
869.936	26615.51
870.315	27092.08
870.693	27751.3
871.072	29929.12
871.45	28507.17
871.828	28867.96
872.207	30343.95
872.585	29874.68
872.963	30701.67
873.341	29652.73
873.719	29307.43
874.097	28953.63
874.475	29500.6
874.853	30180.73
875.23	28927.04
875.608	30141.71
875.986	32596.92
876.363	31175.47
876.741	32134.21
877.118	31315.91
877.495	32854.72
877.873	33392.14
878.25	35144.44
878.627	33708.9
879.004	34194.27
879.381	34041.1
879.758	33168.25
880.135	30895.24
880.512	32684.12
880.889	31819.02
881.265	31500.77
881.642	31245.48
882.019	31786.67
882.395	31146.23
882.772	32387.96
883.148	30979.99
883.524	30862.62
883.901	30677.09
884.277	31132.52
884.653	30932.19
885.029	31821.78
885.405	35235.93
885.781	34969.67
886.157	33533.57
886.532	33936.45
886.908	33927.5
887.284	37724.77
887.659	38952.63
888.035	40164.45
888.411	41229.19
888.786	41776.3
889.161	43242.07
889.537	42462.53
889.912	43818.75
890.287	43760.65
890.662	44900.25
891.037	44073.98
891.412	41104.26
891.787	40696.55
892.162	39281.18
892.536	40181.53
892.911	38675.4
893.286	37847.65
893.66	36313.11
894.035	37240.83
894.409	40564.19
894.784	38938.66
895.158	39601.01
895.532	41955.12
895.906	43089.59
896.281	44105.47
896.655	43403.67
897.029	49602.82
897.402	51653.73
897.776	57484.32
898.15	57309.83
898.524	56685.63
898.898	57410.02
899.271	64270.04
899.645	55647.24
900.018	53461.26
900.392	55444.81
900.765	55890.12
901.138	51721.88
901.511	50950.52
901.884	46807.21
902.258	43142.36
902.631	44581.08
903.003	51321.99
903.376	46310.71
903.749	51941.3
904.122	55603.71
904.495	61226.16
904.867	62009.92
905.24	53829.36
905.612	50112.24
905.985	51221.76
906.357	53562.83
906.729	51142.24
907.102	43680.7
907.474	41991.67
907.846	42252.32
908.218	41712.41
908.59	36844.86
908.962	35630.48
909.334	38365.57
909.705	40292.42
910.077	39115
910.449	40718.58
910.82	41862.98
911.192	46051.81
911.563	47872.47
911.935	51229.78
912.306	51268.89
912.677	52969.64
913.048	52431.18
913.419	56896.77
913.79	57228.93
914.161	61396.9
914.532	58677.46
914.903	53905.16
915.274	51218.65
915.645	50458.59
916.015	44418.04
916.386	42350.2
916.756	45028.56
917.127	46466.44
917.497	41497.98
917.868	45157.7
918.238	42889.81
918.608	44130.29
918.978	45045.86
919.348	47700.3
919.718	49281.2
920.088	47466.05
920.458	49315.6
920.828	51905.74
921.198	49159.91
921.567	52531.15
921.937	40677.76
922.306	41057.03
922.676	44270.69
923.045	36913.93
923.415	35069.18
923.784	31934.83
924.153	32831.11
924.522	32795.84
924.891	30836.12
925.26	33055.03
925.629	32292.16
925.998	37143.35
926.367	36260.85
926.736	34527.99
927.104	41149.15
927.473	44243.41
927.842	53452.67
928.21	52931.26
928.578	55645.51
928.947	52615.44
929.315	52910.18
929.683	61989.47
930.051	62467.6
930.42	72560.17
930.788	62026.66
931.156	61543.03
931.523	57650.56
931.891	53252.66
932.259	51142.22
932.627	59235.95
932.994	83810.48
933.362	69269.69
933.729	60180.77
934.097	57622.68
934.464	48738.32
934.831	56268.85
935.199	55462.31
935.566	53811.9
935.933	54504.25
936.3	66032
936.667	51448.96
937.034	46393.39
937.401	45884.89
937.767	39581
938.134	35242.14
938.501	49717.57
938.867	52943.71
939.234	89491.79
939.6	76330.36
939.967	84129.14
940.333	56315.15
940.699	47949.21
941.065	38565.61
941.431	50594.63
941.798	48780.23
942.163	64015.84
942.529	40026.39
942.895	36854.47
943.261	23861.55
943.627	31361.75
943.992	27461.31
944.358	27508.3
944.723	27593.05
945.089	26846.97
945.454	24796.97
945.82	26466.79
946.185	25426.94
946.55	29474.81
946.915	26442.99
947.28	30989.56
947.645	27234.99
948.01	25160.28
948.375	26223.7
948.74	31443.95
949.104	36677.64
949.469	53037
949.834	93744.63
950.198	88919.05
950.562	53266.17
950.927	44334.11
951.291	53386.21
951.655	45498.57
952.02	42724.97
952.384	32314.13
952.748	28127.96
953.112	27440.59
953.476	23852.65
953.839	22061.13
954.203	21834.15
954.567	27312.03
954.931	43076.44
955.294	36856.58
955.658	37051.61
956.021	63006.65
956.385	106924.03
956.748	157881.08
957.111	244991.1
957.474	275058.15
957.837	309927.2
958.2	234445.97
958.563	84297.22
958.926	56980.17
959.289	86464.27
959.652	96559.07
960.015	72420.94
960.377	103819.24
960.74	118420.98
961.102	204463.98
961.465	219411.74
961.827	117331.66
962.189	225238.83
962.552	156124.42
962.914	125144.52
963.276	81112.85
963.638	67130.11
964	66464.69
964.362	44942.83
964.724	43453.28
965.085	30964.43
965.447	25394.53
965.809	28989.82
966.17	28996.24
966.532	31399.67
966.893	28791.74
967.255	26223.33
967.616	30941.82
967.977	24759.49
968.338	27025.2
968.699	22174.46
969.061	22178.72
969.421	22325.08
969.782	25045.32
970.143	21163.25
970.504	21891.77
970.865	24880.11
971.225	25426.06
971.586	24863.15
971.946	35486.69
972.307	30829.53
972.667	40341.57
973.027	41546.88
973.388	50374.32
973.748	34231.62
974.108	37291.44
974.468	50520.47
974.828	38937.1
975.188	29968.9
975.548	27551.78
975.907	23110.33
976.267	25935.51
976.627	21800.93
976.986	22606.5
977.346	21548.96
977.705	20732.66
978.064	18885.1
978.424	15697.35
978.783	16261.84
979.142	18581.14
979.501	17757.42
979.86	18777.11
980.219	18090.56
980.578	23325.9
980.937	26127.19
981.296	23287.15
981.654	23989.62
982.013	37348.56
982.371	48474.43
982.73	45228.65
983.088	51159.27
983.447	54666.2
983.805	78161.05
984.163	163418.64
984.521	181406.04
984.879	265810.83
985.237	-432445.4
985.595	416611.94
985.953	103583.26
986.311	59887.44
986.669	34783.07
987.026	30035.58
987.384	40378.45
987.741	41749.68
988.099	29774.2
988.456	23726.44
988.814	22210.6
989.171	19317.05
989.528	19064.51
989.885	20114.17
990.242	15918.91
990.599	19831.87
990.956	16229.2
991.313	11350.09
991.67	9318.41
992.027	9870.26
992.383	8772.08
992.74	7691.74
993.096	8052.43
993.453	8343.47
993.809	8651.27
994.165	11521
994.522	10535.56
994.878	11608.2
995.234	14564.09
995.59	14373.2
995.946	13621.68
996.302	15523.95
996.658	17933.9
997.013	19792.78
997.369	23475.11
997.725	30018.34
998.08	19427.52
998.436	30053.98
998.791	41423.28
999.147	41354.84
999.502	45106.03
999.857	32834.31
1000.212	53504.7
1000.567	76158.34
1000.922	43904.84
1001.277	27937.51
1001.632	20742.56
1001.987	26714.17
1002.342	19140.71
1002.696	15325.53
1003.051	12234.78
1003.406	14817.49
1003.76	14745.78
1004.114	14565.79
1004.469	12251.67
1004.823	10157.24
1005.177	10930.61
1005.531	8664.22
1005.885	7690.24
1006.239	8675.71
1006.593	10862.81
1006.947	14490.81
1007.301	10856.5
1007.655	11834.69
1008.008	8658.31
1008.362	9721.14
1008.715	13888.64
1009.069	12644.5
1009.422	18988.63
1009.776	38118.68
1010.129	25310.18
1010.482	21148.06
1010.835	17969.59
1011.188	37516.87
1011.541	35339.89
1011.894	-216663.16
1012.247	636842.69
1012.6	43214.91
1012.952	27243.53
1013.305	14040.97
1013.657	10109.17
1014.01	9579.25
1014.362	7911.97
1014.715	7001.73
1015.067	6081.43
1015.419	5928.39
1015.771	5244.4
1016.123	4671.39
1016.475	4802.53
1016.827	5129.1
1017.179	5524.72
1017.531	5570.85
1017.883	5683.53
1018.234	5460.05
1018.586	6895.86
1018.938	7269.43
1019.289	10071.26
1019.64	11592.11
1019.992	10817.97
1020.343	9895.18
1020.694	7780.27
1021.045	6864.62
1021.396	7851.82
1021.747	8415.42
1022.098	10136.81
1022.449	7355.84
1022.8	6839.08
1023.151	4731.25
1023.501	4157.77
1023.852	4524.83
1024.202	4681.39
1024.553	5147.8
1024.903	5006.72
1025.253	4259.2
1025.604	3824.88
1025.954	4749.85
1026.304	5807.67
1026.654	6805.94
1027.004	10011.83
1027.354	16321.38
1027.703	15299.49
1028.053	20309.78
1028.403	29440.31
1028.753	43009.23
1029.102	58702.04
1029.452	302242.31
1029.801	13026.74
1030.15	8411.22
1030.499	7116.99
897.758	2415.87
901.051	2359.3
904.343	2392.72
907.636	2398.18
910.928	2462.49
914.22	2376.03
917.511	2382.32
920.803	2435.34
924.094	2444.82
927.384	2437.71
930.675	2402.49
933.965	2360.64
937.255	2381.62
940.544	2346.49
943.834	2322.56
947.123	2258.59
950.411	2351.89
953.7	2328.84
956.988	2306.43
960.276	2247.53
963.563	2310.94
966.851	2313.01
970.138	2363.94
973.424	2360.73
976.711	2317.21
979.997	2402.16
983.283	2446.91
986.568	2366.28
989.853	2371.11
993.138	2400.25
996.423	2480.3
999.708	2427.73
1002.992	2474.64
1006.275	2352.61
1009.559	2374.44
1012.842	2478.73
1016.125	2420.92
1019.408	2402.33
1022.69	2473.51
1025.972	2499.81
1029.254	2474.4
1032.536	2422.94
1035.817	2443.13
1039.098	2402.41
1042.379	2498.12
1045.659	2517.41
1048.939	2460.32
1052.219	2473.12
1055.498	2477.37
1058.778	2469.34
1062.057	2448.74
1065.335	2472.91
1068.614	2487.03
1071.892	2477.6
1075.17	2545.54
1078.447	2539.59
1081.724	2533.33
1085.001	2565.5
1088.278	2540.97
1091.554	2552.91
1094.83	2548.07
1098.106	2580.4
1101.382	2617.15
1104.657	2621.21
1107.932	2617.94
1111.206	2586.29
1114.481	2546.16
1117.755	2546.41
1121.029	2533.66
1124.302	2593.37
1127.575	2548.39
1130.848	2541.22
1134.121	2506.33
1137.393	2462.76
1140.665	2524.08
1143.937	2501.59
1147.208	2457.24
1150.48	2505.68
1153.75	2491.67
1157.021	2508.95
1160.291	2482.59
1163.561	2531.67
1166.831	2512.96
1170.101	2543.87
1173.37	2509.52
1176.639	2460.2
1179.907	2512.89
1183.176	2528.64
1186.444	2530.29
1189.711	2560.71
1192.979	2575.92
1196.246	2532.76
1199.513	2547.31
1202.78	2546.33
1206.046	2556.67
1209.312	2585.77
1212.578	2607.12
1215.843	2565.18
1219.108	2533.27
1222.373	2559.72
1225.638	2524.64
1228.902	2514.62
1232.166	2475.27
1235.43	2461.67
1238.693	2484
1241.956	2477.66
1245.219	2520.27
1248.482	2506.71
1251.744	2504.74
1255.006	2641.88
1258.268	2591.9
1261.529	2541.25
1264.79	2545.42
1268.051	2648.28
1271.312	2661.32
1274.572	2630.19
1277.832	2618.54
1281.092	2604.31
1284.351	2587.72
1287.61	2569.26
1290.869	2493.89
1294.128	2481.46
1297.386	2549.73
1300.644	2539.92
1303.902	2550.55
1307.159	2413.26
1310.416	2467.01
1313.673	2493.25
1316.93	2483.48
1320.186	2522.05
1323.442	2559.86
1326.697	2557.08
1329.953	2536.37
1333.208	2567.39
1336.463	2545.84
1339.717	2493.31
1342.972	2614.68
1346.226	2589.27
1349.479	2528.31
1352.733	2505.49
1355.986	2520.22
1359.238	2497.2
1362.491	2499.66
1365.743	2502.96
1368.995	2496.98
1372.247	2511.05
1375.498	2535.12
1378.749	2562.73
1382	2514.06
1385.251	2560.04
1388.501	2513.33
1391.751	2503.5
1395	2469.92
1398.25	2499.79
1401.499	2514.54
1404.748	2449.09
1407.996	2427.6
1411.244	2413.56
1414.492	2394.8
1417.74	2374.55
1420.987	2383.18
1424.234	2440.53
1427.481	2412.57
1430.728	2472.25
1433.974	2446.07
1437.22	2452.5
1440.465	2451.78
1443.711	2434.47
1446.956	2460.85
1450.201	2446.66
1453.445	2488.98
1456.689	2469.94
1459.933	2484.31
1463.177	2522.5
1466.42	2493.98
1469.663	2474.72
1472.906	2478.17
1476.148	2540.18
1479.391	2532.33
1482.633	2504.11
1485.874	2516.64
1489.115	2516.18
1492.356	2512.67
1495.597	2488.34
1498.838	2486.41
1502.078	2464.97
1505.318	2426.82
1508.557	2467.5
1511.797	2456.93
1515.036	2488.55
1518.274	2474.41
1521.513	2440.27
1524.751	2458.63
1527.989	2476.42
1531.227	2494.6
1534.464	2499.07
1537.701	2505.76
1540.938	2522.4
1544.174	2472.97
1547.41	2467.31
1550.646	2506.57
1553.882	2552.22
1557.117	2605.83
1560.352	2618.31
1563.587	2579.1
1566.821	2541.54
1570.055	2567.69
1573.289	2543.35
1576.523	2612.01
1579.756	2622.47
1582.989	2642.32
1586.222	2604.68
1589.454	2638.21
1592.686	2618.37
1595.918	2646.17
1599.15	2638.4
1602.381	2700.15
1605.612	2669.04
1608.843	2766.28
1612.073	2683.82
1615.303	2668.07
1618.533	2663.55
1621.762	2664.21
1624.992	2644.5
1628.221	2639.97
1631.449	2624.07
1634.678	2666.44
1637.906	2628.19
1641.134	2660.07
1644.361	2623.21
1647.588	2610.12
1650.815	2631.88
1654.042	2602.66
1657.269	2631.57
1660.495	2595.43
1663.72	2601.56
1666.946	2568.32
1670.171	2527.02
1673.396	2499.93
1676.621	2482.12
1679.845	2491.95
1683.069	2506.56
1686.293	2540.86
1689.517	2523.17
1692.74	2462.93
1695.963	2489.03
1699.185	2516.14
1702.408	2487.66
1705.63	2526.73
1708.852	2538.3
1712.073	2515.28
1715.294	2510.13
1718.515	2562
1721.736	2516.99
1724.956	2498.97
1728.176	2522.25
1731.396	2545.76
1734.616	2530.7
1737.835	2565.28
1741.054	2537.15
1744.272	2531.52
1747.491	2563.37
1750.709	2603.23
1753.927	2528.63
1757.144	2563.15
1760.361	2616.32
1763.578	2600.46
1766.795	2543.4
1770.011	2542.66
1773.227	2574.04
1776.443	2612.78
1779.658	2657.74
1782.874	2598.13
1786.089	2582.33
1789.303	2584.68
1792.518	2585.68
1795.732	2572.4
1798.945	2585.73
1802.159	2632.22
1805.372	2552.08
1808.585	2543.2
1811.797	2541.96
1815.01	2577.33
1818.222	2589.73
1821.434	2559.31
1824.645	2609.7
1827.856	2606.05
1831.067	2638.84
1834.278	2583.18
1837.488	2568.79
1840.698	2703.75
1843.908	2635.21
1847.117	2599.62
1850.326	2503.11
1853.535	2586.5
1856.744	2612.36
1859.952	2526.81
1863.16	2528.47
1866.368	2545.24
1869.575	2653.01
1872.782	2534.52
1875.989	2468.63
1879.196	2533.68
1882.402	2524.35
1885.608	2561.86
1888.814	2481.28
1892.019	2379.54
1895.224	2432.88
1898.429	2403.35
1901.634	2385.16
1904.838	2357.82
1908.042	2409.37
1911.246	2419.7
1914.449	2366.48
1917.652	2356.55
1920.855	2338.52
1924.058	2374.12
1927.26	2415.68
1930.462	2440.75
1933.664	2472.51
1936.865	2414.68
1940.066	2428.27
1943.267	2369.33
1946.467	2384.7
1949.668	2406.75
1952.868	2476.34
1956.067	2458.28
1959.267	2396.19
1962.466	2421
1965.665	2404.33
1968.863	2400.15
1972.061	2406.51
1975.259	2400.98
1978.457	2481.43
1981.654	2440.58
1984.852	2444.3
1988.048	2385.09
1991.245	2382.04
1994.441	2465.93
1997.637	2437.83
2000.833	2418.33
2004.028	2456.58
2007.223	2515.14
2010.418	2498.91
2013.613	2455.39
2016.807	2435.17
2020.001	2435.41
2023.194	2472.19
2026.388	2450.16
2029.581	2397.37
2032.774	2454.03
2035.966	2464.92
2039.158	2404
2042.35	2426.27
2045.542	2353.67
2048.733	2447.06
2051.924	2455.25
2055.115	2477.54
2058.306	2429.14
2061.496	2486.34
2064.686	2543.86
2067.875	2453.66
2071.065	2459.23
2074.254	2481.07
2077.442	2434.83
2080.631	2522.78
2083.819	2432.06
2087.007	2419.81
2090.195	2397.98
2093.382	2422.44
2096.569	2406.08
2099.756	2362.78
2102.942	2398.8
2106.128	2411.32
2109.314	2401.58
2112.5	2375.96
2115.685	2347.68
2118.87	2357.14
2122.055	2418.93
2125.239	2392.17
2128.424	2375.56
2131.608	2455.1
2134.791	2439.5
2137.974	2487.72
2141.157	2474.4
2144.34	2435.77
2147.523	2440.96
2150.705	2459.79
2153.887	2433.93
2157.068	2396.1
2160.25	2386.91
2163.431	2413.46
2166.611	2373.84
2169.792	2389.4
2172.972	2294.58
2176.152	2358.31
2179.331	2389.39
2182.511	2378.6
2185.69	2405.82
2188.868	2402.74
2192.047	2446.73
2195.225	2448.9
2198.403	2404.34
2201.58	2390.79
2204.758	2384.26
2207.935	2460.33
2211.111	2362.51
2214.288	2350.43
2217.464	2386.86
2220.64	2349.06
2223.815	2402.13
2226.991	2331.46
2230.166	2349.47
2233.34	2382.13
2236.515	2399.63
2239.689	2467.69
2242.863	2415.45
2246.036	2471.06
2249.209	2461.59
2252.382	2487.2
2255.555	2487.15
2258.727	2431.07
2261.9	2465.26
2265.071	2457.39
2268.243	2457.71
2271.414	2399.37
2274.585	2370.23
2277.756	2433.88
2280.926	2387.43
2284.096	2424.71
2287.266	2344.3
2290.436	2393.89
2293.605	2419.47
2296.774	2449.97
2299.942	2460.22
2303.111	2478.2
2306.279	2528.26
2309.447	2514.59
2312.614	2486.79
2315.781	2510.37
2318.948	2482.15
2322.115	2518.83
2325.281	2419.86
2328.447	2432.44
2331.613	2407.26
2334.779	2391.31
2337.944	2389.71
2341.109	2389.79
2344.274	2376.95
2347.438	2341.6
2350.602	2364.98
2353.766	2379.71
2356.929	2368.38
2360.092	2408.31
2363.255	2369.38
2366.418	2319.57
2369.58	2408.59
2372.742	2240.16
2375.904	2244.61
2379.066	2224.66
2382.227	2257.18
2385.388	2219.59
2388.548	2155.63
2391.709	2203.05
2394.869	2185.96
2398.029	2264.46
2401.188	2268.14
2404.347	2217.55
2407.506	2325.79
2410.665	2359.46
2413.823	2355.27
2416.981	2323.74
2420.139	2348.14
2423.296	2392.64
2426.453	2366
2429.61	2391.6
2432.767	2340.77
2435.923	2378.33
2439.079	2333.62
2442.235	2372.82
2445.391	2308.8
2448.546	2342.8
2451.701	2385.16
2454.855	2367.43
2458.009	2408.97
2461.163	2404.67
2464.317	2367.3
2467.471	2395.88
2470.624	2431.92
2473.777	2411.33
2476.929	2428.26
2480.082	2450.22
2483.234	2420.37
2486.385	2367.76
2489.537	2361.92
2492.688	2337.5
2495.839	2353.51
2498.989	2366.52
2502.14	2354.63
2505.29	2341.05
2508.439	2363.79
2511.589	2297.37
2514.738	2303.12
2517.887	2329.07
2521.035	2400.67
2524.183	2373.23
2527.331	2356.2
2530.479	2341.11
2533.627	2347.02
