Data from N_2_DEC_OH_4N_Splice17_12-04-09-028.txt Node
Date: Sat Mar 14 12:04:09 EDT 2020
User: sa697716
Spectrometer: FLMS03696
Trigger mode: 0
Integration Time (sec): 3.180400E-1
Scans to average: 20
Electric dark correction enabled: true
Nonlinearity correction enabled: true
Boxcar width: 5
XAxis mode: Wavelengths
Number of Pixels in Spectrum: 2048
>>>>>Begin Spectral Data<<<<<
187.83	-292031.43
188.298	2114.6
188.766	1143.53
189.233	1047.43
189.701	1526.28
190.169	2175.46
190.636	873.76
191.104	722.92
191.571	186.59
192.039	6.09
192.506	-51.54
192.974	455.94
193.441	-925.63
193.908	-300.8
194.375	-12.7
194.842	90.21
195.31	149.21
195.777	179.23
196.244	422.13
196.711	569
197.177	717.09
197.644	1014.65
198.111	1772.35
198.578	2519.96
199.045	2014.87
199.511	3249.49
199.978	3805.13
200.445	3283.35
200.911	3633.34
201.378	4036.52
201.844	3635.32
202.31	6208.38
202.777	6489.88
203.243	3603.53
203.709	3441.41
204.176	4109.72
204.642	3412.15
205.108	3190.75
205.574	2602.17
206.04	2407.01
206.506	2277.4
206.972	2173.64
207.438	2108.91
207.903	2408.02
208.369	2127.76
208.835	2131.59
209.301	2242.67
209.766	2309.94
210.232	2294.03
210.697	2861.32
211.163	3534.88
211.628	5354.75
212.094	4513.71
212.559	5554.99
213.024	3459.92
213.49	4240.95
213.955	4141.66
214.42	4066.75
214.885	3791.19
215.35	3656.53
215.815	3467.09
216.28	3705.53
216.745	3058.43
217.21	3339.02
217.675	3131.36
218.14	3590.84
218.604	4102.31
219.069	4796.14
219.534	5112.9
219.998	6079.9
220.463	7483.74
220.927	9460.14
221.392	9035.97
221.856	9256.7
222.32	11836.69
222.785	14744.15
223.249	18711.9
223.713	21011.64
224.177	21089.75
224.642	27248.42
225.106	33697.18
225.57	37031.08
226.034	27513.33
226.497	41953.74
226.961	37892.87
227.425	44105.67
227.889	49030.27
228.353	49111.12
228.816	101410.98
229.28	97027.37
229.744	81885.66
230.207	49688.95
230.671	48893.4
231.134	81113.73
231.597	93417.56
232.061	93442.11
232.524	91224.14
232.987	62824.07
233.45	56525.3
233.914	50731.56
234.377	52049.08
234.84	47658.84
235.303	56266.57
235.766	62786.84
236.229	64932.07
236.691	40950.95
237.154	46051.14
237.617	34646.14
238.08	35505.23
238.542	41593.52
239.005	29734.01
239.468	29493.12
239.93	27766.71
240.393	25227.27
240.855	22136.57
241.317	22656.23
241.78	27575.45
242.242	28463.88
242.704	30665.94
243.166	26662.06
243.629	24147.99
244.091	27807.2
244.553	30478.89
245.015	32763.17
245.477	42356.13
245.939	62091.25
246.4	65869.76
246.862	63936.65
247.324	60315.04
247.786	67563.2
248.247	88564.36
248.709	91595.28
249.17	68481.05
249.632	64408.33
250.093	74571
250.555	64366.14
251.016	39178.15
251.477	37139.04
251.939	40091.22
252.4	42037.32
252.861	49997.33
253.322	46497.3
253.783	55318.13
254.244	71735.09
254.705	56626.75
255.166	50402.52
255.627	49675.23
256.088	70065.43
256.549	74369.87
257.009	64053.61
257.47	77790.14
257.931	63329.59
258.391	47426.95
258.852	48877.65
259.312	51278.75
259.773	63328.24
260.233	53426.1
260.694	45001.55
261.154	51089.32
261.614	40958.08
262.074	36650.25
262.534	38029.44
262.994	35802.65
263.455	47757.44
263.915	40221.62
264.374	37895.28
264.834	41374.87
265.294	45926.48
265.754	47565.94
266.214	45045.41
266.673	42240.74
267.133	53272.34
267.593	52897.82
268.052	64756.46
268.512	56300.06
268.971	67838.44
269.431	74340.72
269.89	66571.73
270.349	99771.52
270.809	111261.74
271.268	99993.42
271.727	224356.62
272.186	145404.84
272.645	109018.14
273.104	78732.77
273.563	114008.19
274.022	89820.47
274.481	76367.76
274.94	58846.47
275.399	43766.6
275.857	51005.79
276.316	69035.12
276.775	61434.6
277.233	60487.66
277.692	56572.69
278.15	63935.99
278.609	65761.52
279.067	60834.77
279.525	56513.1
279.984	72988.18
280.442	87600.86
280.9	86244.43
281.358	56720.15
281.816	52831.03
282.274	51744.98
282.732	53549.94
283.19	53865.64
283.648	46499.93
284.106	49548.53
284.564	50426.32
285.021	46745.21
285.479	34853.38
285.937	31762.65
286.394	27836.86
286.852	28695.47
287.309	30121.79
287.767	29048.76
288.224	27597.05
288.682	30274.69
289.139	33190.56
289.596	30345.75
290.053	31551.32
290.511	39838.91
290.968	48280.08
291.425	65545.48
291.882	54492.04
292.339	47443.26
292.796	47137.57
293.252	44437.66
293.709	35278.35
294.166	31624.11
294.623	34983.19
295.079	33564.31
295.536	33702.82
295.992	30585.15
296.449	30264.2
296.905	31411.56
297.362	30088.61
297.818	31622.5
298.274	32797.1
298.731	33427.87
299.187	33075.53
299.643	35505.06
300.099	42966.66
300.555	47101.02
301.011	39336.5
301.467	37872.2
301.923	44402.93
302.379	43398.68
302.835	42649.53
303.291	42678.1
303.746	48568.26
304.202	61368.81
304.658	61595.03
305.113	41397.21
305.569	40586.58
306.024	43305.67
306.479	41259.72
306.935	34767.38
307.39	37959.76
307.845	35038.98
308.301	35251.67
308.756	34344.46
309.211	33084.18
309.666	33862.02
310.121	41938.31
310.576	42592
311.031	42264.58
311.486	48425.55
311.94	48373.57
312.395	64718.07
312.85	121721.57
313.305	598002.4
313.759	3088613.45
314.214	223678.78
314.668	177251.19
315.123	149059.58
315.577	53333.78
316.032	47376.78
316.486	59255.8
316.94	46683.59
317.394	32439.77
317.849	25186.27
318.303	23844.62
318.757	22480.03
319.211	24829.02
319.665	21736.47
320.119	21990.44
320.572	31561.11
321.026	29444.71
321.48	24526.97
321.934	26761.68
322.387	26841.45
322.841	28929.56
323.295	25946.36
323.748	29930.42
324.202	30340.47
324.655	36384.32
325.108	50745.81
325.562	35773.27
326.015	42537.12
326.468	32102.36
326.921	35884.53
327.374	33411.57
327.827	34758.06
328.28	39351.66
328.733	26341.51
329.186	23157.34
329.639	22053.13
330.092	18603.99
330.545	17718.58
330.997	17846.94
331.45	19471.67
331.903	22762.32
332.355	39177.21
332.808	38103.59
333.26	31441.65
333.713	34126.44
334.165	34402.24
334.617	45969
335.069	37188.2
335.522	67339.28
335.974	74580.25
336.426	68170.14
336.878	47301.4
337.33	23974.55
337.782	23400.69
338.234	29264.35
338.686	35036.31
339.137	41463.75
339.589	39068.2
340.041	30581.93
340.493	26241.08
340.944	26829.65
341.396	28900.25
341.847	24295.85
342.299	28594.01
342.75	34905.31
343.201	30542.6
343.653	35088.68
344.104	43091.48
344.555	33867.4
345.006	52780.1
345.457	40360.28
345.908	32116.7
346.359	30178.98
346.81	24575.65
347.261	25926.08
347.712	25525.94
348.163	27368.87
348.613	27653.09
349.064	25801.16
349.515	22588.6
349.965	23134.44
350.416	27851.47
350.866	30581.61
351.317	34593.91
351.767	57247.53
352.217	72364.69
352.668	60027.53
353.118	54946.3
353.568	53070.96
354.018	41994.72
354.468	44234.55
354.918	31753.64
355.368	27800.16
355.818	39228.31
356.268	112971.3
356.718	472144.32
357.168	117402.7
357.617	58933.32
358.067	65625.12
358.517	61431.2
358.966	71974.68
359.416	80719.36
359.865	87185.11
360.315	103853.82
360.764	48485.63
361.213	27137.37
361.663	25755.54
362.112	31777.39
362.561	51303.33
363.01	38638.81
363.459	32535.18
363.908	35220.66
364.357	29892.52
364.806	50455.08
365.255	34643.35
365.703	31663.51
366.152	31693.4
366.601	25637.45
367.05	20815.86
367.498	18888.09
367.947	19758.48
368.395	20542.59
368.844	18185.93
369.292	21950.7
369.74	15154.3
370.189	23223
370.637	27247.81
371.085	23526.31
371.533	28682.26
371.981	27635.57
372.429	26332.03
372.877	27401.65
373.325	22945.91
373.773	23384.96
374.221	20829.93
374.669	25843.58
375.116	22360.34
375.564	22567.37
376.012	25249.2
376.459	20823.9
376.907	24903.34
377.354	30155.82
377.801	28086.75
378.249	32262.38
378.696	41228.36
379.143	49881.91
379.591	53249.26
380.038	90058.72
380.485	64979.37
380.932	70031.74
381.379	63988.88
381.826	47015.32
382.273	33414.79
382.72	29223.03
383.166	28460.69
383.613	18415.61
384.06	16605.56
384.506	19186.96
384.953	14079.07
385.4	14175.54
385.846	12420.13
386.292	12107.72
386.739	11862.45
387.185	11714.93
387.631	11699.91
388.078	11351.07
388.524	12144.52
388.97	11188.74
389.416	9308.37
389.862	9872.79
390.308	9338.44
390.754	9455.3
391.2	10246.88
391.645	10473.08
392.091	9979.59
392.537	9625.12
392.983	9620.44
393.428	9419.3
393.874	10093.78
394.319	10099.61
394.765	9543.42
395.21	9780.62
395.655	9151.15
396.101	8536.79
396.546	7677.08
396.991	7740.34
397.436	7186.39
397.881	6923.33
398.326	6548.23
398.771	6156.37
399.216	5372.1
399.661	4833.72
400.106	4801.54
400.551	4904.26
400.995	4381.15
401.44	4319.39
401.885	4046.04
402.329	4070.31
402.774	3885.79
403.218	3748.13
403.663	3602.38
404.107	3693.76
404.551	3707.13
404.995	3391.09
405.44	3256.87
405.884	3307.35
406.328	3195.69
406.772	3178.17
407.216	2883.31
407.66	2784.25
408.104	2644.18
408.547	2474.44
408.991	2391.28
409.435	2300.01
409.879	2262.96
410.322	2230.2
410.766	2148.33
411.209	2039.82
411.653	1955.19
412.096	1914.19
412.54	1912.48
412.983	1892.55
413.426	1893.67
413.869	1887.77
414.312	1847.38
414.756	1779.42
415.199	1694.79
415.642	1642.52
416.085	1639.92
416.527	1627.58
416.97	1652.02
417.413	1564.28
417.856	1549.18
418.298	1531.81
418.741	1520.69
419.184	1515.36
419.626	1573.91
420.069	1574.44
420.511	1580.9
420.953	1544.88
421.396	1528.05
421.838	1487.79
422.28	1519.86
422.722	1525
423.164	1545.44
423.606	1518.55
424.048	1515.66
424.49	1440.05
424.932	1432.24
425.374	1410.71
425.816	1437.85
426.258	1465.9
426.699	1481.75
427.141	1462.09
427.582	1484.5
428.024	1477.23
428.465	1466.95
428.907	1432.28
429.348	1415.98
429.789	1416.78
430.231	1386.95
430.672	1404.96
431.113	1372.01
431.554	1354.03
431.995	1317.26
432.436	1271.32
432.877	1242.26
433.318	1223.9
433.759	1218.04
434.2	1219.54
434.64	1204.02
435.081	1208.39
435.522	1143.9
435.962	1102.01
436.403	1075.67
436.843	1093.41
437.284	1069.29
437.724	1042.19
438.164	1044.71
438.604	1021.23
439.045	981.21
439.485	939.92
439.925	920.16
440.365	897.13
440.805	884.44
441.245	874.01
441.685	841.75
442.125	835.1
442.564	839.12
443.004	818
443.444	814.95
443.883	815.51
444.323	809.29
444.762	809.71
445.202	818.79
445.641	833.36
446.081	826.06
446.52	829.74
446.959	819.61
447.398	799.3
447.837	787.78
448.276	773.48
448.716	780.18
449.154	786.76
449.593	767.53
450.032	763.4
450.471	746.75
450.91	746.18
451.349	744.43
451.787	741.09
452.226	750.64
452.664	750.16
453.103	748.97
453.541	744.88
453.98	740.81
454.418	745.13
454.856	732.65
455.295	731.36
455.733	735.81
456.171	738.02
456.609	738.73
457.047	737.78
457.485	746.76
457.923	747.93
458.361	737.85
458.798	740.08
459.236	738.21
459.674	743.91
460.111	747.96
460.549	741.23
460.987	739.62
461.424	736.34
461.862	732.47
462.299	722.1
462.736	721.82
463.173	725.07
463.611	717.5
464.048	715.45
464.485	721.45
464.922	714.27
465.359	709.99
465.796	700.3
466.233	695.31
466.67	689.7
467.106	689.79
467.543	683.57
467.98	675.66
468.416	657.93
468.853	652.88
469.29	633.31
469.726	626.28
470.162	609.42
470.599	601.67
471.035	595.55
471.471	579.95
471.907	575.08
472.344	570.79
472.78	571.05
473.216	578.61
473.652	571.43
474.088	568.78
474.523	565.24
474.959	569.85
475.395	563.56
475.831	559.64
476.266	561.64
476.702	559.63
477.138	551.69
477.573	548.07
478.008	545.3
478.444	546.68
478.879	551.03
479.314	552.76
479.75	551.54
480.185	553.13
480.62	557.43
481.055	558.87
481.49	561.38
481.925	569.28
482.36	578.85
482.795	592.81
483.229	607.69
483.664	619.86
484.099	621.77
484.534	630.69
484.968	635.89
485.403	636.25
485.837	635.57
486.271	634.05
486.706	633.9
487.14	626.21
487.574	615.63
488.009	607.88
488.443	600.42
488.877	605.27
489.311	606.09
489.745	612
490.179	615.93
490.613	625.37
491.046	628.52
491.48	630.95
491.914	629.65
492.348	632.52
492.781	634.78
493.215	634.76
493.648	633.66
494.082	636.19
494.515	633.39
494.948	638.77
495.382	640.87
495.815	641.95
496.248	643.98
496.681	652.43
497.114	659.14
497.547	665.08
497.98	673.79
498.413	675.58
498.846	680.44
499.279	685.06
499.711	685.39
500.144	683.5
500.577	690.52
501.009	696.66
501.442	701.71
501.874	699.72
502.306	698.04
502.739	701.53
503.171	710.56
503.603	711.28
504.036	715.95
504.468	717.12
504.9	724.57
505.332	726.81
505.764	728.4
506.196	731.59
506.627	740.82
507.059	749.95
507.491	754.34
507.923	751.65
508.354	762.21
508.786	770.16
509.217	784.06
509.649	794.73
510.08	808.82
510.512	821.42
510.943	833.35
511.374	843.69
511.805	860.74
512.237	877.42
512.668	904.8
513.099	927.72
513.53	950.11
513.961	968.21
514.391	995.66
514.822	1024.4
515.253	1055.57
515.684	1078.24
516.114	1103.97
516.545	1123.38
516.975	1145.55
517.406	1163.17
517.836	1168.58
518.267	1178.34
518.697	1197.49
519.127	1205.85
519.558	1216.06
519.988	1223.05
520.418	1236.38
520.848	1255.66
521.278	1267.69
521.708	1292.51
522.138	1307.66
522.567	1338.33
522.997	1364.03
523.427	1382.02
523.857	1400.61
524.286	1414.26
524.716	1432.96
525.145	1453.95
525.575	1468.43
526.004	1486.39
526.433	1482.65
526.863	1485.79
527.292	1480.14
527.721	1488.82
528.15	1497.2
528.579	1499.62
529.008	1512.48
529.437	1534.7
529.866	1549.58
530.295	1566.99
530.724	1580
531.152	1606.52
531.581	1623.03
532.01	1642.41
532.438	1652.34
532.867	1667.34
533.295	1686.85
533.723	1694.37
534.152	1695.83
534.58	1697.8
535.008	1685.35
535.436	1688.26
535.865	1697.05
536.293	1711.12
536.721	1726.46
537.149	1751.61
537.576	1754.74
538.004	1769.1
538.432	1777.19
538.86	1775.18
539.287	1782.74
539.715	1797.1
540.143	1801.4
540.57	1798.68
540.998	1796.19
541.425	1776.03
541.852	1756.18
542.28	1755.33
542.707	1739.03
543.134	1726.23
543.561	1722.8
543.988	1715.51
544.415	1713.13
544.842	1707.61
545.269	1700.83
545.696	1702.31
546.123	1713.66
546.549	1704.01
546.976	1692.62
547.403	1692.93
547.829	1694.71
548.256	1696.63
548.682	1692.99
549.108	1687.27
549.535	1687.03
549.961	1688.45
550.387	1675.5
550.813	1669.79
551.24	1676.08
551.666	1676.53
552.092	1666.02
552.518	1659.79
552.943	1653.39
553.369	1659.35
553.795	1663.15
554.221	1661.88
554.646	1657.51
555.072	1666.38
555.498	1669.18
555.923	1675.71
556.349	1686.41
556.774	1693.41
557.199	1692.51
557.625	1695.77
558.05	1687.65
558.475	1694.74
558.9	1691.51
559.325	1680.58
559.75	1672.4
560.175	1663.01
560.6	1653.91
561.025	1649.37
561.449	1646.68
561.874	1647.51
562.299	1647.06
562.723	1650.74
563.148	1637.03
563.572	1637.49
563.997	1642.92
564.421	1642.42
564.846	1638.95
565.27	1637.5
565.694	1630.79
566.118	1636.93
566.542	1639.37
566.966	1630.4
567.39	1621.27
567.814	1608.17
568.238	1602.52
568.662	1603.12
569.086	1602.13
569.509	1604.98
569.933	1588.32
570.357	1578.41
570.78	1555.9
571.204	1540.58
571.627	1528.17
572.05	1522.35
572.474	1518.4
572.897	1504.1
573.32	1493.34
573.743	1481.36
574.166	1462.37
574.589	1457.77
575.012	1447.49
575.435	1443.54
575.858	1432.39
576.281	1418.52
576.704	1403.04
577.126	1389.57
577.549	1378.11
577.972	1367.69
578.394	1355.81
578.817	1347.2
579.239	1330.17
579.661	1317.49
580.084	1301.64
580.506	1288.47
580.928	1283.53
581.35	1271.59
581.772	1266.41
582.194	1253.27
582.616	1240.39
583.038	1226.8
583.46	1215.04
583.882	1210.24
584.303	1211.33
584.725	1206.59
585.147	1207.93
585.568	1214.68
585.99	1224.47
586.411	1227.16
586.833	1237.42
587.254	1237.74
587.675	1247.14
588.096	1255.8
588.518	1249.82
588.939	1234.59
589.36	1231.15
589.781	1220.08
590.202	1196.56
590.623	1187.34
591.043	1184.5
591.464	1172.52
591.885	1168.26
592.305	1163.04
592.726	1151.87
593.147	1150.89
593.567	1146.89
593.987	1140.52
594.408	1135.15
594.828	1131.5
595.248	1125.45
595.669	1110.42
596.089	1104.62
596.509	1098.81
596.929	1087.17
597.349	1088.35
597.769	1081.16
598.189	1075.94
598.608	1075.96
599.028	1077.52
599.448	1077.64
599.867	1068.07
600.287	1064.16
600.706	1060.02
601.126	1051.71
601.545	1051.59
601.965	1048.3
602.384	1043.17
602.803	1044.47
603.222	1039.7
603.641	1033.68
604.061	1030.13
604.48	1025.53
604.898	1030.22
605.317	1033.23
605.736	1033.53
606.155	1029.81
606.574	1022.38
606.992	1026.25
607.411	1021.33
607.829	1014.6
608.248	1010.81
608.666	1008.47
609.085	1007.84
609.503	1001.63
609.921	996.63
610.339	998.1
610.758	995.96
611.176	992.68
611.594	984.52
612.012	981.99
612.43	984.73
612.847	989.62
613.265	989.41
613.683	992.66
614.101	993.71
614.518	990.23
614.936	981.74
615.353	971.93
615.771	968.43
616.188	969.09
616.606	964.97
617.023	958.92
617.44	947.97
617.857	942.01
618.274	934.99
618.691	930.14
619.108	922.79
619.525	918.33
619.942	922.71
620.359	924.82
620.776	920.81
621.192	918.9
621.609	917.46
622.026	922.89
622.442	927.21
622.859	929.49
623.275	923.76
623.691	927.53
624.108	936.08
624.524	946.89
624.94	947.53
625.356	954.37
625.772	963.54
626.188	971.62
626.604	971.94
627.02	969.4
627.436	967.99
627.852	973.3
628.268	983.01
628.683	976.2
629.099	970.03
629.514	965.94
629.93	967.98
630.345	970.59
630.761	967.57
631.176	970.54
631.591	966.14
632.007	962.52
632.422	960.73
632.837	952.45
633.252	950.47
633.667	941.97
634.082	934.35
634.497	925.14
634.911	911.78
635.326	908.36
635.741	895.04
636.155	886.43
636.57	885.75
636.984	884.57
637.399	884.64
637.813	884.05
638.228	882.33
638.642	884.84
639.056	876.73
639.47	876.18
639.884	870.1
640.298	865.26
640.712	865.24
641.126	856.08
641.54	849.1
641.954	845.35
642.368	837.64
642.781	833.89
643.195	822.15
643.609	824.29
644.022	821.14
644.436	819.45
644.849	811.51
645.262	804.85
645.676	807.74
646.089	806.97
646.502	798.7
646.915	795.67
647.328	783.76
647.741	784.95
648.154	777.5
648.567	776.83
648.98	768.19
649.393	771.2
649.805	770.47
650.218	766.88
650.631	756.67
651.043	753.37
651.456	749.98
651.868	752.14
652.28	766.79
652.693	777.83
653.105	783.65
653.517	793.18
653.929	795.42
654.341	801.32
654.753	793.55
655.165	800.7
655.577	801.81
655.989	801.78
656.401	799.41
656.813	773.28
657.224	760.09
657.636	741.19
658.047	731.07
658.459	718.95
658.87	714.67
659.282	708.99
659.693	697.62
660.104	689.29
660.515	682.06
660.926	683.41
661.338	685.85
661.749	685.59
662.159	682.31
662.57	682.69
662.981	682.98
663.392	681.92
663.803	690.32
664.213	691.98
664.624	693
665.035	700.49
665.445	693.81
665.855	691.97
666.266	689.73
666.676	692.25
667.086	687.76
667.497	691.63
667.907	689.81
668.317	685.94
668.727	686.46
669.137	690.31
669.547	691.39
669.956	696.2
670.366	700.66
670.776	705.09
671.186	711.3
671.595	718.19
672.005	723.37
672.414	725.71
672.824	726.31
673.233	731.9
673.642	735.96
674.052	740.16
674.461	744.74
674.87	751.62
675.279	750.48
675.688	752.49
676.097	754.01
676.506	752.47
676.915	767.4
677.323	770.55
677.732	769.52
678.141	769.84
678.549	760.28
678.958	759.46
679.366	758.31
679.775	762.62
680.183	772.49
680.592	779.03
681	783.93
681.408	775.25
681.816	779.68
682.224	785.82
682.632	790.56
683.04	814.19
683.448	831.11
683.856	853.04
684.264	878.71
684.671	900.35
685.079	925.82
685.487	954.77
685.894	998.73
686.302	1031.58
686.709	1053.58
687.116	1082.7
687.524	1102.05
687.931	1117.59
688.338	1128.14
688.745	1134.19
689.152	1145.42
689.559	1166.3
689.966	1187.15
690.373	1191.79
690.78	1213.94
691.187	1255.69
691.593	1287.17
692	1314.71
692.407	1358.76
692.813	1417.46
693.22	1464.28
693.626	1515.46
694.032	1557.43
694.439	1622.88
694.845	1678.76
695.251	1747.6
695.657	1811.67
696.063	1904.51
696.469	1980.01
696.875	2053.09
697.281	2102.01
697.687	2162.2
698.093	2214.82
698.498	2301.73
698.904	2374.09
699.31	2472.66
699.715	2550.56
700.12	2655.93
700.526	2695.73
700.931	2781.93
701.337	2855.95
701.742	2911.21
702.147	3014.28
702.552	3068.7
702.957	3150.79
703.362	3194.5
703.767	3246.84
704.172	3312.29
704.577	3291.47
704.981	3364.08
705.386	3406.75
705.791	3423.04
706.195	3522.72
706.6	3558.07
707.004	3663.49
707.408	3656.1
707.813	3708.61
708.217	3720.25
708.621	3746.24
709.025	3873.47
709.43	3896.42
709.834	3983.53
710.237	4080.99
710.641	4090.82
711.045	4135.93
711.449	4152.09
711.853	4203.53
712.256	4273.1
712.66	4335.83
713.064	4439.02
713.467	4505.84
713.87	4654.57
714.274	4727.83
714.677	4874.98
715.08	5078.06
715.484	5296.12
715.887	5552.03
716.29	5811.32
716.693	6076.63
717.096	6384.34
717.499	6565.47
717.901	6621.17
718.304	6676.35
718.707	6730.82
719.109	6633.25
719.512	6620.25
719.915	6475.23
720.317	6431.08
720.719	6502.92
721.122	6485.61
721.524	6441.64
721.926	6407.01
722.328	6546.52
722.731	6555.49
723.133	6609.68
723.535	6864.19
723.937	6906.3
724.338	6988.73
724.74	7054.26
725.142	6960.96
725.544	6972.93
725.945	7013.7
726.347	7028.44
726.748	7032.86
727.15	7060.2
727.551	7021.02
727.952	6999.48
728.354	6972.98
728.755	6984.33
729.156	6942.94
729.557	6966.62
729.958	6823.3
730.359	6770.69
730.76	6752.51
731.161	6685.32
731.562	6663.79
731.962	6676.83
732.363	6599.34
732.763	6525.47
733.164	6576.38
733.564	6498.14
733.965	6383.84
734.365	6344.93
734.766	6385.88
735.166	6341.17
735.566	6275.93
735.966	6247.98
736.366	6247.82
736.766	6175.29
737.166	6221.89
737.566	6175.27
737.966	6145.24
738.365	6199.45
738.765	6195.71
739.165	6101.28
739.564	6072.81
739.964	6135.81
740.363	6079.49
740.763	6079.54
741.162	6066.97
741.561	6028.83
741.96	5972.96
742.36	6002.39
742.759	6011.06
743.158	6065.43
743.557	6088.79
743.955	6144.86
744.354	6087.79
744.753	6163.99
745.152	6112.12
745.55	6185.31
745.949	6178.69
746.348	6184.3
746.746	6207.61
747.144	6157.65
747.543	6131.02
747.941	6199.17
748.339	6107.52
748.737	6099.16
749.136	6087.82
749.534	6173.68
749.932	6139.84
750.33	6173.19
750.727	6244.21
751.125	6211.96
751.523	6191.5
751.921	6245.09
752.318	6201.07
752.716	6276.59
753.113	6294.85
753.511	6329.93
753.908	6330.08
754.305	6305.5
754.703	6384.79
755.1	6466.66
755.497	6545.85
755.894	6796.17
756.291	7033.5
756.688	7464.31
757.085	8041.37
757.482	8853.3
757.878	9734.03
758.275	10535.13
758.672	11640.47
759.068	12538.12
759.465	13814.74
759.861	15473.53
760.258	17389.59
760.654	18380.03
761.05	18226.78
761.447	17389.33
761.843	16180.23
762.239	14947.62
762.635	14387.01
763.031	13846.9
763.427	13068.83
763.822	12252.86
764.218	11441.72
764.614	10395.23
765.01	9697.76
765.405	9249.46
765.801	8909.29
766.196	8472.46
766.592	8225.79
766.987	7812.3
767.382	7533.86
767.778	7417.71
768.173	7247.83
768.568	7154.99
768.963	6993.29
769.358	7013.95
769.753	6953.4
770.148	6843.36
770.542	6845.46
770.937	6804.84
771.332	6923.89
771.726	6951.29
772.121	6870.89
772.515	6945.5
772.91	6928.07
773.304	7022.81
773.699	6941.09
774.093	7014.46
774.487	7091
774.881	7147.75
775.275	7145.85
775.669	7093.53
776.063	7150.05
776.457	7197.44
776.851	7098.68
777.245	7087.7
777.638	7129.99
778.032	7281.45
778.425	7228.63
778.819	7278.94
779.212	7220.17
779.606	7163.76
779.999	7189.86
780.392	7167.1
780.786	7274.5
781.179	7306
781.572	7360.73
781.965	7378.12
782.358	7302.68
782.751	7380.33
783.143	7321.63
783.536	7422.03
783.929	7481.65
784.322	7629.62
784.714	7670.84
785.107	7665.49
785.499	7757.78
785.891	7729.69
786.284	7705.49
786.676	7890.54
787.068	7862.08
787.46	7927.62
787.852	7950.25
788.245	8058.83
788.636	8099.81
789.028	8188.15
789.42	8237.06
789.812	8239.59
790.204	8365.73
790.595	8492.98
790.987	8234.67
791.378	8265.89
791.77	8433.55
792.161	8615.61
792.553	8689.99
792.944	8543.35
793.335	8453.61
793.726	8550.99
794.117	8674.13
794.508	8852.14
794.899	8813.71
795.29	9000.29
795.681	9075.74
796.072	8892.87
796.463	8634.89
796.853	8642.98
797.244	8845.61
797.634	8892.01
798.025	8887.51
798.415	8900.71
798.806	9015.69
799.196	9124.09
799.586	9186.75
799.976	9134.39
800.366	9431.61
800.756	9754.17
801.146	9703.11
801.536	9744.29
801.926	9841.97
802.316	9875.8
802.706	9965.33
803.095	9801.38
803.485	9932.26
803.874	9988.9
804.264	10325.39
804.653	10291.67
805.043	10481.6
805.432	10626.65
805.821	10626.72
806.21	10650.01
806.599	10804.91
806.988	10869.52
807.377	11013.42
807.766	11186.44
808.155	11550.24
808.544	11210.8
808.933	11233.35
809.321	11205.43
809.71	11594.05
810.098	11802.8
810.487	12406.4
810.875	13037.23
811.264	13056.91
811.652	13426.45
812.04	13613.41
812.428	13828.21
812.816	14815.97
813.204	15351.4
813.592	16068.03
813.98	16503.3
814.368	16376.1
814.756	16999.41
815.144	16882.46
815.531	17501.95
815.919	17405.18
816.306	17800.24
816.694	17401.37
817.081	17469.25
817.469	17925.46
817.856	17925.02
818.243	18266.9
818.63	18774.73
819.017	18222.2
819.404	18317.62
819.791	18808.25
820.178	19616.68
820.565	19935.37
820.952	21130.62
821.339	20488.38
821.725	20727.7
822.112	19757.48
822.498	19704.24
822.885	19875.66
823.271	19752.8
823.657	20289.7
824.044	20293.8
824.43	20388.53
824.816	20344.7
825.202	19785.63
825.588	21101.68
825.974	21113.62
826.36	21779.99
826.746	21820.9
827.132	22285.4
827.517	22242.05
827.903	21227.65
828.289	21279.81
828.674	20269.67
829.06	20139.18
829.445	20655.65
829.83	21127.48
830.216	21751.44
830.601	22225.94
830.986	21701.81
831.371	21526.17
831.756	22256.3
832.141	21690.55
832.526	21682.35
832.911	22048.18
833.295	21897.03
833.68	22502.59
834.065	21694.14
834.449	20510.6
834.834	20420.53
835.218	20419.96
835.603	20860.55
835.987	20591.01
836.371	21678.52
836.755	21543.88
837.139	22067.36
837.524	22396.06
837.908	22168.5
838.291	22253.15
838.675	22345.87
839.059	22616.32
839.443	22604.77
839.827	22313.33
840.21	22938.54
840.594	22747.5
840.977	23019.72
841.361	22999.5
841.744	23488.21
842.127	23293.73
842.511	23616.67
842.894	24397.02
843.277	24894.39
843.66	25602.65
844.043	25703.1
844.426	24661.02
844.809	24262.82
845.191	24315.84
845.574	23719.82
845.957	23243.04
846.339	23101.23
846.722	22424.18
847.104	22515.77
847.487	22301
847.869	22323.51
848.252	22692.17
848.634	23124.41
849.016	23464.49
849.398	23615.93
849.78	24722.66
850.162	24729.27
850.544	25271.29
850.926	26089.2
851.307	25973.36
851.689	26334.22
852.071	26918.36
852.452	27327.97
852.834	27303.28
853.215	27817.8
853.597	28015.02
853.978	28379.91
854.359	28968.6
854.741	27669.64
855.122	27532.37
855.503	27154.91
855.884	27335.65
856.265	27249.96
856.646	27410.93
857.026	26897.71
857.407	26810.28
857.788	27025.11
858.169	27406.94
858.549	26288.81
858.93	27100.34
859.31	27163.74
859.69	27426.82
860.071	26892.97
860.451	26614.91
860.831	25655.86
861.211	27159.67
861.591	27870.91
861.971	27838.37
862.351	28085.83
862.731	28598.4
863.111	28938.11
863.491	29370.61
863.87	30515.33
864.25	30971.02
864.629	30441.25
865.009	31094.72
865.388	32199.4
865.768	34506.96
866.147	34348.09
866.526	32449.91
866.905	32845.18
867.284	34689.57
867.663	32940.17
868.042	31570.82
868.421	31459.57
868.8	31985.02
869.179	32297.27
869.558	30410.15
869.936	28029.18
870.315	28533.82
870.693	29226.53
871.072	31518.64
871.45	30024.94
871.828	30400.41
872.207	31958.61
872.585	31482.45
872.963	32337.66
873.341	31227.71
873.719	30845.66
874.097	30475.54
874.475	31065.85
874.853	31785.17
875.23	30462.77
875.608	31736.81
875.986	34329.86
876.363	32834.75
876.741	33824.09
877.118	32976.48
877.495	34602.17
877.873	35198.32
878.25	37037.87
878.627	35513.86
879.004	36016.42
879.381	35840.41
879.758	34891.56
880.135	32486.47
880.512	34349.94
880.889	33454.55
881.265	33110.73
881.642	32832.27
882.019	33394.81
882.395	32710.14
882.772	34012.35
883.148	32516.14
883.524	32386.5
883.901	32211.21
884.277	32699.88
884.653	32491.5
885.029	33407.27
885.405	36995.59
885.781	36711.14
886.157	35213.88
886.532	35655.58
886.908	35655.47
887.284	39655.5
887.659	40952.45
888.035	42228.73
888.411	43317.04
888.786	43897.64
889.161	45445.05
889.537	44611.9
889.912	46059.63
890.287	46005.57
890.662	47193.95
891.037	46321.76
891.412	43219.25
891.787	42787.86
892.162	41290.75
892.536	42264.41
892.911	40687.22
893.286	39821.74
893.66	38197.3
894.035	39158.28
894.409	42657.44
894.784	40937.04
895.158	41635.25
895.532	44089.94
895.906	45277.78
896.281	46347.85
896.655	45595.56
897.029	52085.48
897.402	54244.37
897.776	60434.93
898.15	60246.78
898.524	59549.01
898.898	60338.16
899.271	67535.6
899.645	58495.46
900.018	56215.38
900.392	58298.51
900.765	58781.64
901.138	54390.83
901.511	53573.39
901.884	49166.32
902.258	45328.77
902.631	46856.72
903.003	53951.07
903.376	48676.36
903.749	54580.36
904.122	58414.99
904.495	64339.92
904.867	65164.56
905.24	56583.68
905.612	52687.02
905.985	53899.32
906.357	56365.6
906.729	53783.3
907.102	45937.87
907.474	44186.77
907.846	44472.76
908.218	43891.06
908.59	38750.4
908.962	37454.15
909.334	40329.43
909.705	42348.27
910.077	41101.65
910.449	42768.48
910.82	43945.23
911.192	48327.19
911.563	50194.68
911.935	53711.05
912.306	53778.57
912.677	55565.06
913.048	55020.56
913.419	59690.97
913.79	60030.86
914.161	64358.4
914.532	61538.94
914.903	56588.76
915.274	53745.77
915.645	52978.48
916.015	46615.25
916.386	44441.84
916.756	47289.02
917.127	48786.36
917.497	43581.91
917.868	47457.5
918.238	45094.43
918.608	46381.94
918.978	47337.31
919.348	50152.04
919.718	51801.03
920.088	49893.66
920.458	51825.37
920.828	54564.79
921.198	51694.77
921.567	55214.79
921.937	42721.81
922.306	43142.8
922.676	46538.81
923.045	38809.05
923.415	36838.56
923.784	33551.88
924.153	34485.49
924.522	34446.12
924.891	32342.88
925.26	34662.86
925.629	33856.77
925.998	38934.36
926.367	38001.91
926.736	36159.97
927.104	43082.83
927.473	46357.31
927.842	55982.51
928.21	55444.44
928.578	58296.92
928.947	55158.63
929.315	55464.68
929.683	64990.21
930.051	65494.36
930.42	76046.99
930.788	65020.71
931.156	64515.17
931.523	60478.72
931.891	55875.69
932.259	53667.66
932.627	62181.04
932.994	87983.88
933.362	72721.8
933.729	63207.08
934.097	60489.72
934.464	51172.57
934.831	59084.4
935.199	58250.21
935.566	56404.43
935.933	57251.27
936.3	69409.74
936.667	54070.65
937.034	48717.67
937.401	48192.11
937.767	41561.64
938.134	37019.07
938.501	52232.64
938.867	55619.6
939.234	94021.98
939.6	80361.83
939.967	88376.28
940.333	59082.36
940.699	50284.24
941.065	40432.92
941.431	52973.93
941.798	51074.04
942.163	67009.39
942.529	41847.04
942.895	38496.33
943.261	24914.39
943.627	32672.47
943.992	28608.58
944.358	28671.03
944.723	28746.11
945.089	28009.86
945.454	25923.45
945.82	27711.15
946.185	26648.96
946.55	30881.67
946.915	27750.15
947.28	32544.13
947.645	28620.43
948.01	26390.41
948.375	27511.6
948.74	32993.85
949.104	38493.94
949.469	55627.19
949.834	98332.87
950.198	93141.33
950.562	55843.93
950.927	46468.97
951.291	55929.46
951.655	47707.82
952.02	44848.43
952.384	33913.18
952.748	29522.95
953.112	28789.21
953.476	25015.34
953.839	23106.09
954.203	22867.41
954.567	28590.85
954.931	45048.36
955.294	38531.02
955.658	38718.52
956.021	65815.03
956.385	111701.3
956.748	164845.67
957.111	255712.73
957.474	287195.03
957.837	323674.63
958.2	244965.33
958.563	88200.56
958.926	59638.76
959.289	90473.61
959.652	101109.92
960.015	75861.83
960.377	108793.69
960.74	124140.64
961.102	214253.89
961.465	229877.47
961.827	122840.8
962.189	235944.1
962.552	163504.69
962.914	131125.92
963.276	85080.53
963.638	70350.26
964	69696
964.362	47105.57
964.724	45559.33
965.085	32508.72
965.447	26654.28
965.809	30452.97
966.17	30487.11
966.532	32985.12
966.893	30274.91
967.255	27570.83
967.616	32520.75
967.977	26020.43
968.338	28421.08
968.699	23339.93
969.061	23331.95
969.421	23486.96
969.782	26314.02
970.143	22189.04
970.504	22933.41
970.865	26028.59
971.225	26565.62
971.586	26012.07
971.946	37095.96
972.307	32202.53
972.667	42129.16
973.027	43360.08
973.388	52584.04
973.748	35806.73
974.108	39025.15
974.468	52880.71
974.828	40792.43
975.188	31448.76
975.548	28846.02
975.907	24215.06
976.267	27171.49
976.627	22814.24
976.986	23667.57
977.346	22549.64
977.705	21696.57
978.064	19772.95
978.424	16477.04
978.783	17046.73
979.142	19432.27
979.501	18602.08
979.86	19660.01
980.219	18925.88
980.578	24407.02
980.937	27337
981.296	24371.55
981.654	25053.7
982.013	38959.39
982.371	50476.72
982.73	47153.49
983.088	53388.01
983.447	57033.8
983.805	81537.83
984.163	170471.31
984.521	189332.46
984.879	277674.68
985.237	-451552.33
985.595	435349.7
985.953	108291.35
986.311	62552.95
986.669	36298.23
987.026	31358.8
987.384	42154.65
987.741	43546.56
988.099	31103.64
988.456	24777.83
988.814	23142.57
989.171	20113.62
989.528	19868.16
989.885	20976.36
990.242	16606.26
990.599	20696.71
990.956	16921.21
991.313	11840.61
991.67	9727.25
992.027	10286.37
992.383	9142.68
992.74	8024.45
993.096	8413.81
993.453	8711.21
993.809	9028.79
994.165	12033.64
994.522	10982.91
994.878	12111.25
995.234	15190.76
995.59	15002.4
995.946	14241.16
996.302	16235.96
996.658	18752.24
997.013	20676.99
997.369	24500.16
997.725	31362.12
998.08	20297.72
998.436	31443.96
998.791	43380.83
999.147	43318.91
999.502	47175.12
999.857	34298.97
1000.212	55945.94
1000.567	79773.21
1000.922	46053.66
1001.277	29298.2
1001.632	21745.4
1001.987	28034.37
1002.342	20088.51
1002.696	16075.73
1003.051	12807.32
1003.406	15548.35
1003.76	15481.22
1004.114	15236.07
1004.469	12824.3
1004.823	10620.58
1005.177	11479.41
1005.531	9091.31
1005.885	8061.19
1006.239	9094.01
1006.593	11350.3
1006.947	15194.54
1007.301	11380.62
1007.655	12408.02
1008.008	9129.1
1008.362	10240.32
1008.715	14589.89
1009.069	13214.92
1009.422	19841.29
1009.776	39809.6
1010.129	26413.87
1010.482	22133.01
1010.835	18725.89
1011.188	39074.22
1011.541	36809.62
1011.894	-224701.8
1012.247	660243.31
1012.6	45007.36
1012.952	28402.12
1013.305	14678.67
1013.657	10584.49
1014.01	10018.3
1014.362	8273.71
1014.715	7321.59
1015.067	6347.59
1015.419	6184.06
1015.771	5476.2
1016.123	4872.04
1016.475	4991.34
1016.827	5326.18
1017.179	5714.53
1017.531	5759.16
1017.883	5891.54
1018.234	5658.35
1018.586	7155.26
1018.938	7569.36
1019.289	10456.91
1019.64	12021.9
1019.992	11229.26
1020.343	10302.25
1020.694	8109.3
1021.045	7169.66
1021.396	8205.36
1021.747	8784.18
1022.098	10629.7
1022.449	7727.83
1022.8	7180.7
1023.151	5003.21
1023.501	4424.78
1023.852	4816.4
1024.202	5004.07
1024.553	5515.73
1024.903	5402.05
1025.253	4589.92
1025.604	4134.85
1025.954	5126.21
1026.304	6257.95
1026.654	7290.99
1027.004	10661.54
1027.354	17190.89
1027.703	16099.33
1028.053	21111.18
1028.403	30797.17
1028.753	44624.53
1029.102	60986.81
1029.452	313901.44
1029.801	13520.18
1030.15	8733.09
1030.499	7416.18
897.758	2229.34
901.051	2162.28
904.343	2195.21
907.636	2204.15
910.928	2267.5
914.22	2182.33
917.511	2188.46
920.803	2239.05
924.094	2236.93
927.384	2241.5
930.675	2204.7
933.965	2167.06
937.255	2197.24
940.544	2166.45
943.834	2163.64
947.123	2102.55
950.411	2196.36
953.7	2175.45
956.988	2159.92
960.276	2095.66
963.563	2144.88
966.851	2155.37
970.138	2198.83
973.424	2200.08
976.711	2153.79
979.997	2203.66
983.283	2249.53
986.568	2179.01
989.853	2170.77
993.138	2196.32
996.423	2285.06
999.708	2243.28
1002.992	2274.8
1006.275	2184.46
1009.559	2191.39
1012.842	2291.73
1016.125	2244.66
1019.408	2222.56
1022.69	2282.67
1025.972	2318.63
1029.254	2293.31
1032.536	2252.9
1035.817	2264.73
1039.098	2235.55
1042.379	2289.76
1045.659	2318.09
1048.939	2266.25
1052.219	2273.38
1055.498	2267.68
1058.778	2265.09
1062.057	2238.02
1065.335	2263.3
1068.614	2277.02
1071.892	2273.24
1075.17	2325.18
1078.447	2331
1081.724	2324.44
1085.001	2350.51
1088.278	2330.13
1091.554	2337.88
1094.83	2330.14
1098.106	2368.78
1101.382	2401.07
1104.657	2398.72
1107.932	2399.84
1111.206	2379.52
1114.481	2327.96
1117.755	2329.36
1121.029	2322.67
1124.302	2385.33
1127.575	2350.19
1130.848	2347.97
1134.121	2316.48
1137.393	2279.04
1140.665	2339.83
1143.937	2314.97
1147.208	2262.82
1150.48	2325.95
1153.75	2315.61
1157.021	2316.51
1160.291	2293.23
1163.561	2348.91
1166.831	2314.92
1170.101	2342.88
1173.37	2301.5
1176.639	2258.07
1179.907	2302.72
1183.176	2325.88
1186.444	2326.67
1189.711	2351.89
1192.979	2377.28
1196.246	2331.57
1199.513	2343.35
1202.78	2349.93
1206.046	2361.46
1209.312	2388.76
1212.578	2405.9
1215.843	2374.33
1219.108	2341.27
1222.373	2365.53
1225.638	2335.87
1228.902	2328.86
1232.166	2280.64
1235.43	2268.91
1238.693	2292.98
1241.956	2283.08
1245.219	2333.1
1248.482	2316.15
1251.744	2313.98
1255.006	2440.7
1258.268	2386.31
1261.529	2342.01
1264.79	2340.56
1268.051	2445.7
1271.312	2454.02
1274.572	2425.67
1277.832	2415.49
1281.092	2392.77
1284.351	2383.68
1287.61	2368.54
1290.869	2300.82
1294.128	2299.03
1297.386	2347.42
1300.644	2342.23
1303.902	2350.11
1307.159	2216.38
1310.416	2268.04
1313.673	2295.63
1316.93	2294.88
1320.186	2326.89
1323.442	2360.41
1326.697	2360.25
1329.953	2333.89
1333.208	2371.35
1336.463	2339.41
1339.717	2299.06
1342.972	2404.61
1346.226	2377.31
1349.479	2323.09
1352.733	2302.41
1355.986	2306.06
1359.238	2286.2
1362.491	2291.65
1365.743	2290.25
1368.995	2281.2
1372.247	2296.02
1375.498	2315.02
1378.749	2358.83
1382	2307.77
1385.251	2345.94
1388.501	2296.56
1391.751	2298.9
1395	2261.59
1398.25	2286.93
1401.499	2308.43
1404.748	2256.97
1407.996	2231.47
1411.244	2221.1
1414.492	2204.81
1417.74	2189.17
1420.987	2192.13
1424.234	2252.97
1427.481	2214.56
1430.728	2274.6
1433.974	2249.17
1437.22	2246.72
1440.465	2243.38
1443.711	2243.43
1446.956	2267.67
1450.201	2242.07
1453.445	2281.34
1456.689	2272.22
1459.933	2281.64
1463.177	2322.5
1466.42	2294.39
1469.663	2277.73
1472.906	2294.89
1476.148	2345.29
1479.391	2320.23
1482.633	2294.19
1485.874	2319.18
1489.115	2327.1
1492.356	2309.59
1495.597	2291.86
1498.838	2286.31
1502.078	2271.19
1505.318	2241.66
1508.557	2277.75
1511.797	2275.51
1515.036	2318.71
1518.274	2293.74
1521.513	2245.34
1524.751	2258.06
1527.989	2285.83
1531.227	2304.28
1534.464	2317.9
1537.701	2313.47
1540.938	2327.2
1544.174	2272.68
1547.41	2263.58
1550.646	2304.15
1553.882	2354.15
1557.117	2415.81
1560.352	2423.86
1563.587	2383.89
1566.821	2350.8
1570.055	2367.23
1573.289	2349.66
1576.523	2409.88
1579.756	2425.73
1582.989	2448.71
1586.222	2407.52
1589.454	2436.91
1592.686	2419.4
1595.918	2448.83
1599.15	2448.98
1602.381	2492.89
1605.612	2474.61
1608.843	2568.39
1612.073	2492.66
1615.303	2482.14
1618.533	2478.75
1621.762	2478.78
1624.992	2453.93
1628.221	2458.27
1631.449	2447.13
1634.678	2472.15
1637.906	2441.23
1641.134	2469.41
1644.361	2434.66
1647.588	2421.23
1650.815	2442.43
1654.042	2404.89
1657.269	2434.69
1660.495	2413.07
1663.72	2396.26
1666.946	2363.69
1670.171	2336.89
1673.396	2308.62
1676.621	2291.85
1679.845	2286
1683.069	2296.12
1686.293	2325.04
1689.517	2316.92
1692.74	2264.63
1695.963	2285.14
1699.185	2329.27
1702.408	2299.31
1705.63	2329.14
1708.852	2349.81
1712.073	2317.01
1715.294	2330.39
1718.515	2369.66
1721.736	2329.63
1724.956	2305.67
1728.176	2328.58
1731.396	2354.15
1734.616	2337.87
1737.835	2376.61
1741.054	2348.35
1744.272	2335.94
1747.491	2377.92
1750.709	2403.43
1753.927	2351.13
1757.144	2375.72
1760.361	2436.47
1763.578	2410.89
1766.795	2357.97
1770.011	2344.69
1773.227	2370.33
1776.443	2412.02
1779.658	2456.95
1782.874	2393.81
1786.089	2384.21
1789.303	2386.94
1792.518	2383.88
1795.732	2369.26
1798.945	2386.21
1802.159	2427.37
1805.372	2367.46
1808.585	2363.53
1811.797	2364.84
1815.01	2386.49
1818.222	2409.84
1821.434	2364.4
1824.645	2406.71
1827.856	2417.88
1831.067	2448.79
1834.278	2381.34
1837.488	2365.03
1840.698	2491.51
1843.908	2428.48
1847.117	2396.35
1850.326	2319.7
1853.535	2380.17
1856.744	2418.08
1859.952	2339.95
1863.16	2339.34
1866.368	2352.98
1869.575	2467.92
1872.782	2346.16
1875.989	2277.19
1879.196	2326.21
1882.402	2311.09
1885.608	2347.14
1888.814	2286.24
1892.019	2190.18
1895.224	2239.89
1898.429	2205.67
1901.634	2188.51
1904.838	2160.89
1908.042	2219.31
1911.246	2230.12
1914.449	2192.4
1917.652	2174.85
1920.855	2152.44
1924.058	2177.7
1927.26	2223.91
1930.462	2247.65
1933.664	2284.9
1936.865	2227.75
1940.066	2247.31
1943.267	2189.09
1946.467	2198.46
1949.668	2217.63
1952.868	2292.1
1956.067	2281.97
1959.267	2222.7
1962.466	2245.9
1965.665	2227.23
1968.863	2222.16
1972.061	2222.92
1975.259	2217.38
1978.457	2294.26
1981.654	2254.98
1984.852	2259.19
1988.048	2209.08
1991.245	2195.77
1994.441	2284.15
1997.637	2244.42
2000.833	2225.36
2004.028	2262.04
2007.223	2326.61
2010.418	2312.24
2013.613	2262.14
2016.807	2257.39
2020.001	2252.64
2023.194	2274.8
2026.388	2261.75
2029.581	2203.58
2032.774	2265.34
2035.966	2278.92
2039.158	2222.37
2042.35	2242.29
2045.542	2166.8
2048.733	2249.82
2051.924	2242.81
2055.115	2257.81
2058.306	2222.3
2061.496	2278.7
2064.686	2328.54
2067.875	2235.21
2071.065	2238.28
2074.254	2257.48
2077.442	2210.83
2080.631	2297.28
2083.819	2226.25
2087.007	2218.11
2090.195	2203.26
2093.382	2218.78
2096.569	2200.85
2099.756	2161.64
2102.942	2210.34
2106.128	2223.06
2109.314	2211.07
2112.5	2195.9
2115.685	2160.49
2118.87	2170.42
2122.055	2230.68
2125.239	2209.2
2128.424	2197.57
2131.608	2259.82
2134.791	2247.64
2137.974	2282.55
2141.157	2271.82
2144.34	2243.34
2147.523	2233.5
2150.705	2261.21
2153.887	2227.98
2157.068	2199.69
2160.25	2182.79
2163.431	2207.11
2166.611	2175.17
2169.792	2194.9
2172.972	2106.28
2176.152	2157.37
2179.331	2185.18
2182.511	2188.77
2185.69	2210.88
2188.868	2215.48
2192.047	2251.5
2195.225	2265.3
2198.403	2212.34
2201.58	2200.93
2204.758	2186.55
2207.935	2263.32
2211.111	2177.77
2214.288	2165.5
2217.464	2200.93
2220.64	2153.01
2223.815	2204.39
2226.991	2135.34
2230.166	2151.56
2233.34	2195.6
2236.515	2208.29
2239.689	2274.03
2242.863	2223
2246.036	2275.1
2249.209	2259.64
2252.382	2277.26
2255.555	2287.59
2258.727	2235.35
2261.9	2264.56
2265.071	2256.6
2268.243	2253.1
2271.414	2198.63
2274.585	2181.24
2277.756	2242.9
2280.926	2199.96
2284.096	2228.32
2287.266	2158.97
2290.436	2208.24
2293.605	2227.16
2296.774	2266.41
2299.942	2270.77
2303.111	2286.75
2306.279	2340.81
2309.447	2326.59
2312.614	2295.77
2315.781	2319.59
2318.948	2297.37
2322.115	2333.45
2325.281	2232.03
2328.447	2241.6
2331.613	2209.45
2334.779	2201.02
2337.944	2196.7
2341.109	2196.74
2344.274	2183.82
2347.438	2153.24
2350.602	2173.5
2353.766	2183.78
2356.929	2172.33
2360.092	2209.24
2363.255	2180.11
2366.418	2145.74
2369.58	2213.15
2372.742	2081.56
2375.904	2078.73
2379.066	2063.27
2382.227	2088.59
2385.388	2052.43
2388.548	2000.73
2391.709	2044.92
2394.869	2033.03
2398.029	2087.98
2401.188	2085.4
2404.347	2047.77
2407.506	2131.67
2410.665	2167.94
2413.823	2155.42
2416.981	2133.02
2420.139	2150.79
2423.296	2192.18
2426.453	2162.05
2429.61	2182.44
2432.767	2151.86
2435.923	2190.95
2439.079	2137.71
2442.235	2172.95
2445.391	2113.78
2448.546	2156.28
2451.701	2191.97
2454.855	2185.95
2458.009	2212.65
2461.163	2204.58
2464.317	2177.57
2467.471	2203.87
2470.624	2233.53
2473.777	2223.86
2476.929	2240.38
2480.082	2263.8
2483.234	2236.39
2486.385	2176.15
2489.537	2170.11
2492.688	2159.92
2495.839	2176.61
2498.989	2192.09
2502.14	2178.59
2505.29	2170.35
2508.439	2193.14
2511.589	2132.1
2514.738	2133.37
2517.887	2155.24
2521.035	2231.97
2524.183	2191.84
2527.331	2180.77
2530.479	2172.52
2533.627	2174.27
