Data from N_2_DEC_OH_4N_Splice17_12-03-59-169.txt Node
Date: Sat Mar 14 12:03:59 EDT 2020
User: sa697716
Spectrometer: FLMS03696
Trigger mode: 0
Integration Time (sec): 3.180400E-1
Scans to average: 20
Electric dark correction enabled: true
Nonlinearity correction enabled: true
Boxcar width: 5
XAxis mode: Wavelengths
Number of Pixels in Spectrum: 2048
>>>>>Begin Spectral Data<<<<<
187.83	-345366.52
188.298	2436.43
188.766	1332.03
189.233	1142.83
189.701	1512.88
190.169	2152.58
190.636	757.08
191.104	517.15
191.571	13.13
192.039	-135.91
192.506	-204.86
192.974	306.29
193.441	-581.64
193.908	-105.97
194.375	-70.77
194.842	-88.51
195.31	35.12
195.777	103.89
196.244	313.48
196.711	445.65
197.177	595.2
197.644	897.69
198.111	1590.38
198.578	2232.51
199.045	1802.4
199.511	2960.42
199.978	3473.38
200.445	2928.86
200.911	3268.43
201.378	3686.58
201.844	3323.78
202.31	5705.47
202.777	5963.83
203.243	3324.12
203.709	3183.56
204.176	3803.98
204.642	3126.41
205.108	2940.46
205.574	2392.77
206.04	2205.01
206.506	2048.43
206.972	1965.24
207.438	1896.51
207.903	2149.21
208.369	1876.12
208.835	1872.72
209.301	1970.66
209.766	2038.58
210.232	2018.51
210.697	2526.24
211.163	3100.09
211.628	4731.91
212.094	3953.54
212.559	4845.53
213.024	3023.31
213.49	3723.76
213.955	3635.08
214.42	3593.79
214.885	3345.21
215.35	3232.91
215.815	3091.51
216.28	3317.02
216.745	2702.27
217.21	2944.34
217.675	2750.63
218.14	3138.33
218.604	3549.41
219.069	4105.23
219.534	4316.83
219.998	5081.54
220.463	6210.36
220.927	7772.38
221.392	7354.27
221.856	7510.18
222.32	9542.95
222.785	11806.33
223.249	14917.73
223.713	16691.66
224.177	16747.62
224.642	21596.55
225.106	26627.69
225.57	29190.76
226.034	21726.4
226.497	33133.96
226.961	29892.27
227.425	34826.24
227.889	38758.44
228.353	38787.54
228.816	80189.77
229.28	76676.41
229.744	64650.2
230.207	39292.7
230.671	38643.28
231.134	64030.59
231.597	73936
232.061	74039.4
232.524	72174.98
232.987	49649.02
233.45	44614.04
233.914	40017.98
234.377	41077.59
234.84	37581.27
235.303	44360.97
235.766	49497.72
236.229	51087.43
236.691	32130.04
237.154	36124.53
237.617	27169.95
238.08	27839.2
238.542	32674.84
239.005	23339.34
239.468	23147.61
239.93	21826.77
240.393	19824.19
240.855	17390.33
241.317	17807.69
241.78	21667.77
242.242	22358.81
242.704	24113.54
243.166	20978.58
243.629	19003.51
244.091	21881.8
244.553	23960.57
245.015	25732.49
245.477	33247.9
245.939	48770.55
246.4	51760.01
246.862	50313.93
247.324	47443.13
247.786	53094.35
248.247	69632.94
248.709	71972.53
249.17	53844.78
249.632	50688.75
250.093	58703.56
250.555	50731.01
251.016	30917.8
251.477	29340.49
251.939	31648.24
252.4	33237.56
252.861	39555.56
253.322	36748.53
253.783	43718.39
254.244	56740.45
254.705	44795.19
255.166	39897.57
255.627	39302.84
256.088	55420
256.549	58852.4
257.009	50723.31
257.47	61554.12
257.931	50154.82
258.391	37621.72
258.852	38791.01
259.312	40673.98
259.773	50220.63
260.233	42377.61
260.694	35723.48
261.154	40561.53
261.614	32518.37
262.074	29075.43
262.534	30191.3
262.994	28442.99
263.455	37926.14
263.915	31942.43
264.374	30089.65
264.834	32891.54
265.294	36494.35
265.754	37807.27
266.214	35770.39
266.673	33557
267.133	42376.02
267.593	42062.43
268.052	51488.59
268.512	44803.77
268.971	54036.36
269.431	59314.69
269.89	53100.83
270.349	79632.39
270.809	88830.95
271.268	79896.6
271.727	179236.09
272.186	116128.03
272.645	87133.84
273.104	62904.13
273.563	91083.61
274.022	71665.06
274.481	60905.79
274.94	46897.15
275.399	34888.63
275.857	40648.25
276.316	55014.91
276.775	48971.16
277.233	48224.16
277.692	45117.86
278.15	51022.43
278.609	52457.45
279.067	48556.15
279.525	45131.79
279.984	58330.79
280.442	70056.44
280.9	69016.96
281.358	45347.31
281.816	42261.41
282.274	41363.83
282.732	42767.93
283.19	42986.06
283.648	37127.91
284.106	39582.49
284.564	40225.14
285.021	37295.45
285.479	27810.08
285.937	25319.99
286.394	22229.93
286.852	22872.77
287.309	24049.06
287.767	23224.46
288.224	22069.46
288.682	24219.82
289.139	26545.75
289.596	24279.99
290.053	25252.65
290.511	31881.43
290.968	38619.69
291.425	52477.3
291.882	43652.5
292.339	37993.04
292.796	37710.56
293.252	35592.54
293.709	28258.44
294.166	25338.87
294.623	28015.23
295.079	26862.12
295.536	26959.01
295.992	24485.34
296.449	24200.98
296.905	25143.73
297.362	24090.35
297.818	25341.92
298.274	26264.35
298.731	26775.13
299.187	26485.57
299.643	28438.5
300.099	34391.15
300.555	37670.08
301.011	31481.88
301.467	30311.73
301.923	35513.74
302.379	34690.78
302.835	34050.82
303.291	34079.98
303.746	38754.85
304.202	48962.67
304.658	49180.37
305.113	33098.25
305.569	32474.37
306.024	34634.73
306.479	32979.21
306.935	27785.75
307.39	30365.46
307.845	28062.7
308.301	28226.85
308.756	27482.06
309.211	26481.17
309.666	27110.99
310.121	33641.48
310.576	34145.42
311.031	33869.85
311.486	38810.72
311.94	38784.23
312.395	51841.66
312.85	97214.05
313.305	477569.61
313.759	2470944.68
314.214	178829.35
314.668	141735.86
315.123	118921.18
315.577	42591.16
316.032	37845.47
316.486	47389.5
316.94	37326.25
317.394	25959.78
317.849	20212.33
318.303	19137.9
318.757	18051.52
319.211	19953.31
319.665	17467.13
320.119	17695.85
320.572	25394.01
321.026	23687.58
321.48	19687.32
321.934	21469.41
322.387	21518.64
322.841	23200.22
323.295	20818.5
323.748	23995.32
324.202	24347.58
324.655	29173.56
325.108	40706.62
325.562	28746.81
326.015	34176.04
326.468	25859.75
326.921	28905.58
327.374	26928.55
327.827	28011.19
328.28	31721.09
328.733	21231.88
329.186	18657.38
329.639	17787.98
330.092	14979.92
330.545	14233.53
330.997	14350.88
331.45	15660.52
331.903	18329.16
332.355	31532
332.808	30649.59
333.26	25256.62
333.713	27408.61
334.165	27588.53
334.617	36849
335.069	29800.66
335.522	53913.86
335.974	59701.59
336.426	54532.36
336.878	37843.23
337.33	19175.61
337.782	18706.5
338.234	23425.14
338.686	28014.51
339.137	33190.89
339.589	31249.3
340.041	24511.22
340.493	21061.77
340.944	21565.98
341.396	23231.13
341.847	19529.67
342.299	23021.35
342.75	28134.81
343.201	24639.81
343.653	28340.7
344.104	34849.87
344.555	27412.58
345.006	42681.8
345.457	32662.71
345.908	25931.01
346.359	24401.22
346.81	19894.53
347.261	20982.14
347.712	20655.78
348.163	22128.47
348.613	22418.69
349.064	20924.57
349.515	18309.62
349.965	18762.16
350.416	22616.3
350.866	24825.41
351.317	28053.08
351.767	46374.19
352.217	58612.34
352.668	48661.44
353.118	44549.9
353.568	42939.03
354.018	33895.8
354.468	35726.64
354.918	25590.99
355.368	22366.26
355.818	31604.11
356.268	90872.08
356.718	379955.7
357.168	94452.18
357.617	47400.93
358.067	52803.76
358.517	49434.37
358.966	58001.32
359.416	65009.48
359.865	70350.69
360.315	83944.45
360.764	39233.52
361.213	22001.44
361.663	20868.51
362.112	25786.81
362.561	41635.13
363.01	31355.81
363.459	26367.72
363.908	28567.32
364.357	24292.4
364.806	40995.04
365.255	28145.55
365.703	25736.1
366.152	25762.33
366.601	20861.03
367.05	16916.24
367.498	15366.2
367.947	16047.16
368.395	16696.62
368.844	14767.69
369.292	17794.81
369.74	12300.93
370.189	18862.34
370.637	22070.24
371.085	19041.46
371.533	23211.1
371.981	22390.17
372.429	21307.91
372.877	22228.89
373.325	18609.4
373.773	18970.88
374.221	16895.44
374.669	20924.14
375.116	18083.48
375.564	18252.39
376.012	20417.47
376.459	16821.23
376.907	20101.41
377.354	24334.48
377.801	22686.66
378.249	26074.73
378.696	33366.32
379.143	40430.98
379.591	43187.86
380.038	72953.14
380.485	52760.11
380.932	57026.38
381.379	52139.8
381.826	38386.97
382.273	27297.12
382.72	23839.2
383.166	23224.53
383.613	15034.44
384.06	13551.58
384.506	15681.33
384.953	11516.95
385.4	11596.09
385.846	10146.74
386.292	9901.17
386.739	9693.96
387.185	9586.13
387.631	9591.42
388.078	9299.46
388.524	9953.25
388.97	9176.99
389.416	7635.92
389.862	8097.19
390.308	7661.73
390.754	7766.47
391.2	8412.61
391.645	8599.38
392.091	8200.11
392.537	7911.64
392.983	7917.81
393.428	7762.5
393.874	8312.06
394.319	8317.44
394.765	7886.28
395.21	8089.02
395.655	7568.66
396.101	7067.97
396.546	6357.79
396.991	6401.41
397.436	5923.97
397.881	5708.05
398.326	5398.63
398.771	5091.08
399.216	4448.63
399.661	3993.41
400.106	3964.93
400.551	4047.28
400.995	3624.24
401.44	3570.27
401.885	3349.32
402.329	3376.27
402.774	3234.44
403.218	3125.08
403.663	3004.25
404.107	3081.07
404.551	3096.98
404.995	2839.61
405.44	2730.76
405.884	2767.83
406.328	2673.55
406.772	2657.53
407.216	2417.87
407.66	2331.23
408.104	2207.56
408.547	2064.65
408.991	1994.92
409.435	1919.04
409.879	1886.7
410.322	1856.83
410.766	1788.94
411.209	1701.15
411.653	1628.79
412.096	1594.07
412.54	1593.05
412.983	1582.76
413.426	1585.19
413.869	1584.69
414.312	1550.65
414.756	1494.18
415.199	1427.5
415.642	1385
416.085	1385.76
416.527	1376.96
416.97	1394.79
417.413	1319.33
417.856	1302.48
418.298	1285
418.741	1271.07
419.184	1265.7
419.626	1315.34
420.069	1311.42
420.511	1317.32
420.953	1285.33
421.396	1274.75
421.838	1241.38
422.28	1269.29
422.722	1272.85
423.164	1292.84
423.606	1271.29
424.048	1270.93
424.49	1207.29
424.932	1202.89
425.374	1185.75
425.816	1207.56
426.258	1229.12
426.699	1243.55
427.141	1224.91
427.582	1244.96
428.024	1237.26
428.465	1231.31
428.907	1201.7
429.348	1187.69
429.789	1187.09
430.231	1163.14
430.672	1177.94
431.113	1148.98
431.554	1133.83
431.995	1104.6
432.436	1066.26
432.877	1041.65
433.318	1025.28
433.759	1018.34
434.2	1018.96
434.64	1008.11
435.081	1011.36
435.522	959.39
435.962	925.47
436.403	906.92
436.843	924.07
437.284	904.05
437.724	881.05
438.164	880.53
438.604	863.06
439.045	830.21
439.485	795.31
439.925	776.65
440.365	755.85
440.805	745.98
441.245	735.06
441.685	705.46
442.125	699.06
442.564	705.4
443.004	688.9
443.444	686.75
443.883	686.89
444.323	681.26
444.762	680.72
445.202	690.13
445.641	699.59
446.081	694.39
446.52	698.39
446.959	692.09
447.398	670.35
447.837	660.99
448.276	646.06
448.716	650.86
449.154	654.78
449.593	640.64
450.032	636.67
450.471	624.77
450.91	622.87
451.349	621.01
451.787	615.82
452.226	624.31
452.664	622.59
453.103	624.71
453.541	622.03
453.98	619.61
454.418	622.14
454.856	612.87
455.295	610.5
455.733	614.63
456.171	616.38
456.609	617.88
457.047	617.74
457.485	626.19
457.923	625.59
458.361	615.83
458.798	617.51
459.236	614.42
459.674	616.64
460.111	619.74
460.549	614.01
460.987	612.21
461.424	609.3
461.862	606.74
462.299	599.14
462.736	599.27
463.173	602.27
463.611	596.91
464.048	596.84
464.485	602.74
464.922	596.8
465.359	592.83
465.796	585.95
466.233	582.15
466.67	576.82
467.106	574.73
467.543	569.18
467.98	561.11
468.416	546.97
468.853	542.56
469.29	526.14
469.726	521.13
470.162	508.08
470.599	500.79
471.035	495.58
471.471	484.11
471.907	480.26
472.344	476.03
472.78	477.6
473.216	481.56
473.652	475.01
474.088	472.48
474.523	470.66
474.959	473.94
475.395	468.19
475.831	464.21
476.266	464.87
476.702	463.09
477.138	457.86
477.573	455.65
478.008	453.17
478.444	454.73
478.879	458.95
479.314	458.97
479.75	457.85
480.185	459.24
480.62	461.87
481.055	463.71
481.49	465.81
481.925	472.07
482.36	479.31
482.795	492.25
483.229	504.42
483.664	513.74
484.099	515.12
484.534	521.83
484.968	527.09
485.403	528.45
485.837	525.57
486.271	524.27
486.706	523.44
487.14	516.65
487.574	508.29
488.009	502.11
488.443	497.19
488.877	501.01
489.311	502.02
489.745	505.94
490.179	508.58
490.613	517.94
491.046	520.41
491.48	522.32
491.914	520.86
492.348	522.61
492.781	524.03
493.215	523.66
493.648	523.32
494.082	525.21
494.515	524.06
494.948	529.26
495.382	530.65
495.815	532.78
496.248	535.55
496.681	543.75
497.114	549.5
497.547	554.68
497.98	562.04
498.413	564.51
498.846	569.44
499.279	573.46
499.711	573.82
500.144	573.27
500.577	579.12
501.009	585.05
501.442	589.81
501.874	589.04
502.306	589.28
502.739	593.29
503.171	601.74
503.603	602.14
504.036	606.81
504.468	609.32
504.9	615.66
505.332	617.8
505.764	619.47
506.196	623.41
506.627	633.42
507.059	642.21
507.491	646.73
507.923	645.41
508.354	656.61
508.786	664.33
509.217	676.66
509.649	687.31
510.08	701.49
510.512	714.09
510.943	724.81
511.374	733.59
511.805	748.74
512.237	763.62
512.668	787.72
513.099	807.72
513.53	828.71
513.961	845.43
514.391	870.51
514.822	897.38
515.253	924.98
515.684	946.3
516.114	970.26
516.545	989.05
516.975	1011.85
517.406	1028.01
517.836	1034.7
518.267	1043.76
518.697	1061.66
519.127	1069.35
519.558	1078.18
519.988	1086.44
520.418	1099.49
520.848	1117.43
521.278	1128.41
521.708	1153.83
522.138	1168.77
522.567	1197.92
522.997	1222.12
523.427	1238.77
523.857	1256.97
524.286	1269.73
524.716	1285.86
525.145	1305.49
525.575	1319.13
526.004	1335.38
526.433	1328.55
526.863	1333.51
527.292	1329.02
527.721	1337.04
528.15	1345.74
528.579	1349.18
529.008	1361.82
529.437	1383.27
529.866	1396.06
530.295	1411.25
530.724	1424.51
531.152	1448.85
531.581	1462.44
532.01	1478.65
532.438	1488.79
532.867	1503.17
533.295	1521.16
533.723	1528.29
534.152	1528.84
534.58	1531.59
535.008	1521.94
535.436	1526.01
535.865	1535.02
536.293	1549.09
536.721	1563.7
537.149	1586.18
537.576	1588.61
538.004	1600.58
538.432	1608.18
538.86	1608.1
539.287	1615.3
539.715	1627.66
540.143	1629.6
540.57	1627.16
540.998	1623.92
541.425	1605.6
541.852	1588.16
542.28	1587.98
542.707	1574.83
543.134	1562.31
543.561	1558.38
543.988	1552.25
544.415	1552.45
544.842	1547.9
545.269	1541.38
545.696	1542.56
546.123	1553.43
546.549	1543.99
546.976	1532.95
547.403	1531.52
547.829	1533.51
548.256	1535.2
548.682	1530.91
549.108	1523.71
549.535	1523.51
549.961	1525.08
550.387	1514.69
550.813	1510.07
551.24	1515.6
551.666	1515.52
552.092	1507.51
552.518	1501.91
552.943	1495.96
553.369	1502.37
553.795	1505.6
554.221	1504.92
554.646	1501.08
555.072	1508.9
555.498	1510.03
555.923	1516.23
556.349	1526.59
556.774	1531.2
557.199	1530.44
557.625	1533.51
558.05	1526.85
558.475	1533.39
558.9	1530.2
559.325	1520.52
559.75	1512.11
560.175	1505.01
560.6	1495.22
561.025	1491.67
561.449	1489.56
561.874	1490.47
562.299	1490.52
562.723	1492.11
563.148	1480.03
563.572	1479.35
563.997	1484.06
564.421	1483.73
564.846	1480.14
565.27	1479.62
565.694	1472.95
566.118	1477.94
566.542	1479.66
566.966	1470
567.39	1461.68
567.814	1448.62
568.238	1443.69
568.662	1442.18
569.086	1439.62
569.509	1440.32
569.933	1424.7
570.357	1414.27
570.78	1393.98
571.204	1379.68
571.627	1367.8
572.05	1362.8
572.474	1358.41
572.897	1344.85
573.32	1336.02
573.743	1325.06
574.166	1307.64
574.589	1302.6
575.012	1294.37
575.435	1289.08
575.858	1278.23
576.281	1266.55
576.704	1250.98
577.126	1239.32
577.549	1228.42
577.972	1217.95
578.394	1207.06
578.817	1200.64
579.239	1185.05
579.661	1172.52
580.084	1159.85
580.506	1148.5
580.928	1142.99
581.35	1132.97
581.772	1126.9
582.194	1115.36
582.616	1103.06
583.038	1090.41
583.46	1078.91
583.882	1075.48
584.303	1076.16
584.725	1070.87
585.147	1071.86
585.568	1077.09
585.99	1083.97
586.411	1087.1
586.833	1095.36
587.254	1095.72
587.675	1104.44
588.096	1112.55
588.518	1106.55
588.939	1092.99
589.36	1089.82
589.781	1079.99
590.202	1059.6
590.623	1051.79
591.043	1049.15
591.464	1039.99
591.885	1036.12
592.305	1030.91
592.726	1020.15
593.147	1019.8
593.567	1014.92
593.987	1009.63
594.408	1004.11
594.828	1001.04
595.248	996.85
595.669	983.59
596.089	977.02
596.509	970.86
596.929	961.14
597.349	960.28
597.769	952.75
598.189	948.19
598.608	946.83
599.028	947.57
599.448	946.99
599.867	936.84
600.287	932.53
600.706	929.66
601.126	922.59
601.545	921.1
601.965	919.99
602.384	915.93
602.803	916.92
603.222	913.46
603.641	908.36
604.061	906
604.48	903.33
604.898	907.63
605.317	909.08
605.736	910.37
606.155	908.49
606.574	901.37
606.992	903.35
607.411	898.78
607.829	892.29
608.248	889.57
608.666	886.41
609.085	885.1
609.503	879.4
609.921	875.31
610.339	875.43
610.758	873.24
611.176	868.82
611.594	862.49
612.012	860.47
612.43	862.78
612.847	865.46
613.265	865.93
613.683	867.76
614.101	867.66
614.518	864.11
614.936	856.79
615.353	847.48
615.771	844.4
616.188	844.23
616.606	840.75
617.023	835.21
617.44	825.2
617.857	818.65
618.274	811.74
618.691	807.78
619.108	800.66
619.525	796.61
619.942	799.22
620.359	801.2
620.776	796.71
621.192	794.33
621.609	793.21
622.026	798.12
622.442	802.27
622.859	804.68
623.275	799.28
623.691	803.13
624.108	809.9
624.524	819.56
624.94	819.12
625.356	826.13
625.772	834.19
626.188	839.96
626.604	840.56
627.02	838.29
627.436	836.69
627.852	841.11
628.268	848.97
628.683	843.26
629.099	837.64
629.514	834.8
629.93	837.16
630.345	839.54
630.761	836.99
631.176	838.87
631.591	835.1
632.007	831.21
632.422	829.9
632.837	821.7
633.252	820.09
633.667	812.67
634.082	806.66
634.497	797.23
634.911	785.3
635.326	782.93
635.741	770.55
636.155	763.07
636.57	763.61
636.984	761.8
637.399	763.04
637.813	760.84
638.228	758.7
638.642	758.92
639.056	751.21
639.47	749.33
639.884	744.05
640.298	739.86
640.712	737.61
641.126	729.68
641.54	724.68
641.954	719.62
642.368	713.05
642.781	710.27
643.195	701.22
643.609	703.13
644.022	700.47
644.436	697.32
644.849	690
645.262	683.78
645.676	685.15
646.089	683.12
646.502	676.16
646.915	673.59
647.328	663.13
647.741	662.35
648.154	655.3
648.567	655.56
648.98	649.17
649.393	651.82
649.805	652.02
650.218	648.52
650.631	640.25
651.043	636.65
651.456	633.75
651.868	634.96
652.28	646.38
652.693	656.24
653.105	660.65
653.517	668.03
653.929	670.25
654.341	674.64
654.753	668.61
655.165	673.46
655.577	673.69
655.989	673.39
656.401	670.96
656.813	651.55
657.224	641.09
657.636	623.75
658.047	614.54
658.459	603.76
658.87	599.8
659.282	594.17
659.693	583.14
660.104	576.91
660.515	570.8
660.926	571.85
661.338	571.95
661.749	570.3
662.159	568.66
662.57	568.89
662.981	569.74
663.392	568.86
663.803	575.22
664.213	578.54
664.624	578.61
665.035	584.32
665.445	578.86
665.855	577.65
666.266	575.78
666.676	577.73
667.086	574.15
667.497	576.77
667.907	575.03
668.317	571.6
668.727	572.18
669.137	575.14
669.547	576.64
669.956	582.23
670.366	587.86
670.776	591.78
671.186	596.51
671.595	601.73
672.005	606.41
672.414	609.07
672.824	610.13
673.233	614.56
673.642	618.77
674.052	621.85
674.461	623.61
674.87	627.88
675.279	627.72
675.688	631.01
676.097	634.02
676.506	633.26
676.915	645.68
677.323	648.18
677.732	648.03
678.141	649.02
678.549	641.69
678.958	642.24
679.366	641.38
679.775	645.96
680.183	654.85
680.592	658.91
681	662.22
681.408	654.85
681.816	659.78
682.224	663.7
682.632	670.05
683.04	691.49
683.448	706.21
683.856	726.64
684.264	747.86
684.671	765.61
685.079	788.43
685.487	813.89
685.894	852.12
686.302	880.12
686.709	902.62
687.116	927.52
687.524	944.86
687.931	960.32
688.338	970.36
688.745	977.42
689.152	989.28
689.559	1009.06
689.966	1029.05
690.373	1036.94
690.78	1058
691.187	1094.5
691.593	1121.68
692	1147.16
692.407	1187.58
692.813	1241.62
693.22	1286.46
693.626	1332.24
694.032	1373.27
694.439	1433.47
694.845	1484.45
695.251	1548
695.657	1607.99
696.063	1693.55
696.469	1763.66
696.875	1830.46
697.281	1874.62
697.687	1928.46
698.093	1978.03
698.498	2058.1
698.904	2125.95
699.31	2216.47
699.715	2290.13
700.12	2388
700.526	2427.1
700.931	2509.05
701.337	2576.52
701.742	2631.72
702.147	2728.45
702.552	2780.44
702.957	2856.31
703.362	2898.51
703.767	2948.32
704.172	3012.51
704.577	2993.55
704.981	3060.72
705.386	3098.42
705.791	3117.11
706.195	3210.2
706.6	3241.33
707.004	3339
707.408	3333.88
707.813	3384.53
708.217	3396.83
708.621	3418.04
709.025	3536.24
709.43	3559.89
709.834	3643.17
710.237	3735.4
710.641	3739.95
711.045	3786.48
711.449	3803.24
711.853	3852.95
712.256	3916.99
712.66	3975.36
713.064	4074.57
713.467	4138.72
713.87	4275.46
714.274	4345.12
714.677	4480.16
715.08	4674.49
715.484	4874.14
715.887	5113.57
716.29	5351.65
716.693	5598.21
717.096	5886.77
717.499	6053.32
717.901	6104.89
718.304	6160.18
718.707	6208.21
719.109	6118.63
719.512	6105.93
719.915	5974.02
720.317	5931.94
720.719	5998.26
721.122	5982.8
721.524	5938.53
721.926	5910.07
722.328	6039.35
722.731	6043.2
723.133	6089.89
723.535	6324.84
723.937	6364.36
724.338	6441.68
724.74	6500.97
725.142	6420.93
725.544	6433.12
725.945	6473.22
726.347	6482.29
726.748	6488.41
727.15	6518.63
727.551	6490.1
727.952	6471.11
728.354	6447.15
728.755	6456.67
729.156	6421.67
729.557	6440.6
729.958	6303.45
730.359	6254.05
730.76	6240.62
731.161	6178.82
731.562	6158.67
731.962	6168.24
732.363	6097.4
732.763	6031.26
733.164	6083.39
733.564	6008.3
733.965	5902.33
734.365	5870.13
734.766	5909.48
735.166	5868.99
735.566	5808.6
735.966	5781.17
736.366	5781.9
736.766	5715.2
737.166	5755.88
737.566	5709.94
737.966	5684.39
738.365	5734.33
738.765	5732.45
739.165	5645.93
739.564	5617.29
739.964	5677.18
740.363	5624.45
740.763	5625.32
741.162	5611.91
741.561	5578.07
741.96	5525.16
742.36	5552.35
742.759	5562.81
743.158	5613.37
743.557	5636.28
743.955	5689.18
744.354	5636.39
744.753	5710.78
745.152	5664.26
745.55	5735.03
745.949	5728.26
746.348	5735.26
746.746	5760.38
747.144	5714.01
747.543	5687.7
747.941	5746.62
748.339	5662.64
748.737	5652.98
749.136	5643.12
749.534	5720.7
749.932	5686.65
750.33	5715.28
750.727	5783.63
751.125	5749.41
751.523	5730.19
751.921	5781.28
752.318	5742.5
752.716	5813.17
753.113	5832.59
753.511	5862.16
753.908	5862.71
754.305	5841.38
754.703	5918.3
755.1	5991.44
755.497	6068.33
755.894	6299.5
756.291	6519.61
756.688	6918.45
757.085	7453.83
757.482	8199.15
757.878	9018.55
758.275	9758.24
758.672	10784.18
759.068	11611.3
759.465	12793.69
759.861	14316.98
760.258	16086.07
760.654	16999.37
761.05	16861.24
761.447	16082.69
761.843	14979.89
762.239	13837.23
762.635	13318.43
763.031	12817.55
763.427	12106.07
763.822	11351.72
764.218	10608.99
764.614	9642.29
765.01	8997.21
765.405	8581.62
765.801	8266.67
766.196	7859.28
766.592	7633.8
766.987	7254.23
767.382	6996.21
767.778	6887.25
768.173	6731.58
768.568	6640.79
768.963	6490.01
769.358	6512.27
769.753	6454.74
770.148	6352.81
770.542	6351.1
770.937	6311.56
771.332	6420.74
771.726	6444.3
772.121	6366.57
772.515	6430.22
772.91	6415.55
773.304	6501.54
773.699	6419.35
774.093	6485.63
774.487	6554.91
774.881	6610.88
775.275	6607.16
775.669	6556.74
776.063	6612.25
776.457	6656.43
776.851	6566.28
777.245	6557.97
777.638	6597.56
778.032	6738.86
778.425	6695.74
778.819	6742.2
779.212	6687.56
779.606	6634.97
779.999	6658.56
780.392	6632.63
780.786	6732.41
781.179	6758.49
781.572	6808.56
781.965	6825.61
782.358	6755.27
782.751	6821.86
783.143	6765.87
783.536	6853.71
783.929	6909.34
784.322	7051.14
784.714	7092.72
785.107	7087.49
785.499	7175.42
785.891	7149.05
786.284	7124.7
786.676	7295.92
787.068	7271.3
787.46	7329.48
787.852	7353.68
788.245	7458.25
788.636	7488.47
789.028	7570.46
789.42	7620.24
789.812	7627.27
790.204	7746.25
790.595	7866.91
790.987	7630.24
791.378	7660.89
791.77	7821.81
792.161	7987.12
792.553	8051.06
792.944	7918.03
793.335	7834.31
793.726	7920.36
794.117	8030.29
794.508	8194.71
794.899	8156.76
795.29	8324.77
795.681	8393.24
796.072	8220.58
796.463	7987.1
796.853	7996.92
797.244	8185.43
797.634	8227.23
798.025	8224.21
798.415	8237.29
798.806	8338.93
799.196	8441
799.586	8499.88
799.976	8453.8
800.366	8732.32
800.756	9030.9
801.146	8982.41
801.536	9020.53
801.926	9108.42
802.316	9138.51
802.706	9224.74
803.095	9077.15
803.485	9202.23
803.874	9255.88
804.264	9564.69
804.653	9534.31
805.043	9711.64
805.432	9839.7
805.821	9835.85
806.21	9860.17
806.599	10005.04
806.988	10065.45
807.377	10195.6
807.766	10350.71
808.155	10687.09
808.544	10374.6
808.933	10385.57
809.321	10359.28
809.71	10724.56
810.098	10922.04
810.487	11479.37
810.875	12059.3
811.264	12077.36
811.652	12429.44
812.04	12604.73
812.428	12803.73
812.816	13723.43
813.204	14231.85
813.592	14893.1
813.98	15295.19
814.368	15177.91
814.756	15754.94
815.144	15654.33
815.531	16214.74
815.919	16116.58
816.306	16484.45
816.694	16117
817.081	16169.77
817.469	16581.21
817.856	16581.83
818.243	16903.76
818.63	17384.61
819.017	16873.56
819.404	16946.82
819.791	17411.03
820.178	18157.07
820.565	18451.13
820.952	19569.14
821.339	18971.95
821.725	19198.43
822.112	18303.04
822.498	18252.36
822.885	18402.09
823.271	18290.32
823.657	18798.55
824.044	18799.2
824.43	18879.21
824.816	18844.54
825.202	18317.57
825.588	19550.58
825.974	19566.86
826.36	20184.01
826.746	20218.3
827.132	20639.84
827.517	20612.23
827.903	19664.03
828.289	19710.9
828.674	18780.5
829.06	18653.59
829.445	19138.04
829.83	19564.76
830.216	20138.95
830.601	20577.44
830.986	20090.62
831.371	19930.1
831.756	20592.49
832.141	20073.7
832.526	20071.69
832.911	20416.38
833.295	20280.73
833.68	20832.29
834.065	20088.9
834.449	18998.55
834.834	18916.51
835.218	18918.42
835.603	19332.25
835.987	19090.53
836.371	20106.75
836.755	19985.01
837.139	20474.02
837.524	20771.17
837.908	20563.39
838.291	20643.01
838.675	20726.64
839.059	20978.13
839.443	20960.23
839.827	20680.03
840.21	21260.84
840.594	21072.2
840.977	21316.49
841.361	21289.79
841.744	21737.52
842.127	21553.46
842.511	21846.68
842.894	22562.55
843.277	23012.83
843.66	23673.16
844.043	23780.76
844.426	22809.39
844.809	22443.88
845.191	22492.34
845.574	21939.97
845.957	21506.46
846.339	21380.58
846.722	20750.97
847.104	20838.16
847.487	20637.76
847.869	20653.02
848.252	20975.82
848.634	21372.06
849.016	21684.22
849.398	21841.75
849.78	22864.54
850.162	22871.89
850.544	23369.76
850.926	24127.29
851.307	24022.6
851.689	24354.24
852.071	24900.98
852.452	25304.56
852.834	25281.58
853.215	25757.26
853.597	25925.58
853.978	26282.63
854.359	26824.71
854.741	25626.84
855.122	25513.92
855.503	25165.95
855.884	25331.95
856.265	25254.59
856.646	25398.28
857.026	24927.15
857.407	24851.26
857.788	25042.01
858.169	25379.17
858.549	24356.92
858.93	25099.33
859.31	25149.5
859.69	25392.5
860.071	24901.36
860.451	24640.47
860.831	23748.9
861.211	25137.24
861.591	25799.73
861.971	25764.36
862.351	25993.33
862.731	26456.16
863.111	26781.5
863.491	27173.54
863.87	28231.02
864.25	28659.26
864.629	28183.29
865.009	28786.99
865.388	29804.03
865.768	31941.59
866.147	31824.12
866.526	30063.84
866.905	30429.79
867.284	32142.33
867.663	30511.17
868.042	29233
868.421	29140.41
868.8	29611.91
869.179	29908.1
869.558	28177.72
869.936	25975.06
870.315	26441.88
870.693	27092.5
871.072	29204.9
871.45	27810.5
871.828	28177.39
872.207	29627.38
872.585	29168.46
872.963	29966.3
873.341	28936.72
873.719	28577.41
874.097	28232.64
874.475	28753.81
874.853	29410.27
875.23	28193.6
875.608	29375.38
875.986	31765.17
876.363	30390.35
876.741	31317.74
877.118	30531.24
877.495	32019.91
877.873	32567.92
878.25	34265.22
878.627	32877.09
879.004	33345.09
879.381	33179.2
879.758	32296.55
880.135	30076.2
880.512	31787.08
880.889	30955.83
881.265	30639.83
881.642	30399.29
882.019	30910.04
882.395	30272.21
882.772	31473.14
883.148	30101.34
883.524	29985.57
883.901	29822.68
884.277	30276.32
884.653	30102.05
885.029	30951.09
885.405	34264.71
885.781	34004.75
886.157	32606.34
886.532	33020.57
886.908	32999.38
887.284	36697.22
887.659	37882.99
888.035	39061.7
888.411	40069.12
888.786	40592.49
889.161	42010.28
889.537	41258.83
889.912	42574.37
890.287	42536.98
890.662	43634.44
891.037	42860.99
891.412	39958.86
891.787	39580.35
892.162	38210.03
892.536	39103.57
892.911	37625.26
893.286	36843.93
893.66	35342.65
894.035	36237.72
894.409	39467.86
894.784	37868.47
895.158	38500.77
895.532	40796.16
895.906	41907.8
896.281	42884.49
896.655	42185.3
897.029	48215.04
897.402	50188.98
897.776	55892.93
898.15	55724.71
898.524	55121.68
898.898	55868.69
899.271	62511.05
899.645	54121.76
900.018	51996.64
900.392	53916.48
900.765	54354.84
901.138	50285.97
901.511	49525.18
901.884	45439.09
902.258	41887.69
902.631	43262.52
903.003	49766.47
903.376	44920.11
903.749	50360.06
904.122	53884.06
904.495	59353.78
904.867	60097.68
905.24	52183.22
905.612	48611.2
905.985	49739.8
906.357	52013.37
906.729	49651.08
907.102	42424.72
907.474	40806.26
907.846	41087.59
908.218	40555.56
908.59	35813.53
908.962	34638.39
909.334	37306.12
909.705	39164.18
910.077	38023.54
910.449	39578.99
910.82	40690.57
911.192	44771.92
911.563	46504.28
911.935	49747.53
912.306	49783.52
912.677	51412.1
913.048	50904.07
913.419	55214.38
913.79	55513.39
914.161	59529.61
914.532	56904.89
914.903	52277.69
915.274	49678.83
915.645	48904.65
916.015	43045.58
916.386	41047.57
916.756	43687.8
917.127	45090.32
917.497	40311.04
917.868	43878.95
918.238	41680.65
918.608	42862.01
918.978	43764.63
919.348	46303.88
919.718	47867.96
920.088	46094.85
920.458	47881.86
920.828	50377.96
921.198	47715.14
921.567	50950.66
921.937	39462.28
922.306	39839.95
922.676	42987.44
923.045	35833.52
923.415	34046.96
923.784	31004.26
924.153	31872.22
924.522	31830.43
924.891	29917.33
925.26	32044.41
925.629	31272.42
925.998	35940.25
926.367	35082.82
926.736	33360.68
927.104	39753.36
927.473	42720.85
927.842	51608.5
928.21	51128.1
928.578	53765.47
928.947	50856.32
929.315	51176.69
929.683	60020
930.051	60501.66
930.42	70238.9
930.788	60097.77
931.156	59651.96
931.523	55911.22
931.891	51683.75
932.259	49630.52
932.627	57504.39
932.994	81377.75
933.362	67240.9
933.729	58391.71
934.097	55908.85
934.464	47316.06
934.831	54604.34
935.199	53821.11
935.566	52231.29
935.933	52997.56
936.3	64217.81
936.667	50007.55
937.034	45092.36
937.401	44610.68
937.767	38505.8
938.134	34283.31
938.501	48363.1
938.867	51523.25
939.234	87090.75
939.6	74325.75
939.967	81727.25
940.333	54693.08
940.699	46582.1
941.065	37404.91
941.431	49050.67
941.798	47315.25
942.163	62145.49
942.529	38827.84
942.895	35739.75
943.261	23143.55
943.627	30369.75
943.992	26589.95
944.358	26631.36
944.723	26723.69
945.089	26031.15
945.454	24052.41
945.82	25682.59
946.185	24673.83
946.55	28579.6
946.915	25659.56
947.28	30075.69
947.645	26436.82
948.01	24395.21
948.375	25425.16
948.74	30463.29
949.104	35557.03
949.469	51403.32
949.834	90786.45
950.198	85950.04
950.562	51509.07
950.927	42869.34
951.291	51580.38
951.655	43943.16
952.02	41275.24
952.384	31260.68
952.748	27206.88
953.112	26516.15
953.476	23046.93
953.839	21321.4
954.203	21102.82
954.567	26403.71
954.931	41618.42
955.294	35584.94
955.658	35821.67
956.021	60920.25
956.385	103187.36
956.748	152265.54
957.111	236282.62
957.474	265280.88
957.837	298562.35
958.2	226221.21
958.563	81337.84
958.926	54991.51
959.289	83531.32
959.652	93238.28
960.015	69961.73
960.377	100405.43
960.74	114538.56
961.102	197627.54
961.465	212057.45
961.827	113467.43
962.189	217613.47
962.552	150853.21
962.914	120904.31
963.276	78388.96
963.638	64857.51
964	64236.42
964.362	43407.32
964.724	41982.76
965.085	29947.76
965.447	24557.13
965.809	28046.61
966.17	28073.74
966.532	30374.61
966.893	27870.15
967.255	25362.25
967.616	29926.85
967.977	23954.31
968.338	26176.97
968.699	21493.5
969.061	21506.04
969.421	21655.61
969.782	24284.28
970.143	20515.02
970.504	21242.24
970.865	24154.3
971.225	24700.31
971.586	24161.83
971.946	34473.3
972.307	29914.48
972.667	39118.76
973.027	40264.9
973.388	48823.48
973.748	33185.94
974.108	36126.93
974.468	48893.79
974.828	37659.75
975.188	29006.37
975.548	26644.93
975.907	22350.31
976.267	25082.74
976.627	21087.43
976.986	21890.83
977.346	20864.79
977.705	20080.14
978.064	18300.04
978.424	15231.48
978.783	15756.24
979.142	17955.96
979.501	17171.36
979.86	18146.64
980.219	17481.45
980.578	22544.75
980.937	25199.71
981.296	22460.17
981.654	23081.67
982.013	35935.55
982.371	46548.61
982.73	43476.66
983.088	49220
983.447	52596.26
983.805	75205.28
984.163	157099.21
984.521	174304.45
984.879	255485.44
985.237	-415566.86
985.595	400714.6
985.953	99503.78
986.311	57566.68
986.669	33411.51
987.026	28868.53
987.384	38794.62
987.741	40138.77
988.099	28648.95
988.456	22839.2
988.814	21398.56
989.171	18587.38
989.528	18364.12
989.885	19404.12
990.242	15373.43
990.599	19168.06
990.956	15654.56
991.313	10946.43
991.67	8969.4
992.027	9499.71
992.383	8450.32
992.74	7404.09
993.096	7771.34
993.453	8056.89
993.809	8350.21
994.165	11110.58
994.522	10158.2
994.878	11213.32
995.234	14075.76
995.59	13901.73
995.946	13168.99
996.302	15007.74
996.658	17359.32
997.013	19126.82
997.369	22671.28
997.725	29022.55
998.08	18805.88
998.436	29088.55
998.791	40099.63
999.147	39992.48
999.502	43674.18
999.857	31825.84
1000.212	51846.38
1000.567	73732.13
1000.922	42517.41
1001.277	26995.23
1001.632	20047.87
1001.987	25837.56
1002.342	18524.86
1002.696	14839.8
1003.051	11845.57
1003.406	14324.27
1003.76	14257.71
1004.114	14056.41
1004.469	11827.04
1004.823	9792.78
1005.177	10569.37
1005.531	8365.65
1005.885	7423.72
1006.239	8364.05
1006.593	10469.19
1006.947	14042.28
1007.301	10533.53
1007.655	11466.07
1008.008	8427.36
1008.362	9472.29
1008.715	13532.25
1009.069	12303.19
1009.422	18435.34
1009.776	37003.56
1010.129	24636.96
1010.482	20604.45
1010.835	17391.99
1011.188	36201.26
1011.541	34094.5
1011.894	-208548
1012.247	612055.21
1012.6	41522.29
1012.952	26124.97
1013.305	13518.85
1013.657	9716.21
1014.01	9158.9
1014.362	7562.36
1014.715	6699.75
1015.067	5822.33
1015.419	5686.45
1015.771	5027.4
1016.123	4482.41
1016.475	4611.95
1016.827	4932.82
1017.179	5304.61
1017.531	5363.14
1017.883	5481.34
1018.234	5263.21
1018.586	6661.4
1018.938	7041.29
1019.289	9731.95
1019.64	11188.23
1019.992	10445.28
1020.343	9569.95
1020.694	7545.04
1021.045	6650.28
1021.396	7557.28
1021.747	8095.48
1022.098	9758.31
1022.449	7081.48
1022.8	6587.15
1023.151	4601.57
1023.501	4055.51
1023.852	4407.23
1024.202	4583.51
1024.553	5042.03
1024.903	4930.88
1025.253	4234.68
1025.604	3812.4
1025.954	4731.5
1026.304	5769.03
1026.654	6742.06
1027.004	9818.92
1027.354	15840.75
1027.703	14931.77
1028.053	19570.57
1028.403	28332.13
1028.753	41127.39
1029.102	55777.8
1029.452	286987.11
1029.801	12373.18
1030.15	7984.95
1030.499	6760.95
897.758	2228.27
901.051	2159.03
904.343	2194.06
907.636	2202.33
910.928	2265.39
914.22	2182.58
917.511	2186.96
920.803	2238.85
924.094	2234.43
927.384	2238.51
930.675	2201.4
933.965	2162.64
937.255	2194.97
940.544	2162.43
943.834	2161.25
947.123	2100.81
950.411	2191.17
953.7	2172.67
956.988	2154.4
960.276	2094.75
963.563	2143.28
966.851	2156.21
970.138	2198.67
973.424	2199.98
976.711	2151.86
979.997	2202.58
983.283	2248.19
986.568	2179.17
989.853	2169.84
993.138	2197.96
996.423	2283.55
999.708	2243.88
1002.992	2274.72
1006.275	2185.41
1009.559	2191.27
1012.842	2292.7
1016.125	2245.6
1019.408	2223.45
1022.69	2281.71
1025.972	2319.21
1029.254	2292.86
1032.536	2252.71
1035.817	2263.62
1039.098	2233.01
1042.379	2288.06
1045.659	2317.89
1048.939	2265.81
1052.219	2272.15
1055.498	2265.35
1058.778	2264.02
1062.057	2238.59
1065.335	2263.8
1068.614	2277.07
1071.892	2272.99
1075.17	2327.74
1078.447	2330.65
1081.724	2324.23
1085.001	2351.45
1088.278	2331.18
1091.554	2339.68
1094.83	2331.97
1098.106	2368.49
1101.382	2400.72
1104.657	2401.16
1107.932	2401.73
1111.206	2378.61
1114.481	2330.3
1117.755	2330.91
1121.029	2323.97
1124.302	2385.24
1127.575	2350.45
1130.848	2348.41
1134.121	2316.49
1137.393	2279.59
1140.665	2336.22
1143.937	2313.12
1147.208	2261.62
1150.48	2323.82
1153.75	2310.55
1157.021	2313.71
1160.291	2288.71
1163.561	2345.08
1166.831	2311.22
1170.101	2340.32
1173.37	2297.87
1176.639	2256.95
1179.907	2302.04
1183.176	2326.56
1186.444	2326.44
1189.711	2354.19
1192.979	2378.88
1196.246	2332.58
1199.513	2344.2
1202.78	2351.96
1206.046	2362.21
1209.312	2389.99
1212.578	2406.71
1215.843	2374.65
1219.108	2339.21
1222.373	2365.21
1225.638	2335.45
1228.902	2326.3
1232.166	2282.18
1235.43	2269.57
1238.693	2293.05
1241.956	2284.08
1245.219	2334.98
1248.482	2316.94
1251.744	2314.37
1255.006	2442.54
1258.268	2387.14
1261.529	2342.73
1264.79	2342.16
1268.051	2445.43
1271.312	2453.55
1274.572	2424.69
1277.832	2413.78
1281.092	2390.52
1284.351	2382.98
1287.61	2366.66
1290.869	2300.7
1294.128	2298.2
1297.386	2348.14
1300.644	2341.7
1303.902	2351.47
1307.159	2216.72
1310.416	2268.28
1313.673	2296.34
1316.93	2296.95
1320.186	2327.83
1323.442	2362.05
1326.697	2360.36
1329.953	2332.77
1333.208	2369.27
1336.463	2338.84
1339.717	2297.2
1342.972	2405.89
1346.226	2378.21
1349.479	2323.11
1352.733	2301.71
1355.986	2304.68
1359.238	2284.65
1362.491	2291.84
1365.743	2291.36
1368.995	2282.3
1372.247	2295.1
1375.498	2315.03
1378.749	2356.83
1382	2304.25
1385.251	2343.4
1388.501	2293.65
1391.751	2296.53
1395	2260.31
1398.25	2283.67
1401.499	2306.2
1404.748	2254.38
1407.996	2230.49
1411.244	2219.32
1414.492	2203.22
1417.74	2188.52
1420.987	2192.07
1424.234	2253.33
1427.481	2214.5
1430.728	2273.38
1433.974	2249.59
1437.22	2245.65
1440.465	2243.51
1443.711	2244.7
1446.956	2268.36
1450.201	2241.57
1453.445	2283.15
1456.689	2272.11
1459.933	2281.99
1463.177	2321.74
1466.42	2294.04
1469.663	2278.69
1472.906	2295.2
1476.148	2343.98
1479.391	2318.64
1482.633	2292.83
1485.874	2319.02
1489.115	2325.16
1492.356	2311
1495.597	2292.23
1498.838	2288.04
1502.078	2272.25
1505.318	2240.45
1508.557	2279.22
1511.797	2276.51
1515.036	2319.44
1518.274	2293.31
1521.513	2246.32
1524.751	2259.29
1527.989	2285
1531.227	2303.52
1534.464	2317.13
1537.701	2312.78
1540.938	2326.56
1544.174	2271.77
1547.41	2261.89
1550.646	2302.05
1553.882	2352.37
1557.117	2412.97
1560.352	2420.98
1563.587	2381.57
1566.821	2348.38
1570.055	2365.6
1573.289	2347.02
1576.523	2407.37
1579.756	2422.5
1582.989	2445.51
1586.222	2405.24
1589.454	2436.54
1592.686	2416.19
1595.918	2445.66
1599.15	2444.59
1602.381	2488.8
1605.612	2470.01
1608.843	2565.8
1612.073	2486.93
1615.303	2475.12
1618.533	2473.78
1621.762	2472.56
1624.992	2446.95
1628.221	2453.38
1631.449	2442.01
1634.678	2468.12
1637.906	2438.73
1641.134	2465.92
1644.361	2430.81
1647.588	2421.7
1650.815	2444.58
1654.042	2405.59
1657.269	2435.61
1660.495	2414.13
1663.72	2397.25
1666.946	2365.01
1670.171	2338.12
1673.396	2308.44
1676.621	2290.8
1679.845	2287.41
1683.069	2294.59
1686.293	2324.65
1689.517	2317.3
1692.74	2266.4
1695.963	2286.16
1699.185	2329.87
1702.408	2300.21
1705.63	2329.73
1708.852	2351
1712.073	2319.28
1715.294	2330.43
1718.515	2371.77
1721.736	2329.9
1724.956	2306.24
1728.176	2328.42
1731.396	2354.46
1734.616	2338.64
1737.835	2377.15
1741.054	2348.16
1744.272	2335.05
1747.491	2379.3
1750.709	2403.54
1753.927	2350.92
1757.144	2376.6
1760.361	2436.88
1763.578	2411.55
1766.795	2358.99
1770.011	2345.56
1773.227	2370.48
1776.443	2412.84
1779.658	2459.3
1782.874	2394.64
1786.089	2386.12
1789.303	2388.8
1792.518	2384.91
1795.732	2370.8
1798.945	2387.12
1802.159	2426.49
1805.372	2368.19
1808.585	2366.23
1811.797	2366.4
1815.01	2387.14
1818.222	2410.31
1821.434	2364.55
1824.645	2407.77
1827.856	2420.29
1831.067	2449.36
1834.278	2383.28
1837.488	2368.15
1840.698	2493.71
1843.908	2429.88
1847.117	2397.11
1850.326	2320.91
1853.535	2380.68
1856.744	2417.82
1859.952	2338.84
1863.16	2336.89
1866.368	2351.51
1869.575	2464.87
1872.782	2342.8
1875.989	2273.75
1879.196	2322.69
1882.402	2309.01
1885.608	2344.29
1888.814	2283.51
1892.019	2187.72
1895.224	2237.31
1898.429	2203.39
1901.634	2186.37
1904.838	2159.05
1908.042	2217.36
1911.246	2229.21
1914.449	2191.4
1917.652	2175.35
1920.855	2151.82
1924.058	2177.17
1927.26	2224.16
1930.462	2247.13
1933.664	2286.07
1936.865	2225.96
1940.066	2246.24
1943.267	2189.14
1946.467	2199.07
1949.668	2217.54
1952.868	2289.13
1956.067	2280.75
1959.267	2222.86
1962.466	2246.43
1965.665	2227.23
1968.863	2219.87
1972.061	2222.94
1975.259	2216.43
1978.457	2291.86
1981.654	2251.3
1984.852	2255.98
1988.048	2207.63
1991.245	2194.94
1994.441	2281.76
1997.637	2241.46
2000.833	2223.67
2004.028	2260.04
2007.223	2325.1
2010.418	2313.19
2013.613	2263.18
2016.807	2257.13
2020.001	2252.59
2023.194	2272.92
2026.388	2260.33
2029.581	2203.35
2032.774	2265.97
2035.966	2278.81
2039.158	2223.38
2042.35	2241.34
2045.542	2167.29
2048.733	2249.52
2051.924	2244.29
2055.115	2258.21
2058.306	2224.01
2061.496	2278.56
2064.686	2327.35
2067.875	2234.91
2071.065	2238.68
2074.254	2256.08
2077.442	2212.3
2080.631	2294.42
2083.819	2226
2087.007	2217.38
2090.195	2201.77
2093.382	2218.8
2096.569	2201.81
2099.756	2163.37
2102.942	2210.39
2106.128	2221.59
2109.314	2213.66
2112.5	2197.19
2115.685	2165.4
2118.87	2173.87
2122.055	2233.68
2125.239	2213.23
2128.424	2201.52
2131.608	2261.76
2134.791	2247.74
2137.974	2285.73
2141.157	2275.13
2144.34	2243.6
2147.523	2234.58
2150.705	2259.59
2153.887	2227.04
2157.068	2198.85
2160.25	2181.34
2163.431	2205.3
2166.611	2175.37
2169.792	2195.39
2172.972	2105.51
2176.152	2157.18
2179.331	2185.43
2182.511	2188.61
2185.69	2210.08
2188.868	2215.56
2192.047	2252.64
2195.225	2268.43
2198.403	2213.36
2201.58	2201.53
2204.758	2188.01
2207.935	2264.34
2211.111	2180.02
2214.288	2167.79
2217.464	2202.06
2220.64	2156.64
2223.815	2206.85
2226.991	2137.31
2230.166	2153.66
2233.34	2198.35
2236.515	2210.6
2239.689	2274.3
2242.863	2223.77
2246.036	2276.9
2249.209	2260.15
2252.382	2278.07
2255.555	2288.54
2258.727	2235.8
2261.9	2265.12
2265.071	2256.68
2268.243	2252.82
2271.414	2198.77
2274.585	2183.75
2277.756	2244.5
2280.926	2199.21
2284.096	2227.91
2287.266	2159.39
2290.436	2206
2293.605	2226.49
2296.774	2263.74
2299.942	2270.18
2303.111	2286.37
2306.279	2340.94
2309.447	2324.52
2312.614	2293.72
2315.781	2319.4
2318.948	2296.62
2322.115	2330.92
2325.281	2230.86
2328.447	2238.64
2331.613	2209.76
2334.779	2199.59
2337.944	2193.75
2341.109	2193.85
2344.274	2182.37
2347.438	2152.12
2350.602	2173.28
2353.766	2183.86
2356.929	2173.66
2360.092	2210.27
2363.255	2181.89
2366.418	2145.16
2369.58	2213.76
2372.742	2084.51
2375.904	2080.75
2379.066	2065.98
2382.227	2089.75
2385.388	2051.3
2388.548	2000.74
2391.709	2043.9
2394.869	2033.38
2398.029	2087.35
2401.188	2084.91
2404.347	2046.13
2407.506	2129.34
2410.665	2167.09
2413.823	2154.36
2416.981	2133.02
2420.139	2149.11
2423.296	2191.3
2426.453	2159.2
2429.61	2181.46
2432.767	2152.84
2435.923	2191.93
2439.079	2138.12
2442.235	2173.22
2445.391	2113.52
2448.546	2154.74
2451.701	2191.31
2454.855	2188.3
2458.009	2213.03
2461.163	2207.19
2464.317	2178.32
2467.471	2204.74
2470.624	2233.72
2473.777	2223.08
2476.929	2239.55
2480.082	2262.46
2483.234	2235.64
2486.385	2173.76
2489.537	2167.37
2492.688	2158.48
2495.839	2174.46
2498.989	2188.27
2502.14	2174.7
2505.29	2168.01
2508.439	2191.28
2511.589	2130.85
2514.738	2133.15
2517.887	2154.7
2521.035	2232.19
2524.183	2190.38
2527.331	2178.42
2530.479	2171.51
2533.627	2173.36
