Data from N_2_DIV_IL_4N_Splice17_12-35-53-595.txt Node
Date: Sat Mar 14 12:35:53 EDT 2020
User: sa697716
Spectrometer: FLMS03696
Trigger mode: 0
Integration Time (sec): 3.180400E-1
Scans to average: 20
Electric dark correction enabled: true
Nonlinearity correction enabled: true
Boxcar width: 5
XAxis mode: Wavelengths
Number of Pixels in Spectrum: 2048
>>>>>Begin Spectral Data<<<<<
187.83	-387297.05
188.298	2875.38
188.766	1514.79
189.233	1411.08
189.701	1923.18
190.169	2643.38
190.636	973.92
191.104	753.86
191.571	95.77
192.039	-107.65
192.506	-79.11
192.974	483.3
193.441	-796.44
193.908	-295.24
194.375	-0.62
194.842	38.26
195.31	96.2
195.777	121.92
196.244	338.82
196.711	395.74
197.177	525.53
197.644	745.88
198.111	1313.29
198.578	1869.16
199.045	1516.76
199.511	2444.64
199.978	2872.74
200.445	2464.47
200.911	2788.04
201.378	3099.57
201.844	2824.66
202.31	4792.58
202.777	5023.42
203.243	2793.89
203.709	2669.51
204.176	3213.28
204.642	2661.86
205.108	2480.33
205.574	2039.06
206.04	1841.14
206.506	1724.37
206.972	1630.89
207.438	1581.41
207.903	1807.3
208.369	1597.38
208.835	1607.16
209.301	1668.63
209.766	1710.61
210.232	1695.11
210.697	2079.52
211.163	2569.72
211.628	3929.72
212.094	3307.02
212.559	4111.98
213.024	2579.06
213.49	3146.79
213.955	3059.21
214.42	3017.2
214.885	2830.74
215.35	2756.48
215.815	2691.21
216.28	2874.61
216.745	2369.78
217.21	2610.68
217.675	2420.18
218.14	2767.55
218.604	3134.52
219.069	3662.85
219.534	3907.95
219.998	4618.68
220.463	5650.61
220.927	7072.27
221.392	6739.05
221.856	6890.12
222.32	8767.58
222.785	10945.37
223.249	13881.12
223.713	15614.44
224.177	15704.51
224.642	20265.01
225.106	25089.63
225.57	27629.36
226.034	20615.65
226.497	31547.14
226.961	28556.67
227.425	33340.4
227.889	37090.35
228.353	37190.94
228.816	77073.57
229.28	73841.26
229.744	62446.32
230.207	37983.88
230.671	37399.53
231.134	62016.42
231.597	71610.43
232.061	71733.88
232.524	70204.63
232.987	48402.59
233.45	43590.4
233.914	39140.34
234.377	40241.79
234.84	36869.15
235.303	43556.16
235.766	48692.23
236.229	50348.51
236.691	31746.33
237.154	35721.44
237.617	26881.18
238.08	27577.87
238.542	32372.11
239.005	23180.02
239.468	23019.22
239.93	21731.5
240.393	19781.42
240.855	17380.9
241.317	17835.43
241.78	21735.41
242.242	22504.31
242.704	24294.19
243.166	21158.45
243.629	19213.31
244.091	22134.71
244.553	24264.5
245.015	26081.25
245.477	33743.97
245.939	49541.43
246.4	52619.95
246.862	51131.27
247.324	48230.13
247.786	54064.01
248.247	71012.72
248.709	73367.44
249.17	54914.48
249.632	51769.88
250.093	60043.98
250.555	51849.51
251.016	31549.79
251.477	29909.52
251.939	32303.51
252.4	33906.38
252.861	40311.94
253.322	37489.59
253.783	44610.73
254.244	57900.7
254.705	45685.75
255.166	40638.31
255.627	40069.53
256.088	56623.76
256.549	60146.14
257.009	51794.19
257.47	62800.92
257.931	51172.1
258.391	38363.5
258.852	39585.59
259.312	41487.24
259.773	51214.03
260.233	43245.81
260.694	36423.49
261.154	41293.97
261.614	33122.01
262.074	29617.8
262.534	30749.51
262.994	28955.21
263.455	38534.97
263.915	32406.43
264.374	30523.09
264.834	33316.4
265.294	36924.59
265.754	38268.49
266.214	36209.74
266.673	33948.61
267.133	42859.68
267.593	42549.4
268.052	52081.8
268.512	45287.41
268.971	54640.04
269.431	59889.38
269.89	53631.98
270.349	80412.19
270.809	89627.24
271.268	80617.51
271.727	180808.61
272.186	116999.44
272.645	87658.73
273.104	63246.96
273.563	91532
274.022	71962.6
274.481	61225.62
274.94	47152.46
275.399	35058.29
275.857	40813.64
276.316	55157.96
276.775	49056.3
277.233	48340.09
277.692	45277.9
278.15	51160.38
278.609	52608.21
279.067	48706.85
279.525	45237.11
279.984	58410.3
280.442	70128.42
280.9	69086.06
281.358	45456.29
281.816	42354.22
282.274	41477.22
282.732	42871.54
283.19	43097.37
283.648	37215.96
284.106	39624.72
284.564	40273.86
285.021	37323.92
285.479	27806.44
285.937	25293.82
286.394	22188.95
286.852	22859.98
287.309	24022
287.767	23182.56
288.224	22052.65
288.682	24201.16
289.139	26569.45
289.596	24332.32
290.053	25334.13
290.511	32015.24
290.968	38861.42
291.425	52802.96
291.882	43964.87
292.339	38270.02
292.796	38027.25
293.252	35858.28
293.709	28490.56
294.166	25560.85
294.623	28274.95
295.079	27142.24
295.536	27277.61
295.992	24789.86
296.449	24545.28
296.905	25516.84
297.362	24484.83
297.818	25793.6
298.274	26789.58
298.731	27346.3
299.187	27088.35
299.643	29115.24
300.099	35222.64
300.555	38653.58
301.011	32327.08
301.467	31131.79
301.923	36455.05
302.379	35612.8
302.835	34994.74
303.291	35050.23
303.746	39877.61
304.202	50399.24
304.658	50606.8
305.113	34083.98
305.569	33419.44
306.024	35636.98
306.479	33979.98
306.935	28660.8
307.39	31320.46
307.845	28922.66
308.301	29098.88
308.756	28376.69
309.211	27339.51
309.666	28033.97
310.121	34770.14
310.576	35315.55
311.031	35064.54
311.486	40193.92
311.94	40159.62
312.395	53735.15
312.85	101027.96
313.305	496727.9
313.759	2573952.61
314.214	186589.44
314.668	147835.38
315.123	124240.52
315.577	44509.72
316.032	39556.06
316.486	49531.67
316.94	39106.29
317.394	27222.07
317.849	21138.02
318.303	19995.56
318.757	18847.19
319.211	20850.8
319.665	18247.36
320.119	18494.63
320.572	26553.64
321.026	24836.9
321.48	20677.68
321.934	22585.65
322.387	22657.81
322.841	24483.09
323.295	22023.37
323.748	25398.83
324.202	25762.39
324.655	30958.9
325.108	43252.64
325.562	30547.01
326.015	36317.03
326.468	27457.85
326.921	30646.39
327.374	28575.46
327.827	29776.58
328.28	33730.57
328.733	22574.79
329.186	19853.36
329.639	18930.2
330.092	15979.54
330.545	15234.83
330.997	15362.61
331.45	16792.92
331.903	19707.5
332.355	33924.9
332.808	32992.9
333.26	27231.73
333.713	29587.84
334.165	29818.43
334.617	39821.21
335.069	32191.53
335.522	58210.08
335.974	64533.77
336.426	58957.84
336.878	40898.22
337.33	20732.3
337.782	20233.98
338.234	25329.37
338.686	30340.33
339.137	35978.84
339.589	33867
340.041	26536.48
340.493	22806.21
340.944	23310.07
341.396	25130.03
341.847	21111.61
342.299	24897.13
342.75	30390.84
343.201	26600.57
343.653	30621.6
344.104	37666.33
344.555	29681.64
345.006	46191.26
345.457	35377.69
345.908	28170.53
346.359	26490.14
346.81	21593.43
347.261	22773.63
347.712	22465.53
348.163	24120.52
348.613	24358.15
349.064	22711.96
349.515	19883.81
349.965	20387.04
350.416	24536.99
350.866	26905.3
351.317	30449.19
351.767	50405.35
352.217	63694.61
352.668	52822.4
353.118	48310.63
353.568	46711.94
354.018	36927.59
354.468	38937.7
354.918	27953.03
355.368	24505.92
355.818	34666.04
356.268	99722.41
356.718	417723.3
357.168	103944.23
357.617	52157.94
358.067	58034.37
358.517	54341.83
358.966	63759.2
359.416	71476.15
359.865	77269.25
360.315	91911.15
360.764	42937.42
361.213	24100.57
361.663	22829.37
362.112	28237.49
362.561	45612.87
363.01	34410.78
363.459	28984.84
363.908	31405.13
364.357	26670.46
364.806	45052.85
365.255	30997.52
365.703	28361.93
366.152	28360.57
366.601	22971.23
367.05	18641.33
367.498	16952.13
367.947	17717.52
368.395	18429.63
368.844	16313.28
369.292	19699.89
369.74	13603.16
370.189	20843.72
370.637	24402.97
371.085	21035.8
371.533	25614.91
371.981	24695.55
372.429	23527.99
372.877	24502.73
373.325	20487.1
373.773	20883.39
374.221	18567.79
374.669	23020.67
375.116	19910.54
375.564	20076.89
376.012	22493.23
376.459	18585.67
376.907	22202.97
377.354	26852.81
377.801	25042.63
378.249	28789.88
378.696	36767.22
379.143	44530.73
379.591	47539.09
380.038	80300.54
380.485	58065.7
380.932	62615.22
381.379	57108.99
381.826	41969.58
382.273	29810.95
382.72	26032.32
383.166	25340.52
383.613	16442.71
384.06	14825.12
384.506	17143.72
384.953	12592.28
385.4	12683.23
385.846	11111.48
386.292	10847.97
386.739	10625.95
387.185	10521.3
387.631	10539.12
388.078	10222.87
388.524	10924.49
388.97	10070.67
389.416	8388.13
389.862	8913.51
390.308	8443.14
390.754	8571.66
391.2	9297.66
391.645	9507.44
392.091	9080.18
392.537	8760.44
392.983	8778.31
393.428	8625.86
393.874	9250.25
394.319	9269.01
394.765	8777.21
395.21	9010.63
395.655	8434.15
396.101	7884.08
396.546	7116.92
396.991	7173.6
397.436	6649.75
397.881	6409.5
398.326	6062.39
398.771	5721.5
399.216	4999.16
399.661	4497.42
400.106	4473.82
400.551	4573.99
400.995	4101.9
401.44	4044.12
401.885	3792.65
402.329	3830.73
402.774	3669.55
403.218	3548.63
403.663	3420.46
404.107	3515.27
404.551	3535.65
404.995	3236.75
405.44	3115.2
405.884	3158.92
406.328	3052.55
406.772	3034.8
407.216	2762.74
407.66	2668.91
408.104	2533
408.547	2365.58
408.991	2286.23
409.435	2200.93
409.879	2170.47
410.322	2139.85
410.766	2063.6
411.209	1961.29
411.653	1882
412.096	1841.22
412.54	1839.49
412.983	1822.71
413.426	1826.32
413.869	1822
414.312	1783.03
414.756	1713.92
415.199	1631.42
415.642	1579.19
416.085	1580.69
416.527	1570.65
416.97	1591.73
417.413	1511.15
417.856	1496.22
418.298	1479.44
418.741	1470.45
419.184	1469.09
419.626	1530.63
420.069	1532.21
420.511	1541.42
420.953	1506.32
421.396	1492.21
421.838	1452.55
422.28	1483.05
422.722	1489.06
423.164	1510.07
423.606	1482.92
424.048	1477.37
424.49	1401.25
424.932	1393
425.374	1373.13
425.816	1395.31
426.258	1421.29
426.699	1439.69
427.141	1422.41
427.582	1443.43
428.024	1437.45
428.465	1428.76
428.907	1394.11
429.348	1382.16
429.789	1380.85
430.231	1354.94
430.672	1375.53
431.113	1342.5
431.554	1320.39
431.995	1285.15
432.436	1240.4
432.877	1212.74
433.318	1192.5
433.759	1189.21
434.2	1187.2
434.64	1176.13
435.081	1177.34
435.522	1116.24
435.962	1076.14
436.403	1056.09
436.843	1070.46
437.284	1047.95
437.724	1019.13
438.164	1019.72
438.604	994.57
439.045	956.5
439.485	916.6
439.925	896.94
440.365	875.24
440.805	863.86
441.245	851.82
441.685	820.43
442.125	814.14
442.564	820.73
443.004	802.83
443.444	801.35
443.883	802.17
444.323	796.57
444.762	797.02
445.202	805.4
445.641	819.23
446.081	814.56
446.52	821.39
446.959	813.16
447.398	791.45
447.837	784.13
448.276	770.05
448.716	777.12
449.154	784.35
449.593	768.41
450.032	767.38
450.471	753.65
450.91	753.47
451.349	752.37
451.787	750.71
452.226	762.84
452.664	760.81
453.103	762.5
453.541	761.22
453.98	760.22
454.418	763.62
454.856	752.56
455.295	750.38
455.733	757.21
456.171	760.55
456.609	761.65
457.047	761.99
457.485	773.76
457.923	776.59
458.361	766.02
458.798	768.53
459.236	767.36
459.674	772.37
460.111	775.88
460.549	769.07
460.987	766.45
461.424	763.49
461.862	758.95
462.299	747.44
462.736	744.87
463.173	749.18
463.611	741.6
464.048	739.45
464.485	744.87
464.922	738.6
465.359	733.99
465.796	725.28
466.233	719.84
466.67	713.5
467.106	710.39
467.543	704.15
467.98	693.92
468.416	674.75
468.853	669.18
469.29	648.37
469.726	642.02
470.162	623.88
470.599	614.82
471.035	608.57
471.471	593.24
471.907	590.64
472.344	586.74
472.78	589.1
473.216	595.69
473.652	588.62
474.088	588.52
474.523	585.99
474.959	592.92
475.395	587.83
475.831	584
476.266	587.31
476.702	585.28
477.138	578.86
477.573	574.99
478.008	573.83
478.444	576.16
478.879	580.19
479.314	582.04
479.75	580.44
480.185	582.24
480.62	586.43
481.055	589.17
481.49	592.96
481.925	601.06
482.36	611.96
482.795	628.81
483.229	644.67
483.664	658.04
484.099	661.26
484.534	672.37
484.968	679.61
485.403	682.5
485.837	682.39
486.271	682.08
486.706	683.48
487.14	675.79
487.574	665.57
488.009	660.82
488.443	655.71
488.877	661.91
489.311	663.48
489.745	670.66
490.179	677.42
490.613	689.52
491.046	694.38
491.48	698.28
491.914	698.69
492.348	703.33
492.781	707.29
493.215	708.63
493.648	709.58
494.082	713.76
494.515	713.52
494.948	720.69
495.382	724.3
495.815	727.74
496.248	733.17
496.681	746.05
497.114	756.39
497.547	765.11
497.98	777.51
498.413	783.04
498.846	792.64
499.279	800.75
499.711	802.82
500.144	804.5
500.577	814.24
501.009	824.52
501.442	832.96
501.874	832.97
502.306	834.13
502.739	840.72
503.171	854.46
503.603	857.17
504.036	865.34
504.468	871.66
504.9	882.66
505.332	889.72
505.764	892.44
506.196	899.45
506.627	913.79
507.059	926.39
507.491	933.37
507.923	931.32
508.354	945.29
508.786	955.61
509.217	971.56
509.649	985.12
510.08	1002.56
510.512	1018.46
510.943	1031.53
511.374	1042.04
511.805	1060.84
512.237	1079.35
512.668	1110.33
513.099	1135.67
513.53	1161.2
513.961	1180.69
514.391	1211.06
514.822	1242.83
515.253	1278.15
515.684	1302.31
516.114	1330.81
516.545	1350.31
516.975	1374.49
517.406	1390.53
517.836	1393.22
518.267	1399.79
518.697	1415.89
519.127	1419.37
519.558	1424.65
519.988	1426.3
520.418	1434.93
520.848	1451.13
521.278	1458.77
521.708	1468.55
522.138	1479.97
522.567	1508.8
522.997	1531.76
523.427	1546.39
523.857	1562.31
524.286	1572.41
524.716	1586.5
525.145	1604.64
525.575	1614.18
526.004	1627.72
526.433	1627.09
526.863	1626.64
527.292	1617.14
527.721	1621.57
528.15	1626.82
528.579	1626.23
529.008	1636.88
529.437	1658.57
529.866	1671.43
530.295	1687.59
530.724	1699.85
531.152	1724.64
531.581	1739.49
532.01	1756.26
532.438	1764.51
532.867	1779.59
533.295	1798.39
533.723	1803.55
534.152	1801.23
534.58	1801.24
535.008	1784.74
535.436	1786.8
535.865	1796.02
536.293	1808.47
536.721	1822.86
537.149	1848.11
537.576	1849.56
538.004	1861.92
538.432	1869.31
538.86	1867.05
539.287	1872.67
539.715	1887.2
540.143	1888.69
540.57	1884.1
540.998	1879.97
541.425	1857.75
541.852	1835.66
542.28	1834.19
542.707	1816.42
543.134	1801.97
543.561	1798.96
543.988	1792.23
544.415	1790.44
544.842	1785.89
545.269	1779.06
545.696	1780.65
546.123	1792.38
546.549	1782.55
546.976	1769.14
547.403	1769.35
547.829	1771.51
548.256	1772.28
548.682	1768.56
549.108	1761.35
549.535	1761.08
549.961	1763.31
550.387	1751.18
550.813	1746.49
551.24	1753.25
551.666	1754.55
552.092	1745.06
552.518	1737.82
552.943	1732.42
553.369	1739.79
553.795	1745.57
554.221	1745.31
554.646	1742.81
555.072	1753.19
555.498	1757.5
555.923	1766.4
556.349	1781.08
556.774	1789.72
557.199	1791.76
557.625	1797.55
558.05	1791.12
558.475	1800.22
558.9	1800.97
559.325	1792.79
559.75	1786.37
560.175	1779.9
560.6	1773.84
561.025	1771.35
561.449	1773.05
561.874	1779.01
562.299	1782.96
562.723	1791.4
563.148	1782.46
563.572	1785.46
563.997	1793.89
564.421	1798.97
564.846	1799.8
565.27	1802.38
565.694	1799.04
566.118	1809.07
566.542	1816.38
566.966	1810.16
567.39	1804.83
567.814	1794.02
568.238	1793.34
568.662	1797.6
569.086	1799.92
569.509	1805.79
569.933	1790.91
570.357	1784.32
570.78	1764.08
571.204	1751.57
571.627	1742.13
572.05	1740.5
572.474	1739.91
572.897	1728.11
573.32	1721.92
573.743	1712.25
574.166	1695.06
574.589	1694.86
575.012	1687.87
575.435	1686.45
575.858	1676.62
576.281	1664.46
576.704	1647.62
577.126	1635.69
577.549	1623.73
577.972	1613.56
578.394	1603.92
578.817	1598.06
579.239	1580.45
579.661	1568.04
580.084	1553.53
580.506	1541.11
580.928	1537.13
581.35	1528.06
581.772	1523.95
582.194	1511.2
582.616	1499.22
583.038	1485.6
583.46	1475.08
583.882	1472.1
584.303	1475.89
584.725	1471.23
585.147	1473.05
585.568	1483.92
585.99	1495.72
586.411	1502.28
586.833	1517.01
587.254	1518.35
587.675	1532.94
588.096	1545.8
588.518	1540.73
588.939	1523.45
589.36	1521.06
589.781	1510.75
590.202	1483.91
590.623	1474.79
591.043	1473.35
591.464	1461.11
591.885	1458.21
592.305	1451.4
592.726	1437.26
593.147	1438.71
593.567	1434.6
593.987	1427.61
594.408	1422.93
594.828	1420.13
595.248	1415.27
595.669	1396.07
596.089	1389.04
596.509	1382.22
596.929	1369.22
597.349	1370.97
597.769	1360.83
598.189	1355.57
598.608	1357.05
599.028	1358.5
599.448	1358.62
599.867	1345.63
600.287	1342.93
600.706	1339.2
601.126	1330.19
601.545	1329.35
601.965	1326.95
602.384	1322.59
602.803	1325.52
603.222	1321.32
603.641	1315.11
604.061	1310.75
604.48	1307.16
604.898	1314.07
605.317	1319.23
605.736	1321.39
606.155	1318.12
606.574	1309.76
606.992	1313.84
607.411	1307.63
607.829	1299.51
608.248	1296.26
608.666	1295.36
609.085	1294.7
609.503	1285.96
609.921	1279.84
610.339	1281.39
610.758	1280.53
611.176	1276.31
611.594	1267.41
612.012	1263.92
612.43	1268.01
612.847	1273.79
613.265	1273.71
613.683	1277.79
614.101	1279.67
614.518	1275.29
614.936	1265.02
615.353	1250.88
615.771	1246.86
616.188	1247.29
616.606	1243.52
617.023	1235.49
617.44	1221.35
617.857	1213.99
618.274	1205.3
618.691	1199.44
619.108	1190.1
619.525	1184.15
619.942	1190.88
620.359	1192.82
620.776	1187.12
621.192	1184.52
621.609	1181.65
622.026	1187.5
622.442	1193.66
622.859	1196.39
623.275	1188.8
623.691	1194.32
624.108	1204.39
624.524	1216.76
624.94	1215.61
625.356	1225.76
625.772	1236.58
626.188	1247.34
626.604	1249.34
627.02	1245.83
627.436	1244.68
627.852	1252.16
628.268	1262.67
628.683	1254.27
629.099	1245.75
629.514	1242.78
629.93	1246.3
630.345	1250.25
630.761	1247.05
631.176	1250.12
631.591	1244.63
632.007	1238.68
632.422	1235.4
632.837	1225.45
633.252	1224.61
633.667	1215.92
634.082	1207.95
634.497	1195.23
634.911	1178.97
635.326	1175.67
635.741	1161.62
636.155	1152.31
636.57	1153.96
636.984	1154.85
637.399	1157.4
637.813	1156.64
638.228	1156.46
638.642	1160.49
639.056	1152.57
639.47	1153.54
639.884	1147.2
640.298	1141.01
640.712	1141.36
641.126	1131.3
641.54	1124.33
641.954	1121.16
642.368	1112.08
642.781	1106.84
643.195	1092.01
643.609	1093.92
644.022	1089.85
644.436	1087.04
644.849	1076.45
645.262	1066.43
645.676	1069.23
646.089	1066.4
646.502	1053.31
646.915	1048.21
647.328	1031.32
647.741	1030.13
648.154	1018.39
648.567	1015.41
648.98	1003.27
649.393	1005.03
649.805	1001.02
650.218	993.46
650.631	977.64
651.043	970.92
651.456	965.5
651.868	966.97
652.28	982.94
652.693	995.16
653.105	1001.25
653.517	1009.93
653.929	1010.3
654.341	1017.08
654.753	1005.23
655.165	1010.95
655.577	1007.74
655.989	1002.39
656.401	994.83
656.813	960.06
657.224	940.57
657.636	912.55
658.047	895.58
658.459	875.39
658.87	865.28
659.282	853.55
659.693	834.65
660.104	820.82
660.515	808.41
660.926	807.64
661.338	805.63
661.749	800.44
662.159	792.28
662.57	788.37
662.981	785.1
663.392	778.56
663.803	783.88
664.213	782.69
664.624	779.39
665.035	783.82
665.445	770.41
665.855	764.22
666.266	757.33
666.676	756.27
667.086	748.6
667.497	748.52
667.907	743.46
668.317	735.15
668.727	731.89
669.137	733.29
669.547	731.04
669.956	733.26
670.366	735.21
670.776	736.73
671.186	740.09
671.595	742.72
672.005	746.05
672.414	745.47
672.824	743.02
673.233	745.19
673.642	746.3
674.052	749
674.461	750.51
674.87	753.17
675.279	749.89
675.688	750.85
676.097	751.33
676.506	747.12
676.915	760.53
677.323	762.84
677.732	760.54
678.141	759.71
678.549	748.38
678.958	747.02
679.366	746.15
679.775	750.39
680.183	759.24
680.592	763.31
681	767.49
681.408	759.36
681.816	764.96
682.224	772.59
682.632	780.57
683.04	806.63
683.448	828.48
683.856	855.25
684.264	886.28
684.671	914.55
685.079	949.82
685.487	988.23
685.894	1042.92
686.302	1086.26
686.709	1122.69
687.116	1162.88
687.524	1196.68
687.931	1224.26
688.338	1247.81
688.745	1266.03
689.152	1287.27
689.559	1318.49
689.966	1350.64
690.373	1363.23
690.78	1394.03
691.187	1444.17
691.593	1481.59
692	1513.44
692.407	1563.73
692.813	1627.17
693.22	1676.68
693.626	1728.18
694.032	1771.64
694.439	1836.85
694.845	1886.73
695.251	1952.73
695.657	2009.92
696.063	2099.33
696.469	2165.44
696.875	2227.83
697.281	2261.72
697.687	2306.11
698.093	2344.12
698.498	2414.43
698.904	2469.02
699.31	2552.36
699.715	2612.1
700.12	2697.31
700.526	2716.03
700.931	2781.41
701.337	2830.68
701.742	2865.71
702.147	2946.36
702.552	2977.3
702.957	3035.54
703.362	3058.87
703.767	3090.29
704.172	3131.67
704.577	3093.91
704.981	3141.35
705.386	3161.29
705.791	3159.03
706.195	3231.51
706.6	3244.14
707.004	3322.69
707.408	3296.06
707.813	3325.09
708.217	3315.53
708.621	3319.42
709.025	3414.02
709.43	3419.16
709.834	3478.47
710.237	3548.04
710.641	3536.98
711.045	3559.04
711.449	3558.87
711.853	3590.43
712.256	3633.56
712.66	3672.61
713.064	3746.5
713.467	3787.1
713.87	3897.7
714.274	3947.29
714.677	4053.97
715.08	4212.84
715.484	4377.97
715.887	4574.08
716.29	4768.19
716.693	4970.41
717.096	5205.19
717.499	5335.9
717.901	5368.87
718.304	5396.67
718.707	5420.34
719.109	5324.38
719.512	5296.32
719.915	5169.96
720.317	5116.51
720.719	5159.35
721.122	5132.16
721.524	5085.94
721.926	5048.94
722.328	5147.02
722.731	5142.53
723.133	5172.66
723.535	5361.74
723.937	5382.61
724.338	5436.91
724.74	5481.58
725.142	5431.4
725.544	5431.87
725.945	5463.25
726.347	5461.16
726.748	5455.72
727.15	5468.55
727.551	5432.25
727.952	5407.98
728.354	5385.18
728.755	5385.96
729.156	5344.42
729.557	5328.19
729.958	5211.02
730.359	5155.78
730.76	5140.62
731.161	5080.62
731.562	5057.19
731.962	5062.34
732.363	5002.14
732.763	4940.01
733.164	4976.32
733.564	4911.87
733.965	4817.13
734.365	4786.05
734.766	4813.92
735.166	4773.01
735.566	4721.7
735.966	4696.65
736.366	4692.69
736.766	4631.79
737.166	4662.31
737.566	4620.64
737.966	4596.13
738.365	4635.04
738.765	4631.76
739.165	4558.19
739.564	4535.55
739.964	4581.5
740.363	4535.83
740.763	4532.4
741.162	4520.93
741.561	4490.1
741.96	4446.69
742.36	4467.59
742.759	4473.78
743.158	4510.32
743.557	4525
743.955	4565.04
744.354	4519.24
744.753	4575.94
745.152	4536.86
745.55	4591.24
745.949	4584.59
746.348	4586.53
746.746	4601.13
747.144	4564.49
747.543	4541.15
747.941	4588.51
748.339	4519.46
748.737	4513.87
749.136	4507.18
749.534	4568.57
749.932	4541.76
750.33	4566.01
750.727	4617.25
751.125	4593.66
751.523	4576.35
751.921	4619.5
752.318	4587.68
752.716	4645.35
753.113	4658.64
753.511	4682.8
753.908	4684.82
754.305	4667.09
754.703	4727.47
755.1	4787.72
755.497	4846.45
755.894	5032.58
756.291	5205.22
756.688	5523.94
757.085	5949.94
757.482	6547.55
757.878	7205.69
758.275	7802.95
758.672	8618.98
759.068	9279.59
759.465	10231.73
759.861	11457.28
760.258	12876.78
760.654	13613.1
761.05	13509.43
761.447	12889.54
761.843	12000.2
762.239	11078.48
762.635	10657.59
763.031	10258.77
763.427	9685.63
763.822	9077.89
764.218	8479.31
764.614	7704.86
765.01	7185.3
765.405	6849.47
765.801	6595.86
766.196	6272.11
766.592	6088.12
766.987	5781.4
767.382	5573.85
767.778	5485.96
768.173	5359.37
768.568	5291.45
768.963	5171
769.358	5188.58
769.753	5143.25
770.148	5061.66
770.542	5059.2
770.937	5030.2
771.332	5117.88
771.726	5138.45
772.121	5079.64
772.515	5133.76
772.91	5118.84
773.304	5185.71
773.699	5123.54
774.093	5174.84
774.487	5228
774.881	5271.65
775.275	5266.36
775.669	5226.75
776.063	5267.85
776.457	5300.41
776.851	5227.9
777.245	5220.21
777.638	5251.9
778.032	5362.46
778.425	5329.3
778.819	5371.74
779.212	5330.69
779.606	5289.86
779.999	5309.39
780.392	5294.16
780.786	5374.34
781.179	5392.96
781.572	5434.49
781.965	5446.9
782.358	5392.26
782.751	5443.99
783.143	5397.39
783.536	5465
783.929	5507.48
784.322	5618.16
784.714	5649.53
785.107	5646.82
785.499	5718.49
785.891	5696.31
786.284	5675.85
786.676	5810.97
787.068	5794.64
787.46	5842.51
787.852	5864.84
788.245	5948.44
788.636	5976.07
789.028	6038.91
789.42	6073.77
789.812	6081.55
790.204	6174.73
790.595	6274.6
790.987	6083.31
791.378	6105.87
791.77	6235.72
792.161	6367.01
792.553	6421.84
792.944	6318.92
793.335	6256.49
793.726	6327.73
794.117	6416.69
794.508	6550.21
794.899	6521.03
795.29	6656.7
795.681	6710.93
796.072	6567.63
796.463	6390.31
796.853	6402.07
797.244	6552.36
797.634	6582.99
798.025	6581.28
798.415	6593.49
798.806	6678.99
799.196	6759.24
799.586	6811.39
799.976	6774.24
800.366	6996.46
800.756	7229.3
801.146	7186.9
801.536	7215.5
801.926	7288.7
802.316	7316.58
802.706	7383.44
803.095	7266.94
803.485	7363.67
803.874	7400.96
804.264	7650.7
804.653	7628.43
805.043	7766.04
805.432	7870.3
805.821	7864.26
806.21	7884.02
806.599	7998.33
806.988	8042.38
807.377	8143.3
807.766	8271.85
808.155	8545.2
808.544	8289.29
808.933	8302.37
809.321	8281.75
809.71	8570.28
810.098	8726.4
810.487	9168.04
810.875	9632.51
811.264	9654.5
811.652	9935.29
812.04	10072.92
812.428	10229.85
812.816	10967.09
813.204	11366.33
813.592	11895.18
813.98	12212.92
814.368	12124.4
814.756	12586.34
815.144	12510.61
815.531	12962.04
815.919	12880.85
816.306	13179.32
816.694	12880.22
817.081	12934.58
817.469	13273.09
817.856	13275.56
818.243	13540.03
818.63	13923.13
819.017	13521.02
819.404	13578.64
819.791	13949.64
820.178	14547.13
820.565	14790.83
820.952	15689.23
821.339	15210.33
821.725	15389.29
822.112	14668.75
822.498	14634.28
822.885	14759.5
823.271	14667.73
823.657	15071.39
824.044	15071.41
824.43	15149.91
824.816	15119.97
825.202	14702.62
825.588	15691.1
825.974	15713.12
826.36	16215.65
826.746	16246.32
827.132	16577.51
827.517	16557.3
827.903	15798.85
828.289	15837.68
828.674	15084.49
829.06	14978.28
829.445	15363.66
829.83	15698.09
830.216	16150.22
830.601	16498.93
830.986	16112.47
831.371	15989.4
831.756	16521.25
832.141	16106.03
832.526	16098.9
832.911	16369.6
833.295	16255.28
833.68	16708.47
834.065	16119.34
834.449	15239.74
834.834	15171.71
835.218	15162.66
835.603	15488.71
835.987	15288.9
836.371	16095.69
836.755	15992.38
837.139	16371.89
837.524	16607.82
837.908	16434.16
838.291	16490.81
838.675	16557.63
839.059	16762.16
839.443	16748.4
839.827	16524.71
840.21	16987.4
840.594	16850.18
840.977	17057.74
841.361	17047.64
841.744	17415.57
842.127	17261.9
842.511	17500.65
842.894	18076.09
843.277	18436.67
843.66	18962.66
844.043	19045.27
844.426	18269.91
844.809	17966.71
845.191	17997.38
845.574	17547.16
845.957	17194.59
846.339	17093.62
846.722	16590.31
847.104	16652.18
847.487	16489.81
847.869	16500.02
848.252	16767.54
848.634	17079.23
849.016	17330.75
849.398	17440.5
849.78	18259.57
850.162	18258.41
850.544	18656.77
850.926	19254.97
851.307	19176.35
851.689	19440.93
852.071	19871.84
852.452	20183.67
852.834	20165.52
853.215	20543.45
853.597	20699.14
853.978	20984.27
854.359	21428.67
854.741	20465.89
855.122	20361.3
855.503	20070.06
855.884	20208.27
856.265	20149.12
856.646	20264.32
857.026	19889.87
857.407	19832.8
857.788	19983.47
858.169	20261.02
858.549	19445.14
858.93	20048.44
859.31	20102.32
859.69	20312.12
860.071	19906.34
860.451	19700.25
860.831	18975.62
861.211	20085.31
861.591	20609.23
861.971	20581.57
862.351	20754.91
862.731	21118.12
863.111	21376.3
863.491	21689.55
863.87	22524.84
864.25	22857.84
864.629	22482.64
865.009	22985.43
865.388	23802.99
865.768	25512.07
866.147	25412.82
866.526	24018.25
866.905	24306.7
867.284	25664.75
867.663	24372.8
868.042	23359.47
868.421	23300.18
868.8	23675.9
869.179	23905.95
869.558	22514.62
869.936	20741.45
870.315	21115.13
870.693	21629.89
871.072	23331.69
871.45	22233.04
871.828	22522.29
872.207	23680.1
872.585	23314.33
872.963	23953.5
873.341	23131.35
873.719	22859.72
874.097	22584.52
874.475	23008.63
874.853	23538.91
875.23	22557.07
875.608	23488.26
875.986	25402.77
876.363	24296.1
876.741	25039.92
877.118	24411.57
877.495	25611.72
877.873	26033.33
878.25	27400.93
878.627	26282.29
879.004	26654.16
879.381	26522.25
879.758	25828.75
880.135	24044.31
880.512	25424.32
880.889	24744.55
881.265	24493.26
881.642	24289.12
882.019	24698.28
882.395	24197.92
882.772	25159.99
883.148	24058.26
883.524	23973.66
883.901	23843.01
884.277	24208.68
884.653	24066.9
885.029	24762.77
885.405	27422.03
885.781	27208.17
886.157	26089.49
886.532	26400.07
886.908	26388.33
887.284	29346.88
887.659	30295.69
888.035	31234.78
888.411	32037.52
888.786	32446.61
889.161	33578.29
889.537	32955.85
889.912	34014.9
890.287	33982.05
890.662	34873.86
891.037	34246.85
891.412	31938.55
891.787	31612.9
892.162	30514.45
892.536	31215.63
892.911	30058.83
893.286	29408.43
893.66	28216.98
894.035	28940.59
894.409	31507.06
894.784	30227.63
895.158	30719.64
895.532	32544.75
895.906	33430.41
896.281	34200.1
896.655	33656.63
897.029	38437.82
897.402	40051.86
897.776	44587.19
898.15	44434.56
898.524	43991.19
898.898	44575.83
899.271	49906.61
899.645	43217.21
900.018	41527.45
900.392	43089.86
900.765	43442.28
901.138	40204.87
901.511	39595.61
901.884	36352.48
902.258	33520.83
902.631	34612.45
903.003	39837.14
903.376	35954.24
903.749	40306.25
904.122	43127.46
904.495	47453.31
904.867	48060.6
905.24	41717.73
905.612	38821.44
905.985	39704.29
906.357	41491.7
906.729	39608.78
907.102	33832.42
907.474	32514.03
907.846	32712.71
908.218	32285.12
908.59	28536.08
908.962	27588.55
909.334	29717.39
909.705	31215.37
910.077	30297.68
910.449	31554.23
910.82	32442.08
911.192	35681.01
911.563	37085.23
911.935	39699.56
912.306	39745.69
912.677	41036.24
913.048	40631.8
913.419	44064.08
913.79	44334.82
914.161	47540.52
914.532	45444.73
914.903	41742.87
915.274	39646.65
915.645	39071.74
916.015	34366.83
916.386	32774.86
916.756	34906.26
917.127	36022.57
917.497	32188.73
917.868	35039.82
918.238	33314.6
918.608	34294.69
918.978	34998.3
919.348	37090.48
919.718	38316.87
920.088	36929.11
920.458	38373.87
920.828	40365.92
921.198	38273.17
921.567	40912.86
921.937	31663.27
922.306	31956.36
922.676	34424.7
923.045	28727.88
923.415	27290.97
923.784	24871.43
924.153	25571.55
924.522	25557.69
924.891	24016.92
925.26	25714.44
925.629	25103.65
925.998	28865.2
926.367	28183.64
926.736	26860.7
927.104	31995.32
927.473	34383.92
927.842	41516.87
928.21	41120.09
928.578	43193.43
928.947	40890.14
929.315	41160.5
929.683	48250.5
930.051	48657.88
930.42	56511.09
930.788	48280.6
931.156	47929.3
931.523	44951.04
931.891	41535.99
932.259	39891.7
932.627	46247.3
932.994	65425.74
933.362	54087.84
933.729	47027.74
934.097	44993.85
934.464	38077.74
934.831	43955.06
935.199	43305.77
935.566	41996.25
935.933	42529.21
936.3	51529.4
936.667	40139.43
937.034	36193.77
937.401	35789.48
937.767	30849.03
938.134	27480.77
938.501	38746.35
938.867	41265.83
939.234	69808.72
939.6	59544.96
939.967	65624.46
940.333	43945.06
940.699	37378.98
941.065	29982.23
941.431	39301.82
941.798	37883.72
942.163	49675.85
942.529	30997.54
942.895	28544.74
943.261	18468.77
943.627	24270.74
943.992	21261.97
944.358	21260.53
944.723	21327.45
945.089	20800.69
945.454	19194.47
945.82	20487.3
946.185	19679.55
946.55	22799.05
946.915	20446.98
947.28	23952.78
947.645	21050.68
948.01	19435.61
948.375	20282.24
948.74	24308.12
949.104	28356.72
949.469	40981.09
949.834	72475.07
950.198	68753.23
950.562	41249.54
950.927	34368.95
951.291	41397.13
951.655	35237.62
952.02	33110.45
952.384	25028
952.748	21823.2
953.112	21277.66
953.476	18491.71
953.839	17107
954.203	16938.69
954.567	21178.73
954.931	33363.13
955.294	28541.04
955.658	28728.88
956.021	48781.96
956.385	82753.07
956.748	121932.8
957.111	189194.12
957.474	212450.96
957.837	239284.16
958.2	180950.89
958.563	65153.17
958.926	44070.41
959.289	66814.71
959.652	74667.49
960.015	56082.56
960.377	80498.32
960.74	91863.12
961.102	158716.53
961.465	170695.92
961.827	91483.52
962.189	175724.37
962.552	121676.61
962.914	97513.58
963.276	63413.39
963.638	52394.58
964	51910.55
964.362	35087.87
964.724	33953.17
965.085	24190.39
965.447	19808.52
965.809	22568.26
966.17	22588.69
966.532	24458.97
966.893	22440.7
967.255	20403.58
967.616	24099.2
967.977	19300.44
968.338	21084.82
968.699	17313.64
969.061	17318.17
969.421	17451.68
969.782	19579.22
970.143	16540.39
970.504	17145.57
970.865	19510.25
971.225	19958.88
971.586	19518.32
971.946	27822.55
972.307	24145.18
972.667	31564.13
973.027	32522.16
973.388	39419.28
973.748	26836.27
974.108	29245.56
974.468	39576.03
974.828	30522.03
975.188	23484.12
975.548	21576.5
975.907	18112.29
976.267	20319.5
976.627	17114.53
976.986	17730.46
977.346	16904.94
977.705	16247.74
978.064	14792.03
978.424	12301.6
978.783	12714.22
979.142	14512.04
979.501	13883.38
979.86	14685.6
980.219	14151.81
980.578	18233.46
980.937	20418.61
981.296	18205.28
981.654	18730.48
982.013	29167.9
982.371	37882.46
982.73	35378.6
983.088	40085.54
983.447	42881.44
983.805	61309.85
984.163	128130.77
984.521	141974.9
984.879	208253.24
985.237	-338727.07
985.595	326809.6
985.953	81219.83
986.311	46893.92
986.669	27220.63
987.026	23487.15
987.384	31582.03
987.741	32647.04
988.099	23331.85
988.456	18633.91
988.814	17447.02
989.171	15149.2
989.528	14939.54
989.885	15774.32
990.242	12509.87
990.599	15587.41
990.956	12779.14
991.313	8951.85
991.67	7345.64
992.027	7799.81
992.383	6929.14
992.74	6082.87
993.096	6395.15
993.453	6627.08
993.809	6874.75
994.165	9148.62
994.522	8394.43
994.878	9224.31
995.234	11558.9
995.59	11406.04
995.946	10772.01
996.302	12286.91
996.658	14173.03
997.013	15604.45
997.369	18544.9
997.725	23721.81
998.08	15376.97
998.436	23670.3
998.791	32710.46
999.147	32621.69
999.502	35536.85
999.857	25878.08
1000.212	42210.87
1000.567	60284.9
1000.922	34778.7
1001.277	22026.17
1001.632	16320.46
1001.987	21029.73
1002.342	15094.83
1002.696	12061.98
1003.051	9631.39
1003.406	11678.74
1003.76	11635.45
1004.114	11455.53
1004.469	9627.11
1004.823	7983.62
1005.177	8642.13
1005.531	6857.06
1005.885	6076.3
1006.239	6852.92
1006.593	8611.37
1006.947	11546
1007.301	8649.33
1007.655	9422.23
1008.008	6935.35
1008.362	7772.64
1008.715	11075.75
1009.069	10034.98
1009.422	15095.76
1009.776	30327.65
1010.129	20158.89
1010.482	16803.6
1010.835	14147.6
1011.188	29523.86
1011.541	27786.13
1011.894	-169753.15
1012.247	500714.29
1012.6	34015.86
1012.952	21483.54
1013.305	11059.19
1013.657	7958.86
1014.01	7506.29
1014.362	6187.46
1014.715	5511.51
1015.067	4803.85
1015.419	4699.04
1015.771	4155.61
1016.123	3702.77
1016.475	3814.56
1016.827	4065.27
1017.179	4381.59
1017.531	4400.78
1017.883	4503.9
1018.234	4366.53
1018.586	5509.92
1018.938	5842.21
1019.289	8054.31
1019.64	9221.18
1019.992	8549.68
1020.343	7840.76
1020.694	6208.09
1021.045	5495.94
1021.396	6277.46
1021.747	6737.41
1022.098	8067.14
1022.449	5832.24
1022.8	5394.62
1023.151	3772.75
1023.501	3347.06
1023.852	3633.22
1024.202	3758.7
1024.553	4126.81
1024.903	4031.93
1025.253	3454.17
1025.604	3108.88
1025.954	3849.19
1026.304	4711.05
1026.654	5482.09
1027.004	7993.38
1027.354	12902.57
1027.703	12212.7
1028.053	16080.26
1028.403	23557.94
1028.753	34015.32
1029.102	46341.61
1029.452	238431.9
1029.801	10301.1
1030.15	6656.69
1030.499	5664.46
897.758	2863.42
901.051	2840.07
904.343	2874.48
907.636	2870.75
910.928	2937.2
914.22	2839.17
917.511	2852.08
920.803	2920.86
924.094	2949.67
927.384	2917.78
930.675	2885.59
933.965	2836.03
937.255	2833.65
940.544	2802.41
943.834	2715.7
947.123	2664.55
950.411	2768.41
953.7	2735.98
956.988	2697.29
960.276	2641.74
963.563	2736.4
966.851	2725.68
970.138	2790.87
973.424	2778.77
976.711	2726.14
979.997	2898.99
983.283	2926.12
986.568	2819.61
989.853	2847.7
993.138	2874.29
996.423	2954.61
999.708	2883.66
1002.992	2968.39
1006.275	2768.37
1009.559	2834.66
1012.842	2957.39
1016.125	2880.18
1019.408	2858.49
1022.69	2957.27
1025.972	2968.13
1029.254	2944.14
1032.536	2861.61
1035.817	2897.26
1039.098	2825
1042.379	3013.3
1045.659	2994.1
1048.939	2921.26
1052.219	2950.25
1055.498	2970.78
1058.778	2950.82
1062.057	2941.11
1065.335	2959.77
1068.614	2981.87
1071.892	2958.02
1075.17	3043.3
1078.447	3025.64
1081.724	3015.13
1085.001	3054.64
1088.278	3028.13
1091.554	3043.38
1094.83	3042.05
1098.106	3064.79
1101.382	3119.53
1104.657	3122.05
1107.932	3114.1
1111.206	3072.07
1114.481	3031.18
1117.755	3037.86
1121.029	3012.49
1124.302	3058.65
1127.575	3004.74
1130.848	2987.53
1134.121	2943.6
1137.393	2883.8
1140.665	2955.35
1143.937	2929.51
1147.208	2895.21
1150.48	2926.29
1153.75	2911.06
1157.021	2958.38
1160.291	2924.29
1163.561	2964.79
1166.831	2964.09
1170.101	3000.25
1173.37	2983.4
1176.639	2919.93
1179.907	2987.99
1183.176	2986.88
1186.444	2996.87
1189.711	3025.16
1192.979	3029.44
1196.246	2987.49
1199.513	3011.03
1202.78	3006.96
1206.046	3013.28
1209.312	3038.14
1212.578	3066.82
1215.843	3012.34
1219.108	2990.02
1222.373	3014.09
1225.638	2973.02
1228.902	2953.33
1232.166	2924.01
1235.43	2899.31
1238.693	2922.07
1241.956	2924.24
1245.219	2957.74
1248.482	2957.72
1251.744	2948.22
1255.006	3110.49
1258.268	3066.92
1261.529	3006.42
1264.79	3019.07
1268.051	3127.29
1271.312	3145.99
1274.572	3105.07
1277.832	3093.68
1281.092	3090.4
1284.351	3050.35
1287.61	3027.4
1290.869	2932.63
1294.128	2899.13
1297.386	3007.65
1300.644	2990.54
1303.902	3002.34
1307.159	2859.07
1310.416	2915.24
1313.673	2937.39
1316.93	2916.25
1320.186	2972.22
1323.442	3020.54
1326.697	3004.44
1329.953	3005.71
1333.208	3020.56
1336.463	3007.95
1339.717	2935.56
1342.972	3086.64
1346.226	3063.62
1349.479	2988.4
1352.733	2953.42
1355.986	2985.36
1359.238	2958.39
1362.491	2956.5
1365.743	2962.82
1368.995	2960.99
1372.247	2971.21
1375.498	2999.66
1378.749	2994.08
1382	2954.93
1385.251	3019.16
1388.501	2983.23
1391.751	2956.98
1395	2931.65
1398.25	2967.81
1401.499	2965.45
1404.748	2879.75
1407.996	2873.33
1411.244	2854.73
1414.492	2837.29
1417.74	2811.09
1420.987	2822.28
1424.234	2878.83
1427.481	2867.4
1430.728	2925.74
1433.974	2900.9
1437.22	2921.58
1440.465	2930.51
1443.711	2878.89
1446.956	2918.78
1450.201	2916.69
1453.445	2961.71
1456.689	2933.45
1459.933	2950.51
1463.177	2977.05
1466.42	2949.72
1469.663	2927.73
1472.906	2912.63
1476.148	3011.19
1479.391	2947.81
1482.633	2925.39
1485.874	2928.42
1489.115	2906.86
1492.356	2923.63
1495.597	2892.35
1498.838	2903.14
1502.078	2862.33
1505.318	2804.06
1508.557	2850.26
1511.797	2802.5
1515.036	2903.92
1518.274	2893.75
1521.513	2873.12
1524.751	2902.41
1527.989	2911.85
1531.227	2923.38
1534.464	2905.65
1537.701	2941.76
1540.938	2963.07
1544.174	2918.35
1547.41	2922.01
1550.646	2965.87
1553.882	2995.5
1557.117	3049.13
1560.352	3066.89
1563.587	3020.17
1566.821	2975.69
1570.055	3021.73
1573.289	2984.78
1576.523	3070.51
1579.756	3076.08
1582.989	3094.12
1586.222	3052.18
1589.454	3097.17
1592.686	3062.27
1595.918	3086.92
1599.15	3072.15
1602.381	3162.75
1605.612	3103.16
1608.843	3205.23
1612.073	3112.48
1615.303	3093.31
1618.533	3079.99
1621.762	3084.96
1624.992	3077.95
1628.221	3058.53
1631.449	3040.25
1634.678	3113.82
1637.906	3063.53
1641.134	3109.43
1644.361	3057.51
1647.588	3046.52
1650.815	3061.1
1654.042	3047.03
1657.269	3080.56
1660.495	3022.74
1663.72	3020.49
1666.946	2988.31
1670.171	2911.56
1673.396	2888.25
1676.621	2882.98
1679.845	2916.05
1683.069	2941.69
1686.293	2990.83
1689.517	2954.45
1692.74	2871.29
1695.963	2901.66
1699.185	2942.73
1702.408	2913.58
1705.63	2961.88
1708.852	2968.33
1712.073	2941.29
1715.294	2914.38
1718.515	2984.23
1721.736	2924.45
1724.956	2922.55
1728.176	2950.66
1731.396	2971.63
1734.616	2964.25
1737.835	2985.52
1741.054	2969.69
1744.272	2965.84
1747.491	2988.63
1750.709	3058.09
1753.927	2939.77
1757.144	2997.47
1760.361	3030.93
1763.578	3035.56
1766.795	2970.43
1770.011	2981.36
1773.227	3035.04
1776.443	3064.47
1779.658	3108.85
1782.874	3054.9
1786.089	3023.84
1789.303	3027.26
1792.518	3036.63
1795.732	3023.74
1798.945	3026.9
1802.159	3086.81
1805.372	2968.13
1808.585	2944.09
1811.797	2948.89
1815.01	3010.88
1818.222	3007.59
1821.434	2949.37
1824.645	3024.95
1827.856	2990.66
1831.067	3029.05
1834.278	2998.39
1837.488	2977.57
1840.698	3146.14
1843.908	3060.12
1847.117	3020.79
1850.326	2880.75
1853.535	3001.74
1856.744	3060.16
1859.952	2959.1
1863.16	2963.52
1866.368	2989.77
1869.575	3086.02
1872.782	2975.37
1875.989	2912.86
1879.196	3014.55
1882.402	3006.86
1885.608	3052.35
1888.814	2936.79
1892.019	2825.4
1895.224	2879.5
1898.429	2868.22
1901.634	2842.65
1904.838	2824.19
1908.042	2867.95
1911.246	2873.95
1914.449	2789.28
1917.652	2793.86
1920.855	2777.64
1924.058	2838.55
1927.26	2872.22
1930.462	2903.28
1933.664	2924.55
1936.865	2859.58
1940.066	2860.38
1943.267	2809.56
1946.467	2828.47
1949.668	2860.67
1952.868	2928.56
1956.067	2899.46
1959.267	2825.18
1962.466	2854.61
1965.665	2838.59
1968.863	2837.28
1972.061	2858.86
1975.259	2861.03
1978.457	2942.78
1981.654	2897.92
1984.852	2894.75
1988.048	2817.3
1991.245	2827.97
1994.441	2913.54
1997.637	2912.27
2000.833	2896.99
2004.028	2934.39
2007.223	2987.58
2010.418	2956.76
2013.613	2920.95
2016.807	2879.37
2020.001	2897.42
2023.194	2950.49
2026.388	2923.1
2029.581	2869.82
2032.774	2908.29
2035.966	2909.99
2039.158	2835.33
2042.35	2865.38
2045.542	2791.59
2048.733	2904.56
2051.924	2948.63
2055.115	2978.74
2058.306	2910.34
2061.496	2972.68
2064.686	3044.68
2067.875	2961.57
2071.065	2984.66
2074.254	3015.22
2077.442	2963.96
2080.631	3062.73
2083.819	2932.62
2087.007	2903.56
2090.195	2869.77
2093.382	2914.76
2096.569	2891.76
2099.756	2838.26
2102.942	2854.91
2106.128	2851.49
2109.314	2846.52
2112.5	2799.25
2115.685	2777.29
2118.87	2789.97
2122.055	2857.49
2125.239	2816.44
2128.424	2782.07
2131.608	2908.29
2134.791	2893.08
2137.974	2962.6
2141.157	2946.68
2144.34	2887.11
2147.523	2915.74
2150.705	2924.72
2153.887	2906.09
2157.068	2845.32
2160.25	2859.78
2163.431	2908.01
2166.611	2838.67
2169.792	2849.11
2172.972	2733.82
2176.152	2829.5
2179.331	2868.33
2182.511	2836.94
2185.69	2869.07
2188.868	2860.27
2192.047	2926.49
2195.225	2900.25
2198.403	2847.26
2201.58	2846.54
2204.758	2847.32
2207.935	2934.04
2211.111	2804.4
2214.288	2787.6
2217.464	2831.98
2220.64	2812.09
2223.815	2871.37
2226.991	2785.82
2230.166	2807.79
2233.34	2832.61
2236.515	2864.06
2239.689	2939.35
2242.863	2879.7
2246.036	2940.67
2249.209	2946.2
2252.382	2988.55
2255.555	2966.32
2258.727	2896.87
2261.9	2941.57
2265.071	2933.51
2268.243	2938.5
2271.414	2861.91
2274.585	2813.04
2277.756	2883.98
2280.926	2840.4
2284.096	2889.74
2287.266	2783.86
2290.436	2843.96
2293.605	2877.24
2296.774	2904.6
2299.942	2937.43
2303.111	2950.94
2306.279	2996.76
2309.447	2986.7
2312.614	2962.76
2315.781	2978.93
2318.948	2946.28
2322.115	2985.85
2325.281	2887.23
2328.447	2914.78
2331.613	2890.61
2334.779	2851.79
2337.944	2864.37
2341.109	2856.83
2344.274	2835.09
2347.438	2798.3
2350.602	2827.37
2353.766	2847.18
2356.929	2831.77
2360.092	2873.53
2363.255	2814.37
2366.418	2731.98
2369.58	2867.1
2372.742	2611.4
2375.904	2636.34
2379.066	2607.16
2382.227	2652.38
2385.388	2613.86
2388.548	2525.59
2391.709	2588.46
2394.869	2562.84
2398.029	2685.16
2401.188	2706.25
2404.347	2628.06
2407.506	2796.95
2410.665	2826.36
2413.823	2842.36
2416.981	2787.08
2420.139	2825.6
2423.296	2881.66
2426.453	2853.67
2429.61	2882.53
2432.767	2796.69
2435.923	2834.42
2439.079	2774.91
2442.235	2831.91
2445.391	2748.48
2448.546	2766.29
2451.701	2825.35
2454.855	2783.13
2458.009	2847.32
2461.163	2858.43
2464.317	2811.66
2467.471	2847.19
2470.624	2892.26
2473.777	2884.01
2476.929	2896.13
2480.082	2922.07
2483.234	2883.22
2486.385	2825.46
2489.537	2817.32
2492.688	2764.45
2495.839	2782.35
2498.989	2788.3
2502.14	2770.02
2505.29	2749.08
2508.439	2777.35
2511.589	2691.01
2514.738	2709.75
2517.887	2745.71
2521.035	2822.78
2524.183	2819.06
2527.331	2792.32
2530.479	2755.12
2533.627	2769.87
