Data from N_2_DIV_WI_4N_Splice17_12-18-08-021.txt Node
Date: Sat Mar 14 12:18:08 EDT 2020
User: sa697716
Spectrometer: FLMS03696
Trigger mode: 0
Integration Time (sec): 3.180400E-1
Scans to average: 20
Electric dark correction enabled: true
Nonlinearity correction enabled: true
Boxcar width: 5
XAxis mode: Wavelengths
Number of Pixels in Spectrum: 2048
>>>>>Begin Spectral Data<<<<<
187.83	-340795.89
188.298	2444.98
188.766	1342.34
189.233	1203.25
189.701	1703.33
190.169	2274.02
190.636	897.63
191.104	720.45
191.571	143.62
192.039	-58.96
192.506	-53.56
192.974	380.69
193.441	-733.12
193.908	-38.09
194.375	-19.77
194.842	63.67
195.31	80.11
195.777	148.9
196.244	348.49
196.711	431.38
197.177	525.31
197.644	751.43
198.111	1329.65
198.578	1883.67
199.045	1495.97
199.511	2468.58
199.978	2873.94
200.445	2451.81
200.911	2732.15
201.378	3051.47
201.844	2758.48
202.31	4702.7
202.777	4903.5
203.243	2716.24
203.709	2600.99
204.176	3103.39
204.642	2555.01
205.108	2406.58
205.574	1969.86
206.04	1800.03
206.506	1695.43
206.972	1634.88
207.438	1586.7
207.903	1814.05
208.369	1584.77
208.835	1591.42
209.301	1668.66
209.766	1726.58
210.232	1700.5
210.697	2112.11
211.163	2615.57
211.628	3963.85
212.094	3293.73
212.559	4094.92
213.024	2555.9
213.49	3124.04
213.955	3056.19
214.42	3015.9
214.885	2817.81
215.35	2723.98
215.815	2616.34
216.28	2797.37
216.745	2301.28
217.21	2543.05
217.675	2375.23
218.14	2736.55
218.604	3141.03
219.069	3676.69
219.534	3910.49
219.998	4647.92
220.463	5743.98
220.927	7237.65
221.392	6916.06
221.856	7085.57
222.32	9015.71
222.785	11209.97
223.249	14210.34
223.713	15943.17
224.177	15987.71
224.642	20641.75
225.106	25489.59
225.57	27894.34
226.034	20729.04
226.497	31576.31
226.961	28511.43
227.425	33233.49
227.889	36959.55
228.353	36938.36
228.816	76243.34
229.28	72979.25
229.744	61561.62
230.207	37334.09
230.671	36754.25
231.134	60834.1
231.597	70134.87
232.061	70187.12
232.524	68431.72
232.987	47058.43
233.45	42307.65
233.914	37947.96
234.377	38885.66
234.84	35544.59
235.303	41871.39
235.766	46655.6
236.229	48200.89
236.691	30334.7
237.154	34072.76
237.617	25600.09
238.08	26207.6
238.542	30663.92
239.005	21901.9
239.468	21693.73
239.93	20404.52
240.393	18534.07
240.855	16241.33
241.317	16622.38
241.78	20184.22
242.242	20812.16
242.704	22429.88
243.166	19507.87
243.629	17673.06
244.091	20315.95
244.553	22224.47
245.015	23892.76
245.477	30876.91
245.939	45272.88
246.4	47967.07
246.862	46618.04
247.324	43896.85
247.786	49056.92
248.247	64195.04
248.709	66321.5
249.17	49608.04
249.632	46690.4
250.093	54012.88
250.555	46594.7
251.016	28351.71
251.477	26853.43
251.939	28945.38
252.4	30338.03
252.861	36092.46
253.322	33527.45
253.783	39853.52
254.244	51574.68
254.705	40624.61
255.166	36134.91
255.627	35538.5
256.088	50089.92
256.549	53155.16
257.009	45686.6
257.47	55365.37
257.931	44980.09
258.391	33684.02
258.852	34700.3
259.312	36401.92
259.773	44971.05
260.233	37958.27
260.694	32002.65
261.154	36253.2
261.614	29098.38
262.074	26033.82
262.534	27051.54
262.994	25479.83
263.455	33949.42
263.915	28574.27
264.374	26870.31
264.834	29296.62
265.294	32471.94
265.754	33626.38
266.214	31832.56
266.673	29805.36
267.133	37585.93
267.593	37247.45
268.052	45560.94
268.512	39571.46
268.971	47653.58
269.431	52222.16
269.89	46742.36
270.349	70009.38
270.809	77956.25
271.268	70039.25
271.727	156921.93
272.186	101506.47
272.645	76117.48
273.104	54895.97
273.563	79458.05
274.022	62503.21
274.481	53176.15
274.94	40919.09
275.399	30402.26
275.857	35385.3
276.316	47784.68
276.775	42500.85
277.233	41855.39
277.692	39142.92
278.15	44231.4
278.609	45460.74
279.067	42065.49
279.525	39021.26
279.984	50428.79
280.442	60481.59
280.9	59525.86
281.358	39159.46
281.816	36454.26
282.274	35690.31
282.732	36864.01
283.19	37002.87
283.648	31943.93
284.106	33975.41
284.564	34543.01
285.021	31981.04
285.479	23824.9
285.937	21684.35
286.394	19001.71
286.852	19544.67
287.309	20516.72
287.767	19798.46
288.224	18829.7
288.682	20621.62
289.139	22604.98
289.596	20634.84
290.053	21409.96
290.511	26987.13
290.968	32660.52
291.425	44336.29
291.882	36841.92
292.339	32011.97
292.796	31704.08
293.252	29824.35
293.709	23650.93
294.166	21168.06
294.623	23395.89
295.079	22437.77
295.536	22515.13
295.992	20428.93
296.449	20171.24
296.905	20953.87
297.362	20065.76
297.818	21086.91
298.274	21850.26
298.731	22260.81
299.187	22021.5
299.643	23633.13
300.099	28555.24
300.555	31282.63
301.011	26108.96
301.467	25124.83
301.923	29375.02
302.379	28646.04
302.835	28119.7
303.291	28111.17
303.746	31966.63
304.202	40307.88
304.658	40420.54
305.113	27160.63
305.569	26598.93
306.024	28325.59
306.479	26940.64
306.935	22702.59
307.39	24791.12
307.845	22853.51
308.301	22986.36
308.756	22348.73
309.211	21519.81
309.666	22010.92
310.121	27300.94
310.576	27674.42
311.031	27438.12
311.486	31399.97
311.94	31341.05
312.395	41836.52
312.85	78597.82
313.305	385870.02
313.759	1997864.8
314.214	144659.81
314.668	114487.94
315.123	96156.81
315.577	34453.59
316.032	30605.82
316.486	38337.69
316.94	30181.03
317.394	21001.35
317.849	16297.64
318.303	15417.35
318.757	14526.08
319.211	16038.19
319.665	14023.16
320.119	14172.5
320.572	20319.34
321.026	18963.92
321.48	15753.17
321.934	17178.94
322.387	17211.58
322.841	18577.53
323.295	16684.39
323.748	19222.05
324.202	19487.3
324.655	23417.11
325.108	32691.52
325.562	23070.09
326.015	27396.75
326.468	20698.47
326.921	23124.85
327.374	21542.91
327.827	22407.3
328.28	25359.3
328.733	16983.92
329.186	14920.01
329.639	14186.75
330.092	11954.06
330.545	11369.09
330.997	11473.6
331.45	12539.24
331.903	14669.49
332.355	25220.16
332.808	24529.41
333.26	20233.43
333.713	21936.26
334.165	22106.59
334.617	29528.6
335.069	23845.21
335.522	43146.23
335.974	47736.21
336.426	43557.5
336.878	30166.04
337.33	15273.56
337.782	14897.48
338.234	18640.47
338.686	22288.29
339.137	26369.71
339.589	24818.79
340.041	19450.75
340.493	16725.84
340.944	17096.45
341.396	18422.91
341.847	15486.95
342.299	18237.6
342.75	22232.03
343.201	19427.73
343.653	22335.11
344.104	27449.19
344.555	21605.36
345.006	33618
345.457	25692.2
345.908	20420.72
346.359	19196.92
346.81	15637.14
347.261	16512.77
347.712	16271.21
348.163	17429.61
348.613	17617.33
349.064	16442.58
349.515	14407.72
349.965	14785.64
350.416	17813.71
350.866	19541.4
351.317	22098.22
351.767	36634.67
352.217	46268.9
352.668	38457.17
353.118	35184.84
353.568	33931.89
354.018	26799.35
354.468	28189.57
354.918	20182.62
355.368	17634.4
355.818	24945.38
356.268	71762.24
356.718	299699.53
357.168	74520.06
357.617	37333.77
358.067	41535.22
358.517	38908.92
358.966	45634.66
359.416	51195.19
359.865	55264.08
360.315	65744.96
360.764	30644.98
361.213	17144.03
361.663	16242.27
362.112	20075.16
362.561	32418.67
363.01	24456.36
363.459	20549.86
363.908	22208.78
364.357	18842.88
364.806	31848.97
365.255	21903.62
365.703	20031.23
366.152	20029.67
366.601	16235.39
367.05	13142.71
367.498	11934.78
367.947	12461.2
368.395	12959.95
368.844	11470.51
369.292	13809.1
369.74	9549.23
370.189	14642.79
370.637	17156.82
371.085	14798.88
371.533	18002.3
371.981	17322.85
372.429	16478.74
372.877	17134.34
373.325	14355.26
373.773	14610.17
374.221	12993.66
374.669	16069.22
375.116	13837.8
375.564	13966.15
376.012	15612.9
376.459	12866.05
376.907	15371.01
377.354	18587.71
377.801	17294.91
378.249	19829.8
378.696	25320.48
379.143	30642.63
379.591	32669.14
380.038	55241.35
380.485	39762.32
380.932	42876.53
381.379	39197.59
381.826	28822.53
382.273	20478.96
382.72	17907.1
383.166	17435.25
383.613	11282.33
384.06	10142.27
384.506	11681.43
384.953	8570.2
385.4	8622.97
385.846	7548.72
386.292	7319.99
386.739	7146.52
387.185	7046.41
387.631	7043.77
388.078	6826.52
388.524	7300.81
388.97	6745.33
389.416	5627.27
389.862	5969.89
390.308	5652.14
390.754	5734.14
391.2	6231.19
391.645	6389.12
392.091	6103.61
392.537	5882.59
392.983	5884.78
393.428	5783.52
393.874	6191.57
394.319	6220.14
394.765	5895.27
395.21	6054.7
395.655	5670.85
396.101	5295.29
396.546	4762.88
396.991	4793.26
397.436	4445.14
397.881	4289.92
398.326	4061.31
398.771	3836.21
399.216	3340.08
399.661	3004.53
400.106	2988.04
400.551	3053.24
400.995	2737.46
401.44	2703.39
401.885	2536.67
402.329	2564.51
402.774	2451.11
403.218	2366.63
403.663	2275.81
404.107	2340.23
404.551	2353.63
404.995	2152.86
405.44	2071.82
405.884	2101.55
406.328	2034.85
406.772	2024.82
407.216	1840.12
407.66	1777.38
408.104	1685.11
408.547	1575.54
408.991	1522.2
409.435	1462.52
409.879	1441.53
410.322	1419.96
410.766	1368.66
411.209	1299.26
411.653	1246.54
412.096	1220.35
412.54	1219.77
412.983	1209.15
413.426	1211.97
413.869	1206.21
414.312	1183.07
414.756	1139.45
415.199	1082.77
415.642	1050.89
416.085	1049.58
416.527	1039.99
416.97	1052.31
417.413	999.21
417.856	988.27
418.298	976.59
418.741	968.76
419.184	963.58
419.626	1000.11
420.069	1001.29
420.511	1005.04
420.953	982.13
421.396	973.72
421.838	949.87
422.28	968.3
422.722	974.07
423.164	989.08
423.606	973.9
424.048	971.9
424.49	924.26
424.932	919.19
425.374	904.41
425.816	921.04
426.258	935.69
426.699	946.76
427.141	934.3
427.582	945.35
428.024	936.12
428.465	929.84
428.907	906.73
429.348	896.69
429.789	895.48
430.231	878.54
430.672	888.66
431.113	869.5
431.554	854.01
431.995	832.77
432.436	805.42
432.877	787.72
433.318	775.54
433.759	772.24
434.2	771.87
434.64	765.38
435.081	767.9
435.522	728.2
435.962	703.26
436.403	692.05
436.843	700.97
437.284	684.24
437.724	665.7
438.164	664.47
438.604	650.24
439.045	625.71
439.485	599.21
439.925	584.69
440.365	570.25
440.805	560.13
441.245	550.61
441.685	529.23
442.125	523.6
442.564	526.92
443.004	517.03
443.444	514.26
443.883	514.92
444.323	510.25
444.762	510.42
445.202	516.06
445.641	527.35
446.081	523.22
446.52	528.59
446.959	525.62
447.398	513.88
447.837	507
448.276	498.05
448.716	500.16
449.154	504.28
449.593	494.36
450.032	491.94
450.471	481.01
450.91	482.65
451.349	480.77
451.787	477.38
452.226	484.32
452.664	483.42
453.103	484.62
453.541	484.88
453.98	485.01
454.418	487.56
454.856	482.38
455.295	481.78
455.733	485.34
456.171	486.75
456.609	488.25
457.047	487.21
457.485	494.22
457.923	494.51
458.361	487.76
458.798	487.62
459.236	485.06
459.674	486.7
460.111	488.81
460.549	483.77
460.987	482.64
461.424	480.22
461.862	478.05
462.299	470.54
462.736	471.97
463.173	473.41
463.611	469.85
464.048	469.54
464.485	473.21
464.922	468.21
465.359	465.04
465.796	462.5
466.233	460.22
466.67	458.11
467.106	458.74
467.543	452.38
467.98	445.87
468.416	435.31
468.853	432.4
469.29	419.61
469.726	415.01
470.162	404.5
470.599	395.42
471.035	390.69
471.471	379.05
471.907	375.39
472.344	372.84
472.78	374.43
473.216	378.2
473.652	372.63
474.088	370.78
474.523	370.49
474.959	373.22
475.395	369.17
475.831	367
476.266	369.01
476.702	367.77
477.138	363.63
477.573	361.64
478.008	359.46
478.444	362.55
478.879	367.13
479.314	368
479.75	367.69
480.185	369.45
480.62	371.89
481.055	372.78
481.49	375.62
481.925	380.28
482.36	387.77
482.795	397.37
483.229	406.08
483.664	413.29
484.099	414.35
484.534	420.73
484.968	425.15
485.403	426.19
485.837	425.55
486.271	424.16
486.706	424.58
487.14	419.12
487.574	413.23
488.009	409.96
488.443	406.01
488.877	411
489.311	411.82
489.745	416.65
490.179	420.89
490.613	430.35
491.046	434.54
491.48	438.34
491.914	438.81
492.348	442.77
492.781	445.74
493.215	447.85
493.648	448.49
494.082	452.82
494.515	453.86
494.948	460.28
495.382	463.62
495.815	467.57
496.248	472.66
496.681	482.46
497.114	491.07
497.547	499.04
497.98	509.44
498.413	515.57
498.846	524.01
499.279	531.25
499.711	535.46
500.144	538.49
500.577	548.01
501.009	557.59
501.442	566.37
501.874	569.7
502.306	573.95
502.739	582.43
503.171	595.64
503.603	600.2
504.036	609.77
504.468	617.12
504.9	628.38
505.332	636.55
505.764	642.65
506.196	651.59
506.627	665.83
507.059	678.49
507.491	687.51
507.923	689.43
508.354	704.54
508.786	716.31
509.217	733.5
509.649	749.03
510.08	767.22
510.512	784.61
510.943	800.44
511.374	813.11
511.805	833.6
512.237	854.09
512.668	884.09
513.099	910.02
513.53	936.58
513.961	957.48
514.391	986.53
514.822	1017.81
515.253	1051.32
515.684	1076.49
516.114	1105.17
516.545	1127.28
516.975	1153.53
517.406	1172.7
517.836	1178.66
518.267	1188.22
518.697	1208.71
519.127	1216.8
519.558	1226.64
519.988	1232.88
520.418	1245.73
520.848	1263.9
521.278	1274.88
521.708	1297.82
522.138	1311.89
522.567	1342.41
522.997	1367.41
523.427	1382.66
523.857	1401.37
524.286	1413.22
524.716	1429.11
525.145	1448.68
525.575	1461.32
526.004	1476.09
526.433	1468.71
526.863	1470.73
527.292	1464.67
527.721	1472.18
528.15	1478.75
528.579	1480.39
529.008	1491.73
529.437	1513.4
529.866	1525.88
530.295	1542.96
530.724	1555.64
531.152	1580.82
531.581	1594.63
532.01	1611.16
532.438	1619.26
532.867	1633.68
533.295	1650.89
533.723	1656.96
534.152	1656.02
534.58	1655.96
535.008	1641.95
535.436	1643.6
535.865	1650.46
536.293	1664.03
536.721	1679.19
537.149	1703.06
537.576	1705.96
538.004	1718.02
538.432	1725.46
538.86	1725.06
539.287	1732.26
539.715	1745.57
540.143	1749.53
540.57	1746.05
540.998	1744.18
541.425	1723.12
541.852	1703.99
542.28	1702.82
542.707	1688.18
543.134	1676.11
543.561	1671.82
543.988	1665.29
544.415	1664.12
544.842	1659.17
545.269	1653.76
545.696	1654.79
546.123	1666.77
546.549	1657.1
546.976	1646.05
547.403	1646.39
547.829	1647.87
548.256	1650.2
548.682	1647.63
549.108	1640.53
549.535	1639.72
549.961	1640.5
550.387	1628.17
550.813	1622.23
551.24	1627.1
551.666	1627.71
552.092	1618.13
552.518	1611.34
552.943	1604.95
553.369	1610.76
553.795	1614.66
554.221	1615.28
554.646	1612.4
555.072	1621.86
555.498	1625.58
555.923	1633.55
556.349	1645.24
556.774	1652.17
557.199	1652.84
557.625	1656.86
558.05	1649.36
558.475	1658.44
558.9	1655.79
559.325	1647.7
559.75	1640.32
560.175	1633.23
560.6	1626.35
561.025	1622.86
561.449	1622.18
561.874	1625.55
562.299	1628.7
562.723	1633.67
563.148	1622.68
563.572	1624.8
563.997	1630.87
564.421	1633.15
564.846	1630.63
565.27	1631.12
565.694	1627.86
566.118	1635.23
566.542	1639.4
566.966	1631.78
567.39	1625.59
567.814	1614.07
568.238	1610.81
568.662	1614.02
569.086	1612.68
569.509	1617.77
569.933	1602.33
570.357	1593.09
570.78	1572.82
571.204	1559.53
571.627	1546.85
572.05	1542.72
572.474	1539.48
572.897	1525.44
573.32	1514.48
573.743	1504.75
574.166	1486.56
574.589	1483.62
575.012	1473.76
575.435	1469.78
575.858	1459.07
576.281	1447.31
576.704	1432.26
577.126	1419.37
577.549	1408.36
577.972	1397.67
578.394	1387.14
578.817	1379.19
579.239	1360.86
579.661	1347.88
580.084	1333.27
580.506	1319.67
580.928	1313.89
581.35	1302.28
581.772	1297.2
582.194	1285.05
582.616	1273.29
583.038	1259.65
583.46	1249.08
583.882	1246.21
584.303	1248.36
584.725	1243.11
585.147	1244.96
585.568	1253.3
585.99	1262.09
586.411	1266.49
586.833	1276.64
587.254	1276.73
587.675	1286.21
588.096	1295.27
588.518	1289.78
588.939	1275.52
589.36	1272.72
589.781	1260.78
590.202	1236.72
590.623	1228.06
591.043	1225.25
591.464	1214.68
591.885	1211.32
592.305	1206.45
592.726	1194.1
593.147	1193.54
593.567	1188.56
593.987	1181.49
594.408	1176.26
594.828	1172.93
595.248	1168.31
595.669	1153.23
596.089	1147.13
596.509	1140.82
596.929	1128.72
597.349	1128.66
597.769	1120.82
598.189	1114.35
598.608	1114.84
599.028	1116.97
599.448	1116.48
599.867	1104.99
600.287	1099.51
600.706	1094.27
601.126	1085.01
601.545	1083.66
601.965	1081.39
602.384	1076
602.803	1078.01
603.222	1073.7
603.641	1066.99
604.061	1063.84
604.48	1060.28
604.898	1065.54
605.317	1067.63
605.736	1068.28
606.155	1066.42
606.574	1058.03
606.992	1060.4
607.411	1055.29
607.829	1047.77
608.248	1043.23
608.666	1039.03
609.085	1036.65
609.503	1028.85
609.921	1023.69
610.339	1024.27
610.758	1020.62
611.176	1015.59
611.594	1006.77
612.012	1001.87
612.43	1002.58
612.847	1005.81
613.265	1005.49
613.683	1007.18
614.101	1007.02
614.518	1002.11
614.936	992.3
615.353	980.55
615.771	976.98
616.188	976.64
616.606	972.99
617.023	966.29
617.44	955.34
617.857	947.44
618.274	940.1
618.691	933.93
619.108	926.2
619.525	920.92
619.942	923.79
620.359	924.24
620.776	918.65
621.192	913.94
621.609	911.75
622.026	914.99
622.442	919.22
622.859	920.42
623.275	915.08
623.691	917.63
624.108	925.78
624.524	935.62
624.94	935.23
625.356	942.86
625.772	952.17
626.188	959.57
626.604	961.62
627.02	957.96
627.436	956.02
627.852	960.07
628.268	969.54
628.683	963.08
629.099	956.77
629.514	953.22
629.93	954.27
630.345	957.32
630.761	953.91
631.176	953.88
631.591	950.69
632.007	945.41
632.422	942.99
632.837	932.73
633.252	929.37
633.667	920.07
634.082	911.85
634.497	901.54
634.911	886.44
635.326	881.83
635.741	868.49
636.155	857.95
636.57	857.28
636.984	855.59
637.399	855.3
637.813	851.98
638.228	848.87
638.642	849.67
639.056	840.2
639.47	837.71
639.884	830.18
640.298	823.77
640.712	821.27
641.126	810.18
641.54	800.68
641.954	793.55
642.368	783.96
642.781	778.17
643.195	762.74
643.609	760.36
644.022	753.41
644.436	747.21
644.849	735.88
645.262	725.34
645.676	723.64
646.089	718.83
646.502	707.61
646.915	701.99
647.328	687.7
647.741	685.41
648.154	675.66
648.567	673.6
648.98	663.55
649.393	663.41
649.805	659.6
650.218	653.57
650.631	641.86
651.043	636.75
651.456	630.74
651.868	629.86
652.28	638.88
652.693	645.8
653.105	647.83
653.517	653.06
653.929	652.09
654.341	655.22
654.753	646.05
655.165	648.53
655.577	645.14
655.989	641.78
656.401	634.63
656.813	611.72
657.224	597.41
657.636	577.97
658.047	565.99
658.459	552.48
658.87	544.04
659.282	536.26
659.693	522.68
660.104	513.89
660.515	503.72
660.926	501.08
661.338	497.94
661.749	493.47
662.159	487.68
662.57	482.75
662.981	478.9
663.392	474.76
663.803	475.8
664.213	474.08
664.624	469.95
665.035	470.63
665.445	462.66
665.855	458.71
666.266	454.89
666.676	453.32
667.086	448.18
667.497	447.49
667.907	443.37
668.317	437.21
668.727	436.26
669.137	436.29
669.547	436.02
669.956	437.77
670.366	438.72
670.776	438.92
671.186	441.57
671.595	444.82
672.005	447.44
672.414	447.99
672.824	448.89
673.233	450.77
673.642	453.1
674.052	456.21
674.461	458.25
674.87	461.03
675.279	460.5
675.688	460.65
676.097	461.77
676.506	460.88
676.915	469.85
677.323	473.15
677.732	472.85
678.141	472.49
678.549	466.14
678.958	465.79
679.366	466.05
679.775	469.41
680.183	478.52
680.592	483.8
681	488.18
681.408	484.98
681.816	489.56
682.224	495.31
682.632	503.51
683.04	522.6
683.448	538.97
683.856	559.82
684.264	583.05
684.671	602.78
685.079	628.6
685.487	657.05
685.894	697.62
686.302	730.43
686.709	760.36
687.116	794.04
687.524	824.43
687.931	853.68
688.338	878.16
688.745	900.81
689.152	928.23
689.559	961.96
689.966	999.02
690.373	1020.6
690.78	1057.44
691.187	1110.51
691.593	1155.12
692	1192.99
692.407	1244.75
692.813	1309.75
693.22	1364.96
693.626	1420.61
694.032	1469.61
694.439	1537.08
694.845	1595.56
695.251	1665.38
695.657	1728.43
696.063	1818.33
696.469	1891.17
696.875	1960.12
697.281	2004.93
697.687	2057.31
698.093	2104.55
698.498	2180.04
698.904	2242.51
699.31	2328.3
699.715	2393.01
700.12	2482.99
700.526	2510.78
700.931	2582.44
701.337	2638.67
701.742	2680.95
702.147	2766.62
702.552	2804.05
702.957	2868.37
703.362	2896.57
703.767	2934.32
704.172	2983.38
704.577	2952.95
704.981	3005.94
705.386	3030.94
705.791	3036.24
706.195	3114.01
706.6	3132.42
707.004	3214.18
707.408	3196.45
707.813	3232.52
708.217	3230.69
708.621	3242.29
709.025	3342.57
709.43	3352.16
709.834	3416.38
710.237	3489.11
710.641	3482.13
711.045	3509.7
711.449	3514.65
711.853	3549.38
712.256	3595.34
712.66	3639.02
713.064	3716.8
713.467	3762.36
713.87	3876.99
714.274	3929.75
714.677	4041.86
715.08	4204.7
715.484	4372.92
715.887	4573.88
716.29	4773.24
716.693	4982.91
717.096	5222.25
717.499	5358.25
717.901	5395.05
718.304	5431.19
718.707	5463.31
719.109	5373.41
719.512	5349.64
719.915	5228.91
720.317	5182.5
720.719	5233
721.122	5211.63
721.524	5167.34
721.926	5131.96
722.328	5233
722.731	5225.83
723.133	5259
723.535	5454.21
723.937	5481.68
724.338	5536.97
724.74	5582.94
725.142	5522.07
725.544	5523.78
725.945	5554.36
726.347	5554.79
726.748	5554.11
727.15	5573.36
727.551	5539.23
727.952	5512.33
728.354	5486.8
728.755	5491.35
729.156	5450.56
729.557	5443.2
729.958	5326.71
730.359	5275.75
730.76	5261.77
731.161	5203.31
731.562	5180.94
731.962	5187.75
732.363	5127.9
732.763	5064.64
733.164	5101.49
733.564	5036.47
733.965	4943.09
734.365	4908.86
734.766	4938.49
735.166	4900.09
735.566	4848.66
735.966	4824.46
736.366	4819.87
736.766	4760.82
737.166	4795.38
737.566	4754.17
737.966	4729.32
738.365	4768.94
738.765	4763.85
739.165	4692.15
739.564	4665.84
739.964	4710.34
740.363	4664.91
740.763	4661.73
741.162	4649.3
741.561	4617.18
741.96	4573.08
742.36	4596.36
742.759	4602.82
743.158	4642.96
743.557	4658.82
743.955	4700.1
744.354	4655.5
744.753	4711.98
745.152	4672.92
745.55	4729.48
745.949	4724.28
746.348	4726.08
746.746	4739.84
747.144	4702.65
747.543	4681.46
747.941	4728.34
748.339	4658.04
748.737	4651.42
749.136	4646.25
749.534	4711.68
749.932	4682.49
750.33	4707.01
750.727	4763.32
751.125	4742.02
751.523	4724.98
751.921	4767.4
752.318	4732.85
752.716	4793.31
753.113	4805.74
753.511	4831.46
753.908	4833.73
754.305	4818.46
754.703	4879.28
755.1	4939.33
755.497	4998.87
755.894	5190.97
756.291	5368.87
756.688	5697.45
757.085	6137.12
757.482	6756.68
757.878	7429.33
758.275	8035.3
758.672	8870.01
759.068	9555.6
759.465	10530.98
759.861	11790.86
760.258	13247.84
760.654	14005.35
761.05	13901.83
761.447	13264.86
761.843	12345.93
762.239	11400.37
762.635	10972.94
763.031	10566.96
763.427	9975.93
763.822	9353.41
764.218	8735.43
764.614	7935.52
765.01	7403.78
765.405	7056.65
765.801	6795.34
766.196	6461.66
766.592	6273.52
766.987	5959.46
767.382	5746.93
767.778	5655.74
768.173	5525.71
768.568	5455.91
768.963	5330.54
769.358	5346.84
769.753	5300.62
770.148	5216.25
770.542	5213.86
770.937	5182.57
771.332	5273.81
771.726	5293.92
772.121	5233.6
772.515	5289.36
772.91	5272.98
773.304	5346.76
773.699	5279.72
774.093	5333.86
774.487	5387.28
774.881	5432.57
775.275	5430.11
775.669	5387.12
776.063	5426.9
776.457	5460.69
776.851	5387.45
777.245	5381.33
777.638	5413.05
778.032	5531.02
778.425	5491.34
778.819	5533.3
779.212	5490.63
779.606	5448.99
779.999	5468.77
780.392	5454.4
780.786	5534.22
781.179	5551.36
781.572	5591.83
781.965	5605.87
782.358	5544.88
782.751	5603.34
783.143	5556.14
783.536	5628.59
783.929	5671.25
784.322	5785.4
784.714	5817.15
785.107	5816.07
785.499	5887.87
785.891	5866.96
786.284	5845.88
786.676	5990.84
787.068	5970.74
787.46	6023.08
787.852	6042.25
788.245	6127.11
788.636	6155.57
789.028	6220.95
789.42	6259.13
789.812	6272.27
790.204	6365.9
790.595	6465.45
790.987	6269.15
791.378	6291.9
791.77	6420.01
792.161	6557.71
792.553	6613.88
792.944	6506.43
793.335	6440.96
793.726	6515.76
794.117	6604.01
794.508	6742.8
794.899	6712.6
795.29	6852.07
795.681	6909.29
796.072	6768.68
796.463	6578.16
796.853	6587.96
797.244	6740.59
797.634	6773.23
798.025	6772.96
798.415	6785.86
798.806	6873.47
799.196	6956.49
799.586	7006.92
799.976	6969.75
800.366	7196.47
800.756	7440.33
801.146	7403.75
801.536	7437.45
801.926	7515.08
802.316	7537.16
802.706	7605.39
803.095	7482.74
803.485	7588.69
803.874	7630.66
804.264	7889.25
804.653	7866.31
805.043	8009.71
805.432	8114.87
805.821	8112.64
806.21	8133.3
806.599	8252.15
806.988	8299.27
807.377	8405.72
807.766	8531.96
808.155	8815.7
808.544	8554.53
808.933	8567.31
809.321	8546.33
809.71	8842.82
810.098	8996.68
810.487	9449.68
810.875	9919.66
811.264	9935.35
811.652	10221.55
812.04	10366.94
812.428	10520.04
812.816	11275.35
813.204	11689.21
813.592	12236.83
813.98	12571.38
814.368	12487.64
814.756	12967.33
815.144	12890.93
815.531	13362.04
815.919	13290.22
816.306	13598.68
816.694	13294.22
817.081	13347.76
817.469	13694.42
817.856	13694.95
818.243	13959.56
818.63	14348.99
819.017	13932.9
819.404	13998.77
819.791	14374.03
820.178	14984.73
820.565	15231.05
820.952	16161.86
821.339	15674.26
821.725	15855.83
822.112	15119.32
822.498	15081.82
822.885	15204.58
823.271	15108.51
823.657	15522.49
824.044	15528.54
824.43	15603.8
824.816	15562.05
825.202	15128.93
825.588	16134.68
825.974	16158.63
826.36	16663.75
826.746	16691.54
827.132	17050.61
827.517	17025.4
827.903	16248.39
828.289	16294.51
828.674	15527.44
829.06	15430.63
829.445	15833.85
829.83	16190.16
830.216	16663.06
830.601	17033.37
830.986	16633.63
831.371	16499.03
831.756	17049.05
832.141	16627.58
832.526	16620.79
832.911	16897.38
833.295	16786.56
833.68	17251.42
834.065	16638.97
834.449	15728.59
834.834	15657.22
835.218	15658.28
835.603	15994.13
835.987	15794.33
836.371	16624.88
836.755	16519
837.139	16915.81
837.524	17163.74
837.908	16982.46
838.291	17046.97
838.675	17111.78
839.059	17309.67
839.443	17306.45
839.827	17085.22
840.21	17566.6
840.594	17422.6
840.977	17628.2
841.361	17614.97
841.744	17987.19
842.127	17833.25
842.511	18084.94
842.894	18681.22
843.277	19074.92
843.66	19603.69
844.043	19686.75
844.426	18883.47
844.809	18575.61
845.191	18607.31
845.574	18145.75
845.957	17774
846.339	17669.85
846.722	17139.13
847.104	17208.72
847.487	17031.05
847.869	17046.76
848.252	17326.16
848.634	17648.12
849.016	17910.33
849.398	18042.12
849.78	18895.62
850.162	18902.04
850.544	19314.35
850.926	19936.81
851.307	19857.3
851.689	20135.69
852.071	20589.48
852.452	20907.52
852.834	20892.19
853.215	21277.82
853.597	21421.69
853.978	21709.1
854.359	22164
854.741	21170.54
855.122	21064.42
855.503	20773.05
855.884	20901.02
856.265	20826.36
856.646	20937.7
857.026	20542.37
857.407	20473.23
857.788	20631.02
858.169	20912.67
858.549	20070.41
858.93	20691.44
859.31	20750.32
859.69	20955.57
860.071	20561.74
860.451	20348.4
860.831	19609.59
861.211	20758.45
861.591	21302.68
861.971	21278.42
862.351	21472.47
862.731	21855.16
863.111	22120.67
863.491	22451.88
863.87	23322.19
864.25	23662.53
864.629	23268.22
865.009	23788.89
865.388	24637.79
865.768	26411.2
866.147	26304.62
866.526	24839.61
866.905	25138.94
867.284	26547.18
867.663	25196.46
868.042	24145.71
868.421	24069.19
868.8	24466.72
869.179	24702.87
869.558	23253.43
869.936	21430.97
870.315	21818.49
870.693	22359.65
871.072	24112.58
871.45	22972.37
871.828	23270.48
872.207	24461.13
872.585	24087.89
872.963	24745.54
873.341	23885.71
873.719	23613.58
874.097	23336.85
874.475	23773.09
874.853	24308.67
875.23	23294.13
875.608	24252.67
875.986	26241.21
876.363	25104.77
876.741	25884.69
877.118	25239.96
877.495	26492.13
877.873	26937.63
878.25	28350.67
878.627	27195.65
879.004	27592.74
879.381	27453.39
879.758	26741.58
880.135	24878.27
880.512	26303.23
880.889	25594.57
881.265	25330.55
881.642	25118.69
882.019	25545.51
882.395	25014.99
882.772	26010.28
883.148	24872.98
883.524	24784.36
883.901	24646.55
884.277	25029.69
884.653	24870.72
885.029	25591.34
885.405	28331.44
885.781	28113.25
886.157	26956.71
886.532	27302.08
886.908	27291.4
887.284	30342.66
887.659	31316.29
888.035	32287.64
888.411	33116.57
888.786	33549.1
889.161	34704.18
889.537	34074.72
889.912	35150.56
890.287	35118.98
890.662	36005.6
891.037	35343.69
891.412	32966.15
891.787	32648.68
892.162	31518.57
892.536	32262.14
892.911	31049.47
893.286	30394.22
893.66	29156.54
894.035	29916.35
894.409	32580.77
894.784	31284.35
895.158	31820.45
895.532	33706.47
895.906	34636.21
896.281	35438.98
896.655	34888.03
897.029	39876.88
897.402	41542.23
897.776	46253.55
898.15	46079.62
898.524	45559.16
898.898	46141.05
899.271	51646.67
899.645	44723.96
900.018	42933.51
900.392	44535.36
900.765	44869.61
901.138	41531.14
901.511	40898.05
901.884	37547.89
902.258	34645.25
902.631	35800.21
903.003	41202.45
903.376	37173.35
903.749	41684.01
904.122	44642.25
904.495	49158.88
904.867	49776.28
905.24	43188.51
905.612	40191.85
905.985	41103.38
906.357	42970.84
906.729	41006.72
907.102	35025.23
907.474	33666.04
907.846	33879.57
908.218	33414.09
908.59	29513.47
908.962	28540.83
909.334	30748.31
909.705	32301.29
910.077	31360.42
910.449	32640.98
910.82	33562.99
911.192	36933.95
911.563	38363.53
911.935	41043.22
912.306	41097.7
912.677	42423.73
913.048	41997.05
913.419	45528.21
913.79	45787.73
914.161	49118.7
914.532	46931.49
914.903	43135.72
915.274	40971.29
915.645	40385.46
916.015	35551.23
916.386	33890.38
916.756	36080.86
917.127	37202.65
917.497	33241.01
917.868	36172.42
918.238	34349.96
918.608	35319.18
918.978	36038.52
919.348	38158.17
919.718	39424.95
920.088	37955.25
920.458	39442.84
920.828	41511.18
921.198	39362.21
921.567	42070.04
921.937	32581.2
922.306	32882.8
922.676	35486.2
923.045	29621.61
923.415	28149.04
923.784	25637.16
924.153	26381.98
924.522	26360.78
924.891	24775.97
925.26	26543.26
925.629	25905.94
925.998	29805.34
926.367	29107.52
926.736	27718.15
927.104	32980.06
927.473	35426.56
927.842	42813.08
928.21	42366.87
928.578	44550.95
928.947	42134.36
929.315	42390.06
929.683	49727.77
930.051	50084.17
930.42	58173.13
930.788	49729.12
931.156	49378.74
931.523	46284.7
931.891	42766.26
932.259	41120.64
932.627	47623.44
932.994	67366.61
933.362	55680.31
933.729	48354.95
934.097	46301.43
934.464	39168.65
934.831	45194.56
935.199	44571.71
935.566	43220.21
935.933	43810.9
936.3	53022.65
936.667	41294.7
937.034	37247.11
937.401	36814.89
937.767	31758.74
938.134	28265.06
938.501	39886.91
938.867	42513.3
939.234	71835.97
939.6	61335.71
939.967	67513.22
940.333	45230.82
940.699	38485.04
941.065	30880.2
941.431	40469.06
941.798	39045.45
942.163	51253.66
942.529	31994.04
942.895	29427.82
943.261	19045.86
943.627	24997.91
943.992	21880.57
944.358	21903.38
944.723	22003.06
945.089	21453.65
945.454	19863.75
945.82	21194.81
946.185	20394.04
946.55	23631.11
946.915	21194.14
947.28	24851.77
947.645	21885.69
948.01	20207.64
948.375	21072.54
948.74	25268.41
949.104	29465.94
949.469	42568.55
949.834	75340.87
950.198	71400.26
950.562	42794.69
950.927	35672.48
951.291	42896.26
951.655	36532.41
952.02	34307.93
952.384	25930.83
952.748	22566.84
953.112	22013.29
953.476	19127.33
953.839	17672.73
954.203	17477.29
954.567	21865.61
954.931	34433.71
955.294	29486.81
955.658	29637.72
956.021	50427.87
956.385	85502.67
956.748	126161.36
957.111	195617.89
957.474	219738.73
957.837	247486.95
958.2	187357.94
958.563	67371.64
958.926	45567.64
959.289	69128.16
959.652	77243.56
960.015	57934.4
960.377	83249.34
960.74	94960.42
961.102	164037.21
961.465	175951.38
961.827	94191.97
962.189	180628.55
962.552	125224.48
962.914	100392.15
963.276	65124.28
963.638	53861.25
964	53315.86
964.362	35980.04
964.724	34769.08
965.085	24803.42
965.447	20332.94
965.809	23195.7
966.17	23223.16
966.532	25150.7
966.893	23074.89
967.255	21007.75
967.616	24763.34
967.977	19826.79
968.338	21652.82
968.699	17793.45
969.061	17783.39
969.421	17889.49
969.782	20053.72
970.143	16954.19
970.504	17536.3
970.865	19926.13
971.225	20347.85
971.586	19937.72
971.946	28401.65
972.307	24635.1
972.667	32240.9
973.027	33175.33
973.388	40286.86
973.748	27407.58
974.108	29853.69
974.468	40427.36
974.828	31173.8
975.188	23993.37
975.548	22037.85
975.907	18504.61
976.267	20775.82
976.627	17453.06
976.986	18098.66
977.346	17261.36
977.705	16621.69
978.064	15126.83
978.424	12585.78
978.783	13015.31
979.142	14867.99
979.501	14213.91
979.86	15040
980.219	14480.32
980.578	18681.29
980.937	20917.44
981.296	18620.55
981.654	19132.15
982.013	29784.97
982.371	38606.64
982.73	36011.01
983.088	40779.07
983.447	43548.3
983.805	62228.81
984.163	130148.67
984.521	144371.12
984.879	211668.67
985.237	-344290.12
985.595	332278.13
985.953	82535.49
986.311	47766.34
986.669	27759.28
987.026	23957.71
987.384	32246.98
987.741	33343.33
988.099	23832.06
988.456	18982.85
988.814	17752.05
989.171	15411.45
989.528	15187.09
989.885	16054.08
990.242	12728.27
990.599	15856.83
990.956	12979.48
991.313	9079.35
991.67	7454.16
992.027	7900.56
992.383	7039.06
992.74	6183.47
993.096	6492.32
993.453	6733.76
993.809	6969.47
994.165	9265.6
994.522	8484.81
994.878	9337.67
995.234	11698.5
995.59	11536.26
995.946	10912.27
996.302	12417.4
996.658	14382.44
997.013	15863.78
997.369	18800.18
997.725	24072.1
998.08	15610.35
998.436	24100.78
998.791	33279.55
999.147	33272
999.502	36297.2
999.857	26421.49
1000.212	43109.94
1000.567	61141.66
1000.922	35267.69
1001.277	22442.04
1001.632	16622.71
1001.987	21380.16
1002.342	15322.77
1002.696	12249.18
1003.051	9777.21
1003.406	11836.52
1003.76	11767
1004.114	11603.83
1004.469	9767.99
1004.823	8084.63
1005.177	8714.15
1005.531	6912.64
1005.885	6124.37
1006.239	6917.75
1006.593	8654.31
1006.947	11569.25
1007.301	8682.09
1007.655	9467.16
1008.008	6933.37
1008.362	7791.89
1008.715	11104.72
1009.069	10075.15
1009.422	15159.4
1009.776	30440.37
1010.129	20150.8
1010.482	16856.75
1010.835	14233.11
1011.188	29636.72
1011.541	27903.38
1011.894	-170357.71
1012.247	500473.13
1012.6	34049.63
1012.952	21511.01
1013.305	11095.44
1013.657	8002.9
1014.01	7577.12
1014.362	6266.31
1014.715	5570.15
1015.067	4855.17
1015.419	4743.31
1015.771	4216.83
1016.123	3749.3
1016.475	3856.59
1016.827	4103.04
1017.179	4409.79
1017.531	4431.88
1017.883	4530.38
1018.234	4359.65
1018.586	5506.51
1018.938	5853.41
1019.289	8079.37
1019.64	9237.75
1019.992	8651.76
1020.343	7910.36
1020.694	6249.33
1021.045	5504.31
1021.396	6286.44
1021.747	6752.77
1022.098	8079.06
1022.449	5855.23
1022.8	5403.2
1023.151	3759.17
1023.501	3327.48
1023.852	3608.03
1024.202	3764.06
1024.553	4142.28
1024.903	4064.79
1025.253	3473.31
1025.604	3123.86
1025.954	3900.78
1026.304	4772.61
1026.654	5581.12
1027.004	8206.36
1027.354	13316.61
1027.703	12555.46
1028.053	16447.98
1028.403	23826.81
1028.753	34401.11
1029.102	46859.55
1029.452	240928.7
1029.801	10387.75
1030.15	6685.89
1030.499	5631.08
897.758	2482.49
901.051	2432.8
904.343	2462.75
907.636	2465.46
910.928	2529.36
914.22	2441.41
917.511	2447.74
920.803	2503.9
924.094	2516.48
927.384	2507.08
930.675	2471.73
933.965	2426.82
937.255	2441.69
940.544	2409.3
943.834	2377.62
947.123	2315.78
950.411	2407.16
953.7	2382.56
956.988	2355.22
960.276	2296.07
963.563	2364.83
966.851	2365.01
970.138	2415.96
973.424	2411.51
976.711	2366.75
979.997	2462.4
983.283	2504.18
986.568	2422.26
989.853	2430.63
993.138	2460.75
996.423	2539.79
999.708	2485.02
1002.992	2534.66
1006.275	2405.2
1009.559	2432.56
1012.842	2542.16
1016.125	2479.85
1019.408	2459.78
1022.69	2535.42
1025.972	2558.56
1029.254	2533.12
1032.536	2477.55
1035.817	2499.6
1039.098	2453.52
1042.379	2561.39
1045.659	2574.21
1048.939	2509.63
1052.219	2527.81
1055.498	2532.01
1058.778	2522.95
1062.057	2501.51
1065.335	2523.43
1068.614	2540.39
1071.892	2526.51
1075.17	2596.69
1078.447	2587.07
1081.724	2582.05
1085.001	2612.76
1088.278	2589.38
1091.554	2602.73
1094.83	2596.6
1098.106	2625.76
1101.382	2666.58
1104.657	2667.88
1107.932	2665.21
1111.206	2632.17
1114.481	2591.83
1117.755	2590.86
1121.029	2579.51
1124.302	2632.64
1127.575	2590.13
1130.848	2580.72
1134.121	2548.2
1137.393	2500.82
1140.665	2562.29
1143.937	2538.78
1147.208	2496.5
1150.48	2540.93
1153.75	2528.32
1157.021	2550.68
1160.291	2522.59
1163.561	2566.46
1166.831	2550.89
1170.101	2580.6
1173.37	2550.47
1176.639	2499.52
1179.907	2554.42
1183.176	2566.75
1186.444	2570.17
1189.711	2597.85
1192.979	2609.77
1196.246	2567.12
1199.513	2584.27
1202.78	2583.15
1206.046	2592.79
1209.312	2617.14
1212.578	2640.78
1215.843	2596.12
1219.108	2566.94
1222.373	2593.45
1225.638	2558.83
1228.902	2547.17
1232.166	2510.87
1235.43	2495.3
1238.693	2517.7
1241.956	2514.09
1245.219	2558.19
1248.482	2545.67
1251.744	2541.07
1255.006	2680.64
1258.268	2633.09
1261.529	2582.09
1264.79	2586.4
1268.051	2688.19
1271.312	2701.87
1274.572	2671.57
1277.832	2659.95
1281.092	2646
1284.351	2625.06
1287.61	2608.74
1290.869	2529.67
1294.128	2512.29
1297.386	2587.78
1300.644	2579.57
1303.902	2589.83
1307.159	2453.93
1310.416	2504.17
1313.673	2527.5
1316.93	2518.63
1320.186	2560.69
1323.442	2598.1
1326.697	2593.99
1329.953	2579.28
1333.208	2606.54
1336.463	2582.68
1339.717	2528.6
1342.972	2652.28
1346.226	2627.49
1349.479	2567.9
1352.733	2540.94
1355.986	2558.27
1359.238	2536.64
1362.491	2538.26
1365.743	2538.34
1368.995	2532.67
1372.247	2545.91
1375.498	2567.94
1378.749	2589.69
1382	2544.75
1385.251	2591.39
1388.501	2551.87
1391.751	2540.24
1395	2507.18
1398.25	2538.45
1401.499	2551.44
1404.748	2484.74
1407.996	2471.33
1411.244	2459.09
1414.492	2441.76
1417.74	2420.75
1420.987	2430.06
1424.234	2482.82
1427.481	2459.16
1430.728	2519.62
1433.974	2492.61
1437.22	2504.12
1440.465	2503.46
1443.711	2479.76
1446.956	2508.06
1450.201	2493.06
1453.445	2538.31
1456.689	2516.99
1459.933	2531.13
1463.177	2561.37
1466.42	2534.62
1469.663	2516.04
1472.906	2514.22
1476.148	2573.87
1479.391	2562.32
1482.633	2531.94
1485.874	2541.59
1489.115	2534.19
1492.356	2536.52
1495.597	2513.5
1498.838	2515.95
1502.078	2490.1
1505.318	2448.2
1508.557	2487.59
1511.797	2477.57
1515.036	2513.83
1518.274	2505.33
1521.513	2476.41
1524.751	2493.01
1527.989	2507.07
1531.227	2522.63
1534.464	2521.39
1537.701	2534.14
1540.938	2552.09
1544.174	2504.26
1547.41	2498.44
1550.646	2537.41
1553.882	2578.86
1557.117	2628.84
1560.352	2641.65
1563.587	2603.94
1566.821	2565.41
1570.055	2594.7
1573.289	2566.94
1576.523	2635.62
1579.756	2644.35
1582.989	2665.64
1586.222	2625.84
1589.454	2659.95
1592.686	2639.51
1595.918	2665.7
1599.15	2654.34
1602.381	2720.48
1605.612	2685.07
1608.843	2781.84
1612.073	2696.86
1615.303	2684.17
1618.533	2676.29
1621.762	2680.27
1624.992	2661.77
1628.221	2653.65
1631.449	2640.91
1634.678	2686.46
1637.906	2647.11
1641.134	2682.84
1644.361	2641.21
1647.588	2632.95
1650.815	2649.5
1654.042	2624.04
1657.269	2651.84
1660.495	2612.89
1663.72	2625.06
1666.946	2591.3
1670.171	2546.75
1673.396	2518.88
1676.621	2504
1679.845	2517.06
1683.069	2532.29
1686.293	2570.49
1689.517	2551.24
1692.74	2488.9
1695.963	2515.34
1699.185	2537
1702.408	2511.44
1705.63	2549.84
1708.852	2564.08
1712.073	2537.28
1715.294	2531.01
1718.515	2584.78
1721.736	2537.22
1724.956	2521.97
1728.176	2546.82
1731.396	2568.59
1734.616	2556.76
1737.835	2586.95
1741.054	2562.36
1744.272	2554.96
1747.491	2586.65
1750.709	2628.61
1753.927	2549.55
1757.144	2587.35
1760.361	2635.72
1763.578	2622.01
1766.795	2566.68
1770.011	2567.47
1773.227	2600.56
1776.443	2638.37
1779.658	2680.71
1782.874	2623.65
1786.089	2607.56
1789.303	2608.16
1792.518	2612.37
1795.732	2600.01
1798.945	2610.54
1802.159	2660.01
1805.372	2573.76
1808.585	2563.9
1811.797	2564.5
1815.01	2603.84
1818.222	2612.04
1821.434	2590.61
1824.645	2643.78
1827.856	2635.85
1831.067	2668.75
1834.278	2621.42
1837.488	2604.32
1840.698	2745.38
1843.908	2676.71
1847.117	2638.91
1850.326	2539.4
1853.535	2625.65
1856.744	2642.75
1859.952	2560.32
1863.16	2561.96
1866.368	2581.52
1869.575	2683.22
1872.782	2572.13
1875.989	2509.61
1879.196	2578.13
1882.402	2572.86
1885.608	2610.28
1888.814	2527.59
1892.019	2429.57
1895.224	2481.76
1898.429	2459.92
1901.634	2438.21
1904.838	2417.41
1908.042	2464.01
1911.246	2475.48
1914.449	2421.67
1917.652	2411.8
1920.855	2394.61
1924.058	2435.34
1927.26	2476.4
1930.462	2501.62
1933.664	2530.57
1936.865	2473.44
1940.066	2481.78
1943.267	2428.15
1946.467	2439.88
1949.668	2463.19
1952.868	2530.74
1956.067	2512.99
1959.267	2449.39
1962.466	2473.18
1965.665	2458.97
1968.863	2451.7
1972.061	2462.17
1975.259	2461.61
1978.457	2539.4
1981.654	2497.97
1984.852	2499.38
1988.048	2439.61
1991.245	2438.52
1994.441	2524.45
1997.637	2501.38
2000.833	2479.85
2004.028	2518.12
2007.223	2572.15
2010.418	2552.42
2013.613	2513.51
2016.807	2490.38
2020.001	2494.19
2023.194	2530.48
2026.388	2509.32
2029.581	2454.47
2032.774	2504.68
2035.966	2516.54
2039.158	2453.52
2042.35	2480.45
2045.542	2407.44
2048.733	2500.5
2051.924	2515.48
2055.115	2538.68
2058.306	2490.26
2061.496	2546.11
2064.686	2603.66
2067.875	2519.43
2071.065	2528.18
2074.254	2553.17
2077.442	2503.62
2080.631	2592.48
2083.819	2496.27
2087.007	2480.57
2090.195	2458.45
2093.382	2485.25
2096.569	2467.35
2099.756	2424.41
2102.942	2455.44
2106.128	2461.41
2109.314	2453.28
2112.5	2426.1
2115.685	2395.9
2118.87	2404.76
2122.055	2469.69
2125.239	2439.85
2128.424	2421.69
2131.608	2507.4
2134.791	2492.01
2137.974	2542.63
2141.157	2530.68
2144.34	2488.44
2147.523	2496.06
2150.705	2514.96
2153.887	2492.98
2157.068	2449.25
2160.25	2443.58
2163.431	2474.04
2166.611	2432
2169.792	2446.33
2172.972	2347.44
2176.152	2417.41
2179.331	2447.22
2182.511	2434.44
2185.69	2462.25
2188.868	2457.55
2192.047	2505.07
2195.225	2503.97
2198.403	2457.81
2201.58	2444.94
2204.758	2441.83
2207.935	2520.4
2211.111	2415.6
2214.288	2403.78
2217.464	2442.07
2220.64	2407.91
2223.815	2461.65
2226.991	2389.82
2230.166	2407.22
2233.34	2438.71
2236.515	2461.76
2239.689	2525.5
2242.863	2474.48
2246.036	2531.85
2249.209	2526.84
2252.382	2555.99
2255.555	2551.59
2258.727	2494.06
2261.9	2528.85
2265.071	2520.35
2268.243	2518.92
2271.414	2458.14
2274.585	2428.86
2277.756	2493.04
2280.926	2447.66
2284.096	2483.96
2287.266	2401.36
2290.436	2450.98
2293.605	2477.16
2296.774	2509.76
2299.942	2523.31
2303.111	2544.96
2306.279	2590
2309.447	2578.86
2312.614	2552.54
2315.781	2574.66
2318.948	2547.51
2322.115	2582.93
2325.281	2487.21
2328.447	2502.6
2331.613	2474.49
2334.779	2456.84
2337.944	2455.04
2341.109	2456.69
2344.274	2440.21
2347.438	2406.65
2350.602	2431.12
2353.766	2444.9
2356.929	2432.7
2360.092	2472.13
2363.255	2430.23
2366.418	2376.91
2369.58	2473.08
2372.742	2292.56
2375.904	2298.74
2379.066	2278.96
2382.227	2309.51
2385.388	2274.81
2388.548	2209.11
2391.709	2258.45
2394.869	2240.48
2398.029	2326.27
2401.188	2331.93
2404.347	2276.64
2407.506	2393.04
2410.665	2425.51
2413.823	2426.25
2416.981	2392.04
2420.139	2413.81
2423.296	2462.24
2426.453	2434.52
2429.61	2456.73
2432.767	2401.95
2435.923	2440.31
2439.079	2400.1
2442.235	2445.23
2445.391	2377.82
2448.546	2408.25
2451.701	2452.69
2454.855	2433.37
2458.009	2476.82
2461.163	2474.66
2464.317	2439.64
2467.471	2469.31
2470.624	2505.07
2473.777	2481.19
2476.929	2493.17
2480.082	2517.81
2483.234	2486.47
2486.385	2433.2
2489.537	2428.1
2492.688	2399.43
2495.839	2418.48
2498.989	2431.11
2502.14	2414.2
2505.29	2401.73
2508.439	2423.27
2511.589	2355.54
2514.738	2363.25
2517.887	2390.67
2521.035	2462.61
2524.183	2438.27
2527.331	2419.44
2530.479	2399.27
2533.627	2407.18
