Data from N_2_DIV_IL_4N_Splice17_12-35-31-747.txt Node
Date: Sat Mar 14 12:35:31 EDT 2020
User: sa697716
Spectrometer: FLMS03696
Trigger mode: 0
Integration Time (sec): 3.180400E-1
Scans to average: 20
Electric dark correction enabled: true
Nonlinearity correction enabled: true
Boxcar width: 5
XAxis mode: Wavelengths
Number of Pixels in Spectrum: 2048
>>>>>Begin Spectral Data<<<<<
187.83	-389117.25
188.298	2732.78
188.766	1393.63
189.233	1282.29
189.701	1795.31
190.169	2391.97
190.636	834.71
191.104	667.91
191.571	66.35
192.039	-134.02
192.506	-216.04
192.974	261.58
193.441	-358.93
193.908	-164.53
194.375	-60.17
194.842	-44.38
195.31	-0.68
195.777	133.18
196.244	379.03
196.711	456.41
197.177	574.21
197.644	819.82
198.111	1430.64
198.578	1979.11
199.045	1600.76
199.511	2632.82
199.978	3108.77
200.445	2637.5
200.911	2901.43
201.378	3216.24
201.844	2909.3
202.31	5002.14
202.777	5230.79
203.243	2906.73
203.709	2783.44
204.176	3328.85
204.642	2763.92
205.108	2583.45
205.574	2105.87
206.04	1917.43
206.506	1809.64
206.972	1708.55
207.438	1645.07
207.903	1879.47
208.369	1649.98
208.835	1642.29
209.301	1730.56
209.766	1767.22
210.232	1760.27
210.697	2186.41
211.163	2708.14
211.628	4107.97
212.094	3488.87
212.559	4294.3
213.024	2675.62
213.49	3298
213.955	3226.8
214.42	3174.49
214.885	2975.72
215.35	2848.49
215.815	2763.87
216.28	2968.71
216.745	2424.32
217.21	2651.54
217.675	2468.87
218.14	2834.25
218.604	3209.53
219.069	3728.25
219.534	3955.54
219.998	4670.55
220.463	5742.51
220.927	7176.29
221.392	6821.34
221.856	6993.99
222.32	8906.35
222.785	11075.14
223.249	14024.5
223.713	15757.65
224.177	15848.82
224.642	20474.17
225.106	25312.7
225.57	27747.85
226.034	20719.01
226.497	31647.13
226.961	28658.38
227.425	33431.87
227.889	37244.59
228.353	37360.16
228.816	77451.45
229.28	74311.51
229.744	62854.65
230.207	38255.27
230.671	37789.52
231.134	62635.62
231.597	72351.43
232.061	72435.16
232.524	70810.17
232.987	48849.93
233.45	44049.16
233.914	39548.39
234.377	40630.11
234.84	37253.96
235.303	44021.39
235.766	49144.84
236.229	50837.53
236.691	32037.53
237.154	36071.98
237.617	27167.67
238.08	27860.29
238.542	32629.19
239.005	23362.24
239.468	23184.84
239.93	21868.44
240.393	19879.42
240.855	17470.91
241.317	17905.93
241.78	21832.32
242.242	22562.8
242.704	24367.15
243.166	21230.72
243.629	19285.17
244.091	22212.86
244.553	24380.76
245.015	26204.6
245.477	33940.21
245.939	49839.67
246.4	52933.13
246.862	51502.37
247.324	48616.58
247.786	54441.43
248.247	71410.81
248.709	73811.91
249.17	55262.93
249.632	51980.84
250.093	60294.19
250.555	52066.31
251.016	31723.7
251.477	30099.49
251.939	32463.14
252.4	34079.16
252.861	40568.34
253.322	37691.42
253.783	44891.77
254.244	58221.35
254.705	45982.92
255.166	40910.68
255.627	40325.8
256.088	56883.13
256.549	60446.83
257.009	52083.69
257.47	63204.15
257.931	51465.3
258.391	38591.58
258.852	39756.61
259.312	41680.47
259.773	51468.15
260.233	43453.89
260.694	36611.55
261.154	41503.58
261.614	33271.4
262.074	29748.3
262.534	30896.5
262.994	29077.46
263.455	38741.32
263.915	32610.97
264.374	30677.15
264.834	33479.29
265.294	37085.3
265.754	38410.26
266.214	36379.12
266.673	34082.95
267.133	42995.93
267.593	42638.1
268.052	52178.1
268.512	45369.06
268.971	54681.31
269.431	60017.98
269.89	53776.42
270.349	80620.8
270.809	89882.35
271.268	80748.69
271.727	181198.69
272.186	117354.26
272.645	88004.96
273.104	63477.24
273.563	91910.03
274.022	72314.89
274.481	61476.38
274.94	47302.94
275.399	35172.55
275.857	40938.14
276.316	55365.63
276.775	49239.38
277.233	48467.5
277.692	45336.8
278.15	51272
278.609	52700.54
279.067	48773.98
279.525	45306.67
279.984	58548.94
280.442	70269.83
280.9	69248.65
281.358	45540.53
281.816	42446.72
282.274	41567
282.732	42974.07
283.19	43218.36
283.648	37310.43
284.106	39756.79
284.564	40436.35
285.021	37491.65
285.479	27951.43
285.937	25440.04
286.394	22322.28
286.852	22976.86
287.309	24156.13
287.767	23349.26
288.224	22208.58
288.682	24386.1
289.139	26740.54
289.596	24459.06
290.053	25416.03
290.511	32124.47
290.968	38962.82
291.425	52956.22
291.882	44082.03
292.339	38375.22
292.796	38066.75
293.252	35887.58
293.709	28525.18
294.166	25601.44
294.623	28353.15
295.079	27230.35
295.536	27372.47
295.992	24871.88
296.449	24596.14
296.905	25575.23
297.362	24534.56
297.818	25847.32
298.274	26825.36
298.731	27354.84
299.187	27109.06
299.643	29116.66
300.099	35266.4
300.555	38702.31
301.011	32378.51
301.467	31224.81
301.923	36613.09
302.379	35817.94
302.835	35191.93
303.291	35265.04
303.746	40179.63
304.202	50787.69
304.658	50987.57
305.113	34320.93
305.569	33639.81
306.024	35900.12
306.479	34208.72
306.935	28841.86
307.39	31506.79
307.845	29140.7
308.301	29339.89
308.756	28596.67
309.211	27543.29
309.666	28232.61
310.121	35019.88
310.576	35575.02
311.031	35289.21
311.486	40463.66
311.94	40477.93
312.395	54152.37
312.85	101762.59
313.305	499861.31
313.759	2587791.08
314.214	187636.38
314.668	148667.3
315.123	125096.23
315.577	44839.89
316.032	39862.98
316.486	49923.52
316.94	39367.87
317.394	27390.71
317.849	21286.45
318.303	20159.44
318.757	19017.07
319.211	21031.86
319.665	18433.51
320.119	18657.21
320.572	26767.55
321.026	25031.82
321.48	20838.47
321.934	22724.84
322.387	22764.14
322.841	24582.74
323.295	22083.96
323.748	25488.58
324.202	25871.45
324.655	31059.27
325.108	43376.36
325.562	30645.22
326.015	36429.9
326.468	27588.59
326.921	30862.82
327.374	28803.33
327.827	30007.62
328.28	34025.22
328.733	22779.49
329.186	20033.14
329.639	19095.53
330.092	16118.49
330.545	15367.27
330.997	15500.09
331.45	16927.33
331.903	19827.78
332.355	34156.36
332.808	33195.26
333.26	27381.53
333.713	29714.52
334.165	29945.85
334.617	40003.13
335.069	32320.86
335.522	58421.15
335.974	64661.64
336.426	59130.69
336.878	41034.09
337.33	20819.19
337.782	20337.9
338.234	25476.66
338.686	30528.89
339.137	36117.55
339.589	34016.13
340.041	26649.89
340.493	22892.18
340.944	23457.12
341.396	25267.95
341.847	21239.58
342.299	25027.92
342.75	30559.26
343.201	26749.22
343.653	30738.25
344.104	37848.74
344.555	29784.4
345.006	46450.34
345.457	35546.86
345.908	28289.99
346.359	26596.12
346.81	21689.11
347.261	22883.67
347.712	22519.46
348.163	24149.26
348.613	24447.28
349.064	22838.87
349.515	20022.51
349.965	20530.47
350.416	24756.36
350.866	27180.78
351.317	30735.86
351.767	50832.84
352.217	64223.4
352.668	53383.78
353.118	48935.73
353.568	47218.1
354.018	37287.29
354.468	39285.62
354.918	28160.74
355.368	24652.39
355.818	34825.18
356.268	100176.93
356.718	419097.36
357.168	104236.08
357.617	52283.38
358.067	58129.03
358.517	54485.89
358.966	63891.17
359.416	71702.94
359.865	77675.81
360.315	92577.39
360.764	43192.1
361.213	24232.47
361.663	22986.72
362.112	28416.4
362.561	45916.14
363.01	34656.55
363.459	29225.99
363.908	31654.02
364.357	26892
364.806	45402.82
365.255	31209.64
365.703	28542.57
366.152	28566.05
366.601	23160.41
367.05	18797.2
367.498	17076.53
367.947	17824.19
368.395	18515.34
368.844	16404.15
369.292	19795.46
369.74	13662.16
370.189	20911.44
370.637	24526.66
371.085	21141.47
371.533	25773.83
371.981	24847.58
372.429	23693.34
372.877	24696.03
373.325	20665.47
373.773	21015.82
374.221	18693.43
374.669	23198.72
375.116	20080.47
375.564	20266.34
376.012	22699.64
376.459	18700.41
376.907	22337.22
377.354	26998.88
377.801	25152.55
378.249	28860.45
378.696	36938.23
379.143	44707.98
379.591	47638.83
380.038	80551.17
380.485	58163.97
380.932	62705.5
381.379	57288.26
381.826	42130.62
382.273	29941.39
382.72	26172.01
383.166	25504.5
383.613	16523.11
384.06	14922.74
384.506	17254.61
384.953	12673.2
385.4	12778.3
385.846	11197.77
386.292	10925.49
386.739	10698.73
387.185	10590.84
387.631	10616.23
388.078	10295.39
388.524	11026.43
388.97	10162.68
389.416	8478.33
389.862	9011.89
390.308	8521.41
390.754	8645.45
391.2	9375.21
391.645	9609.7
392.091	9163.09
392.537	8836.98
392.983	8862.07
393.428	8699.07
393.874	9327.5
394.319	9338.21
394.765	8830.85
395.21	9074.69
395.655	8512.15
396.101	7958.88
396.546	7161.09
396.991	7213.9
397.436	6692.12
397.881	6441.74
398.326	6101.92
398.771	5759.65
399.216	5037.65
399.661	4533.27
400.106	4508.62
400.551	4601.24
400.995	4119.83
401.44	4071.8
401.885	3828.33
402.329	3862.01
402.774	3704.07
403.218	3576.17
403.663	3441.45
404.107	3531.48
404.551	3551.3
404.995	3253.78
405.44	3134.85
405.884	3184.55
406.328	3078.12
406.772	3067.72
407.216	2790.31
407.66	2697.79
408.104	2556.63
408.547	2389.91
408.991	2309.2
409.435	2222.51
409.879	2190.87
410.322	2158.16
410.766	2080.6
411.209	1975.97
411.653	1890.05
412.096	1848.06
412.54	1845.33
412.983	1834.7
413.426	1840.12
413.869	1838.85
414.312	1800.25
414.756	1732.39
415.199	1652.09
415.642	1600.45
416.085	1598.13
416.527	1586.94
416.97	1609.58
417.413	1526.08
417.856	1507.69
418.298	1490.91
418.741	1477.22
419.184	1473.1
419.626	1534.13
420.069	1535.92
420.511	1542.48
420.953	1509.38
421.396	1496.4
421.838	1460.93
422.28	1492.97
422.722	1502.7
423.164	1522.87
423.606	1497.26
424.048	1494.26
424.49	1418.74
424.932	1409.75
425.374	1392.05
425.816	1417.53
426.258	1443.27
426.699	1456.5
427.141	1435.1
427.582	1455
428.024	1448.44
428.465	1442.38
428.907	1406.87
429.348	1389.43
429.789	1387.88
430.231	1358.62
430.672	1377.36
431.113	1346.53
431.554	1326.12
431.995	1293.21
432.436	1245.66
432.877	1216.58
433.318	1194.18
433.759	1190.12
434.2	1190.28
434.64	1180.17
435.081	1183.88
435.522	1123.46
435.962	1082.75
436.403	1062.13
436.843	1078.54
437.284	1057.72
437.724	1028.61
438.164	1033.54
438.604	1011.17
439.045	972.09
439.485	931.34
439.925	911.74
440.365	885.67
440.805	872.87
441.245	860.77
441.685	828.5
442.125	822.01
442.564	827.17
443.004	805.98
443.444	803.37
443.883	806.98
444.323	800.85
444.762	803.26
445.202	815.74
445.641	829.54
446.081	824.38
446.52	829.37
446.959	820.46
447.398	803.24
447.837	794.97
448.276	780.68
448.716	786.15
449.154	792.32
449.593	772.28
450.032	769.34
450.471	756.54
450.91	757.02
451.349	756.73
451.787	755.04
452.226	764.04
452.664	763.56
453.103	765.87
453.541	765.54
453.98	765.23
454.418	770.06
454.856	757.22
455.295	755.33
455.733	762.04
456.171	765.23
456.609	766.11
457.047	767.32
457.485	780.51
457.923	781.72
458.361	771.38
458.798	773.42
459.236	772.74
459.674	778.61
460.111	782.97
460.549	775.97
460.987	772.99
461.424	769.42
461.862	764.57
462.299	752.18
462.736	751.56
463.173	753.49
463.611	744.9
464.048	742.13
464.485	748.21
464.922	740.82
465.359	735.01
465.796	726.56
466.233	722.4
466.67	715.86
467.106	712.67
467.543	705.36
467.98	695.95
468.416	677.95
468.853	673.14
469.29	652.5
469.726	644.79
470.162	627.7
470.599	617.99
471.035	610.74
471.471	595.82
471.907	592.61
472.344	587.67
472.78	588.82
473.216	596.05
473.652	588.66
474.088	587.31
474.523	586.2
474.959	592.49
475.395	587.35
475.831	583.51
476.266	587.06
476.702	585.57
477.138	580.11
477.573	578.46
478.008	575.89
478.444	578.18
478.879	583.1
479.314	585.35
479.75	584.9
480.185	587.92
480.62	593.54
481.055	595.98
481.49	600.48
481.925	608.79
482.36	619.72
482.795	637.3
483.229	654.01
483.664	668.01
484.099	670.05
484.534	680.43
484.968	687.62
485.403	689.46
485.837	688.07
486.271	686.43
486.706	686.12
487.14	677.55
487.574	667.1
488.009	661.55
488.443	655.2
488.877	661.56
489.311	663.41
489.745	670.18
490.179	675.91
490.613	688.75
491.046	693.32
491.48	698.98
491.914	699.27
492.348	703.68
492.781	706.62
493.215	708.11
493.648	709.32
494.082	714.61
494.515	715.31
494.948	723.34
495.382	727.03
495.815	731.43
496.248	735.94
496.681	748.63
497.114	759.21
497.547	769.07
497.98	781.92
498.413	788.28
498.846	797.24
499.279	804.53
499.711	807.23
500.144	808.89
500.577	818.43
501.009	828.93
501.442	838.13
501.874	838.68
502.306	839.84
502.739	845.99
503.171	859.24
503.603	861.76
504.036	870.61
504.468	876.12
504.9	887.34
505.332	894.08
505.764	896.91
506.196	902.97
506.627	916.47
507.059	929.16
507.491	937.23
507.923	934.69
508.354	947.88
508.786	957.41
509.217	974.31
509.649	987.57
510.08	1004.66
510.512	1021.68
510.943	1035.17
511.374	1045.64
511.805	1064.62
512.237	1082.5
512.668	1113.69
513.099	1140.46
513.53	1166.72
513.961	1185.8
514.391	1216.12
514.822	1248.46
515.253	1282.19
515.684	1307.71
516.114	1336.51
516.545	1356.86
516.975	1382.69
517.406	1398.54
517.836	1399.22
518.267	1405.09
518.697	1421.92
519.127	1425.42
519.558	1431.75
519.988	1434.23
520.418	1443.34
520.848	1458.97
521.278	1466.3
521.708	1473.78
522.138	1485.35
522.567	1515.32
522.997	1539.05
523.427	1553.8
523.857	1569.93
524.286	1579.51
524.716	1594.12
525.145	1612.31
525.575	1622.65
526.004	1636.29
526.433	1637.43
526.863	1637.82
527.292	1627.79
527.721	1632.23
528.15	1636.87
528.579	1636.85
529.008	1646.93
529.437	1669.02
529.866	1681
530.295	1696.64
530.724	1709.34
531.152	1734.83
531.581	1748.16
532.01	1764.74
532.438	1772.84
532.867	1786.55
533.295	1804.67
533.723	1810.58
534.152	1807.27
534.58	1806.32
535.008	1790.13
535.436	1791.25
535.865	1799.9
536.293	1814.08
536.721	1829.03
537.149	1854.22
537.576	1857.74
538.004	1869.77
538.432	1876.53
538.86	1874.73
539.287	1881.71
539.715	1896.93
540.143	1899.03
540.57	1893.37
540.998	1889.11
541.425	1866.31
541.852	1844.93
542.28	1841.82
542.707	1825.84
543.134	1812.25
543.561	1808.21
543.988	1800.73
544.415	1799.79
544.842	1794.2
545.269	1787.71
545.696	1788.28
546.123	1800.54
546.549	1790.47
546.976	1777.94
547.403	1777.85
547.829	1779.19
548.256	1780.59
548.682	1777.07
549.108	1769.12
549.535	1769.84
549.961	1771.6
550.387	1759.18
550.813	1754.07
551.24	1759.89
551.666	1761.54
552.092	1750.73
552.518	1744.11
552.943	1738.23
553.369	1746.16
553.795	1751.92
554.221	1751.8
554.646	1749.48
555.072	1760.42
555.498	1765.18
555.923	1774.12
556.349	1788.88
556.774	1797.72
557.199	1798.91
557.625	1805.86
558.05	1799.4
558.475	1810
558.9	1808.76
559.325	1800.99
559.75	1794.93
560.175	1789.46
560.6	1781.89
561.025	1778.93
561.449	1779.73
561.874	1785.48
562.299	1790.41
562.723	1797.76
563.148	1788.35
563.572	1791.36
563.997	1799.62
564.421	1804.69
564.846	1804.47
565.27	1809.06
565.694	1806.88
566.118	1819.05
566.542	1827.15
566.966	1820.05
567.39	1815.38
567.814	1802.94
568.238	1803.71
568.662	1810.45
569.086	1812.98
569.509	1820.03
569.933	1805.27
570.357	1799.07
570.78	1777.81
571.204	1764.39
571.627	1752.79
572.05	1751
572.474	1751.24
572.897	1738.82
573.32	1730.94
573.743	1721.15
574.166	1703.53
574.589	1703.48
575.012	1695.3
575.435	1694.58
575.858	1686.19
576.281	1675.75
576.704	1659.9
577.126	1647.34
577.549	1635.62
577.972	1624.88
578.394	1615.01
578.817	1607.06
579.239	1588.04
579.661	1574.64
580.084	1559.47
580.506	1546.58
580.928	1543.22
581.35	1533.03
581.772	1528.36
582.194	1516.44
582.616	1504
583.038	1489.6
583.46	1480.05
583.882	1477.39
584.303	1481.99
584.725	1478.17
585.147	1480.03
585.568	1490.84
585.99	1502.88
586.411	1510.85
586.833	1526.08
587.254	1527.85
587.675	1541.89
588.096	1555.3
588.518	1550.63
588.939	1534.49
589.36	1531.96
589.781	1520.41
590.202	1491.82
590.623	1483.28
591.043	1480.61
591.464	1466.84
591.885	1463.9
592.305	1458.67
592.726	1444.78
593.147	1445.6
593.567	1441.16
593.987	1433.98
594.408	1429.43
594.828	1427.53
595.248	1421.13
595.669	1403.73
596.089	1397.79
596.509	1391.68
596.929	1378.39
597.349	1378.84
597.769	1369.22
598.189	1362.24
598.608	1363.36
599.028	1366.43
599.448	1366.81
599.867	1354.83
600.287	1350.67
600.706	1346.63
601.126	1337.04
601.545	1335.01
601.965	1334.09
602.384	1329.4
602.803	1332.37
603.222	1327.78
603.641	1320.41
604.061	1317.27
604.48	1313.25
604.898	1320.01
605.317	1323.9
605.736	1325.84
606.155	1324.69
606.574	1315.11
606.992	1319.3
607.411	1314.64
607.829	1306.42
608.248	1303.89
608.666	1300.84
609.085	1300.27
609.503	1292.25
609.921	1287.11
610.339	1288.61
610.758	1286.1
611.176	1281.55
611.594	1273.2
612.012	1269.11
612.43	1272.14
612.847	1277.22
613.265	1277.18
613.683	1280.88
614.101	1282.17
614.518	1277.73
614.936	1267.27
615.353	1253.71
615.771	1251.03
616.188	1251.23
616.606	1247.98
617.023	1240.6
617.44	1227.37
617.857	1221.11
618.274	1212.15
618.691	1205.26
619.108	1196
619.525	1190.08
619.942	1196.32
620.359	1197.79
620.776	1192.39
621.192	1188.45
621.609	1185.85
622.026	1192.13
622.442	1196.88
622.859	1200.19
623.275	1192.8
623.691	1198.01
624.108	1209.23
624.524	1222.28
624.94	1223.13
625.356	1232.27
625.772	1244.06
626.188	1255.91
626.604	1257.37
627.02	1253.7
627.436	1251.81
627.852	1259.96
628.268	1271.44
628.683	1263.49
629.099	1256.35
629.514	1250.81
629.93	1254.62
630.345	1258.28
630.761	1254.14
631.176	1256.58
631.591	1251.14
632.007	1246.06
632.422	1243.75
632.837	1232.54
633.252	1229.27
633.667	1219.45
634.082	1211.87
634.497	1200.06
634.911	1183.71
635.326	1181.13
635.741	1165.32
636.155	1157.13
636.57	1158.45
636.984	1158.27
637.399	1161.94
637.813	1162.18
638.228	1161.41
638.642	1166.8
639.056	1158.36
639.47	1158.88
639.884	1152.57
640.298	1148.01
640.712	1148.46
641.126	1138.47
641.54	1132.45
641.954	1127.86
642.368	1118.24
642.781	1113.87
643.195	1097.76
643.609	1098.54
644.022	1095.53
644.436	1091.32
644.849	1080.88
645.262	1070.64
645.676	1073.19
646.089	1069.74
646.502	1057.29
646.915	1052.78
647.328	1036.15
647.741	1035.36
648.154	1024.22
648.567	1021.06
648.98	1009.36
649.393	1010.25
649.805	1006.85
650.218	998.49
650.631	982.65
651.043	975.13
651.456	970.16
651.868	969.26
652.28	985.71
652.693	999.37
653.105	1004.93
653.517	1014.22
653.929	1014.51
654.341	1019.56
654.753	1008.94
655.165	1016.27
655.577	1014.5
655.989	1009.71
656.401	1002.73
656.813	966.86
657.224	947.03
657.636	918.95
658.047	901.8
658.459	882.31
658.87	873.06
659.282	861.06
659.693	840.03
660.104	825.59
660.515	812.97
660.926	813.18
661.338	811.14
661.749	804.91
662.159	796.16
662.57	792.1
662.981	789.74
663.392	783.36
663.803	788.57
664.213	788.02
664.624	785.39
665.035	788.76
665.445	774.91
665.855	768.43
666.266	762.58
666.676	761.93
667.086	754.01
667.497	753.06
667.907	748.11
668.317	738.73
668.727	735.35
669.137	735.61
669.547	732.96
669.956	735.24
670.366	737.76
670.776	739.34
671.186	742.07
671.595	745.73
672.005	748.97
672.414	747.48
672.824	746.55
673.233	749.49
673.642	751.48
674.052	754.51
674.461	756.09
674.87	758.77
675.279	755.13
675.688	757.11
676.097	757.01
676.506	752.05
676.915	765.8
677.323	767.08
677.732	765.02
678.141	763.84
678.549	752.51
678.958	749.96
679.366	748.25
679.775	750.76
680.183	759.81
680.592	764
681	768.81
681.408	760.14
681.816	766.74
682.224	773.71
682.632	781.66
683.04	808.87
683.448	831.99
683.856	859.35
684.264	892.23
684.671	918.97
685.079	954.5
685.487	991.92
685.894	1047.83
686.302	1090.52
686.709	1125.7
687.116	1166.68
687.524	1198.51
687.931	1223.97
688.338	1246.69
688.745	1262.92
689.152	1285.53
689.559	1317.31
689.966	1350.74
690.373	1365.33
690.78	1398.19
691.187	1449.58
691.593	1487.72
692	1520.02
692.407	1571.93
692.813	1635.46
693.22	1686.75
693.626	1742.21
694.032	1783.47
694.439	1849.27
694.845	1898.72
695.251	1962.7
695.657	2020.83
696.063	2110.77
696.469	2176.77
696.875	2238.94
697.281	2274.11
697.687	2318.08
698.093	2352.89
698.498	2424.51
698.904	2477.92
699.31	2558.16
699.715	2620.38
700.12	2706.46
700.526	2724.43
700.931	2792.96
701.337	2843.9
701.742	2879.5
702.147	2961.03
702.552	2993.05
702.957	3053.12
703.362	3077.2
703.767	3110.84
704.172	3150.42
704.577	3111.29
704.981	3159.04
705.386	3175.42
705.791	3173.61
706.195	3245.49
706.6	3258
707.004	3334.42
707.408	3307.65
707.813	3335.8
708.217	3326.96
708.621	3331.52
709.025	3427.03
709.43	3432.5
709.834	3494.29
710.237	3560.85
710.641	3551.06
711.045	3575.61
711.449	3575.79
711.853	3608.95
712.256	3652.95
712.66	3691.59
713.064	3766.6
713.467	3806.65
713.87	3916.52
714.274	3963.31
714.677	4072.5
715.08	4230.27
715.484	4394.55
715.887	4592.31
716.29	4783.99
716.693	4987.23
717.096	5223.64
717.499	5354.56
717.901	5387.51
718.304	5417.53
718.707	5446.75
719.109	5349.74
719.512	5324.59
719.915	5197.89
720.317	5146.64
720.719	5192.41
721.122	5168.33
721.524	5122.59
721.926	5083.6
722.328	5183.1
722.731	5174
723.133	5202.43
723.535	5392.76
723.937	5412.23
724.338	5463.78
724.74	5504.83
725.142	5451.87
725.544	5449.34
725.945	5479.54
726.347	5477.72
726.748	5473.27
727.15	5489.91
727.551	5455.73
727.952	5430.25
728.354	5404.13
728.755	5406.35
729.156	5367.75
729.557	5349.43
729.958	5232.8
730.359	5175.53
730.76	5161.79
731.161	5102.22
731.562	5078.15
731.962	5081.1
732.363	5021.17
732.763	4958.41
733.164	4993.55
733.564	4926.15
733.965	4833.5
734.365	4801.12
734.766	4831.23
735.166	4792.17
735.566	4738.23
735.966	4714.79
736.366	4711.37
736.766	4651.69
737.166	4683.73
737.566	4641.97
737.966	4619.44
738.365	4658.03
738.765	4653.51
739.165	4580.05
739.564	4554.06
739.964	4600
740.363	4554.45
740.763	4551.86
741.162	4541.63
741.561	4510.6
741.96	4468.39
742.36	4486.33
742.759	4493.01
743.158	4529.79
743.557	4544.14
743.955	4584.78
744.354	4540.34
744.753	4597.12
745.152	4556.09
745.55	4609.07
745.949	4604.74
746.348	4605.84
746.746	4623.74
747.144	4586.03
747.543	4564.16
747.941	4612.66
748.339	4542.2
748.737	4535.03
749.136	4526.36
749.534	4589.29
749.932	4561.5
750.33	4586.2
750.727	4640.92
751.125	4616.85
751.523	4601.19
751.921	4644.56
752.318	4610.18
752.716	4669.71
753.113	4681.38
753.511	4705.05
753.908	4704.88
754.305	4689.14
754.703	4746.28
755.1	4804.89
755.497	4864.26
755.894	5049.14
756.291	5222.12
756.688	5543.75
757.085	5969.35
757.482	6575.74
757.878	7235.62
758.275	7833.98
758.672	8654.7
759.068	9324.73
759.465	10277.54
759.861	11502.19
760.258	12925.38
760.654	13668.2
761.05	13553.72
761.447	12935.58
761.843	12037.72
762.239	11116.02
762.635	10699.49
763.031	10297.01
763.427	9716.68
763.822	9109.89
764.218	8514.3
764.614	7737.07
765.01	7215.44
765.405	6880.75
765.801	6624.69
766.196	6300.04
766.592	6118.57
766.987	5811.84
767.382	5603.9
767.778	5516.26
768.173	5392.43
768.568	5316.98
768.963	5193.42
769.358	5207.29
769.753	5162.36
770.148	5081.84
770.542	5081.01
770.937	5051.39
771.332	5139.57
771.726	5159.47
772.121	5102.64
772.515	5152.47
772.91	5141.83
773.304	5212.71
773.699	5150.03
774.093	5204.28
774.487	5258.32
774.881	5299.7
775.275	5293.73
775.669	5250.8
776.063	5292.06
776.457	5325.17
776.851	5252.82
777.245	5247.55
777.638	5279.08
778.032	5391.12
778.425	5355.09
778.819	5396.3
779.212	5354.47
779.606	5316.06
779.999	5336.87
780.392	5321.97
780.786	5400.61
781.179	5419.91
781.572	5461.35
781.965	5475.96
782.358	5421.18
782.751	5474.01
783.143	5426.27
783.536	5500.39
783.929	5538.16
784.322	5650.37
784.714	5679.01
785.107	5674.99
785.499	5747.59
785.891	5722.77
786.284	5702.18
786.676	5839.32
787.068	5824.01
787.46	5874.93
787.852	5891.93
788.245	5978.31
788.636	6005.78
789.028	6072.21
789.42	6110.65
789.812	6119.87
790.204	6214.82
790.595	6313.16
790.987	6120.15
791.378	6139.93
791.77	6267.81
792.161	6399.1
792.553	6449.8
792.944	6342.74
793.335	6278.1
793.726	6350.56
794.117	6437.5
794.508	6574.04
794.899	6541.94
795.29	6680.7
795.681	6736.26
796.072	6594.55
796.463	6416.68
796.853	6428.77
797.244	6580.31
797.634	6611.97
798.025	6606.93
798.415	6617.93
798.806	6701.9
799.196	6788.52
799.586	6842.28
799.976	6807.93
800.366	7032.5
800.756	7262.39
801.146	7221.85
801.536	7249.15
801.926	7317.74
802.316	7344.47
802.706	7414.64
803.095	7291.96
803.485	7389.53
803.874	7427.02
804.264	7674.09
804.653	7646.57
805.043	7787.87
805.432	7901.14
805.821	7903.95
806.21	7925.9
806.599	8039.93
806.988	8082.34
807.377	8192.76
807.766	8318.23
808.155	8592.13
808.544	8342.98
808.933	8362.54
809.321	8344.75
809.71	8627.97
810.098	8783.96
810.487	9235.81
810.875	9704.92
811.264	9728.43
811.652	10005.3
812.04	10144.71
812.428	10304.52
812.816	11042.6
813.204	11442.23
813.592	11981.54
813.98	12302.17
814.368	12213.45
814.756	12675.3
815.144	12592.33
815.531	13037.1
815.919	12965.38
816.306	13260.68
816.694	12959.6
817.081	13007.69
817.469	13348.25
817.856	13336.43
818.243	13605.72
818.63	13981.14
819.017	13579.09
819.404	13645.03
819.791	14019.81
820.178	14608
820.565	14848.13
820.952	15761.58
821.339	15285.9
821.725	15467.05
822.112	14746.58
822.498	14703.49
822.885	14834.83
823.271	14736.98
823.657	15135.79
824.044	15143.85
824.43	15221.43
824.816	15195.49
825.202	14765.08
825.588	15742
825.974	15750.57
826.36	16250.51
826.746	16275.14
827.132	16618.7
827.517	16598.63
827.903	15845.54
828.289	15877.71
828.674	15128.17
829.06	15029.14
829.445	15407.55
829.83	15764.6
830.216	16229.95
830.601	16589.17
830.986	16204.69
831.371	16070.97
831.756	16604.58
832.141	16192.92
832.526	16187.31
832.911	16458.41
833.295	16344.38
833.68	16810.74
834.065	16206.7
834.449	15321.7
834.834	15252.88
835.218	15252.64
835.603	15579.86
835.987	15382.11
836.371	16186.43
836.755	16085.81
837.139	16473.9
837.524	16706.97
837.908	16530.71
838.291	16591.69
838.675	16656.38
839.059	16854.91
839.443	16828.78
839.827	16602.62
840.21	17059.05
840.594	16925.46
840.977	17129.19
841.361	17111.05
841.744	17474.87
842.127	17316.23
842.511	17551.05
842.894	18124.38
843.277	18482.58
843.66	19019.31
844.043	19108.71
844.426	18330.33
844.809	18024.44
845.191	18057.41
845.574	17611.1
845.957	17260.92
846.339	17164.37
846.722	16661.55
847.104	16725.38
847.487	16563.76
847.869	16577.36
848.252	16846.08
848.634	17172.17
849.016	17419.23
849.398	17529.78
849.78	18358.36
850.162	18364.68
850.544	18768.41
850.926	19373.78
851.307	19288.09
851.689	19556.3
852.071	19993.99
852.452	20299.67
852.834	20267.32
853.215	20651.04
853.597	20798.13
853.978	21068.43
854.359	21503.21
854.741	20533.63
855.122	20432.74
855.503	20156.43
855.884	20286.41
856.265	20221.42
856.646	20332.38
857.026	19968.82
857.407	19907.94
857.788	20067.26
858.169	20347.17
858.549	19523.27
858.93	20125.28
859.31	20167.28
859.69	20370.67
860.071	19980.65
860.451	19770.19
860.831	19053.24
861.211	20154.41
861.591	20683.1
861.971	20661.51
862.351	20845.99
862.731	21232.86
863.111	21480.84
863.491	21806.3
863.87	22654.29
864.25	22989.94
864.629	22605.3
865.009	23109.03
865.388	23940.28
865.768	25655.09
866.147	25555.22
866.526	24145.9
866.905	24430.6
867.284	25810.08
867.663	24502.57
868.042	23477.64
868.421	23403.49
868.8	23786.85
869.179	24016.83
869.558	22608.21
869.936	20841.29
870.315	21204.92
870.693	21713.68
871.072	23415.46
871.45	22309.44
871.828	22599.44
872.207	23766.58
872.585	23406.46
872.963	24048.46
873.341	23222.58
873.719	22956.66
874.097	22679.9
874.475	23112.82
874.853	23642.79
875.23	22648.5
875.608	23602.52
875.986	25518.64
876.363	24397.38
876.741	25143.62
877.118	24509.77
877.495	25717.13
877.873	26150.34
878.25	27526.54
878.627	26404.21
879.004	26782.14
879.381	26661.05
879.758	25941.56
880.135	24168.85
880.512	25557.48
880.889	24871.33
881.265	24628.23
881.642	24419.03
882.019	24827.64
882.395	24314.46
882.772	25281.56
883.148	24192.69
883.524	24096.8
883.901	23972.22
884.277	24324.77
884.653	24175.04
885.029	24883.24
885.405	27549.43
885.781	27338.48
886.157	26213.78
886.532	26536.95
886.908	26518.31
887.284	29483.18
887.659	30446.53
888.035	31368.81
888.411	32174.44
888.786	32595.5
889.161	33709.09
889.537	33087.28
889.912	34137.51
890.287	34105.72
890.662	34972.6
891.037	34339.05
891.412	32019.77
891.787	31693.42
892.162	30598.24
892.536	31313.03
892.911	30138.7
893.286	29513.5
893.66	28317.28
894.035	29041.04
894.409	31627.96
894.784	30356.31
895.158	30862.46
895.532	32693.01
895.906	33591.23
896.281	34372.73
896.655	33828.78
897.029	38646.94
897.402	40249.72
897.776	44819.9
898.15	44677.13
898.524	44188.72
898.898	44784.67
899.271	50152.96
899.645	43444.36
900.018	41727.77
900.392	43286.63
900.765	43627.98
901.138	40391.5
901.511	39788.54
901.884	36533.63
902.258	33693.69
902.631	34805.62
903.003	40067.4
903.376	36151.43
903.749	40538.65
904.122	43385.32
904.495	47757.37
904.867	48372.72
905.24	41993.41
905.612	39071.66
905.985	39922.68
906.357	41737.44
906.729	39854.52
907.102	34024.61
907.474	32716.66
907.846	32910.58
908.218	32478.6
908.59	28717.19
908.962	27766.33
909.334	29897.78
909.705	31397.99
910.077	30497.29
910.449	31739.96
910.82	32610.82
911.192	35880.59
911.563	37283.28
911.935	39893.08
912.306	39926.93
912.677	41204.71
913.048	40800.51
913.419	44271.14
913.79	44533.91
914.161	47734.12
914.532	45632.95
914.903	41927.56
915.274	39847.81
915.645	39262.14
916.015	34558.81
916.386	32962.75
916.756	35089.3
917.127	36191.17
917.497	32322.89
917.868	35162.01
918.238	33438.58
918.608	34410.41
918.978	35147.21
919.348	37207.64
919.718	38459.93
920.088	37058.62
920.458	38508.02
920.828	40536.98
921.198	38438.96
921.567	41077.39
921.937	31834.41
922.306	32127.02
922.676	34641.95
923.045	28912.28
923.415	27461.49
923.784	24995.53
924.153	25706.23
924.522	25689.9
924.891	24137.87
925.26	25851.69
925.629	25246.86
925.998	29013.82
926.367	28326.16
926.736	26982.12
927.104	32126.79
927.473	34544.36
927.842	41719.63
928.21	41299.17
928.578	43393.6
928.947	41076.2
929.315	41350.63
929.683	48483.72
930.051	48875.47
930.42	56766.81
930.788	48527.54
931.156	48163.69
931.523	45151.72
931.891	41736.74
932.259	40098.07
932.627	46462.26
932.994	65704.92
933.362	54276.82
933.729	47149.77
934.097	45139.54
934.464	38190.58
934.831	44052.97
935.199	43410.28
935.566	42137.21
935.933	42651.07
936.3	51643.15
936.667	40236.29
937.034	36342.79
937.401	35933.06
937.767	31009.16
938.134	27606.6
938.501	38945.74
938.867	41510.89
939.234	70234.79
939.6	59865.17
939.967	66035.54
940.333	44196.55
940.699	37611.84
941.065	30130.83
941.431	39518.08
941.798	38099.84
942.163	50038.26
942.529	31249.62
942.895	28756.64
943.261	18586.65
943.627	24381.79
943.992	21339.19
944.358	21390.15
944.723	21480.27
945.089	20942.25
945.454	19354.79
945.82	20649.21
946.185	19826.51
946.55	22977.97
946.915	20612.48
947.28	24178.2
947.645	21283.28
948.01	19645.19
948.375	20459.74
948.74	24502.16
949.104	28561.93
949.469	41250.66
949.834	72905.54
950.198	69150.81
950.562	41397.5
950.927	34488.07
951.291	41507.89
951.655	35407.12
952.02	33284.62
952.384	25184.65
952.748	21950.67
953.112	21422.18
953.476	18626.64
953.839	17235.78
954.203	17078.2
954.567	21367.75
954.931	33631.45
955.294	28795.7
955.658	28938.38
956.021	49217.5
956.385	83470.93
956.748	123151.09
957.111	191007.74
957.474	214349.18
957.837	241056.16
958.2	182058.22
958.563	65556.16
958.926	44353.41
959.289	67311.5
959.652	75146.54
960.015	56353.51
960.377	80917.32
960.74	92264.91
961.102	159243.21
961.465	170991.44
961.827	91815.4
962.189	176490.25
962.552	122135.41
962.914	97948.34
963.276	63532.36
963.638	52543.53
964	52077.24
964.362	35168.02
964.724	34007.87
965.085	24248.5
965.447	19897.54
965.809	22663.79
966.17	22689.93
966.532	24600.72
966.893	22559.11
967.255	20521.36
967.616	24219
967.977	19393.31
968.338	21185.48
968.699	17420.08
969.061	17438.99
969.421	17564.58
969.782	19694.86
970.143	16644.51
970.504	17233.47
970.865	19594.78
971.225	20047.83
971.586	19625.35
971.946	27989.14
972.307	24328.14
972.667	31800.76
973.027	32748.86
973.388	39726.52
973.748	27020.83
974.108	29426.61
974.468	39811.66
974.828	30730.68
975.188	23663.14
975.548	21725.36
975.907	18217.91
976.267	20390.96
976.627	17138.81
976.986	17748.2
977.346	16907.81
977.705	16280.17
978.064	14811.45
978.424	12326.21
978.783	12743.17
979.142	14538.62
979.501	13921.88
979.86	14741.41
980.219	14233.86
980.578	18364.1
980.937	20586.16
981.296	18352.3
981.654	18892.45
982.013	29424.83
982.371	38236.5
982.73	35725.72
983.088	40460.27
983.447	43207.97
983.805	61727.43
984.163	129124.57
984.521	143271.68
984.879	210030
985.237	-341798.84
985.595	329487.48
985.953	81910.02
986.311	47200.18
986.669	27395.53
987.026	23670
987.384	31889.46
987.741	32967.07
988.099	23535.6
988.456	18754.28
988.814	17523.17
989.171	15233.97
989.528	15004.8
989.885	15847.31
990.242	12573.19
990.599	15663.55
990.956	12789.88
991.313	8931.98
991.67	7339.63
992.027	7785.78
992.383	6921.06
992.74	6079.58
993.096	6376.45
993.453	6616.66
993.809	6863.41
994.165	9144.57
994.522	8390.28
994.878	9261.66
995.234	11630.25
995.59	11465.84
995.946	10843.95
996.302	12375.09
996.658	14321.53
997.013	15780.55
997.369	18733.08
997.725	23937.21
998.08	15508.53
998.436	23850.68
998.791	32841.87
999.147	32775.53
999.502	35774.41
999.857	26008.48
1000.212	42359.04
1000.567	60245.71
1000.922	34652.01
1001.277	22046.1
1001.632	16357.48
1001.987	21044.69
1002.342	15107.05
1002.696	12101.52
1003.051	9642.44
1003.406	11679.26
1003.76	11624.47
1004.114	11470.17
1004.469	9671.23
1004.823	8027.51
1005.177	8663.03
1005.531	6870.33
1005.885	6102.39
1006.239	6890.69
1006.593	8625.58
1006.947	11547.6
1007.301	8660.88
1007.655	9454.56
1008.008	6937.36
1008.362	7789.17
1008.715	11147.72
1009.069	10120.92
1009.422	15256.38
1009.776	30550.84
1010.129	20315.04
1010.482	16984.91
1010.835	14412.19
1011.188	30047.53
1011.541	28252.9
1011.894	-173156.42
1012.247	509774.1
1012.6	34539.83
1012.952	21764.6
1013.305	11230.86
1013.657	8102.23
1014.01	7665.53
1014.362	6345.34
1014.715	5626.11
1015.067	4901.11
1015.419	4782.31
1015.771	4232.89
1016.123	3773.72
1016.475	3888.01
1016.827	4142.11
1017.179	4456.59
1017.531	4495.21
1017.883	4582.73
1018.234	4398.08
1018.586	5561.81
1018.938	5879.23
1019.289	8150.91
1019.64	9302.51
1019.992	8646.02
1020.343	7905.39
1020.694	6263.26
1021.045	5529.09
1021.396	6320.1
1021.747	6799
1022.098	8205.51
1022.449	5924.28
1022.8	5510.28
1023.151	3835.37
1023.501	3411.98
1023.852	3688.45
1024.202	3840.35
1024.553	4219.21
1024.903	4123.09
1025.253	3517.09
1025.604	3166.18
1025.954	3925.39
1026.304	4800.78
1026.654	5573.03
1027.004	8185.07
1027.354	13212.15
1027.703	12523.23
1028.053	16424.43
1028.403	23806.18
1028.753	34352.15
1029.102	46863.38
1029.452	240855.95
1029.801	10408.07
1030.15	6714
1030.499	5697.99
897.758	2850.25
901.051	2823.35
904.343	2859.53
907.636	2855.13
910.928	2921.68
914.22	2827.1
917.511	2837.8
920.803	2909.1
924.094	2937.84
927.384	2906.33
930.675	2876.05
933.965	2825.21
937.255	2824.1
940.544	2792.6
943.834	2708.21
947.123	2656.28
950.411	2757.97
953.7	2728.37
956.988	2686.56
960.276	2630.08
963.563	2725.98
966.851	2713.73
970.138	2778.57
973.424	2766.67
976.711	2714.33
979.997	2885.52
983.283	2913.6
986.568	2806.27
989.853	2834.45
993.138	2863.67
996.423	2943.79
999.708	2872.37
1002.992	2956.05
1006.275	2758.14
1009.559	2825.03
1012.842	2944.79
1016.125	2869.93
1019.408	2847.54
1022.69	2947.26
1025.972	2957.25
1029.254	2930.03
1032.536	2849.29
1035.817	2884.13
1039.098	2812.63
1042.379	2998.94
1045.659	2979.54
1048.939	2909.62
1052.219	2935.23
1055.498	2956.57
1058.778	2936.91
1062.057	2925.76
1065.335	2946.06
1068.614	2967.44
1071.892	2942.33
1075.17	3028.89
1078.447	3011.29
1081.724	2998.44
1085.001	3040.71
1088.278	3010.59
1091.554	3028.93
1094.83	3025.05
1098.106	3051.32
1101.382	3102.95
1104.657	3106.94
1107.932	3100.98
1111.206	3055.93
1114.481	3015.99
1117.755	3024.9
1121.029	2996.55
1124.302	3046.78
1127.575	2990.55
1130.848	2975
1134.121	2932.03
1137.393	2875.02
1140.665	2946.3
1143.937	2919.52
1147.208	2886.77
1150.48	2917.66
1153.75	2903.11
1157.021	2948.79
1160.291	2914.9
1163.561	2954.75
1166.831	2952.92
1170.101	2988.22
1173.37	2971.05
1176.639	2908.07
1179.907	2974.86
1183.176	2976.15
1186.444	2982.86
1189.711	3012.4
1192.979	3018.78
1196.246	2977.07
1199.513	2999.26
1202.78	2995.84
1206.046	3002.07
1209.312	3024.97
1212.578	3054.62
1215.843	2999.03
1219.108	2976.18
1222.373	3001.25
1225.638	2958.57
1228.902	2937.39
1232.166	2907.38
1235.43	2884.47
1238.693	2907.99
1241.956	2909.5
1245.219	2944.69
1248.482	2941.21
1251.744	2935.07
1255.006	3093.58
1258.268	3051.7
1261.529	2990.66
1264.79	3002.57
1268.051	3111.39
1271.312	3132.83
1274.572	3090.14
1277.832	3080.09
1281.092	3076.74
1284.351	3039.57
1287.61	3015.82
1290.869	2921.11
1294.128	2888.85
1297.386	2999.91
1300.644	2982.72
1303.902	2996.87
1307.159	2849.04
1310.416	2906.4
1313.673	2926.06
1316.93	2906.3
1320.186	2959.82
1323.442	3007.83
1326.697	2993.67
1329.953	2993.65
1333.208	3007.94
1336.463	2996.48
1339.717	2920.89
1342.972	3072.12
1346.226	3051.82
1349.479	2978.7
1352.733	2943.15
1355.986	2974.22
1359.238	2946.7
1362.491	2945.44
1365.743	2953.32
1368.995	2950.64
1372.247	2960.22
1375.498	2990.22
1378.749	2986.59
1382	2945.86
1385.251	3008.67
1388.501	2972.87
1391.751	2947.81
1395	2921.62
1398.25	2958.07
1401.499	2957.98
1404.748	2870.77
1407.996	2867.08
1411.244	2847.41
1414.492	2828.65
1417.74	2799.52
1420.987	2813.17
1424.234	2869.32
1427.481	2857.45
1430.728	2918.23
1433.974	2890.63
1437.22	2910.28
1440.465	2918.31
1443.711	2865.95
1446.956	2906.5
1450.201	2903.33
1453.445	2951.88
1456.689	2922.32
1459.933	2939.55
1463.177	2966.81
1466.42	2936.18
1469.663	2917.71
1472.906	2899.37
1476.148	2998.5
1479.391	2935.81
1482.633	2912.8
1485.874	2919.06
1489.115	2895.14
1492.356	2912.72
1495.597	2880.92
1498.838	2891.62
1502.078	2853.2
1505.318	2792.55
1508.557	2840.75
1511.797	2796.37
1515.036	2898.32
1518.274	2887.48
1521.513	2864.35
1524.751	2892.59
1527.989	2900.4
1531.227	2914.04
1534.464	2896.16
1537.701	2929.47
1540.938	2953.14
1544.174	2906.73
1547.41	2907.68
1550.646	2948.48
1553.882	2978.52
1557.117	3034.67
1560.352	3050.04
1563.587	3004.37
1566.821	2959.98
1570.055	3004.06
1573.289	2971.24
1576.523	3055.42
1579.756	3060.78
1582.989	3079.29
1586.222	3039
1589.454	3080.75
1592.686	3048.07
1595.918	3074
1599.15	3058.81
1602.381	3146.51
1605.612	3090.47
1608.843	3190.92
1612.073	3097.41
1615.303	3080.14
1618.533	3066.53
1621.762	3072.57
1624.992	3067.59
1628.221	3043.6
1631.449	3029.49
1634.678	3099.74
1637.906	3051.3
1641.134	3098.71
1644.361	3047.5
1647.588	3033.87
1650.815	3048.08
1654.042	3033.3
1657.269	3064.38
1660.495	3007.07
1663.72	3007.45
1666.946	2972.46
1670.171	2899.65
1673.396	2874.44
1676.621	2867.94
1679.845	2901.3
1683.069	2929.82
1686.293	2977.78
1689.517	2943.77
1692.74	2861.99
1695.963	2891.3
1699.185	2932.02
1702.408	2904.69
1705.63	2952.64
1708.852	2962.01
1712.073	2932.02
1715.294	2904.86
1718.515	2971.72
1721.736	2914.95
1724.956	2912.14
1728.176	2939.79
1731.396	2963.73
1734.616	2952.81
1737.835	2974.32
1741.054	2959.34
1744.272	2954.03
1747.491	2977.12
1750.709	3044.22
1753.927	2930.07
1757.144	2986.27
1760.361	3019.85
1763.578	3023.39
1766.795	2956.91
1770.011	2970.3
1773.227	3021.99
1776.443	3051.34
1779.658	3094.32
1782.874	3041.23
1786.089	3012.35
1789.303	3015.04
1792.518	3021.86
1795.732	3010.3
1798.945	3014.3
1802.159	3075.03
1805.372	2958.66
1808.585	2935.78
1811.797	2939.98
1815.01	3001.68
1818.222	3000.19
1821.434	2942.8
1824.645	3017.58
1827.856	2986.1
1831.067	3023.17
1834.278	2993.39
1837.488	2970.42
1840.698	3132.53
1843.908	3046.96
1847.117	3010.13
1850.326	2872.11
1853.535	2990.97
1856.744	3048.52
1859.952	2948.07
1863.16	2952.89
1866.368	2977.76
1869.575	3071.83
1872.782	2961.76
1875.989	2901.32
1879.196	3005.11
1882.402	2994.65
1885.608	3039.78
1888.814	2927.11
1892.019	2813.4
1895.224	2867.28
1898.429	2854.5
1901.634	2830.82
1904.838	2812.88
1908.042	2857.16
1911.246	2864.04
1914.449	2777.74
1917.652	2784.82
1920.855	2766.46
1924.058	2825.61
1927.26	2861.1
1930.462	2891.27
1933.664	2911.37
1936.865	2847.81
1940.066	2846.92
1943.267	2798.29
1946.467	2816.51
1949.668	2847.71
1952.868	2912.29
1956.067	2885.64
1959.267	2813.65
1962.466	2842.77
1965.665	2826.92
1968.863	2827.38
1972.061	2844.84
1975.259	2848.53
1978.457	2928.7
1981.654	2885.22
1984.852	2884.4
1988.048	2806.05
1991.245	2816.67
1994.441	2901.68
1997.637	2897.73
2000.833	2881.55
2004.028	2920.36
2007.223	2975.61
2010.418	2945.78
2013.613	2909.21
2016.807	2868.65
2020.001	2883
2023.194	2936.56
2026.388	2908.05
2029.581	2854.94
2032.774	2898.21
2035.966	2898.05
2039.158	2822.89
2042.35	2850.36
2045.542	2780.27
2048.733	2891.88
2051.924	2933.84
2055.115	2966.88
2058.306	2899.58
2061.496	2962.84
2064.686	3033.32
2067.875	2950.81
2071.065	2974.94
2074.254	3004.91
2077.442	2953.79
2080.631	3048.68
2083.819	2920.6
2087.007	2894.63
2090.195	2858.61
2093.382	2903.2
2096.569	2880.41
2099.756	2828.43
2102.942	2843.06
2106.128	2840.97
2109.314	2836.33
2112.5	2791.12
2115.685	2767.76
2118.87	2778.77
2122.055	2846.67
2125.239	2805.9
2128.424	2773.64
2131.608	2896.64
2134.791	2883.1
2137.974	2948.84
2141.157	2933.02
2144.34	2873.33
2147.523	2903.32
2150.705	2913.87
2153.887	2896.52
2157.068	2834.02
2160.25	2847.78
2163.431	2894.05
2166.611	2828.91
2169.792	2836.95
2172.972	2724.33
2176.152	2817.57
2179.331	2856.36
2182.511	2825.88
2185.69	2855.56
2188.868	2849.5
2192.047	2915.58
2195.225	2890.93
2198.403	2839.64
2201.58	2834.88
2204.758	2838.03
2207.935	2923.14
2211.111	2796.95
2214.288	2779.5
2217.464	2819.47
2220.64	2802.67
2223.815	2859.96
2226.991	2773.58
2230.166	2796.82
2233.34	2819.91
2236.515	2853.03
2239.689	2926.5
2242.863	2868.2
2246.036	2928.71
2249.209	2936.87
2252.382	2980.13
2255.555	2958.67
2258.727	2888.03
2261.9	2931.5
2265.071	2924.36
2268.243	2927.76
2271.414	2849.78
2274.585	2802.37
2277.756	2872.78
2280.926	2830
2284.096	2876.59
2287.266	2772.35
2290.436	2829.53
2293.605	2862.52
2296.774	2891
2299.942	2919.96
2303.111	2936.56
2306.279	2983.86
2309.447	2970.59
2312.614	2949.13
2315.781	2963.33
2318.948	2931.92
2322.115	2969.26
2325.281	2874.8
2328.447	2901.69
2331.613	2879.32
2334.779	2842.02
2337.944	2852.12
2341.109	2845.37
2344.274	2824.13
2347.438	2788.55
2350.602	2816.13
2353.766	2833.77
2356.929	2819.63
2360.092	2862.6
2363.255	2803.49
2366.418	2720.03
2369.58	2854.17
2372.742	2601.26
2375.904	2625.66
2379.066	2597.13
2382.227	2639.12
2385.388	2602.66
2388.548	2517
2391.709	2579.54
2394.869	2548.99
2398.029	2673.42
2401.188	2694.49
2404.347	2615.79
2407.506	2783.96
2410.665	2812.02
2413.823	2826.23
2416.981	2771.43
2420.139	2813.81
2423.296	2864.87
2426.453	2837.35
2429.61	2868.99
2432.767	2782
2435.923	2818.71
2439.079	2763.13
2442.235	2820.56
2445.391	2736.84
2448.546	2758.92
2451.701	2816.9
2454.855	2769.27
2458.009	2836.72
2461.163	2847.93
2464.317	2797.05
2467.471	2834.47
2470.624	2883.35
2473.777	2867.43
2476.929	2878.76
2480.082	2908.23
2483.234	2867.36
2486.385	2812.59
2489.537	2805.93
2492.688	2754.82
2495.839	2771.2
2498.989	2780
2502.14	2760.64
2505.29	2736.64
2508.439	2767.95
2511.589	2681.34
2514.738	2699.17
2517.887	2733.67
2521.035	2812.63
2524.183	2806.28
2527.331	2780.73
2530.479	2745.47
2533.627	2759.9
