Data from N_2_HIR_WI_4N_Splice17_12-32-20-931.txt Node
Date: Sat Mar 14 12:32:20 EDT 2020
User: sa697716
Spectrometer: FLMS03696
Trigger mode: 0
Integration Time (sec): 3.180400E-1
Scans to average: 20
Electric dark correction enabled: true
Nonlinearity correction enabled: true
Boxcar width: 5
XAxis mode: Wavelengths
Number of Pixels in Spectrum: 2048
>>>>>Begin Spectral Data<<<<<
187.83	-309288.75
188.298	2428.71
188.766	1301.26
189.233	1095.07
189.701	1552.52
190.169	2286.62
190.636	823.36
191.104	769.43
191.571	148.08
192.039	-63.06
192.506	-147.69
192.974	224.82
193.441	-166.46
193.908	154.66
194.375	-46.54
194.842	6.82
195.31	134.14
195.777	131.26
196.244	365.83
196.711	464.85
197.177	594.72
197.644	836.89
198.111	1450.6
198.578	2092.97
199.045	1711.91
199.511	2832.19
199.978	3359.44
200.445	2863.25
200.911	3190.1
201.378	3590.95
201.844	3271.79
202.31	5599.08
202.777	5860.42
203.243	3244.91
203.709	3087.01
204.176	3662.35
204.642	3036.96
205.108	2817.15
205.574	2300.55
206.04	2102.84
206.506	1979.92
206.972	1866.47
207.438	1789.72
207.903	2026.77
208.369	1789.66
208.835	1778.86
209.301	1864.3
209.766	1911.1
210.232	1896.38
210.697	2363.25
211.163	2913.76
211.628	4412.8
212.094	3712.99
212.559	4605.9
213.024	2874.69
213.49	3488.6
213.955	3414.69
214.42	3362.6
214.885	3142.59
215.35	3039.19
215.815	2914.85
216.28	3098.82
216.745	2524.03
217.21	2736.3
217.675	2527.13
218.14	2859.25
218.604	3235.36
219.069	3736.07
219.534	3933.17
219.998	4606.44
220.463	5612.84
220.927	6970.34
221.392	6614.74
221.856	6765.11
222.32	8604.17
222.785	10689.28
223.249	13525.95
223.713	15120.73
224.177	15184.17
224.642	19589.9
225.106	24170.07
225.57	26496.48
226.034	19742.44
226.497	30163.14
226.961	27251.98
227.425	31735.91
227.889	35225.29
228.353	35320.26
228.816	73180.81
229.28	70044.08
229.744	59185.15
230.207	36026.66
230.671	35457.46
231.134	58826.73
231.597	67868.14
232.061	67955.35
232.524	66365.06
232.987	45779.62
233.45	41218.59
233.914	36979.47
234.377	37942.35
234.84	34726.63
235.303	40973.66
235.766	45810.17
236.229	47373.62
236.691	29856.91
237.154	33572.48
237.617	25259.78
238.08	25883.6
238.542	30316.3
239.005	21676.25
239.468	21513.64
239.93	20272.04
240.393	18439.87
240.855	16170.71
241.317	16547.91
241.78	20151.35
242.242	20834.99
242.704	22493.23
243.166	19574.93
243.629	17768.74
244.091	20488.37
244.553	22458.22
245.015	24144.57
245.477	31223.49
245.939	45784.14
246.4	48634.89
246.862	47252.35
247.324	44525.44
247.786	49829.86
248.247	65382.83
248.709	67531.7
249.17	50503.22
249.632	47572.84
250.093	55133.88
250.555	47615.23
251.016	29030.06
251.477	27509.59
251.939	29668.13
252.4	31108.81
252.861	37000.48
253.322	34395.25
253.783	40954.56
254.244	53090.57
254.705	41853.35
255.166	37229.24
255.627	36614.56
256.088	51607.76
256.549	54759.18
257.009	47115.4
257.47	57153.76
257.931	46527.08
258.391	34815.17
258.852	35877.54
259.312	37603.88
259.773	46401.13
260.233	39126.38
260.694	32973.64
261.154	37387.45
261.614	29973.09
262.074	26791.9
262.534	27806.11
262.994	26184.24
263.455	34895.42
263.915	29336.5
264.374	27622.36
264.834	30139.64
265.294	33384.93
265.754	34577.59
266.214	32706.7
266.673	30661.01
267.133	38686.48
267.593	38398.64
268.052	46943.94
268.512	40800.76
268.971	49187.49
269.431	53911.21
269.89	48252.93
270.349	72416.2
270.809	80774.02
271.268	72619.84
271.727	162822.86
272.186	105400.17
272.645	79049.73
273.104	57008.42
273.563	82507.47
274.022	64865.16
274.481	55157.44
274.94	42497.86
275.399	31566.24
275.857	36724.04
276.316	49665.44
276.775	44191.26
277.233	43524.81
277.692	40693.46
278.15	46073.14
278.609	47404.89
279.067	43879.1
279.525	40756.09
279.984	52623.13
280.442	63238.44
280.9	62312.24
281.358	40985.3
281.816	38193.18
282.274	37394.91
282.732	38639.32
283.19	38794.36
283.648	33463.83
284.106	35644.37
284.564	36236.22
285.021	33586.5
285.479	25016.76
285.937	22750.51
286.394	19945.86
286.852	20533.04
287.309	21554.55
287.767	20801.43
288.224	19764.28
288.682	21674.81
289.139	23779.88
289.596	21733.86
290.053	22575.35
290.511	28467.62
290.968	34498.85
291.425	46822.24
291.882	38904.97
292.339	33848.18
292.796	33610.3
293.252	31688.64
293.709	25148.32
294.166	22513.55
294.623	24874.4
295.079	23871.62
295.536	23970.92
295.992	21769.22
296.449	21526.09
296.905	22395.03
297.362	21497.92
297.818	22608.17
298.274	23444.97
298.731	23909.03
299.187	23687.25
299.643	25449.45
300.099	30775.95
300.555	33752.35
301.011	28204.17
301.467	27164.11
301.923	31790.9
302.379	31035.56
302.835	30468.55
303.291	30518.56
303.746	34772
304.202	43943.47
304.658	44150.69
305.113	29686.55
305.569	29115.9
306.024	31050.59
306.479	29601.23
306.935	24964.24
307.39	27238.24
307.845	25174.78
308.301	25320.67
308.756	24665.34
309.211	23751.06
309.666	24310.25
310.121	30198.33
310.576	30649.3
311.031	30407.92
311.486	34831.56
311.94	34803.5
312.395	46597.66
312.85	87551.07
313.305	430726.49
313.759	2229342.78
314.214	161631.9
314.668	128115.99
315.123	107689.5
315.577	38597.13
316.032	34321.73
316.486	42974.5
316.94	33866.4
317.394	23553.12
317.849	18297.54
318.303	17284.3
318.757	16290.97
319.211	18000.08
319.665	15755.83
320.119	15961.77
320.572	22915.02
321.026	21411.01
321.48	17835.77
321.934	19471.3
322.387	19539.64
322.841	21103.98
323.295	18994.28
323.748	21901.92
324.202	22230.76
324.655	26711.36
325.108	37296.03
325.562	26336.32
326.015	31346.92
326.468	23679.33
326.921	26458.84
327.374	24683.84
327.827	25729.77
328.28	29124.02
328.733	19520.65
329.186	17177.72
329.639	16375.79
330.092	13811.14
330.545	13172.08
330.997	13272.54
331.45	14517
331.903	17024.6
332.355	29329.29
332.808	28530.48
333.26	23550.79
333.713	25562.18
334.165	25747.09
334.617	34407.47
335.069	27819.8
335.522	50232.99
335.974	55624.66
336.426	50825.22
336.878	35262.75
337.33	17853.53
337.782	17421.81
338.234	21835.06
338.686	26149.14
339.137	30975.43
339.589	29145.71
340.041	22869.53
340.493	19695.45
340.944	20187.89
341.396	21746.14
341.847	18254.55
342.299	21555.87
342.75	26324.02
343.201	23001.56
343.653	26444.3
344.104	32560.49
344.555	25654.71
345.006	39988.32
345.457	30566.22
345.908	24303.96
346.359	22877.7
346.81	18634.4
347.261	19628.37
347.712	19307.06
348.163	20725.23
348.613	20985.96
349.064	19561.08
349.515	17121.74
349.965	17535.05
350.416	21148.78
350.866	23198.97
351.317	26215.16
351.767	43411.44
352.217	54840.72
352.668	45592.65
353.118	41769.4
353.568	40325.01
354.018	31935.57
354.468	33710.78
354.918	24187.18
355.368	21174.05
355.818	29973.65
356.268	86373.41
356.718	362032.17
357.168	90306.85
357.617	45312.44
358.067	50369.93
358.517	47166.18
358.966	55318.92
359.416	61993
359.865	67072.37
360.315	79804.68
360.764	37230.7
361.213	20866.86
361.663	19748.02
362.112	24360.51
362.561	39358.4
363.01	29687.6
363.459	25009.96
363.908	27058.09
364.357	23001.9
364.806	38875.15
365.255	26761.95
365.703	24546.18
366.152	24575.49
366.601	19960.71
367.05	16192.89
367.498	14711.2
367.947	15391.02
368.395	16008.89
368.844	14194.99
369.292	17146.9
369.74	11850.12
370.189	18149.98
370.637	21301.17
371.085	18413.8
371.533	22474.57
371.981	21721.15
372.429	20774.28
372.877	21677.78
373.325	18174.41
373.773	18530.28
374.221	16494.54
374.669	20493.68
375.116	17762.35
375.564	17906.93
376.012	20023.18
376.459	16530.66
376.907	19762.1
377.354	23945.7
377.801	22387.16
378.249	25790.15
378.696	32980.88
379.143	40029.13
379.591	42767.02
380.038	72585.44
380.485	52620.71
380.932	57007.25
381.379	52216.59
381.826	38498.06
382.273	27489.61
382.72	24106.45
383.166	23555.24
383.613	15356.05
384.06	13910.41
384.506	16140.63
384.953	11887.02
385.4	12013.11
385.846	10560.7
386.292	10327.96
386.739	10178.89
387.185	10091.83
387.631	10118.5
388.078	9846.19
388.524	10586.23
388.97	9810.02
389.416	8214.04
389.862	8760.49
390.308	8331.72
390.754	8489.43
391.2	9255.4
391.645	9490.02
392.091	9081.13
392.537	8807.42
392.983	8847.84
393.428	8702.86
393.874	9358.78
394.319	9413.73
394.765	8950.71
395.21	9231.2
395.655	8685.98
396.101	8162.13
396.546	7383.21
396.991	7479.08
397.436	6972.07
397.881	6760.78
398.326	6433.89
398.771	6094.65
399.216	5349.68
399.661	4831.03
400.106	4817.55
400.551	4940.54
400.995	4431.69
401.44	4400.28
401.885	4142.51
402.329	4191.71
402.774	4022.88
403.218	3895.53
403.663	3758.05
404.107	3871.02
404.551	3902.82
404.995	3582.06
405.44	3455.72
405.884	3517.19
406.328	3403.68
406.772	3396.37
407.216	3093.68
407.66	2997
408.104	2853.81
408.547	2676.03
408.991	2584.47
409.435	2492.58
409.879	2460.82
410.322	2425.98
410.766	2341.91
411.209	2228.6
411.653	2139.39
412.096	2097.85
412.54	2101.07
412.983	2084.1
413.426	2087.73
413.869	2091.95
414.312	2053.81
414.756	1981.08
415.199	1894.46
415.642	1839.31
416.085	1841.88
416.527	1830.46
416.97	1856.61
417.413	1761.16
417.856	1745.03
418.298	1729.63
418.741	1716.08
419.184	1709.71
419.626	1783.23
420.069	1784.11
420.511	1795.48
420.953	1755.44
421.396	1741.55
421.838	1700.9
422.28	1736.97
422.722	1743.7
423.164	1769.6
423.606	1741.32
424.048	1741.29
424.49	1654.52
424.932	1647.27
425.374	1625.35
425.816	1657.93
426.258	1689.4
426.699	1706.53
427.141	1681.81
427.582	1713.51
428.024	1706.15
428.465	1697.75
428.907	1654.72
429.348	1634.79
429.789	1632.31
430.231	1595.16
430.672	1613.42
431.113	1573.56
431.554	1551.11
431.995	1514.17
432.436	1454.8
432.877	1418.8
433.318	1391.45
433.759	1385.6
434.2	1384.24
434.64	1371.48
435.081	1378.91
435.522	1307.07
435.962	1260.28
436.403	1233.48
436.843	1250.18
437.284	1225.97
437.724	1194.2
438.164	1198.27
438.604	1171.18
439.045	1126.75
439.485	1079.73
439.925	1054.58
440.365	1029.74
440.805	1017.07
441.245	1004.94
441.685	969.13
442.125	963.23
442.564	971.56
443.004	951.43
443.444	952.2
443.883	954.64
444.323	949.94
444.762	955.74
445.202	971.24
445.641	990.78
446.081	986.52
446.52	996.71
446.959	987.72
447.398	964.78
447.837	955.39
448.276	939.38
448.716	951.12
449.154	962.76
449.593	941.32
450.032	939.58
450.471	923.47
450.91	925.96
451.349	924.98
451.787	923.12
452.226	939.42
452.664	941.68
453.103	943.85
453.541	944.43
453.98	940.72
454.418	949.62
454.856	934.68
455.295	934.11
455.733	942.9
456.171	948.7
456.609	951.88
457.047	951.42
457.485	965.26
457.923	967.58
458.361	954.66
458.798	959.75
459.236	956.46
459.674	963.12
460.111	967.31
460.549	956.98
460.987	954.25
461.424	949.63
461.862	945.35
462.299	929.67
462.736	927.98
463.173	931.6
463.611	919.8
464.048	917.11
464.485	925.66
464.922	917.81
465.359	913.26
465.796	897.91
466.233	891.82
466.67	881.85
467.106	878.91
467.543	871.02
467.98	858.65
468.416	837.33
468.853	831.7
469.29	806.99
469.726	797.83
470.162	777.58
470.599	769.04
471.035	761.1
471.471	743.51
471.907	740.35
472.344	735.23
472.78	737.14
473.216	746.97
473.652	737.67
474.088	735.9
474.523	733.87
474.959	739.92
475.395	733.92
475.831	730.37
476.266	735
476.702	733.66
477.138	726.23
477.573	724.19
478.008	721.66
478.444	725.38
478.879	731.65
479.314	735.27
479.75	735.2
480.185	739.63
480.62	746.18
481.055	749.92
481.49	755.43
481.925	767.49
482.36	780.95
482.795	802.86
483.229	825.3
483.664	843.32
484.099	847.41
484.534	861.73
484.968	870.43
485.403	873.61
485.837	873.66
486.271	872.95
486.706	874.59
487.14	865.95
487.574	852.56
488.009	845.26
488.443	839.04
488.877	847.47
489.311	850.32
489.745	860.78
490.179	869.19
490.613	884.99
491.046	892.05
491.48	898.36
491.914	899.61
492.348	907.02
492.781	912.99
493.215	915.47
493.648	917.59
494.082	925.1
494.515	926.42
494.948	936.87
495.382	943.66
495.815	950.22
496.248	958.69
496.681	976.29
497.114	992.22
497.547	1006.67
497.98	1023.8
498.413	1032.81
498.846	1046.64
499.279	1058.42
499.711	1064.8
500.144	1069.29
500.577	1084.58
501.009	1100.05
501.442	1113.34
501.874	1115.66
502.306	1117.72
502.739	1127.33
503.171	1147.63
503.603	1152.17
504.036	1165.26
504.468	1174.11
504.9	1190.04
505.332	1198.97
505.764	1204.5
506.196	1214.38
506.627	1233.36
507.059	1250.53
507.491	1262.36
507.923	1259.59
508.354	1279.09
508.786	1292.44
509.217	1314.26
509.649	1332.11
510.08	1355.4
510.512	1375.96
510.943	1393.54
511.374	1407.6
511.805	1434.13
512.237	1457.97
512.668	1498.5
513.099	1531.48
513.53	1564.09
513.961	1588.56
514.391	1627.26
514.822	1666.69
515.253	1708.88
515.684	1738.08
516.114	1771.56
516.545	1793.06
516.975	1822.85
517.406	1841.02
517.836	1841.26
518.267	1846.29
518.697	1866.39
519.127	1868.91
519.558	1875.52
519.988	1877.23
520.418	1888.2
520.848	1907.78
521.278	1917.04
521.708	1927.39
522.138	1940.62
522.567	1976.76
522.997	2005.95
523.427	2021.43
523.857	2039.38
524.286	2050.63
524.716	2066.91
525.145	2088.1
525.575	2097.87
526.004	2113.12
526.433	2110.89
526.863	2109.4
527.292	2093.79
527.721	2098.26
528.15	2104.68
528.579	2104.03
529.008	2114.41
529.437	2141.17
529.866	2156.7
530.295	2177.72
530.724	2191.86
531.152	2224.17
531.581	2239.29
532.01	2260.57
532.438	2270.32
532.867	2286.86
533.295	2308.06
533.723	2315.59
534.152	2312.26
534.58	2310.37
535.008	2291.02
535.436	2291.99
535.865	2300.29
536.293	2318.98
536.721	2338.25
537.149	2369.43
537.576	2371.58
538.004	2387.3
538.432	2396.28
538.86	2393.73
539.287	2401.44
539.715	2417.9
540.143	2421.67
540.57	2416.2
540.998	2409.69
541.425	2380.39
541.852	2352.65
542.28	2351.09
542.707	2329.01
543.134	2310.91
543.561	2305.54
543.988	2296.17
544.415	2293.74
544.842	2286.65
545.269	2278.34
545.696	2281.18
546.123	2295.23
546.549	2282.19
546.976	2264.75
547.403	2264.73
547.829	2266.41
548.256	2268.54
548.682	2263.79
549.108	2253.79
549.535	2252.89
549.961	2253.17
550.387	2235.5
550.813	2229.2
551.24	2235.99
551.666	2237.64
552.092	2225.52
552.518	2217.3
552.943	2208.52
553.369	2218.05
553.795	2224.68
554.221	2223.84
554.646	2220.49
555.072	2234.52
555.498	2242.15
555.923	2254.85
556.349	2273.14
556.774	2284.2
557.199	2286.71
557.625	2295.28
558.05	2287.42
558.475	2302.01
558.9	2302.48
559.325	2293.68
559.75	2286.76
560.175	2278.12
560.6	2271.52
561.025	2269.65
561.449	2270.9
561.874	2278.61
562.299	2284.41
562.723	2294.96
563.148	2282.7
563.572	2289.18
563.997	2301.63
564.421	2309.59
564.846	2310.83
565.27	2316.61
565.694	2315
566.118	2331.05
566.542	2342.32
566.966	2336.76
567.39	2332.17
567.814	2320.66
568.238	2321.72
568.662	2331.73
569.086	2337.43
569.509	2349.82
569.933	2331.24
570.357	2325.45
570.78	2300.72
571.204	2285.08
571.627	2273.14
572.05	2272.98
572.474	2274.07
572.897	2259.05
573.32	2249.58
573.743	2237.84
574.166	2215.68
574.589	2217.83
575.012	2207.81
575.435	2208.62
575.858	2198.18
576.281	2185.36
576.704	2166.09
577.126	2152.45
577.549	2141.22
577.972	2129.68
578.394	2116.98
578.817	2108.38
579.239	2085.53
579.661	2070.47
580.084	2050.94
580.506	2035.41
580.928	2031.65
581.35	2019.78
581.772	2014.3
582.194	1997.87
582.616	1983.84
583.038	1967.86
583.46	1955.56
583.882	1952.19
584.303	1957.42
584.725	1953.9
585.147	1955.93
585.568	1969.87
585.99	1984.91
586.411	1994.89
586.833	2014.11
587.254	2016.58
587.675	2034.65
588.096	2052.73
588.518	2047.72
588.939	2027.42
589.36	2024.29
589.781	2012.58
590.202	1976.39
590.623	1966.25
591.043	1963.98
591.464	1949.05
591.885	1944.5
592.305	1937.73
592.726	1919.38
593.147	1921.48
593.567	1914.93
593.987	1905.54
594.408	1900.41
594.828	1898.17
595.248	1891.91
595.669	1868.16
596.089	1859.48
596.509	1852.04
596.929	1834.38
597.349	1834.81
597.769	1821.58
598.189	1813.68
598.608	1816.62
599.028	1820.03
599.448	1821.44
599.867	1805.64
600.287	1800.24
600.706	1793.93
601.126	1781.2
601.545	1780.25
601.965	1780.46
602.384	1773.71
602.803	1777.72
603.222	1772.27
603.641	1763.13
604.061	1757.9
604.48	1752.55
604.898	1763.33
605.317	1771.25
605.736	1774.92
606.155	1771.76
606.574	1760.83
606.992	1767.74
607.411	1762.64
607.829	1752.09
608.248	1748.57
608.666	1746.22
609.085	1745.74
609.503	1735.78
609.921	1727.45
610.339	1729.53
610.758	1729.69
611.176	1723.46
611.594	1713.51
612.012	1709.72
612.43	1714.53
612.847	1724.06
613.265	1725.68
613.683	1731.93
614.101	1733.38
614.518	1729.61
614.936	1718.42
615.353	1699.46
615.771	1695.75
616.188	1696.41
616.606	1692.68
617.023	1682.57
617.44	1663.13
617.857	1655.76
618.274	1645.03
618.691	1637.75
619.108	1625.4
619.525	1617.49
619.942	1626.72
620.359	1630.29
620.776	1623.04
621.192	1617.76
621.609	1616.27
622.026	1625.76
622.442	1632.64
622.859	1638.23
623.275	1629.33
623.691	1637.01
624.108	1652.32
624.524	1670.2
624.94	1671.64
625.356	1684.57
625.772	1701.41
626.188	1716.87
626.604	1720.44
627.02	1716.11
627.436	1712.07
627.852	1721.13
628.268	1736.63
628.683	1725.25
629.099	1715.37
629.514	1708.72
629.93	1713.69
630.345	1720.43
630.761	1715.94
631.176	1719.76
631.591	1710.89
632.007	1703.28
632.422	1701.5
632.837	1687.68
633.252	1683.2
633.667	1669.77
634.082	1658.49
634.497	1642.76
634.911	1617.76
635.326	1614.04
635.741	1591.74
636.155	1580.48
636.57	1584.45
636.984	1584.89
637.399	1587.71
637.813	1589.56
638.228	1590.53
638.642	1597.88
639.056	1586.58
639.47	1588.44
639.884	1578.69
640.298	1571.83
640.712	1571.92
641.126	1556.24
641.54	1546
641.954	1541.84
642.368	1527.75
642.781	1517.51
643.195	1494.51
643.609	1496.01
644.022	1488.17
644.436	1483.87
644.849	1470.33
645.262	1456.4
645.676	1459.18
646.089	1454.59
646.502	1435.37
646.915	1427.85
647.328	1406.32
647.741	1404.55
648.154	1388.24
648.567	1384.92
648.98	1366.88
649.393	1366.54
649.805	1360.53
650.218	1350.52
650.631	1328.46
651.043	1318.64
651.456	1310.68
651.868	1311.6
652.28	1333.74
652.693	1350.89
653.105	1359.1
653.517	1370.26
653.929	1370.92
654.341	1376.77
654.753	1359.03
655.165	1366.23
655.577	1362.24
655.989	1355.71
656.401	1344.09
656.813	1295.27
657.224	1268.33
657.636	1230.14
658.047	1206.6
658.459	1180.03
658.87	1168.22
659.282	1153.61
659.693	1126.2
660.104	1106.51
660.515	1088.38
660.926	1086.41
661.338	1083.37
661.749	1073.53
662.159	1059.89
662.57	1053.25
662.981	1045.98
663.392	1034.99
663.803	1038.13
664.213	1033.7
664.624	1027.15
665.035	1029.21
665.445	1009.16
665.855	998.18
666.266	986.63
666.676	982.81
667.086	970.53
667.497	968.2
667.907	959.41
668.317	946.18
668.727	940.06
669.137	940.07
669.547	935.9
669.956	937.84
670.366	937.81
670.776	938.76
671.186	943.48
671.595	947.12
672.005	950.42
672.414	949.15
672.824	946.11
673.233	950.91
673.642	952.51
674.052	956
674.461	958.69
674.87	964.7
675.279	960.33
675.688	961.49
676.097	961.34
676.506	957.42
676.915	973.67
677.323	977.65
677.732	975.29
678.141	975.14
678.549	961.82
678.958	959.65
679.366	958.6
679.775	964.62
680.183	976.95
680.592	985.74
681	992.74
681.408	986.18
681.816	997.26
682.224	1009.29
682.632	1022.17
683.04	1060.09
683.448	1092.26
683.856	1131.46
684.264	1177.35
684.671	1219.94
685.079	1269.45
685.487	1326.64
685.894	1403.73
686.302	1466.68
686.709	1518.35
687.116	1577.16
687.524	1624.81
687.931	1665.14
688.338	1697.57
688.745	1725.3
689.152	1755.74
689.559	1802.36
689.966	1846.38
690.373	1863.96
690.78	1904.08
691.187	1972.98
691.593	2021.41
692	2063.08
692.407	2128.37
692.813	2210.18
693.22	2273.36
693.626	2339.52
694.032	2386.64
694.439	2465.92
694.845	2524.98
695.251	2604.35
695.657	2670.75
696.063	2781.18
696.469	2859.78
696.875	2929.48
697.281	2967.32
697.687	3011.01
698.093	3046.49
698.498	3127.71
698.904	3188.13
699.31	3283.88
699.715	3348.21
700.12	3448.88
700.526	3461
700.931	3534.37
701.337	3588.55
701.742	3617.98
702.147	3709.02
702.552	3736.72
702.957	3800.78
703.362	3818.8
703.767	3848.09
704.172	3888.36
704.577	3829.55
704.981	3879.3
705.386	3892.48
705.791	3881.54
706.195	3966.21
706.6	3975.28
707.004	4065.91
707.408	4026.53
707.813	4053.28
708.217	4038.13
708.621	4040.36
709.025	4147.48
709.43	4146.25
709.834	4212.69
710.237	4288.49
710.641	4267.18
711.045	4292.1
711.449	4284.23
711.853	4316.56
712.256	4360.56
712.66	4399.78
713.064	4485.19
713.467	4530.43
713.87	4656.95
714.274	4707.33
714.677	4831.11
715.08	5014.56
715.484	5202.54
715.887	5431.77
716.29	5655.71
716.693	5892.26
717.096	6163.15
717.499	6305.09
717.901	6333.8
718.304	6363.13
718.707	6390.8
719.109	6272.39
719.512	6235.76
719.915	6082.11
720.317	6014.92
720.719	6062.34
721.122	6027.1
721.524	5968.92
721.926	5919.37
722.328	6031.11
722.731	6019.13
723.133	6048.04
723.535	6266.49
723.937	6284.03
724.338	6339.47
724.74	6382.08
725.142	6301.51
725.544	6298.51
725.945	6324.69
726.347	6322.77
726.748	6315.02
727.15	6330.89
727.551	6288.33
727.952	6252.14
728.354	6218.74
728.755	6218.12
729.156	6174.44
729.557	6165.52
729.958	6028.59
730.359	5966.64
730.76	5941.3
731.161	5871.92
731.562	5839.98
731.962	5840.75
732.363	5767.91
732.763	5695.52
733.164	5733.47
733.564	5654.39
733.965	5547.58
734.365	5506.54
734.766	5535.41
735.166	5491.03
735.566	5429.78
735.966	5400.01
736.366	5394.21
736.766	5327.08
737.166	5363.73
737.566	5317.58
737.966	5288.32
738.365	5329.99
738.765	5324.49
739.165	5241.11
739.564	5213.62
739.964	5264.01
740.363	5211.29
740.763	5208.9
741.162	5195.09
741.561	5157.92
741.96	5106.21
742.36	5128.31
742.759	5136.67
743.158	5181.08
743.557	5198.53
743.955	5242.43
744.354	5189.58
744.753	5253.04
745.152	5206.87
745.55	5266.67
745.949	5260.97
746.348	5264.32
746.746	5285.04
747.144	5239.01
747.543	5211.71
747.941	5265.34
748.339	5187.98
748.737	5177.51
749.136	5167.55
749.534	5238.56
749.932	5207.63
750.33	5234.36
750.727	5294.62
751.125	5264.72
751.523	5248.29
751.921	5295.5
752.318	5256.85
752.716	5322.28
753.113	5340.37
753.511	5369.23
753.908	5367.61
754.305	5348.2
754.703	5414.23
755.1	5482.07
755.497	5550.26
755.894	5760.92
756.291	5962.36
756.688	6327.77
757.085	6812.67
757.482	7497.07
757.878	8246.07
758.275	8929.6
758.672	9860.31
759.068	10624.41
759.465	11705.04
759.861	13099.67
760.258	14719
760.654	15550.63
761.05	15431.28
761.447	14727.51
761.843	13707.35
762.239	12654.09
762.635	12175.78
763.031	11722.33
763.427	11059.34
763.822	10371.76
764.218	9692.84
764.614	8809.57
765.01	8216.47
765.405	7829.79
765.801	7537.46
766.196	7168.16
766.592	6963.05
766.987	6613
767.382	6376.99
767.778	6277.77
768.173	6132.43
768.568	6050.71
768.963	5912.92
769.358	5931.05
769.753	5880.55
770.148	5788.08
770.542	5786.98
770.937	5753.34
771.332	5854.93
771.726	5879.47
772.121	5812.46
772.515	5873.14
772.91	5859.47
773.304	5936.19
773.699	5865.82
774.093	5924.57
774.487	5987.88
774.881	6035.23
775.275	6028.33
775.669	5984.44
776.063	6034.01
776.457	6070.53
776.851	5987.54
777.245	5977.1
777.638	6014.14
778.032	6144.15
778.425	6108.12
778.819	6154.9
779.212	6110.25
779.606	6068.51
779.999	6089.91
780.392	6069.14
780.786	6162.71
781.179	6188.57
781.572	6238.07
781.965	6253.3
782.358	6188.65
782.751	6250.46
783.143	6198.72
783.536	6281.2
783.929	6328.08
784.322	6452.51
784.714	6488.4
785.107	6483.47
785.499	6561.37
785.891	6535.6
786.284	6514.44
786.676	6671.05
787.068	6648.19
787.46	6706.06
787.852	6726.05
788.245	6822.16
788.636	6855.76
789.028	6928.19
789.42	6973.07
789.812	6984.35
790.204	7092.14
790.595	7204.67
790.987	6986.36
791.378	7014.97
791.77	7156.59
792.161	7308.22
792.553	7368.51
792.944	7245.55
793.335	7170.28
793.726	7252.3
794.117	7351.24
794.508	7501.24
794.899	7463.01
795.29	7618.56
795.681	7681.73
796.072	7524.52
796.463	7318.09
796.853	7327.46
797.244	7503.01
797.634	7536.91
798.025	7532.77
798.415	7546.72
798.806	7646.41
799.196	7742.79
799.586	7802.76
799.976	7758.48
800.366	8016.34
800.756	8281.85
801.146	8240.22
801.536	8272.64
801.926	8360.48
802.316	8390.44
802.706	8470.84
803.095	8334.1
803.485	8449.5
803.874	8493.41
804.264	8787.75
804.653	8757.58
805.043	8919.56
805.432	9035.69
805.821	9043.79
806.21	9067.6
806.599	9194.86
806.988	9247.42
807.377	9372.16
807.766	9517.04
808.155	9832.85
808.544	9540.19
808.933	9557.91
809.321	9540.78
809.71	9874.69
810.098	10037.72
810.487	10552.64
810.875	11094.96
811.264	11120.06
811.652	11439.28
812.04	11602.04
812.428	11781.22
812.816	12628.93
813.204	13095.31
813.592	13706.62
813.98	14086.9
814.368	13993.38
814.756	14526.91
815.144	14435.72
815.531	14954.98
815.919	14873.45
816.306	15215.57
816.694	14879.82
817.081	14938.47
817.469	15318.53
817.856	15316.5
818.243	15618.08
818.63	16058.93
819.017	15593.46
819.404	15673.28
819.791	16093.19
820.178	16779.05
820.565	17056.75
820.952	18098.51
821.339	17549.53
821.725	17759.45
822.112	16932.06
822.498	16886.58
822.885	17026.27
823.271	16913.7
823.657	17373.71
824.044	17386.97
824.43	17466.13
824.816	17429.52
825.202	16944.73
825.588	18078.11
825.974	18093.74
826.36	18664.48
826.746	18692
827.132	19088.01
827.517	19060.54
827.903	18203.44
828.289	18245.58
828.674	17373.58
829.06	17259.31
829.445	17701.9
829.83	18100.87
830.216	18637.58
830.601	19044.86
830.986	18597.78
831.371	18449.39
831.756	19071.89
832.141	18577.82
832.526	18568.19
832.911	18891.13
833.295	18759.9
833.68	19273.27
834.065	18574.94
834.449	17559.86
834.834	17487.04
835.218	17479.15
835.603	17857.94
835.987	17621.8
836.371	18544.49
836.755	18424.64
837.139	18863.27
837.524	19132.19
837.908	18925.48
838.291	18989.15
838.675	19058.88
839.059	19279.73
839.443	19272.81
839.827	19009.28
840.21	19544.94
840.594	19388.02
840.977	19620.71
841.361	19598.55
841.744	20020.57
842.127	19849.19
842.511	20129.92
842.894	20791.83
843.277	21212.89
843.66	21815.62
844.043	21910.17
844.426	21013.98
844.809	20663.72
845.191	20698.39
845.574	20191.87
845.957	19780.4
846.339	19667.3
846.722	19085.82
847.104	19161.21
847.487	18977.12
847.869	18989.83
848.252	19294.89
848.634	19661.38
849.016	19966.86
849.398	20111.52
849.78	21054.14
850.162	21065.02
850.544	21525.27
850.926	22226.52
851.307	22130.21
851.689	22439.44
852.071	22942.11
852.452	23320.48
852.834	23299.86
853.215	23716.52
853.597	23884.28
853.978	24213.07
854.359	24715
854.741	23610.97
855.122	23497.56
855.503	23174.89
855.884	23324.91
856.265	23239.75
856.646	23354.88
857.026	22921.39
857.407	22870.85
857.788	23049.25
858.169	23370.87
858.549	22424.31
858.93	23123.25
859.31	23173.34
859.69	23406.93
860.071	22954.68
860.451	22731.24
860.831	21922.51
861.211	23204.98
861.591	23811.59
861.971	23780.71
862.351	23993.91
862.731	24431.24
863.111	24720.38
863.491	25091.22
863.87	26067.52
864.25	26458.99
864.629	25999.74
865.009	26570.08
865.388	27524.15
865.768	29479.77
866.147	29367.66
866.526	27742.66
866.905	28071.58
867.284	29638.4
867.663	28141.65
868.042	26972.36
868.421	26875.29
868.8	27344.1
869.179	27606.01
869.558	25982.16
869.936	23950.63
870.315	24370.79
870.693	24958.5
871.072	26905.26
871.45	25628.5
871.828	25964.39
872.207	27301.74
872.585	26900.4
872.963	27622.15
873.341	26660.85
873.719	26351.6
874.097	26040.45
874.475	26548.35
874.853	27159.11
875.23	26031.08
875.608	27124.69
875.986	29333.96
876.363	28046.07
876.741	28893.4
877.118	28162.47
877.495	29550.05
877.873	30036
878.25	31596.42
878.627	30297.85
879.004	30713.48
879.381	30572.76
879.758	29764.14
880.135	27701.52
880.512	29287.39
880.889	28520.27
881.265	28234.23
881.642	27994.21
882.019	28466.31
882.395	27893.25
882.772	28997.43
883.148	27735.06
883.524	27613.6
883.901	27455.95
884.277	27867.78
884.653	27694.35
885.029	28482.03
885.405	31530.24
885.781	31269.43
886.157	29988.15
886.532	30353.27
886.908	30342.96
887.284	33756.64
887.659	34863.56
888.035	35944.92
888.411	36868.9
888.786	37356.48
889.161	38658.39
889.537	37957.64
889.912	39184.99
890.287	39148.12
890.662	40153.21
891.037	39423.73
891.412	36753.73
891.787	36379.34
892.162	35114.66
892.536	35945.72
892.911	34599.14
893.286	33857.38
893.66	32477.97
894.035	33323.31
894.409	36301.42
894.784	34831.02
895.158	35409.83
895.532	37508.99
895.906	38541.82
896.281	39456.3
896.655	38825.33
897.029	44369.99
897.402	46206.56
897.776	51449.63
898.15	51238.85
898.524	50687.28
898.898	51384.75
899.271	57494.66
899.645	49809.81
900.018	47857.56
900.392	49630.95
900.765	50018.09
901.138	46286.15
901.511	45605.87
901.884	41867.83
902.258	38653.04
902.631	39934.62
903.003	45972.13
903.376	41506.42
903.749	46528.35
904.122	49783.2
904.495	54805.56
904.867	55498.65
905.24	48153.04
905.612	44811.41
905.985	45835.85
906.357	47892.67
906.729	45697.15
907.102	39011.55
907.474	37503.44
907.846	37737.81
908.218	37250.34
908.59	32937.45
908.962	31860.9
909.334	34325.97
909.705	36073.52
910.077	35016.87
910.449	36451.72
910.82	37467.56
911.192	41202.88
911.563	42815.31
911.935	45814
912.306	45845.38
912.677	47302.25
913.048	46818.09
913.419	50759.78
913.79	51022.65
914.161	54710.96
914.532	52286.49
914.903	48028.15
915.274	45648.77
915.645	44978.76
916.015	39588.81
916.386	37751.2
916.756	40150.64
917.127	41421.34
917.497	36999.52
917.868	40255.7
918.238	38258.11
918.608	39344.7
918.978	40163.64
919.348	42527.3
919.718	43924.49
920.088	42301.03
920.458	43950.18
920.828	46256.69
921.198	43824.44
921.567	46831.62
921.937	36268.65
922.306	36591.67
922.676	39460.83
923.045	32909.78
923.415	31247.33
923.784	28454.89
924.153	29249.61
924.522	29214.09
924.891	27477.5
925.26	29445.93
925.629	28752.04
925.998	33055.46
926.367	32268.47
926.736	30716.74
927.104	36603.41
927.473	39336.55
927.842	47503.72
928.21	47073.88
928.578	49482.8
928.947	46769.46
929.315	47042.07
929.683	55163.9
930.051	55584.53
930.42	64542.13
930.788	55197.07
931.156	54736.95
931.523	51338.47
931.891	47436.37
932.259	45560.3
932.627	52803.61
932.994	74678.7
933.362	61697.12
933.729	53595.85
934.097	51309.79
934.464	43401.06
934.831	50075.52
935.199	49398.72
935.566	47910.83
935.933	48597.95
936.3	58826.47
936.667	45800.58
937.034	41323.43
937.401	40908.25
937.767	35286.3
938.134	31403.98
938.501	44325.71
938.867	47260.36
939.234	79936.26
939.6	68201.87
939.967	75079.51
940.333	50305.75
940.699	42798.95
941.065	34380.39
941.431	45041.43
941.798	43440.71
942.163	57060.41
942.529	35647.61
942.895	32823.69
943.261	21206.66
943.627	27819
943.992	24348.28
944.358	24357.61
944.723	24481.19
945.089	23836.49
945.454	22030.7
945.82	23536.03
946.185	22616.21
946.55	26223.08
946.915	23501.19
947.28	27600.37
947.645	24295.12
948.01	22446.03
948.375	23439.9
948.74	28078.54
949.104	32760.19
949.469	47296.78
949.834	83490.7
950.198	79150.81
950.562	47385.64
950.927	39458.64
951.291	47467.71
951.655	40435.25
952.02	37981.03
952.384	28696.58
952.748	25007.1
953.112	24383.64
953.476	21221.56
953.839	19632.12
954.203	19441.66
954.567	24317.21
954.931	38318.49
955.294	32777.76
955.658	32965.69
956.021	56005.04
956.385	94867.74
956.748	139908.47
957.111	216898.41
957.474	243380.97
957.837	273936.68
958.2	207362.69
958.563	74571.33
958.926	50432.12
959.289	76539.88
959.652	85458.12
960.015	64124.72
960.377	92021.77
960.74	104994.15
961.102	181381.16
961.465	194680.35
961.827	104288.22
962.189	199901.58
962.552	138592.52
962.914	111088.18
963.276	72058.79
963.638	59599.12
964	59033.16
964.362	39925.35
964.724	38567.11
965.085	27503.25
965.447	22562.92
965.809	25718.78
966.17	25763.64
966.532	27894.25
966.893	25585.97
967.255	23284.85
967.616	27471.65
967.977	21988.12
968.338	23994.78
968.699	19725.62
969.061	19729.97
969.421	19853.99
969.782	22283.42
970.143	18799.26
970.504	19434.34
970.865	22088.24
971.225	22560
971.586	22069.73
971.946	31464.33
972.307	27334.71
972.667	35699.55
973.027	36730.75
973.388	44541.98
973.748	30281.33
974.108	32972.62
974.468	44668.37
974.828	34456.77
975.188	26521.36
975.548	24336.12
975.907	20429.96
976.267	22894.54
976.627	19235.64
976.986	19944.57
977.346	19002.59
977.705	18255.73
978.064	16634.51
978.424	13850.3
978.783	14302.49
979.142	16321.49
979.501	15646.67
979.86	16520.84
980.219	15921.39
980.578	20547.11
980.937	23004.14
981.296	20502.5
981.654	21100.52
982.013	32853.91
982.371	42616.05
982.73	39799.58
983.088	45039.21
983.447	48047.81
983.805	68735.3
984.163	143678.81
984.521	159377
984.879	233712.12
985.237	-380102.54
985.595	366496.13
985.953	90995.12
986.311	52536.82
986.669	30501.58
987.026	26339.33
987.384	35420.31
987.741	36632.58
988.099	26163.95
988.456	20872.08
988.814	19511.58
989.171	16960.64
989.528	16735.15
989.885	17658.65
990.242	13969.8
990.599	17403.89
990.956	14223.37
991.313	9941.43
991.67	8137.49
992.027	8620.98
992.383	7662.96
992.74	6724.69
993.096	7040.4
993.453	7296.58
993.809	7576.5
994.165	10091.8
994.522	9238.1
994.878	10187.62
995.234	12776.43
995.59	12624.42
995.946	11952.35
996.302	13636.09
996.658	15780.16
997.013	17388.75
997.369	20635.99
997.725	26414.85
998.08	17110.85
998.436	26450.18
998.791	36527.65
999.147	36503.11
999.502	39830.55
999.857	29026.92
1000.212	47223.34
1000.567	67103.43
1000.922	38790.35
1001.277	24679.71
1001.632	18280.68
1001.987	23579.59
1002.342	16888.42
1002.696	13514.56
1003.051	10788.94
1003.406	13083.78
1003.76	12998.19
1004.114	12831.59
1004.469	10814.92
1004.823	8946.86
1005.177	9662.83
1005.531	7663.86
1005.885	6801.67
1006.239	7675.75
1006.593	9611.84
1006.947	12859.63
1007.301	9635.45
1007.655	10496.58
1008.008	7710.08
1008.362	8654.54
1008.715	12375.79
1009.069	11237.68
1009.422	16948.18
1009.776	33980.09
1010.129	22500.55
1010.482	18786.84
1010.835	15847.58
1011.188	33011.11
1011.541	31096.27
1011.894	-189821.78
1012.247	558488.37
1012.6	37938.93
1012.952	23847.79
1013.305	12255.91
1013.657	8817.23
1014.01	8373.71
1014.362	6909.77
1014.715	6156.63
1015.067	5363.85
1015.419	5244.77
1015.771	4657.47
1016.123	4145.28
1016.475	4265.9
1016.827	4547.25
1017.179	4890.32
1017.531	4945.02
1017.883	5064.22
1018.234	4893.49
1018.586	6174.96
1018.938	6533.62
1019.289	9026.05
1019.64	10321.48
1019.992	9609.33
1020.343	8798.73
1020.694	6982.47
1021.045	6182.62
1021.396	7031.89
1021.747	7541.56
1022.098	9058.87
1022.449	6553.8
1022.8	6088.74
1023.151	4256.13
1023.501	3778.61
1023.852	4116.45
1024.202	4252.67
1024.553	4664.42
1024.903	4555.3
1025.253	3909.38
1025.604	3510.28
1025.954	4364.76
1026.304	5349.82
1026.654	6210.59
1027.004	9050.51
1027.354	14618.05
1027.703	13745.26
1028.053	18095.48
1028.403	26332.75
1028.753	37961.37
1029.102	51548.99
1029.452	265123.35
1029.801	11398.75
1030.15	7344.62
1030.499	6252.95
897.758	2745.9
901.051	2706.58
904.343	2742.98
907.636	2742.74
910.928	2808.44
914.22	2713.87
917.511	2722.18
920.803	2789.81
924.094	2811.22
927.384	2789.95
930.675	2752.46
933.965	2703.58
937.255	2712.15
940.544	2678.97
943.834	2608.56
947.123	2554.16
950.411	2652.29
953.7	2623.55
956.988	2588.88
960.276	2530.4
963.563	2617.04
966.851	2610.69
970.138	2672.4
973.424	2661.79
976.711	2612.59
979.997	2758.11
983.283	2788.71
986.568	2691.73
989.853	2713.23
993.138	2737.91
996.423	2820.19
999.708	2754.85
1002.992	2828.21
1006.275	2649.49
1009.559	2701.68
1012.842	2815.7
1016.125	2749.16
1019.408	2728.99
1022.69	2820.94
1025.972	2837.46
1029.254	2813.05
1032.536	2740.41
1035.817	2770.38
1039.098	2703.94
1042.379	2866.36
1045.659	2860.78
1048.939	2792.16
1052.219	2813.37
1055.498	2830
1058.778	2811.49
1062.057	2797.66
1065.335	2818.29
1068.614	2838.33
1071.892	2819.09
1075.17	2897.9
1078.447	2887.31
1081.724	2875.53
1085.001	2913.94
1088.278	2886.84
1091.554	2900.82
1094.83	2898.8
1098.106	2924.22
1101.382	2972.7
1104.657	2974.59
1107.932	2965.42
1111.206	2932.08
1114.481	2884.83
1117.755	2891.31
1121.029	2871.66
1124.302	2923.56
1127.575	2870.28
1130.848	2856.59
1134.121	2815.45
1137.393	2761.91
1140.665	2829.83
1143.937	2807.58
1147.208	2768.8
1150.48	2807.08
1153.75	2790.25
1157.021	2828.17
1160.291	2795.85
1163.561	2840.72
1166.831	2833.35
1170.101	2867.06
1173.37	2847.1
1176.639	2789.14
1179.907	2850.98
1183.176	2854.48
1186.444	2864.3
1189.711	2893.38
1192.979	2901.6
1196.246	2859.09
1199.513	2876.83
1202.78	2875.66
1206.046	2884.19
1209.312	2906.41
1212.578	2934.91
1215.843	2882.51
1219.108	2859.75
1222.373	2881.4
1225.638	2845.32
1228.902	2825.47
1232.166	2790.48
1235.43	2773.76
1238.693	2796.43
1241.956	2794.74
1245.219	2833.55
1248.482	2824.17
1251.744	2819.83
1255.006	2973.09
1258.268	2926.68
1261.529	2866.58
1264.79	2877.82
1268.051	2986.14
1271.312	3004.34
1274.572	2961.08
1277.832	2952.03
1281.092	2948
1284.351	2918.74
1287.61	2896.62
1290.869	2805.06
1294.128	2779.6
1297.386	2876.42
1300.644	2863.59
1303.902	2873.94
1307.159	2726.39
1310.416	2786.99
1313.673	2809.06
1316.93	2788.02
1320.186	2839.69
1323.442	2881.77
1326.697	2872.08
1329.953	2866.43
1333.208	2886.38
1336.463	2867.88
1339.717	2803.6
1342.972	2945.88
1346.226	2924.28
1349.479	2853.23
1352.733	2822.5
1355.986	2847.75
1359.238	2823.96
1362.491	2822.27
1365.743	2826.99
1368.995	2823.72
1372.247	2834.49
1375.498	2860.96
1378.749	2869.55
1382	2825.33
1385.251	2882.65
1388.501	2844.83
1391.751	2824.22
1395	2796.7
1398.25	2833.63
1401.499	2839
1404.748	2759.45
1407.996	2753.4
1411.244	2735.74
1414.492	2715.28
1417.74	2688.93
1420.987	2701.4
1424.234	2757.42
1427.481	2739.69
1430.728	2800.46
1433.974	2770.89
1437.22	2786.47
1440.465	2794.09
1443.711	2749.21
1446.956	2786.2
1450.201	2780.23
1453.445	2826.31
1456.689	2800.11
1459.933	2814.94
1463.177	2846.52
1466.42	2816.53
1469.663	2797.41
1472.906	2788.42
1476.148	2871.66
1479.391	2825.17
1482.633	2799.47
1485.874	2806.49
1489.115	2789.98
1492.356	2802.38
1495.597	2775.98
1498.838	2778.83
1502.078	2744.81
1505.318	2692.08
1508.557	2736.99
1511.797	2704.46
1515.036	2784.39
1518.274	2775.59
1521.513	2749.13
1524.751	2773.61
1527.989	2784.48
1531.227	2795.89
1534.464	2787.86
1537.701	2815.74
1540.938	2835.17
1544.174	2787.55
1547.41	2786.97
1550.646	2828.81
1553.882	2862.17
1557.117	2918.46
1560.352	2936.04
1563.587	2888.62
1566.821	2847.22
1570.055	2885.98
1573.289	2853.95
1576.523	2934.39
1579.756	2941.08
1582.989	2959.17
1586.222	2922.06
1589.454	2958.97
1592.686	2929.76
1595.918	2952.07
1599.15	2942.44
1602.381	3024.85
1605.612	2973.25
1608.843	3072.62
1612.073	2981.77
1615.303	2966.01
1618.533	2955.98
1621.762	2955.74
1624.992	2947.54
1628.221	2930.86
1631.449	2917.64
1634.678	2981.03
1637.906	2931.34
1641.134	2975.83
1644.361	2927.08
1647.588	2916.11
1650.815	2931.75
1654.042	2913.25
1657.269	2946.5
1660.495	2893.76
1663.72	2906.85
1666.946	2867.06
1670.171	2801.19
1673.396	2779.63
1676.621	2770.4
1679.845	2795.17
1683.069	2816.42
1686.293	2863.07
1689.517	2830.48
1692.74	2754.36
1695.963	2787.6
1699.185	2811.74
1702.408	2788.79
1705.63	2833.68
1708.852	2842.29
1712.073	2813.65
1715.294	2794.01
1718.515	2859.26
1721.736	2802.27
1724.956	2796.43
1728.176	2823.73
1731.396	2845.18
1734.616	2834.87
1737.835	2859.98
1741.054	2843.55
1744.272	2836.83
1747.491	2863.99
1750.709	2923.49
1753.927	2820.79
1757.144	2869.55
1760.361	2911.05
1763.578	2905.84
1766.795	2844.57
1770.011	2853.17
1773.227	2899.66
1776.443	2931.09
1779.658	2973.63
1782.874	2919.07
1786.089	2894.09
1789.303	2896.63
1792.518	2904.23
1795.732	2890.75
1798.945	2898.34
1802.159	2952.96
1805.372	2846.92
1808.585	2827.74
1811.797	2829.83
1815.01	2886.15
1818.222	2883.15
1821.434	2845.33
1824.645	2908.12
1827.856	2886.93
1831.067	2921.25
1834.278	2884.74
1837.488	2863.97
1840.698	3021.88
1843.908	2942.03
1847.117	2902.8
1850.326	2778.34
1853.535	2889.6
1856.744	2927.13
1859.952	2837.14
1863.16	2837.68
1866.368	2863.04
1869.575	2964.21
1872.782	2850.33
1875.989	2787.86
1879.196	2877.2
1882.402	2871.35
1885.608	2912.45
1888.814	2809.01
1892.019	2702.3
1895.224	2757.2
1898.429	2739.37
1901.634	2715.83
1904.838	2695.17
1908.042	2742.52
1911.246	2751.18
1914.449	2677.99
1917.652	2676.86
1920.855	2659.08
1924.058	2713.07
1927.26	2746.36
1930.462	2775.19
1933.664	2802.29
1936.865	2738.65
1940.066	2744.22
1943.267	2693.03
1946.467	2708.16
1949.668	2736.73
1952.868	2804.39
1956.067	2781.14
1959.267	2710.13
1962.466	2739.92
1965.665	2722.96
1968.863	2718.09
1972.061	2735.99
1975.259	2733.73
1978.457	2813.33
1981.654	2770.12
1984.852	2769.93
1988.048	2698.1
1991.245	2703.88
1994.441	2789.46
1997.637	2779.18
2000.833	2764.01
2004.028	2801.36
2007.223	2857.32
2010.418	2832.74
2013.613	2794.7
2016.807	2759.93
2020.001	2772.76
2023.194	2819.45
2026.388	2792.56
2029.581	2739.34
2032.774	2784.44
2035.966	2787.55
2039.158	2719.16
2042.35	2745.68
2045.542	2672.7
2048.733	2776.71
2051.924	2808.03
2055.115	2835.12
2058.306	2774.81
2061.496	2838.6
2064.686	2904.92
2067.875	2819.25
2071.065	2837.05
2074.254	2865.55
2077.442	2812.99
2080.631	2908.1
2083.819	2791.95
2087.007	2770.27
2090.195	2740.11
2093.382	2778.05
2096.569	2755.82
2099.756	2705.29
2102.942	2727.67
2106.128	2729.2
2109.314	2724.95
2112.5	2687.74
2115.685	2661.04
2118.87	2672.25
2122.055	2740.3
2125.239	2704.39
2128.424	2675.48
2131.608	2784.46
2134.791	2769.39
2137.974	2831.04
2141.157	2815.24
2144.34	2758.23
2147.523	2781.49
2150.705	2795.06
2153.887	2776.03
2157.068	2718.8
2160.25	2724.16
2163.431	2767.32
2166.611	2710.69
2169.792	2721.42
2172.972	2610.85
2176.152	2697.16
2179.331	2734.5
2182.511	2709.68
2185.69	2738.61
2188.868	2731.38
2192.047	2792.5
2195.225	2776.09
2198.403	2725.11
2201.58	2717.23
2204.758	2718.06
2207.935	2803.6
2211.111	2685.14
2214.288	2668.48
2217.464	2708.15
2220.64	2684.27
2223.815	2742.44
2226.991	2657.87
2230.166	2680.38
2233.34	2708.79
2236.515	2736.25
2239.689	2809.64
2242.863	2752.97
2246.036	2811.61
2249.209	2812.18
2252.382	2851.86
2255.555	2834.46
2258.727	2767.39
2261.9	2813.51
2265.071	2801.32
2268.243	2804.72
2271.414	2732.86
2274.585	2690.57
2277.756	2759.5
2280.926	2713.83
2284.096	2759.78
2287.266	2660.25
2290.436	2718.74
2293.605	2749.07
2296.774	2774.51
2299.942	2799.85
2303.111	2814.95
2306.279	2864.03
2309.447	2854.84
2312.614	2829.53
2315.781	2848.41
2318.948	2816.61
2322.115	2855.4
2325.281	2755.98
2328.447	2778.61
2331.613	2756.41
2334.779	2728.3
2337.944	2733.58
2341.109	2729.42
2344.274	2706.74
2347.438	2673
2350.602	2699.39
2353.766	2717.39
2356.929	2702.23
2360.092	2746.87
2363.255	2695.9
2366.418	2622.86
2369.58	2743.16
2372.742	2512.63
2375.904	2532.66
2379.066	2506.08
2382.227	2544.16
2385.388	2507.85
2388.548	2426.87
2391.709	2484.93
2394.869	2460.76
2398.029	2567.09
2401.188	2584.2
2404.347	2513.05
2407.506	2666.35
2410.665	2694.15
2413.823	2703.37
2416.981	2655.56
2420.139	2689.16
2423.296	2743.9
2426.453	2715.86
2429.61	2741.29
2432.767	2668.03
2435.923	2703.72
2439.079	2667.19
2442.235	2720.03
2445.391	2642.01
2448.546	2670.02
2451.701	2721.81
2454.855	2690.1
2458.009	2745.76
2461.163	2751
2464.317	2706.57
2467.471	2740.99
2470.624	2784.7
2473.777	2752.95
2476.929	2765.31
2480.082	2791.3
2483.234	2754.61
2486.385	2709.92
2489.537	2701.27
2492.688	2657.01
2495.839	2674.31
2498.989	2686.95
2502.14	2669.43
2505.29	2647.96
2508.439	2678.71
2511.589	2597.41
2514.738	2611.69
2517.887	2644.48
2521.035	2707.51
2524.183	2696.36
2527.331	2673.91
2530.479	2645.49
2533.627	2655.14
