Data from N_2_DEC_VA_2N_Splice17_12-07-32-565.txt Node
Date: Sat Mar 14 12:07:32 EDT 2020
User: sa697716
Spectrometer: FLMS03696
Trigger mode: 0
Integration Time (sec): 3.180400E-1
Scans to average: 20
Electric dark correction enabled: true
Nonlinearity correction enabled: true
Boxcar width: 5
XAxis mode: Wavelengths
Number of Pixels in Spectrum: 2048
>>>>>Begin Spectral Data<<<<<
187.83	-267557.75
188.298	1896.11
188.766	999.28
189.233	916.95
189.701	1261.2
190.169	1759.46
190.636	656.1
191.104	574.24
191.571	125.79
192.039	-50.77
192.506	-92.72
192.974	360.72
193.441	-662.39
193.908	-163.37
194.375	-34.24
194.842	-48.05
195.31	4.86
195.777	96.3
196.244	365.17
196.711	567.95
197.177	754.72
197.644	1116.15
198.111	1938.54
198.578	2742.44
199.045	2201.67
199.511	3670.19
199.978	4372.41
200.445	3691.84
200.911	4097.95
201.378	4609.43
201.844	4158.48
202.31	7130.08
202.777	7385.2
203.243	4111.3
203.709	3934.92
204.176	4704.62
204.642	3855.16
205.108	3573.22
205.574	2933.98
206.04	2712.21
206.506	2534.71
206.972	2413.25
207.438	2329.57
207.903	2684.65
208.369	2340.91
208.835	2319.56
209.301	2415
209.766	2489.13
210.232	2463.23
210.697	3058.05
211.163	3763.13
211.628	5737.35
212.094	4784.64
212.559	5842.01
213.024	3606.6
213.49	4383.28
213.955	4289.47
214.42	4228.97
214.885	3927.67
215.35	3788.96
215.815	3595.18
216.28	3818.89
216.745	3102.82
217.21	3366.92
217.675	3129.49
218.14	3539.37
218.604	3989.9
219.069	4575.35
219.534	4808.88
219.998	5621.25
220.463	6841.33
220.927	8516.94
221.392	8048.18
221.856	8175.04
222.32	10340.71
222.785	12757.85
223.249	16086.39
223.713	17990.86
224.177	17997.29
224.642	23129.17
225.106	28474.51
225.57	31120.92
226.034	23078.08
226.497	35095.09
226.961	31631.16
227.425	36833.77
227.889	40933.79
228.353	40917.19
228.816	84422.4
229.28	80679.39
229.744	67959.12
230.207	41241.11
230.671	40525.33
231.134	67040.91
231.597	77273.76
232.061	77236.44
232.524	75269.94
232.987	51722.79
233.45	46493.8
233.914	41683.03
234.377	42684.72
234.84	39013.78
235.303	45984.74
235.766	51280.84
236.229	52941.67
236.691	33303.53
237.154	37402.34
237.617	28063.15
238.08	28732.9
238.542	33603.68
239.005	23977.61
239.468	23791.63
239.93	22393.32
240.393	20330.07
240.855	17817.33
241.317	18249.85
241.78	22198.14
242.242	22916.42
242.704	24746.73
243.166	21513.95
243.629	19465.55
244.091	22394.98
244.553	24476.55
245.015	26275.6
245.477	33946.28
245.939	49731.95
246.4	52703.2
246.862	51128.37
247.324	48105.61
247.786	53737.38
248.247	70393.7
248.709	72777.31
249.17	54358.83
249.632	51144.44
250.093	59209
250.555	51063.53
251.016	31082.51
251.477	29445.52
251.939	31730.78
252.4	33263.37
252.861	39531.54
253.322	36666.07
253.783	43601.26
254.244	56536.35
254.705	44576.25
255.166	39636.43
255.627	38989.52
256.088	54911.8
256.549	58211.27
257.009	50132.65
257.47	60846.52
257.931	49538.93
258.391	37154.97
258.852	38315.97
259.312	40148.92
259.773	49599.57
260.233	41865.92
260.694	35329.76
261.154	40119.9
261.614	32195.32
262.074	28800.02
262.534	29892.68
262.994	28167.05
263.455	37507.45
263.915	31554.08
264.374	29708.4
264.834	32431.59
265.294	35956.12
265.754	37197.97
266.214	35183.73
266.673	32959.15
267.133	41570.74
267.593	41198.74
268.052	50362.47
268.512	43801.35
268.971	52758.1
269.431	57836.24
269.89	51757.01
270.349	77534
270.809	86453.24
271.268	77717.67
271.727	174244.43
272.186	112812.5
272.645	84680.92
273.104	61116.37
273.563	88426.07
274.022	69571.7
274.481	59131.13
274.94	45526.15
275.399	33869.11
275.857	39418.51
276.316	53305.63
276.775	47448.01
277.233	46697.54
277.692	43660.05
278.15	49335.94
278.609	50746.97
279.067	46963.78
279.525	43649.37
279.984	56357.74
280.442	67622.11
280.9	66638.31
281.358	43830.88
281.816	40830.32
282.274	39980.14
282.732	41316.46
283.19	41548.65
283.648	35875.16
284.106	38218.85
284.564	38833.94
285.021	36008.75
285.479	26844.68
285.937	24428.37
286.394	21408.92
286.852	22057.67
287.309	23181.07
287.767	22405.98
288.224	21298.45
288.682	23386.22
289.139	25646.48
289.596	23464.85
290.053	24366.79
290.511	30721.44
290.968	37243.46
291.425	50530.13
291.882	41928.83
292.339	36447.79
292.796	36131.9
293.252	34005.46
293.709	26953.26
294.166	24154.38
294.623	26692.09
295.079	25606.13
295.536	25707.44
295.992	23303.65
296.449	23044.41
296.905	23947.19
297.362	22961.07
297.818	24145.23
298.274	25060.83
298.731	25531.44
299.187	25244.24
299.643	27110.68
300.099	32823.22
300.555	36021.36
301.011	30147.67
301.467	29017.11
301.923	34025.94
302.379	33216.05
302.835	32640.74
303.291	32640.75
303.746	37164.39
304.202	46906.48
304.658	47062.9
305.113	31588.75
305.569	30931.33
306.024	32937.57
306.479	31411.76
306.935	26472.11
307.39	28934.53
307.845	26714.92
308.301	26887.81
308.756	26186.74
309.211	25268.54
309.666	25891.82
310.121	32146.36
310.576	32680.86
311.031	32466.38
311.486	37205.5
311.94	37166.4
312.395	49697.87
312.85	93396.33
313.305	459346.63
313.759	2376552.51
314.214	172239.92
314.668	136462.02
315.123	114763.4
315.577	41069.58
316.032	36504.02
316.486	45676.33
316.94	35984.43
317.394	25035.84
317.849	19443.86
318.303	18405.97
318.757	17367.55
319.211	19180.57
319.665	16788.58
320.119	16985.31
320.572	24375.27
321.026	22723.74
321.48	18905.08
321.934	20621.95
322.387	20668.8
322.841	22319.25
323.295	20023.93
323.748	23089.4
324.202	23446.47
324.655	28145.82
325.108	39268.94
325.562	27720
326.015	33003.19
326.468	24957.27
326.921	27891.43
327.374	26007.85
327.827	27075.72
328.28	30653.89
328.733	20520.68
329.186	18032.66
329.639	17183.91
330.092	14515.12
330.545	13827.13
330.997	13937.48
331.45	15206.06
331.903	17825.47
332.355	30667.71
332.808	29806.81
333.26	24582.29
333.713	26687.23
334.165	26893.67
334.617	35967.59
335.069	29076.88
335.522	52575.52
335.974	58230.82
336.426	53306.2
336.878	36982.47
337.33	18773.86
337.782	18374.25
338.234	23039.17
338.686	27600.15
339.137	32692.67
339.589	30749.71
340.041	24106.21
340.493	20720.51
340.944	21203.88
341.396	22853.67
341.847	19183.93
342.299	22600.96
342.75	27496.71
343.201	24037.2
343.653	27607.06
344.104	33915.96
344.555	26668.46
345.006	41485.73
345.457	31711.79
345.908	25208.98
346.359	23685.43
346.81	19269.75
347.261	20291.15
347.712	19984.06
348.163	21427.55
348.613	21685.95
349.064	20238.04
349.515	17722.81
349.965	18183.43
350.416	21954.71
350.866	24078.53
351.317	27201.92
351.767	45104.73
352.217	56955.56
352.668	47292.61
353.118	43339.1
353.568	41823.59
354.018	33046.39
354.468	34848.26
354.918	24968.9
355.368	21830.29
355.818	30883.1
356.268	88970.82
356.718	372765.23
357.168	92934.14
357.617	46708.02
358.067	51974.05
358.517	48612.5
358.966	57011.5
359.416	64013.97
359.865	69323.15
360.315	82627.04
360.764	38566.18
361.213	21600.32
361.663	20454.11
362.112	25249.79
362.561	40785.47
363.01	30776.7
363.459	25979.29
363.908	28159.56
364.357	23904.79
364.806	40311.33
365.255	27722.79
365.703	25386.7
366.152	25455.98
366.601	20649.08
367.05	16781.63
367.498	15243.75
367.947	15933.72
368.395	16558.61
368.844	14646.8
369.292	17692.47
369.74	12255.37
370.189	18776.29
370.637	22010.55
371.085	19006.06
371.533	23163.46
371.981	22295.32
372.429	21235.79
372.877	22114.45
373.325	18543.22
373.773	18931.51
374.221	16895.04
374.669	20983.35
375.116	18170.92
375.564	18368.92
376.012	20591.87
376.459	17030.01
376.907	20427.64
377.354	24827.48
377.801	23270.72
378.249	26793.86
378.696	34400.82
379.143	41786.44
379.591	44817.99
380.038	76178.29
380.485	55328.01
380.932	60119.16
381.379	55274.56
381.826	40930.83
382.273	29288.31
382.72	25788.63
383.166	25290.95
383.613	16513.66
384.06	14960.51
384.506	17391.58
384.953	12879.05
385.4	13055.88
385.846	11513.61
386.292	11312.49
386.739	11162.78
387.185	11112.82
387.631	11181.49
388.078	10932.33
388.524	11782.73
388.97	10983.82
389.416	9240.47
389.862	9894.76
390.308	9459.61
390.754	9682.18
391.2	10590.22
391.645	10924.23
392.091	10511.64
392.537	10221.81
392.983	10335.29
393.428	10209.28
393.874	11022.93
394.319	11107.2
394.765	10596.49
395.21	10946.38
395.655	10311.42
396.101	9705.04
396.546	8795.65
396.991	8930.86
397.436	8340.07
397.881	8089.81
398.326	7704.64
398.771	7293.35
399.216	6416.4
399.661	5794.62
400.106	5785.2
400.551	5931.11
400.995	5330.15
401.44	5285.44
401.885	4970.15
402.329	5019.31
402.774	4803.77
403.218	4635.14
403.663	4474.18
404.107	4590.27
404.551	4616.38
404.995	4236.74
405.44	4084.24
405.884	4143.65
406.328	4007.58
406.772	3989.94
407.216	3630.99
407.66	3511.17
408.104	3340.96
408.547	3124.43
408.991	3018.2
409.435	2900.95
409.879	2852.52
410.322	2811.24
410.766	2709.15
411.209	2566.44
411.653	2460.16
412.096	2404.57
412.54	2403.12
412.983	2384.92
413.426	2385.74
413.869	2384.71
414.312	2335.38
414.756	2252.22
415.199	2147.04
415.642	2078.44
416.085	2083.4
416.527	2067.2
416.97	2099.24
417.413	1989.06
417.856	1967.17
418.298	1943.87
418.741	1928.44
419.184	1924.58
419.626	2004.4
420.069	1999.55
420.511	2010.64
420.953	1961.86
421.396	1940.36
421.838	1888.6
422.28	1928.79
422.722	1933.48
423.164	1959.44
423.606	1924.05
424.048	1916.91
424.49	1815.25
424.932	1804.25
425.374	1777.08
425.816	1804.63
426.258	1835.57
426.699	1852.03
427.141	1817.96
427.582	1842.67
428.024	1828.23
428.465	1812
428.907	1763.33
429.348	1737.65
429.789	1731.22
430.231	1689.19
430.672	1707.45
431.113	1664.99
431.554	1640.4
431.995	1600.39
432.436	1539.65
432.877	1503.98
433.318	1475.42
433.759	1469.53
434.2	1471.55
434.64	1459.9
435.081	1466.06
435.522	1389.6
435.962	1340.69
436.403	1310.71
436.843	1334.09
437.284	1309.75
437.724	1279.99
438.164	1291.14
438.604	1268.06
439.045	1221.35
439.485	1172.64
439.925	1153.21
440.365	1130.98
440.805	1121.99
441.245	1113.03
441.685	1075.6
442.125	1075.19
442.564	1087.4
443.004	1067.14
443.444	1071.19
443.883	1081.27
444.323	1082.67
444.762	1094.06
445.202	1117.37
445.641	1143.63
446.081	1148.16
446.52	1163.98
446.959	1159.11
447.398	1138.33
447.837	1134.18
448.276	1124.26
448.716	1142.76
449.154	1161.26
449.593	1139.66
450.032	1142.8
450.471	1128.31
450.91	1136.33
451.349	1139.79
451.787	1143.16
452.226	1166.67
452.664	1171.91
453.103	1176.61
453.541	1180.12
453.98	1180.53
454.418	1194.28
454.856	1176.74
455.295	1180.48
455.733	1191.94
456.171	1202.95
456.609	1207.33
457.047	1209.07
457.485	1226.41
457.923	1230.97
458.361	1218.03
458.798	1224.26
459.236	1221.96
459.674	1234.03
460.111	1239.4
460.549	1227.55
460.987	1224.17
461.424	1221.7
461.862	1217.71
462.299	1201.64
462.736	1199.41
463.173	1203.32
463.611	1187.71
464.048	1184.83
464.485	1195.02
464.922	1186.01
465.359	1180.51
465.796	1155.58
466.233	1145.08
466.67	1132.2
467.106	1127.67
467.543	1117.84
467.98	1103.21
468.416	1077.22
468.853	1070.17
469.29	1039.39
469.726	1028.71
470.162	1002.3
470.599	998.01
471.035	991.16
471.471	969.67
471.907	966
472.344	960.87
472.78	963.06
473.216	978.19
473.652	967.12
474.088	966.26
474.523	963.14
474.959	973.89
475.395	966.4
475.831	959.37
476.266	965.34
476.702	964.42
477.138	954.83
477.573	953.5
478.008	950.55
478.444	955.27
478.879	962.85
479.314	967.73
479.75	967.74
480.185	974.37
480.62	985.93
481.055	992.27
481.49	1000.09
481.925	1016.86
482.36	1034.77
482.795	1065.36
483.229	1096.32
483.664	1122.49
484.099	1130.27
484.534	1151.3
484.968	1164.68
485.403	1172.4
485.837	1175.69
486.271	1178.1
486.706	1183.04
487.14	1175.99
487.574	1161.31
488.009	1155.43
488.443	1149.65
488.877	1165.96
489.311	1174.03
489.745	1193.02
490.179	1209.17
490.613	1235.48
491.046	1252.46
491.48	1267.64
491.914	1275.47
492.348	1292.22
492.781	1306.93
493.215	1318.66
493.648	1329.92
494.082	1349.37
494.515	1358.41
494.948	1380.67
495.382	1400.53
495.815	1419.02
496.248	1438.76
496.681	1474.85
497.114	1508.77
497.547	1539.35
497.98	1575.06
498.413	1596.24
498.846	1625.42
499.279	1653.32
499.711	1673.8
500.144	1688.75
500.577	1718.12
501.009	1752.48
501.442	1780.92
501.874	1790.84
502.306	1805
502.739	1825.94
503.171	1867.13
503.603	1881.27
504.036	1911.05
504.468	1931.39
504.9	1964.07
505.332	1988.64
505.764	2004.4
506.196	2027.42
506.627	2066.58
507.059	2102.08
507.491	2131.96
507.923	2130.62
508.354	2169.34
508.786	2196.59
509.217	2238.39
509.649	2272.25
510.08	2314.66
510.512	2351.79
510.943	2383.77
511.374	2409.25
511.805	2452.77
512.237	2494.33
512.668	2565.11
513.099	2622.31
513.53	2679.14
513.961	2719.07
514.391	2784.68
514.822	2847.62
515.253	2917.82
515.684	2966.59
516.114	3020.44
516.545	3055.59
516.975	3101.24
517.406	3127.8
517.836	3122.29
518.267	3123.53
518.697	3149.31
519.127	3145.77
519.558	3151.74
519.988	3147.34
520.418	3157.42
520.848	3183.24
521.278	3189.25
521.708	3165.03
522.138	3180.73
522.567	3233.78
522.997	3273.37
523.427	3293.42
523.857	3317.44
524.286	3326.85
524.716	3346.32
525.145	3371.34
525.575	3380.24
526.004	3399.52
526.433	3418.4
526.863	3408.53
527.292	3376.34
527.721	3376.57
528.15	3379.04
528.579	3370.11
529.008	3382.41
529.437	3421.36
529.866	3442.17
530.295	3470.56
530.724	3487.55
531.152	3535.19
531.581	3556.1
532.01	3585.21
532.438	3598.34
532.867	3623.34
533.295	3654.85
533.723	3663.23
534.152	3653.61
534.58	3649.21
535.008	3614.55
535.436	3613.73
535.865	3625.37
536.293	3652.04
536.721	3682.29
537.149	3729.44
537.576	3731.1
538.004	3754.5
538.432	3769.93
538.86	3765.35
539.287	3778.71
539.715	3804.64
540.143	3811.57
540.57	3804.74
540.998	3796.5
541.425	3747.02
541.852	3705.07
542.28	3701.95
542.707	3669.41
543.134	3639.52
543.561	3630.85
543.988	3615.33
544.415	3613.04
544.842	3600.36
545.269	3583.18
545.696	3584.24
546.123	3608.26
546.549	3584.48
546.976	3556.41
547.403	3553.38
547.829	3556.9
548.256	3559.31
548.682	3549.33
549.108	3530.09
549.535	3525.7
549.961	3529.54
550.387	3503.05
550.813	3490.22
551.24	3502.42
551.666	3503.91
552.092	3483.51
552.518	3469.6
552.943	3457.17
553.369	3470.84
553.795	3483.34
554.221	3487.72
554.646	3481.28
555.072	3501.33
555.498	3514.48
555.923	3535.24
556.349	3567.5
556.774	3587.69
557.199	3592.31
557.625	3607.09
558.05	3600.22
558.475	3624.26
558.9	3624.52
559.325	3611.93
559.75	3603.82
560.175	3595.77
560.6	3587.07
561.025	3587.29
561.449	3593.83
561.874	3611.85
562.299	3624.88
562.723	3643.83
563.148	3630.36
563.572	3645.77
563.997	3672.85
564.421	3693.12
564.846	3700.91
565.27	3714.07
565.694	3716.49
566.118	3749.09
566.542	3769.78
566.966	3764.88
567.39	3764.7
567.814	3750.42
568.238	3758.23
568.662	3779.9
569.086	3793.17
569.509	3817.99
569.933	3795.32
570.357	3790.35
570.78	3755.76
571.204	3736.85
571.627	3726.38
572.05	3731.28
572.474	3741.45
572.897	3725.16
573.32	3715.84
573.743	3705.02
574.166	3674.27
574.589	3685.81
575.012	3678.3
575.435	3684.28
575.858	3674.54
576.281	3657.6
576.704	3632.22
577.126	3613.72
577.549	3596.62
577.972	3583.73
578.394	3566.56
578.817	3555.42
579.239	3519.71
579.661	3496.22
580.084	3465.33
580.506	3440.45
580.928	3437.92
581.35	3420.17
581.772	3414.38
582.194	3390.15
582.616	3367.03
583.038	3341.73
583.46	3324.83
583.882	3322.22
584.303	3336.19
584.725	3333.49
585.147	3336.59
585.568	3362.86
585.99	3392.31
586.411	3410.5
586.833	3445.72
587.254	3453.37
587.675	3489.29
588.096	3521.78
588.518	3513.35
588.939	3479.7
589.36	3476.36
589.781	3465.35
590.202	3401.17
590.623	3382.56
591.043	3381.75
591.464	3355.82
591.885	3348.18
592.305	3337.61
592.726	3308.97
593.147	3313.83
593.567	3302.99
593.987	3288.83
594.408	3279.82
594.828	3280.75
595.248	3268.86
595.669	3226.5
596.089	3212.59
596.509	3200.41
596.929	3170.23
597.349	3172.19
597.769	3151.64
598.189	3138.27
598.608	3143.68
599.028	3147.68
599.448	3149.76
599.867	3124.43
600.287	3118.12
600.706	3108.81
601.126	3088.32
601.545	3086.76
601.965	3086.21
602.384	3074.76
602.803	3085.56
603.222	3075.33
603.641	3063.16
604.061	3055.55
604.48	3048.32
604.898	3068.88
605.317	3084.92
605.736	3093.14
606.155	3089.92
606.574	3072.03
606.992	3089.77
607.411	3081.4
607.829	3068.71
608.248	3065.65
608.666	3065.78
609.085	3067.99
609.503	3054.04
609.921	3041.88
610.339	3049.91
610.758	3053.64
611.176	3050.25
611.594	3031.18
612.012	3028.25
612.43	3038.53
612.847	3059.66
613.265	3063.41
613.683	3080.17
614.101	3086.51
614.518	3084.44
614.936	3066.34
615.353	3035.76
615.771	3031.11
616.188	3036.82
616.606	3032.23
617.023	3019.79
617.44	2989.22
617.857	2981.37
618.274	2965.65
618.691	2953.53
619.108	2935.48
619.525	2924.32
619.942	2943.57
620.359	2952.61
620.776	2943.79
621.192	2936.12
621.609	2933.73
622.026	2950.53
622.442	2963.93
622.859	2972.48
623.275	2957.78
623.691	2972.81
624.108	3000.63
624.524	3037.04
624.94	3037.5
625.356	3064.59
625.772	3097.72
626.188	3127.51
626.604	3132.06
627.02	3124.32
627.436	3120.26
627.852	3137.11
628.268	3165.17
628.683	3145.13
629.099	3124.04
629.514	3116.32
629.93	3124.99
630.345	3137.36
630.761	3129.56
631.176	3139.89
631.591	3124.6
632.007	3109.78
632.422	3108.43
632.837	3084.57
633.252	3079.17
633.667	3057.53
634.082	3036.77
634.497	3005.17
634.911	2957.33
635.326	2948.55
635.741	2906.31
636.155	2884.15
636.57	2887.13
636.984	2885.13
637.399	2885.52
637.813	2885.32
638.228	2881.04
638.642	2889.38
639.056	2866.37
639.47	2867.93
639.884	2847.45
640.298	2831.99
640.712	2827.27
641.126	2796.07
641.54	2775.41
641.954	2764.33
642.368	2733.41
642.781	2708.49
643.195	2664.04
643.609	2660.3
644.022	2642.59
644.436	2629.3
644.849	2599.2
645.262	2571.11
645.676	2574.81
646.089	2558.53
646.502	2516.07
646.915	2500.58
647.328	2459.22
647.741	2450.7
648.154	2416.05
648.567	2399.95
648.98	2363.89
649.393	2359.47
649.805	2346.44
650.218	2325.56
650.631	2286.39
651.043	2270.46
651.456	2253.37
651.868	2255.61
652.28	2294.06
652.693	2326.14
653.105	2344.92
653.517	2368.13
653.929	2370.55
654.341	2382.62
654.753	2352.1
655.165	2366.57
655.577	2361.47
655.989	2350.46
656.401	2330.27
656.813	2243.55
657.224	2195.47
657.636	2127.7
658.047	2081.71
658.459	2032.5
658.87	2008.93
659.282	1979.21
659.693	1924.94
660.104	1886.2
660.515	1847.93
660.926	1836.39
661.338	1824.07
661.749	1802.15
662.159	1772.48
662.57	1755.13
662.981	1736.71
663.392	1710.65
663.803	1708.3
664.213	1694.76
664.624	1675.43
665.035	1674.04
665.445	1635.04
665.855	1608.36
666.266	1580.54
666.676	1566.19
667.086	1538.47
667.497	1526.69
667.907	1504.39
668.317	1476.44
668.727	1457.46
669.137	1452.53
669.547	1438.75
669.956	1437.55
670.366	1434.28
670.776	1430.68
671.186	1432.7
671.595	1432.63
672.005	1433.53
672.414	1427
672.824	1417.92
673.233	1424.89
673.642	1423.53
674.052	1425.25
674.461	1425.5
674.87	1431.21
675.279	1423.37
675.688	1425.79
676.097	1425.64
676.506	1419.08
676.915	1447.5
677.323	1455.18
677.732	1453.39
678.141	1456.88
678.549	1443.52
678.958	1447.76
679.366	1454.25
679.775	1473.51
680.183	1498.46
680.592	1522.36
681	1546.46
681.408	1547.33
681.816	1579.81
682.224	1615.89
682.632	1651.44
683.04	1731.82
683.448	1805.11
683.856	1892.11
684.264	1993.46
684.671	2094.52
685.079	2213.24
685.487	2341.98
685.894	2510.39
686.302	2657.55
686.709	2782.08
687.116	2925.67
687.524	3042.71
687.931	3144.41
688.338	3232.43
688.745	3305.88
689.152	3383.18
689.559	3479.57
689.966	3570.22
690.373	3609.68
690.78	3689.48
691.187	3819.01
691.593	3906.41
692	3976.97
692.407	4088.12
692.813	4224.64
693.22	4321.91
693.626	4424.57
694.032	4491.75
694.439	4614.88
694.845	4695.75
695.251	4809.03
695.657	4904.29
696.063	5068.67
696.469	5172.75
696.875	5261.8
697.281	5287.5
697.687	5331.78
698.093	5356.36
698.498	5459.66
698.904	5529
699.31	5653.66
699.715	5721.41
700.12	5848.08
700.526	5827.85
700.931	5911.72
701.337	5958.42
701.742	5974.15
702.147	6087.99
702.552	6099.28
702.957	6165.42
703.362	6157.2
703.767	6166.33
704.172	6200.58
704.577	6072.81
704.981	6121.71
705.386	6114.16
705.791	6065.69
706.195	6162.31
706.6	6137.59
707.004	6243.38
707.408	6153.61
707.813	6163.2
708.217	6108.89
708.621	6079.13
709.025	6214.54
709.43	6181.4
709.834	6249.33
710.237	6337.92
710.641	6282.15
711.045	6288.85
711.449	6247.69
711.853	6265.7
712.256	6308.16
712.66	6344.94
713.064	6440.69
713.467	6479.5
713.87	6636.55
714.274	6683.44
714.677	6833.44
715.08	7069.85
715.484	7314.82
715.887	7609.79
716.29	7900.69
716.693	8201.34
717.096	8548.62
717.499	8729.43
717.901	8740.05
718.304	8753.53
718.707	8767.72
719.109	8578.4
719.512	8501.95
719.915	8268.96
720.317	8162.52
720.719	8209.29
721.122	8144.23
721.524	8050.02
721.926	7963.85
722.328	8099.77
722.731	8069.78
723.133	8094.62
723.535	8375.12
723.937	8388.62
724.338	8450.77
724.74	8494.81
725.142	8337.13
725.544	8317.65
725.945	8331.2
726.347	8313.67
726.748	8288.74
727.15	8296.33
727.551	8223.56
727.952	8169.3
728.354	8113.42
728.755	8100.3
729.156	8029.12
729.557	8045.16
729.958	7856.38
730.359	7773.59
730.76	7737.3
731.161	7643.03
731.562	7597.06
731.962	7596.78
732.363	7492.62
732.763	7388.61
733.164	7436.88
733.564	7330.14
733.965	7182.43
734.365	7126.74
734.766	7163.32
735.166	7102.34
735.566	7014.77
735.966	6968.65
736.366	6954.75
736.766	6863.51
737.166	6908.09
737.566	6841.96
737.966	6800.73
738.365	6851.16
738.765	6839.92
739.165	6727.94
739.564	6683.82
739.964	6746.35
740.363	6681.04
740.763	6674.24
741.162	6655.11
741.561	6609.07
741.96	6539.19
742.36	6566.09
742.759	6569.03
743.158	6619.96
743.557	6637.43
743.955	6693.31
744.354	6624.48
744.753	6700.42
745.152	6639.55
745.55	6712.89
745.949	6699.15
746.348	6701.35
746.746	6722.44
747.144	6663.7
747.543	6630.09
747.941	6698.18
748.339	6597.23
748.737	6586.01
749.136	6571.21
749.534	6661.77
749.932	6618.66
750.33	6650.06
750.727	6726.27
751.125	6690.23
751.523	6668.54
751.921	6725.58
752.318	6676.27
752.716	6757.22
753.113	6775.13
753.511	6813.42
753.908	6811.33
754.305	6784.16
754.703	6868.14
755.1	6950.84
755.497	7034.14
755.894	7300.29
756.291	7553.83
756.688	8014.06
757.085	8628.83
757.482	9497.01
757.878	10435.51
758.275	11293.56
758.672	12482.09
759.068	13445.74
759.465	14819.46
759.861	16582.26
760.258	18638.53
760.654	19694.79
761.05	19534.75
761.447	18637.96
761.843	17343.02
762.239	16015.08
762.635	15413.25
763.031	14830.39
763.427	13999.41
763.822	13122.61
764.218	12260.21
764.614	11134.49
765.01	10385.54
765.405	9900.23
765.801	9529.48
766.196	9061.38
766.592	8801.98
766.987	8358.31
767.382	8058.43
767.778	7930.21
768.173	7746.91
768.568	7647.4
768.963	7476.03
769.358	7499.38
769.753	7436.28
770.148	7317.27
770.542	7313.12
770.937	7268.43
771.332	7394.85
771.726	7418.68
772.121	7330.97
772.515	7407.75
772.91	7384.03
773.304	7478.21
773.699	7386.99
774.093	7459.35
774.487	7539.95
774.881	7602.79
775.275	7599.13
775.669	7541.97
776.063	7607.03
776.457	7657.91
776.851	7556.35
777.245	7547.64
777.638	7598.3
778.032	7758.94
778.425	7709.28
778.819	7765.81
779.212	7705.47
779.606	7646.89
779.999	7674.84
780.392	7654.5
780.786	7773.34
781.179	7803.81
781.572	7864.58
781.965	7884.87
782.358	7807.71
782.751	7888.68
783.143	7823.47
783.536	7927.4
783.929	7989.37
784.322	8146.6
784.714	8187.42
785.107	8176.53
785.499	8272.09
785.891	8238.63
786.284	8208.78
786.676	8410.15
787.068	8381.01
787.46	8456.37
787.852	8484.17
788.245	8604.25
788.636	8649.69
789.028	8739.84
789.42	8794.56
789.812	8809.58
790.204	8947.12
790.595	9084.59
790.987	8805.47
791.378	8833.47
791.77	9016.54
792.161	9205.22
792.553	9281.14
792.944	9125.46
793.335	9037.49
793.726	9139
794.117	9265.6
794.508	9456.27
794.899	9414.28
795.29	9606.7
795.681	9689.76
796.072	9486.29
796.463	9216.09
796.853	9226.38
797.244	9445.13
797.634	9486.51
798.025	9484.21
798.415	9502.29
798.806	9621.37
799.196	9737.84
799.586	9807.97
799.976	9751.5
800.366	10071.33
800.756	10414.55
801.146	10358.69
801.536	10397.98
801.926	10496.38
802.316	10531.3
802.706	10626
803.095	10455.34
803.485	10596.3
803.874	10656.33
804.264	11015.35
804.653	10980.7
805.043	11183.88
805.432	11337.76
805.821	11336.68
806.21	11369.4
806.599	11535.86
806.988	11597.99
807.377	11748.64
807.766	11932.25
808.155	12322.93
808.544	11958.43
808.933	11974.43
809.321	11945.08
809.71	12353.28
810.098	12574.7
810.487	13218.25
810.875	13887.82
811.264	13921.56
811.652	14314.71
812.04	14511.96
812.428	14738.72
812.816	15807.44
813.204	16393.92
813.592	17161.85
813.98	17630.32
814.368	17494.71
814.756	18163.71
815.144	18046.52
815.531	18687.32
815.919	18590.55
816.306	19020.14
816.694	18593.76
817.081	18652.54
817.469	19123.3
817.856	19113.45
818.243	19488.15
818.63	20034.88
819.017	19442.43
819.404	19524.71
819.791	20053.67
820.178	20911.69
820.565	21249.17
820.952	22529.62
821.339	21843.37
821.725	22100.46
822.112	21069.72
822.498	21012.04
822.885	21198.83
823.271	21066.58
823.657	21657.77
824.044	21665.89
824.43	21769.64
824.816	21719.53
825.202	21119.72
825.588	22539.77
825.974	22556.46
826.36	23285.24
826.746	23338.19
827.132	23818.73
827.517	23792.64
827.903	22698.01
828.289	22752.08
828.674	21668.34
829.06	21535.34
829.445	22088.17
829.83	22581.78
830.216	23256.35
830.601	23748.11
830.986	23171.39
831.371	22981.77
831.756	23746.04
832.141	23145.07
832.526	23136.41
832.911	23525.64
833.295	23362.7
833.68	24013.01
834.065	23145.39
834.449	21873.22
834.834	21776.75
835.218	21780.01
835.603	22256.81
835.987	21970.36
836.371	23124.03
836.755	22975.84
837.139	23537.22
837.524	23872.23
837.908	23617.44
838.291	23713.73
838.675	23815.99
839.059	24109.99
839.443	24094.03
839.827	23785.7
840.21	24448.19
840.594	24242.83
840.977	24535.14
841.361	24510.33
841.744	25024.27
842.127	24817.08
842.511	25164.36
842.894	25995.16
843.277	26511.67
843.66	27258.5
844.043	27363.82
844.426	26241.24
844.809	25815.21
845.191	25863.38
845.574	25223.38
845.957	24735.48
846.339	24590.14
846.722	23855.17
847.104	23941.7
847.487	23717.63
847.869	23738.99
848.252	24123.62
848.634	24590.92
849.016	24964.14
849.398	25145.61
849.78	26315.37
850.162	26318.68
850.544	26890.36
850.926	27769.14
851.307	27647.64
851.689	28033.79
852.071	28667.92
852.452	29131.98
852.834	29102.05
853.215	29657.33
853.597	29870.91
853.978	30304.87
854.359	30936.18
854.741	29557.64
855.122	29414.14
855.503	29015.99
855.884	29199.38
856.265	29110.35
856.646	29259.69
857.026	28720.55
857.407	28625.3
857.788	28836.17
858.169	29217.76
858.549	28032.36
858.93	28891.84
859.31	28960.17
859.69	29256.79
860.071	28696.37
860.451	28392.72
860.831	27365.47
861.211	28963.7
861.591	29717.89
861.971	29681.1
862.351	29956.15
862.731	30492.5
863.111	30862.88
863.491	31318.58
863.87	32526.06
864.25	33010.45
864.629	32450.89
865.009	33166.39
865.388	34356.22
865.768	36817.7
866.147	36659.74
866.526	34614.81
866.905	35023.69
867.284	36981.03
867.663	35119.08
868.042	33651.23
868.421	33523.14
868.8	34076.28
869.179	34411.77
869.558	32404.97
869.936	29854.83
870.315	30393.79
870.693	31138.37
871.072	33594.49
871.45	32003.71
871.828	32389.85
872.207	34054.46
872.585	33550.39
872.963	34464.86
873.341	33270.24
873.719	32852.19
874.097	32462.84
874.475	33080.37
874.853	33846.47
875.23	32423.47
875.608	33775.55
875.986	36550.98
876.363	34953.65
876.741	36008.96
877.118	35094.94
877.495	36808.84
877.873	37428.84
878.25	39392.22
878.627	37771.2
879.004	38295.98
879.381	38122.95
879.758	37126.99
880.135	34562.16
880.512	36549.03
880.889	35588
881.265	35230.45
881.642	34949.38
882.019	35540.14
882.395	34802.91
882.772	36190.36
883.148	34621.97
883.524	34477.28
883.901	34270.49
884.277	34789.81
884.653	34566.06
885.029	35565.71
885.405	39380.59
885.781	39079.92
886.157	37474.09
886.532	37952.13
886.908	37942.57
887.284	42190.8
887.659	43579.81
888.035	44943.54
888.411	46116.35
888.786	46737.5
889.161	48375.84
889.537	47488.28
889.912	49007.55
890.287	48959.54
890.662	50230.09
891.037	49341.5
891.412	46005.44
891.787	45554.73
892.162	43958.23
892.536	44978.65
892.911	43300.96
893.286	42374.81
893.66	40667.57
894.035	41705.49
894.409	45428.29
894.784	43579.26
895.158	44289.99
895.532	46922.09
895.906	48188
896.281	49336.82
896.655	48545.47
897.029	55465.18
897.402	57768.42
897.776	64325.79
898.15	64085.11
898.524	63391.64
898.898	64253.68
899.271	71908.97
899.645	62284.09
900.018	59840.82
900.392	62056.3
900.765	62569.31
901.138	57895.25
901.511	57022.62
901.884	52348.32
902.258	48302.25
902.631	49894.91
903.003	57438.36
903.376	51835.21
903.749	58105.04
904.122	62194.86
904.495	68487.7
904.867	69346.76
905.24	60195.85
905.612	56026.68
905.985	57306.92
906.357	59918.95
906.729	57223.56
907.102	48863.17
907.474	46992.37
907.846	47309.74
908.218	46670.23
908.59	41225.04
908.962	39860.75
909.334	42934.19
909.705	45098.03
910.077	43778.52
910.449	45568.2
910.82	46847.45
911.192	51557.19
911.563	53571.8
911.935	57313.43
912.306	57410.62
912.677	59292.75
913.048	58676.03
913.419	63624.59
913.79	63979.93
914.161	68584.76
914.532	65518.28
914.903	60177.62
915.274	57152
915.645	56325.76
916.015	49569.65
916.386	47249.68
916.756	50286.46
917.127	51905.13
917.497	46384.51
917.868	50500.7
918.238	48006.25
918.608	49415.14
918.978	50437.61
919.348	53415.94
919.718	55180
920.088	53169.78
920.458	55237.95
920.828	58129.96
921.198	55118.06
921.567	58900.81
921.937	45608.12
922.306	46039.03
922.676	49650.39
923.045	41409.17
923.415	39319.98
923.784	35800.28
924.153	36795.48
924.522	36722.06
924.891	34503.05
925.26	36934.16
925.629	36039.1
925.998	41422.1
926.367	40419.39
926.736	38461.66
927.104	45809.27
927.473	49249.82
927.842	59487.9
928.21	58906.06
928.578	61993.39
928.947	58624.15
929.315	58967.74
929.683	69177.59
930.051	69729.59
930.42	80968.35
930.788	69229.67
931.156	68720.7
931.523	64431.61
931.891	59514.61
932.259	57175.55
932.627	66233.03
932.994	93773.42
933.362	77523.85
933.729	67311.39
934.097	64427.24
934.464	54508.06
934.831	62900.34
935.199	62019.19
935.566	60111.81
935.933	61015.56
936.3	73867.26
936.667	57526.18
937.034	51820.95
937.401	51280.83
937.767	44265.81
938.134	39412.15
938.501	55607.61
938.867	59235.71
939.234	100107.75
939.6	85477.6
939.967	93981.31
940.333	62910.78
940.699	53564.3
941.065	43060.58
941.431	56430.75
941.798	54379.07
942.163	71334.42
942.529	44539.86
942.895	40990.02
943.261	26514.27
943.627	34787.68
943.992	30457.77
944.358	30521.15
944.723	30613.02
945.089	29824
945.454	27555.81
945.82	29424.25
946.185	28273.62
946.55	32781.07
946.915	29436.81
947.28	34544.76
947.645	30407.97
948.01	28051.84
948.375	29235.03
948.74	35018.94
949.104	40834.13
949.469	58991.8
949.834	104339.05
950.198	98915.31
950.562	59257.88
950.927	49345.36
951.291	59381.51
951.655	50591.8
952.02	47587.71
952.384	36011.03
952.748	31362.54
953.112	30564.36
953.476	26585.23
953.839	24578.46
954.203	24335.54
954.567	30428.83
954.931	47961.73
955.294	41023.48
955.658	41255.76
956.021	70095.86
956.385	118882.98
956.748	175582
957.111	272746.56
957.474	306289.22
957.837	345245.43
958.2	261507.85
958.563	94165.74
958.926	63646.28
959.289	96657.61
959.652	107984.12
960.015	81026.79
960.377	116376.62
960.74	132761.57
961.102	229348.12
961.465	246066.73
961.827	131379.56
962.189	252118.73
962.552	174749.14
962.914	140209.41
963.276	90963.92
963.638	75184.47
964	74534.75
964.362	50342.79
964.724	48724.8
965.085	34726.86
965.447	28512.11
965.809	32575.32
966.17	32612.62
966.532	35296.87
966.893	32381.96
967.255	29486
967.616	34818.97
967.977	27870.59
968.338	30437.32
968.699	24972.19
969.061	24975.25
969.421	25116.2
969.782	28188.81
970.143	23783.01
970.504	24626.62
970.865	27988.01
971.225	28573.61
971.586	27965.42
971.946	39867.49
972.307	34638.28
972.667	45342.4
973.027	46704.95
973.388	56676.99
973.748	38530.27
974.108	42017.92
974.468	56891.58
974.828	43811.63
975.188	33768.09
975.548	31030.31
975.907	26049.78
976.267	29223.32
976.627	24550.4
976.986	25465.31
977.346	24291.23
977.705	23364.97
978.064	21277.91
978.424	17706.94
978.783	18344.03
979.142	20940.4
979.501	20023.89
979.86	21174.12
980.219	20408.66
980.578	26326.44
980.937	29483.75
981.296	26271.24
981.654	27042.15
982.013	42066.06
982.371	54604.11
982.73	50961.86
983.088	57736.15
983.447	61682.44
983.805	88181.9
984.163	184111.07
984.521	204372.7
984.879	299521.08
985.237	-486538.24
985.595	468747.16
985.953	116598.67
986.311	67407.95
986.669	39183.04
987.026	33782.5
987.384	45453.34
987.741	46996.93
988.099	33567.65
988.456	26744
988.814	25000.68
989.171	21745.19
989.528	21511.92
989.885	22722.91
990.242	17957.16
990.599	22393.59
990.956	18332.34
991.313	12819.31
991.67	10512.91
992.027	11118.32
992.383	9878.81
992.74	8675.35
993.096	9095.22
993.453	9422.69
993.809	9774.36
994.165	13042.81
994.522	11891.35
994.878	13112.47
995.234	16441.2
995.59	16230.29
995.946	15414.87
996.302	17583.73
996.658	20328.95
997.013	22402.41
997.369	26517.41
997.725	33945.6
998.08	21978.86
998.436	34085.93
998.791	46998.12
999.147	46942.68
999.502	51231.78
999.857	37275.4
1000.212	60705.6
1000.567	86440.99
1000.922	49956.53
1001.277	31766.07
1001.632	23540.67
1001.987	30284.43
1002.342	21675.73
1002.696	17331.44
1003.051	13836.53
1003.406	16768.89
1003.76	16683.13
1004.114	16452.26
1004.469	13834.74
1004.823	11432.03
1005.177	12373.79
1005.531	9797.4
1005.885	8695.14
1006.239	9807.24
1006.593	12298.51
1006.947	16463.19
1007.301	12348.72
1007.655	13457.62
1008.008	9894.61
1008.362	11103.83
1008.715	15882.51
1009.069	14404.95
1009.422	21652.87
1009.776	43528.74
1010.129	28926.45
1010.482	24185.05
1010.835	20485.15
1011.188	42669.98
1011.541	40222.07
1011.894	-245406.07
1012.247	723227.58
1012.6	49088.73
1012.952	30930.07
1013.305	15973.23
1013.657	11479.5
1014.01	10875.22
1014.362	8980.32
1014.715	7922.54
1015.067	6887
1015.419	6740.27
1015.771	5986.16
1016.123	5316.76
1016.475	5482.39
1016.827	5839.38
1017.179	6275.94
1017.531	6354.14
1017.883	6503.5
1018.234	6233.68
1018.586	7896.65
1018.938	8335.21
1019.289	11480.6
1019.64	13147.8
1019.992	12276.47
1020.343	11241.25
1020.694	8885.44
1021.045	7855.3
1021.396	8942.91
1021.747	9545.38
1022.098	11524.54
1022.449	8374.95
1022.8	7798.97
1023.151	5417.15
1023.501	4796.94
1023.852	5209.03
1024.202	5381.1
1024.553	5906.01
1024.903	5746.07
1025.253	4891.27
1025.604	4413.03
1025.954	5480.93
1026.304	6667.81
1026.654	7773.72
1027.004	11421.83
1027.354	18468.47
1027.703	17409.12
1028.053	22946.11
1028.403	33551.81
1028.753	48950.24
1029.102	67252.46
1029.452	347178.09
1029.801	15044.61
1030.15	9752.07
1030.499	8307.47
897.758	2255.65
901.051	2189.05
904.343	2224.36
907.636	2233.35
910.928	2295.18
914.22	2213.48
917.511	2217.49
920.803	2270.06
924.094	2269.98
927.384	2270.94
930.675	2233.2
933.965	2195.81
937.255	2225.7
940.544	2191.97
943.834	2189.34
947.123	2128.5
950.411	2218.88
953.7	2199.96
956.988	2182.79
960.276	2119.61
963.563	2173.24
966.851	2185.22
970.138	2228.01
973.424	2229.66
976.711	2185.08
979.997	2234.92
983.283	2279.9
986.568	2208.01
989.853	2201.45
993.138	2229.58
996.423	2314.33
999.708	2267.46
1002.992	2299.99
1006.275	2206.83
1009.559	2214.08
1012.842	2314.63
1016.125	2267.41
1019.408	2248.18
1022.69	2309.79
1025.972	2342.4
1029.254	2316.9
1032.536	2277.87
1035.817	2291.08
1039.098	2259.96
1042.379	2321.75
1045.659	2350.68
1048.939	2295.95
1052.219	2304.19
1055.498	2301.04
1058.778	2297.38
1062.057	2274.02
1065.335	2298.25
1068.614	2312.02
1071.892	2307.2
1075.17	2365
1078.447	2368.48
1081.724	2362.22
1085.001	2389.25
1088.278	2368.66
1091.554	2373.23
1094.83	2369.79
1098.106	2406.17
1101.382	2437.61
1104.657	2438.3
1107.932	2437.14
1111.206	2412.45
1114.481	2367.35
1117.755	2366.82
1121.029	2361.11
1124.302	2423.96
1127.575	2388.8
1130.848	2382.07
1134.121	2352.29
1137.393	2313.67
1140.665	2375.64
1143.937	2354.96
1147.208	2303.89
1150.48	2360.21
1153.75	2350.98
1157.021	2356.37
1160.291	2331.03
1163.561	2385.91
1166.831	2355.59
1170.101	2384.63
1173.37	2343.04
1176.639	2296.04
1179.907	2342.05
1183.176	2367.51
1186.444	2366.57
1189.711	2393.88
1192.979	2413.72
1196.246	2367.12
1199.513	2381.87
1202.78	2387.24
1206.046	2395.38
1209.312	2423.63
1212.578	2445.2
1215.843	2410.51
1219.108	2372.2
1222.373	2400.14
1225.638	2370.21
1228.902	2363.76
1232.166	2318.87
1235.43	2306.54
1238.693	2329.02
1241.956	2322.7
1245.219	2372.35
1248.482	2351.66
1251.744	2349.82
1255.006	2480.72
1258.268	2426.59
1261.529	2379.99
1264.79	2377.79
1268.051	2482.69
1271.312	2493.39
1274.572	2465.51
1277.832	2451.4
1281.092	2431.02
1284.351	2421.08
1287.61	2405.69
1290.869	2337.61
1294.128	2333.33
1297.386	2383.67
1300.644	2378.71
1303.902	2388.6
1307.159	2251.79
1310.416	2304.15
1313.673	2334.12
1316.93	2333.44
1320.186	2365.23
1323.442	2400.5
1326.697	2398.01
1329.953	2369.69
1333.208	2406.39
1336.463	2380.83
1339.717	2337.52
1342.972	2445.9
1346.226	2417.08
1349.479	2361.29
1352.733	2339.91
1355.986	2346.92
1359.238	2326.42
1362.491	2333.89
1365.743	2335.62
1368.995	2326.77
1372.247	2338.61
1375.498	2358.57
1378.749	2399.34
1382	2349.69
1385.251	2389.1
1388.501	2341.34
1391.751	2340.02
1395	2303.12
1398.25	2328.62
1401.499	2348.71
1404.748	2296.26
1407.996	2270.86
1411.244	2258.63
1414.492	2245.07
1417.74	2228.17
1420.987	2232.28
1424.234	2292.04
1427.481	2254.78
1430.728	2315.49
1433.974	2288.52
1437.22	2289.7
1440.465	2286.52
1443.711	2284.13
1446.956	2309.47
1450.201	2281.14
1453.445	2324.84
1456.689	2313.4
1459.933	2325.55
1463.177	2367.99
1466.42	2338.03
1469.663	2324.05
1472.906	2338.93
1476.148	2388.99
1479.391	2368.48
1482.633	2342.49
1485.874	2368.04
1489.115	2372.59
1492.356	2359.24
1495.597	2336.01
1498.838	2332.15
1502.078	2316.21
1505.318	2283.91
1508.557	2320.29
1511.797	2319.21
1515.036	2359.69
1518.274	2336.48
1521.513	2292.67
1524.751	2306.04
1527.989	2329.12
1531.227	2350.85
1534.464	2363.13
1537.701	2358.58
1540.938	2373.52
1544.174	2321.13
1547.41	2312
1550.646	2350.38
1553.882	2401.06
1557.117	2459.65
1560.352	2469.37
1563.587	2431.89
1566.821	2395.33
1570.055	2412.1
1573.289	2396.11
1576.523	2457.73
1579.756	2469.98
1582.989	2492.6
1586.222	2454.5
1589.454	2484.69
1592.686	2466.09
1595.918	2495.02
1599.15	2491.15
1602.381	2541.19
1605.612	2520.96
1608.843	2617.06
1612.073	2537.74
1615.303	2526.45
1618.533	2524.99
1621.762	2522.28
1624.992	2497.18
1628.221	2499.86
1631.449	2486.3
1634.678	2515.73
1637.906	2482.44
1641.134	2512.88
1644.361	2476.42
1647.588	2462.04
1650.815	2484.39
1654.042	2447.08
1657.269	2476.34
1660.495	2453.34
1663.72	2438.09
1666.946	2406.86
1670.171	2377.92
1673.396	2350.77
1676.621	2330.06
1679.845	2330.16
1683.069	2338.86
1686.293	2370.85
1689.517	2358.8
1692.74	2308.42
1695.963	2329.67
1699.185	2372.34
1702.408	2342.77
1705.63	2372.88
1708.852	2389.79
1712.073	2361.03
1715.294	2367.84
1718.515	2413.48
1721.736	2370.15
1724.956	2348.19
1728.176	2368.73
1731.396	2392.27
1734.616	2377.42
1737.835	2413.85
1741.054	2385.42
1744.272	2373.82
1747.491	2415.02
1750.709	2440.69
1753.927	2383.93
1757.144	2409.21
1760.361	2469.08
1763.578	2444.13
1766.795	2391.44
1770.011	2378.76
1773.227	2405.96
1776.443	2448.63
1779.658	2495.02
1782.874	2429.46
1786.089	2421.99
1789.303	2423.54
1792.518	2422.33
1795.732	2406.99
1798.945	2424.66
1802.159	2466.67
1805.372	2404.57
1808.585	2400.12
1811.797	2397.73
1815.01	2420.32
1818.222	2443.48
1821.434	2400.68
1824.645	2444.95
1827.856	2451.1
1831.067	2485.89
1834.278	2421.16
1837.488	2403.72
1840.698	2532.71
1843.908	2467.74
1847.117	2435.45
1850.326	2356.14
1853.535	2421.08
1856.744	2453.48
1859.952	2374.81
1863.16	2375.54
1866.368	2386.11
1869.575	2499.5
1872.782	2378.9
1875.989	2308
1879.196	2362.37
1882.402	2351.72
1885.608	2386.27
1888.814	2320.34
1892.019	2225.56
1895.224	2274.58
1898.429	2242.4
1901.634	2224.35
1904.838	2196.66
1908.042	2252.46
1911.246	2263.82
1914.449	2220.66
1917.652	2202.06
1920.855	2181.52
1924.058	2209.26
1927.26	2252.72
1930.462	2275.91
1933.664	2310.44
1936.865	2253.75
1940.066	2270.26
1943.267	2216.06
1946.467	2227.18
1949.668	2245.68
1952.868	2317.82
1956.067	2306.13
1959.267	2246.54
1962.466	2270.26
1965.665	2252.52
1968.863	2249.18
1972.061	2253.26
1975.259	2246.67
1978.457	2322.34
1981.654	2281.77
1984.852	2288.01
1988.048	2237.52
1991.245	2227.09
1994.441	2315.73
1997.637	2276.84
2000.833	2259.92
2004.028	2295.79
2007.223	2359.68
2010.418	2346.93
2013.613	2297.5
2016.807	2289.76
2020.001	2282.09
2023.194	2308.39
2026.388	2293.18
2029.581	2236.08
2032.774	2298.78
2035.966	2307.64
2039.158	2252.06
2042.35	2270.79
2045.542	2194.43
2048.733	2282.97
2051.924	2277.08
2055.115	2296.88
2058.306	2258.44
2061.496	2313.79
2064.686	2365.76
2067.875	2273.7
2071.065	2277.73
2074.254	2297.33
2077.442	2248.87
2080.631	2334.75
2083.819	2257.72
2087.007	2251.32
2090.195	2233.54
2093.382	2251.4
2096.569	2233.82
2099.756	2194.88
2102.942	2238.36
2106.128	2252.92
2109.314	2239.59
2112.5	2223.62
2115.685	2194.89
2118.87	2202.42
2122.055	2263.88
2125.239	2242.6
2128.424	2228.58
2131.608	2292.3
2134.791	2275.71
2137.974	2317.48
2141.157	2306.3
2144.34	2276.85
2147.523	2269.09
2150.705	2292.07
2153.887	2262.65
2157.068	2232.4
2160.25	2215.46
2163.431	2239.84
2166.611	2207.49
2169.792	2228.59
2172.972	2137.24
2176.152	2190.23
2179.331	2217.97
2182.511	2219.35
2185.69	2242.89
2188.868	2243.59
2192.047	2282.12
2195.225	2295.39
2198.403	2245.11
2201.58	2231.01
2204.758	2219.1
2207.935	2293.47
2211.111	2206.99
2214.288	2197.15
2217.464	2229.65
2220.64	2187.5
2223.815	2239.47
2226.991	2168.06
2230.166	2183.28
2233.34	2224.11
2236.515	2239.95
2239.689	2303.37
2242.863	2254.77
2246.036	2306.61
2249.209	2287.99
2252.382	2311.01
2255.555	2316.11
2258.727	2264.24
2261.9	2294.38
2265.071	2285.92
2268.243	2283.55
2271.414	2230.76
2274.585	2213.71
2277.756	2272.84
2280.926	2226.35
2284.096	2258.51
2287.266	2187.07
2290.436	2231.93
2293.605	2253.26
2296.774	2290.71
2299.942	2295.35
2303.111	2312.02
2306.279	2362.6
2309.447	2345.27
2312.614	2317.61
2315.781	2344.17
2318.948	2320.78
2322.115	2355.52
2325.281	2257.64
2328.447	2266.57
2331.613	2236.37
2334.779	2227.3
2337.944	2223.47
2341.109	2225
2344.274	2213.63
2347.438	2180.79
2350.602	2203.54
2353.766	2212.02
2356.929	2201.05
2360.092	2241.12
2363.255	2208.47
2366.418	2171.35
2369.58	2243.82
2372.742	2106.26
2375.904	2103.64
2379.066	2088.8
2382.227	2116.28
2385.388	2077.28
2388.548	2024.68
2391.709	2069.54
2394.869	2052.05
2398.029	2114.11
2401.188	2111.61
2404.347	2071.18
2407.506	2159.5
2410.665	2195.67
2413.823	2182.53
2416.981	2158.7
2420.139	2177.66
2423.296	2220.69
2426.453	2191.19
2429.61	2214.4
2432.767	2179.09
2435.923	2219.41
2439.079	2168.94
2442.235	2203.79
2445.391	2143.66
2448.546	2186.52
2451.701	2221.7
2454.855	2213.48
2458.009	2245.02
2461.163	2236.47
2464.317	2207.27
2467.471	2234.43
2470.624	2264.43
2473.777	2252.21
2476.929	2268.38
2480.082	2288.32
2483.234	2260.1
2486.385	2203.22
2489.537	2198.55
2492.688	2185.24
2495.839	2201.16
2498.989	2216.05
2502.14	2202.91
2505.29	2193.17
2508.439	2217.18
2511.589	2155.27
2514.738	2160.18
2517.887	2184.45
2521.035	2256.14
2524.183	2219.1
2527.331	2204.34
2530.479	2196.2
2533.627	2199.57
