Data from N_2_HIR_WI_4N_Splice17_12-32-52-547.txt Node
Date: Sat Mar 14 12:32:52 EDT 2020
User: sa697716
Spectrometer: FLMS03696
Trigger mode: 0
Integration Time (sec): 3.180400E-1
Scans to average: 20
Electric dark correction enabled: true
Nonlinearity correction enabled: true
Boxcar width: 5
XAxis mode: Wavelengths
Number of Pixels in Spectrum: 2048
>>>>>Begin Spectral Data<<<<<
187.83	-269297.96
188.298	2136.19
188.766	1218.1
189.233	1092.6
189.701	1469.1
190.169	1993.99
190.636	765.68
191.104	695.9
191.571	175
192.039	-30.73
192.506	16.83
192.974	587.51
193.441	-656.68
193.908	-10.65
194.375	16.83
194.842	54.91
195.31	102.04
195.777	176.84
196.244	424.56
196.711	526.21
197.177	625.27
197.644	890.47
198.111	1509.7
198.578	2113.32
199.045	1704.67
199.511	2796.83
199.978	3248.28
200.445	2779.75
200.911	3084.39
201.378	3445.99
201.844	3121.62
202.31	5403.27
202.777	5599
203.243	3134.37
203.709	3001.96
204.176	3569.31
204.642	2954.85
205.108	2779.86
205.574	2279.07
206.04	2079.23
206.506	1951.54
206.972	1851.44
207.438	1775.34
207.903	2020.02
208.369	1760.29
208.835	1760.37
209.301	1857.94
209.766	1896.68
210.232	1872.79
210.697	2309.95
211.163	2875.17
211.628	4367.91
212.094	3662.25
212.559	4489.51
213.024	2793.28
213.49	3417.63
213.955	3298.85
214.42	3219.68
214.885	3004.79
215.35	2897.81
215.815	2783.26
216.28	2950.26
216.745	2408.47
217.21	2633.33
217.675	2438.41
218.14	2770.49
218.604	3133.01
219.069	3640.81
219.534	3846.38
219.998	4511.83
220.463	5516.96
220.927	6875.22
221.392	6516.67
221.856	6642.16
222.32	8437.5
222.785	10477.17
223.249	13225.58
223.713	14828.21
224.177	14832.1
224.642	19117.28
225.106	23601.78
225.57	25863.69
226.034	19289.29
226.497	29494.37
226.961	26635.58
227.425	31023.25
227.889	34498.8
228.353	34605.55
228.816	71529.6
229.28	68623.88
229.744	57980.78
230.207	35314.15
230.671	34745.94
231.134	57559.33
231.597	66300.21
232.061	66527.83
232.524	64939.89
232.987	44776.99
233.45	40315.36
233.914	36193.7
234.377	37146.05
234.84	34010.35
235.303	40093.38
235.766	44833.38
236.229	46365.18
236.691	29263.06
237.154	32911.27
237.617	24793.16
238.08	25420.12
238.542	29786.92
239.005	21298.78
239.468	21137.27
239.93	19948.64
240.393	18146.2
240.855	15930.91
241.317	16322.78
241.78	19861.93
242.242	20508.36
242.704	22130.72
243.166	19259.62
243.629	17485.51
244.091	20165.76
244.553	22114.86
245.015	23759.26
245.477	30722.11
245.939	45041.17
246.4	47772.01
246.862	46441.66
247.324	43796.27
247.786	49044.8
248.247	64290.52
248.709	66393.86
249.17	49641.94
249.632	46714.13
250.093	54189.49
250.555	46782.72
251.016	28515.39
251.477	27037.77
251.939	29178.96
252.4	30621.34
252.861	36402.62
253.322	33846.02
253.783	40280.36
254.244	52209.89
254.705	41155.22
255.166	36551.95
255.627	35998.5
256.088	50725.98
256.549	53887.47
257.009	46337.08
257.47	56147.72
257.931	45685.16
258.391	34177.6
258.852	35230.3
259.312	36899.48
259.773	45591
260.233	38458.02
260.694	32395.76
261.154	36714.5
261.614	29411.56
262.074	26286.91
262.534	27295.47
262.994	25693.71
263.455	34229.05
263.915	28787.46
264.374	27098.37
264.834	29562.31
265.294	32763.69
265.754	33912.49
266.214	32121.29
266.673	30094.71
267.133	38006.7
267.593	37683.32
268.052	46134.49
268.512	40132.22
268.971	48417.42
269.431	53089.51
269.89	47531.3
270.349	71226.57
270.809	79477.32
271.268	71423.19
271.727	160250.33
272.186	103692.7
272.645	77784.55
273.104	56139.89
273.563	81244.17
274.022	63882.13
274.481	54371.05
274.94	41861.61
275.399	31119.62
275.857	36197.36
276.316	48931.1
276.775	43508.72
277.233	42852.15
277.692	40087.78
278.15	45300.71
278.609	46589.43
279.067	43078.36
279.525	39948.82
279.984	51596.38
280.442	61987.49
280.9	61070.64
281.358	40169.05
281.816	37432.22
282.274	36635.55
282.732	37881.74
283.19	38042.27
283.648	32801.74
284.106	34947.92
284.564	35581.58
285.021	33011.16
285.479	24601.22
285.937	22398.16
286.394	19644.96
286.852	20218.17
287.309	21242.18
287.767	20487.87
288.224	19484.39
288.682	21383.12
289.139	23439.39
289.596	21426.68
290.053	22239.13
290.511	28013.79
290.968	33934.06
291.425	46092.41
291.882	38313.56
292.339	33288.34
292.796	33042.88
293.252	31128.97
293.709	24741.5
294.166	22177.66
294.623	24521.44
295.079	23553.59
295.536	23688.28
295.992	21508.55
296.449	21239.4
296.905	22067.18
297.362	21182.46
297.818	22277.94
298.274	23110.13
298.731	23535.21
299.187	23308.51
299.643	25018.71
300.099	30226.25
300.555	33145.65
301.011	27703.94
301.467	26687.75
301.923	31263.85
302.379	30522.71
302.835	29989.61
303.291	30018.96
303.746	34165.67
304.202	43115.4
304.658	43302.3
305.113	29120.74
305.569	28524.88
306.024	30398.05
306.479	28961.36
306.935	24426.34
307.39	26702.99
307.845	24656.76
308.301	24833.88
308.756	24220.25
309.211	23358.47
309.666	23910.98
310.121	29688.65
310.576	30162.79
311.031	29966.25
311.486	34335.29
311.94	34345.44
312.395	45912.49
312.85	86400.79
313.305	424203.85
313.759	2194494.99
314.214	159081.76
314.668	126158.88
315.123	106058.36
315.577	38021.91
316.032	33801.25
316.486	42331.59
316.94	33316.02
317.394	23174.2
317.849	17974.78
318.303	17017.75
318.757	16053.37
319.211	17726.98
319.665	15506.25
320.119	15684.95
320.572	22505.26
321.026	21004.69
321.48	17487.78
321.934	19092.3
322.387	19123.51
322.841	20674.34
323.295	18579.12
323.748	21417.68
324.202	21710.52
324.655	26076.71
325.108	36510.78
325.562	25775.17
326.015	30680.03
326.468	23222.75
326.921	25970
327.374	24257.79
327.827	25293.13
328.28	28668.83
328.733	19202.83
329.186	16919
329.639	16151.72
330.092	13596.06
330.545	12948.87
330.997	13053.8
331.45	14250.47
331.903	16687.28
332.355	28697.48
332.808	27836.22
333.26	22959.29
333.713	24961.9
334.165	25172.69
334.617	33594.94
335.069	27175.95
335.522	49199.92
335.974	54497.74
336.426	49797.01
336.878	34581.28
337.33	17543.96
337.782	17158.02
338.234	21507.06
338.686	25717.16
339.137	30415.01
339.589	28632.75
340.041	22450.32
340.493	19305.82
340.944	19786.7
341.396	21339.72
341.847	17910.64
342.299	21142.25
342.75	25815.22
343.201	22558.87
343.653	25972.8
344.104	31981.04
344.555	25206.86
345.006	39282.88
345.457	30005.38
345.908	23865.58
346.359	22454.64
346.81	18339.74
347.261	19340.33
347.712	19016.22
348.163	20381.98
348.613	20606.81
349.064	19222.84
349.515	16818.08
349.965	17250.35
350.416	20827.66
350.866	22837.66
351.317	25809.64
351.767	42693.64
352.217	53944.47
352.668	44841.83
353.118	41137.83
353.568	39700.1
354.018	31395.82
354.468	33154.82
354.918	23753.84
355.368	20792.48
355.818	29442.72
356.268	84894.14
356.718	354903.83
357.168	88353.36
357.617	44366.14
358.067	49344.4
358.517	46250.58
358.966	54296.12
359.416	60794.11
359.865	65757.71
360.315	78237.01
360.764	36509.26
361.213	20432.93
361.663	19367.34
362.112	23924.94
362.561	38702.62
363.01	29187.86
363.459	24548.94
363.908	26577.1
364.357	22587.91
364.806	38180.27
365.255	26264.57
365.703	24023.74
366.152	24079.29
366.601	19549.42
367.05	15856.66
367.498	14395.91
367.947	15059.13
368.395	15691.69
368.844	13888.68
369.292	16751.89
369.74	11579.95
370.189	17744.2
370.637	20839.25
371.085	18002.63
371.533	21971.85
371.981	21230.68
372.429	20254.09
372.877	21117.95
373.325	17704.87
373.773	18065.09
374.221	16120.09
374.669	20025.93
375.116	17360.64
375.564	17537.75
376.012	19644.65
376.459	16235.09
376.907	19458.54
377.354	23595.08
377.801	22049.4
378.249	25392.29
378.696	32552.02
379.143	39545.67
379.591	42313.37
380.038	71838
380.485	51990.87
380.932	56242.97
381.379	51469.97
381.826	37934.05
382.273	27050.79
382.72	23715.25
383.166	23157.38
383.613	15062.65
384.06	13601.63
384.506	15773.65
384.953	11617.63
385.4	11751.32
385.846	10345.36
386.292	10125.23
386.739	9951.48
387.185	9865.56
387.631	9916.1
388.078	9676.52
388.524	10405.49
388.97	9652.96
389.416	8080.55
389.862	8603.33
390.308	8171.79
390.754	8328.91
391.2	9083.4
391.645	9331.82
392.091	8955.69
392.537	8677
392.983	8710.75
393.428	8587.62
393.874	9242.97
394.319	9293.13
394.765	8855.08
395.21	9150.61
395.655	8596.94
396.101	8064.06
396.546	7292.58
396.991	7384.01
397.436	6865.8
397.881	6654.8
398.326	6316.79
398.771	5982.77
399.216	5246.53
399.661	4731.53
400.106	4719.35
400.551	4835.41
400.995	4346.14
401.44	4306.25
401.885	4049.18
402.329	4098.11
402.774	3933.4
403.218	3807.06
403.663	3678.75
404.107	3783.68
404.551	3810.05
404.995	3492.75
405.44	3373.57
405.884	3434.66
406.328	3328.84
406.772	3323.36
407.216	3033.26
407.66	2936.79
408.104	2798.11
408.547	2619.4
408.991	2540.64
409.435	2452.92
409.879	2424.65
410.322	2395.9
410.766	2313.39
411.209	2200.18
411.653	2115.28
412.096	2072.42
412.54	2075.82
412.983	2061.99
413.426	2069.27
413.869	2067.52
414.312	2028.32
414.756	1956.05
415.199	1864.9
415.642	1809.5
416.085	1814.16
416.527	1801.83
416.97	1832.14
417.413	1737.1
417.856	1721.6
418.298	1702.21
418.741	1692.39
419.184	1689.8
419.626	1761.38
420.069	1764.72
420.511	1775.67
420.953	1738.86
421.396	1721.73
421.838	1677.26
422.28	1716.87
422.722	1724.07
423.164	1749.25
423.606	1719.71
424.048	1719.13
424.49	1632.08
424.932	1621.67
425.374	1602.13
425.816	1630.14
426.258	1661.54
426.699	1681.58
427.141	1656.25
427.582	1681.94
428.024	1674.18
428.465	1665.56
428.907	1624.23
429.348	1605.13
429.789	1605.97
430.231	1567.66
430.672	1585.77
431.113	1549.05
431.554	1523.74
431.995	1487.61
432.436	1433.34
432.877	1400.31
433.318	1374.84
433.759	1367.91
434.2	1367.85
434.64	1353.44
435.081	1359.13
435.522	1288.38
435.962	1240.18
436.403	1212.37
436.843	1227.54
437.284	1202.67
437.724	1172.6
438.164	1177.24
438.604	1151.65
439.045	1108.28
439.485	1061.83
439.925	1038.29
440.365	1015.55
440.805	1006.55
441.245	999.14
441.685	964.28
442.125	959.25
442.564	966.59
443.004	947.25
443.444	947.95
443.883	950.52
444.323	949.85
444.762	955.43
445.202	968.99
445.641	986.43
446.081	981.12
446.52	988.89
446.959	981.55
447.398	959.55
447.837	948.95
448.276	933.04
448.716	942.65
449.154	951.54
449.593	931.1
450.032	928.24
450.471	912.75
450.91	913.52
451.349	915.53
451.787	911.31
452.226	924.88
452.664	925.67
453.103	928.57
453.541	930.23
453.98	927.33
454.418	935.27
454.856	922.89
455.295	923.59
455.733	932.62
456.171	937.33
456.609	939.31
457.047	941.38
457.485	955.22
457.923	957.74
458.361	945.63
458.798	950.51
459.236	947.99
459.674	953
460.111	955.84
460.549	946.99
460.987	943.41
461.424	942.03
461.862	938.28
462.299	924.54
462.736	923.1
463.173	926.32
463.611	913.86
464.048	911.52
464.485	921.35
464.922	913.85
465.359	908.66
465.796	893.39
466.233	886.31
466.67	875.15
467.106	871.94
467.543	861.68
467.98	849.83
468.416	828.54
468.853	821.44
469.29	795.52
469.726	786.63
470.162	766.04
470.599	758.91
471.035	751.72
471.471	733.76
471.907	730.43
472.344	726.5
472.78	728.48
473.216	738.52
473.652	729.33
474.088	728.71
474.523	726.21
474.959	733.34
475.395	726.79
475.831	722.49
476.266	727.83
476.702	725.95
477.138	718.79
477.573	716.37
478.008	713.66
478.444	717.39
478.879	724.21
479.314	728
479.75	728.32
480.185	732.78
480.62	739.65
481.055	743.54
481.49	749.04
481.925	760.05
482.36	774.26
482.795	796.48
483.229	819.35
483.664	836.1
484.099	839.09
484.534	850.93
484.968	859.72
485.403	863.79
485.837	863.87
486.271	863.8
486.706	865.82
487.14	856.98
487.574	843.82
488.009	836.27
488.443	829.8
488.877	839.17
489.311	842.78
489.745	851.68
490.179	859.21
490.613	875.36
491.046	882.57
491.48	889.1
491.914	891.02
492.348	897.67
492.781	903.97
493.215	906.9
493.648	909.15
494.082	918.35
494.515	921.35
494.948	932.14
495.382	939.04
495.815	945.55
496.248	953.34
496.681	970.4
497.114	987.15
497.547	1001.21
497.98	1018.57
498.413	1027.21
498.846	1039.55
499.279	1050.81
499.711	1057.08
500.144	1060.73
500.577	1075.21
501.009	1091.21
501.442	1104.96
501.874	1106.95
502.306	1110.23
502.739	1120.67
503.171	1140.58
503.603	1144.99
504.036	1157.72
504.468	1166.33
504.9	1182.12
505.332	1191.67
505.764	1196.97
506.196	1206.13
506.627	1225.35
507.059	1242.96
507.491	1254.8
507.923	1252.06
508.354	1271.95
508.786	1285.36
509.217	1307.34
509.649	1324.83
510.08	1348.26
510.512	1368.12
510.943	1386.57
511.374	1399.49
511.805	1424.31
512.237	1446.84
512.668	1486.7
513.099	1519.52
513.53	1552.51
513.961	1576.27
514.391	1614.93
514.822	1654.6
515.253	1698.33
515.684	1728.01
516.114	1763.38
516.545	1785.66
516.975	1817.29
517.406	1836.94
517.836	1836.51
518.267	1840.69
518.697	1860.36
519.127	1863.64
519.558	1868.4
519.988	1869.76
520.418	1878.9
520.848	1896.53
521.278	1905.14
521.708	1915.44
522.138	1928.94
522.567	1965.8
522.997	1994.57
523.427	2010.86
523.857	2028.27
524.286	2040.06
524.716	2055.6
525.145	2076.63
525.575	2086.84
526.004	2101.95
526.433	2097.55
526.863	2094.23
527.292	2077.62
527.721	2082.84
528.15	2087.94
528.579	2086.98
529.008	2097.27
529.437	2124.84
529.866	2139.44
530.295	2159.36
530.724	2173.29
531.152	2206.2
531.581	2222.1
532.01	2243.57
532.438	2252.94
532.867	2270.94
533.295	2291.94
533.723	2298.82
534.152	2294.67
534.58	2294.12
535.008	2275.16
535.436	2277.05
535.865	2285.68
536.293	2303.91
536.721	2323.68
537.149	2353.77
537.576	2355.32
538.004	2370.94
538.432	2379.91
538.86	2378.3
539.287	2385.59
539.715	2402
540.143	2404.91
540.57	2399.49
540.998	2394.49
541.425	2364.81
541.852	2338.57
542.28	2335.66
542.707	2313.92
543.134	2296.53
543.561	2289.84
543.988	2281.11
544.415	2279.74
544.842	2272.18
545.269	2262.12
545.696	2262.68
546.123	2277.47
546.549	2264.32
546.976	2247.06
547.403	2247.18
547.829	2248.38
548.256	2249.84
548.682	2243.13
549.108	2231.79
549.535	2230.67
549.961	2232.38
550.387	2216.27
550.813	2209.42
551.24	2216.22
551.666	2218.48
552.092	2205.9
552.518	2197.27
552.943	2189.79
553.369	2200.29
553.795	2207.69
554.221	2209.25
554.646	2206.06
555.072	2218.08
555.498	2224.44
555.923	2236.72
556.349	2255.98
556.774	2266.75
557.199	2269.03
557.625	2276.62
558.05	2270.16
558.475	2282.54
558.9	2281.63
559.325	2272.01
559.75	2266.1
560.175	2257.99
560.6	2249.62
561.025	2246.79
561.449	2249.67
561.874	2257.75
562.299	2264.36
562.723	2274.22
563.148	2263.68
563.572	2269.16
563.997	2283.03
564.421	2290.51
564.846	2293.13
565.27	2299.91
565.694	2298.96
566.118	2315.22
566.542	2327.21
566.966	2320.99
567.39	2317.08
567.814	2307.11
568.238	2309.58
568.662	2317.99
569.086	2324.25
569.509	2335.53
569.933	2318.05
570.357	2309.75
570.78	2284.97
571.204	2270.19
571.627	2258.78
572.05	2256.89
572.474	2256.73
572.897	2241.37
573.32	2233.53
573.743	2222.26
574.166	2200.79
574.589	2202.63
575.012	2195.87
575.435	2195.9
575.858	2184.9
576.281	2171.66
576.704	2152.91
577.126	2139.02
577.549	2127.38
577.972	2114.85
578.394	2102.93
578.817	2094.03
579.239	2070.28
579.661	2053.26
580.084	2032.91
580.506	2016.8
580.928	2012.17
581.35	1999.72
581.772	1994.51
582.194	1978.54
582.616	1964.22
583.038	1946.35
583.46	1933.93
583.882	1931.35
584.303	1938.08
584.725	1933.54
585.147	1936.7
585.568	1951.76
585.99	1968.23
586.411	1978.73
586.833	1998.71
587.254	2001.59
587.675	2021.34
588.096	2039.2
588.518	2033.38
588.939	2013.01
589.36	2012.39
589.781	1999.69
590.202	1962.5
590.623	1951.06
591.043	1948.84
591.464	1932.08
591.885	1927.07
592.305	1920.21
592.726	1902.92
593.147	1905.07
593.567	1898.8
593.987	1889.43
594.408	1884.59
594.828	1884.75
595.248	1877.73
595.669	1853.13
596.089	1843.61
596.509	1835.28
596.929	1818.21
597.349	1819.42
597.769	1806.94
598.189	1798.49
598.608	1801.12
599.028	1804.31
599.448	1804.86
599.867	1789.55
600.287	1785.19
600.706	1780.24
601.126	1768.43
601.545	1766.22
601.965	1764.5
602.384	1757.34
602.803	1761.95
603.222	1755.15
603.641	1746.02
604.061	1740.66
604.48	1735.62
604.898	1747.1
605.317	1754.46
605.736	1757.8
606.155	1754.95
606.574	1744.94
606.992	1754.18
607.411	1748.37
607.829	1738.51
608.248	1735.24
608.666	1732.58
609.085	1732.23
609.503	1720.26
609.921	1711.95
610.339	1714.95
610.758	1715.22
611.176	1708.42
611.594	1695.95
612.012	1692.05
612.43	1697.7
612.847	1707.13
613.265	1709.01
613.683	1715.28
614.101	1718.2
614.518	1714.99
614.936	1701.92
615.353	1683.88
615.771	1679.91
616.188	1681.27
616.606	1676.6
617.023	1667.25
617.44	1649
617.857	1641.45
618.274	1631
618.691	1623.67
619.108	1611.25
619.525	1604.67
619.942	1613.06
620.359	1617.66
620.776	1611.24
621.192	1606.81
621.609	1603.87
622.026	1612.42
622.442	1618.86
622.859	1624.04
623.275	1615.34
623.691	1623.09
624.108	1637.92
624.524	1656.52
624.94	1656.95
625.356	1668.96
625.772	1686.25
626.188	1701.83
626.604	1704.13
627.02	1699.53
627.436	1695.9
627.852	1704.37
628.268	1720.16
628.683	1710.12
629.099	1699.48
629.514	1692.44
629.93	1698.4
630.345	1705.11
630.761	1700.61
631.176	1704.75
631.591	1697.46
632.007	1690.39
632.422	1688.84
632.837	1674.61
633.252	1670.33
633.667	1658.31
634.082	1647.19
634.497	1630.06
634.911	1603.79
635.326	1598.84
635.741	1578.35
636.155	1565.86
636.57	1568.22
636.984	1568.08
637.399	1571.77
637.813	1572.51
638.228	1571.22
638.642	1579.36
639.056	1568.38
639.47	1571.42
639.884	1563.05
640.298	1556.57
640.712	1557.03
641.126	1543.34
641.54	1533.59
641.954	1528.11
642.368	1514.66
642.781	1505.16
643.195	1483.22
643.609	1485.91
644.022	1479.55
644.436	1474.74
644.849	1459.23
645.262	1445.13
645.676	1447.64
646.089	1442.24
646.502	1422.22
646.915	1416.29
647.328	1396.15
647.741	1393.93
648.154	1376.58
648.567	1371.75
648.98	1354.17
649.393	1354.33
649.805	1350.66
650.218	1340.2
650.631	1319.14
651.043	1310.92
651.456	1300.91
651.868	1300.21
652.28	1321.71
652.693	1337.89
653.105	1345.42
653.517	1357.19
653.929	1357.11
654.341	1363.51
654.753	1346.81
655.165	1353.18
655.577	1348.49
655.989	1342.39
656.401	1331.47
656.813	1283.82
657.224	1256.86
657.636	1218.63
658.047	1195.02
658.459	1168.47
658.87	1154.47
659.282	1138.84
659.693	1110.92
660.104	1093.27
660.515	1075.03
660.926	1072.38
661.338	1067.32
661.749	1058.85
662.159	1046.13
662.57	1038.92
662.981	1033.88
663.392	1024.2
663.803	1028.25
664.213	1024.39
664.624	1017.14
665.035	1020.56
665.445	1002.41
665.855	992.09
666.266	981.25
666.676	978.14
667.086	965.56
667.497	961.61
667.907	952.59
668.317	938.74
668.727	933.92
669.137	932.77
669.547	927.88
669.956	929.41
670.366	930.86
670.776	932.26
671.186	936.52
671.595	939.54
672.005	943.02
672.414	940.94
672.824	938.99
673.233	943.69
673.642	946.53
674.052	948.64
674.461	950.29
674.87	956.19
675.279	951.86
675.688	953.26
676.097	955.81
676.506	951.24
676.915	969.25
677.323	971.98
677.732	969.36
678.141	968.53
678.549	955.94
678.958	954.86
679.366	954.03
679.775	959.96
680.183	972.79
680.592	979.59
681	987.77
681.408	980.24
681.816	990.9
682.224	1002.36
682.632	1015.3
683.04	1053.08
683.448	1084.83
683.856	1122.81
684.264	1168.41
684.671	1208.29
685.079	1259.78
685.487	1314.51
685.894	1390.81
686.302	1452.9
686.709	1504.61
687.116	1564.32
687.524	1612.79
687.931	1654.38
688.338	1688.45
688.745	1715.03
689.152	1749.35
689.559	1793.36
689.966	1838.94
690.373	1855.52
690.78	1898.13
691.187	1966.19
691.593	2015.79
692	2055.48
692.407	2116.51
692.813	2196.1
693.22	2257.61
693.626	2319.15
694.032	2367.94
694.439	2447.39
694.845	2506.18
695.251	2582.83
695.657	2650.54
696.063	2757.52
696.469	2834.29
696.875	2908.14
697.281	2944.04
697.687	2990.75
698.093	3029.15
698.498	3109.08
698.904	3166.71
699.31	3262.8
699.715	3327.27
700.12	3425.67
700.526	3438.63
700.931	3512.77
701.337	3565.56
701.742	3598.25
702.147	3689.08
702.552	3718.22
702.957	3780.44
703.362	3799.01
703.767	3826.01
704.172	3868.64
704.577	3810.2
704.981	3859.51
705.386	3876.05
705.791	3863.43
706.195	3946.26
706.6	3952.63
707.004	4039.77
707.408	4003.44
707.813	4032.95
708.217	4018.08
708.621	4016.3
709.025	4126.35
709.43	4124.64
709.834	4188.89
710.237	4265.8
710.641	4245
711.045	4267.9
711.449	4260.24
711.853	4290.35
712.256	4334.32
712.66	4374.68
713.064	4458.88
713.467	4501.88
713.87	4625.91
714.274	4674.93
714.677	4796.93
715.08	4980.18
715.484	5167.88
715.887	5394.93
716.29	5618.68
716.693	5852.95
717.096	6122
717.499	6265.5
717.901	6292.24
718.304	6323.32
718.707	6352.41
719.109	6233.36
719.512	6189.71
719.915	6037.92
720.317	5969.68
720.719	6017.42
721.122	5981.87
721.524	5922.09
721.926	5874.44
722.328	5986.85
722.731	5976.38
723.133	6003.98
723.535	6220.37
723.937	6245.79
724.338	6300.93
724.74	6347.7
725.142	6264.62
725.544	6262.02
725.945	6290.37
726.347	6285.57
726.748	6273.75
727.15	6286.56
727.551	6243.89
727.952	6212.61
728.354	6177.39
728.755	6177.48
729.156	6130.77
729.557	6125.92
729.958	5986.98
730.359	5923.96
730.76	5900.33
731.161	5836.23
731.562	5806.67
731.962	5811
732.363	5736.97
732.763	5666.98
733.164	5706.02
733.564	5628.85
733.965	5520.72
734.365	5482.3
734.766	5513.03
735.166	5469.28
735.566	5404.35
735.966	5373.21
736.366	5366.05
736.766	5299.57
737.166	5333.79
737.566	5285.69
737.966	5257.88
738.365	5300.08
738.765	5294.96
739.165	5213.36
739.564	5184.85
739.964	5235.12
740.363	5182.98
740.763	5178.61
741.162	5164.53
741.561	5129.5
741.96	5079
742.36	5099.59
742.759	5103.87
743.158	5143.79
743.557	5160.82
743.955	5204.68
744.354	5154.98
744.753	5221.1
745.152	5174.2
745.55	5232.16
745.949	5223.55
746.348	5226.86
746.746	5247.17
747.144	5204.92
747.543	5181.08
747.941	5234.12
748.339	5158.09
748.737	5149.88
749.136	5136.11
749.534	5207.67
749.932	5177.03
750.33	5203.32
750.727	5263.39
751.125	5235.5
751.523	5217.64
751.921	5265.35
752.318	5226.54
752.716	5291.19
753.113	5306.76
753.511	5337.21
753.908	5337.59
754.305	5318.49
754.703	5387.96
755.1	5453.66
755.497	5518.69
755.894	5728.28
756.291	5925.89
756.688	6288.67
757.085	6773.58
757.482	7456
757.878	8199.66
758.275	8871.44
758.672	9801.84
759.068	10556.3
759.465	11637.4
759.861	13027.28
760.258	14637.65
760.654	15471.76
761.05	15352.48
761.447	14650.1
761.843	13634.6
762.239	12587.28
762.635	12115.09
763.031	11655.52
763.427	10999.04
763.822	10309.11
764.218	9629.21
764.614	8745.8
765.01	8159.57
765.405	7778
765.801	7486.15
766.196	7114.24
766.592	6910.23
766.987	6565.18
767.382	6333.12
767.778	6234.32
768.173	6093.97
768.568	6013.82
768.963	5880.63
769.358	5897.62
769.753	5845.53
770.148	5754.23
770.542	5755.5
770.937	5722.35
771.332	5826.53
771.726	5847.92
772.121	5778.26
772.515	5838.24
772.91	5823.53
773.304	5902.74
773.699	5829.86
774.093	5890.55
774.487	5954.25
774.881	6006.2
775.275	6001.34
775.669	5953.08
776.063	6002.56
776.457	6044.75
776.851	5964.52
777.245	5957.3
777.638	5995.92
778.032	6124.08
778.425	6084.21
778.819	6129.59
779.212	6079.63
779.606	6036.39
779.999	6061.1
780.392	6044.24
780.786	6134.58
781.179	6155.19
781.572	6206
781.965	6220.44
782.358	6156.16
782.751	6218.99
783.143	6165.1
783.536	6248.41
783.929	6297.99
784.322	6421.14
784.714	6452.92
785.107	6449.11
785.499	6529.08
785.891	6500.62
786.284	6478.91
786.676	6637.28
787.068	6617.88
787.46	6676.72
787.852	6694.84
788.245	6791.43
788.636	6824.88
789.028	6899.15
789.42	6942.72
789.812	6953.4
790.204	7063.4
790.595	7175.9
790.987	6957.58
791.378	6981
791.77	7121.39
792.161	7271.59
792.553	7325.59
792.944	7200.93
793.335	7126.48
793.726	7205.24
794.117	7304.11
794.508	7452.71
794.899	7414.44
795.29	7569.76
795.681	7630.29
796.072	7472.88
796.463	7268.05
796.853	7278.87
797.244	7452.33
797.634	7490.78
798.025	7487.97
798.415	7499.59
798.806	7596.5
799.196	7690.21
799.586	7745.76
799.976	7706.4
800.366	7960.25
800.756	8229.76
801.146	8185.96
801.536	8221.94
801.926	8302.84
802.316	8336.83
802.706	8419.19
803.095	8284.12
803.485	8395.18
803.874	8444.73
804.264	8730.41
804.653	8709.16
805.043	8867.65
805.432	8992.53
805.821	8995.05
806.21	9014.4
806.599	9140.55
806.988	9190.24
807.377	9311.54
807.766	9458.71
808.155	9768.75
808.544	9478.4
808.933	9490.07
809.321	9468.12
809.71	9791.05
810.098	9963.71
810.487	10479.42
810.875	11012.63
811.264	11036.17
811.652	11354.34
812.04	11511.8
812.428	11692.21
812.816	12539.8
813.204	13004.12
813.592	13612.64
813.98	13988.16
814.368	13886.24
814.756	14422.63
815.144	14340.68
815.531	14863.89
815.919	14787.63
816.306	15127.45
816.694	14790.07
817.081	14847.95
817.469	15239.06
817.856	15238.65
818.243	15537.65
818.63	15973.66
819.017	15506.06
819.404	15574.81
819.791	15994.34
820.178	16674.83
820.565	16948.6
820.952	17975.93
821.339	17427.82
821.725	17627.95
822.112	16812.61
822.498	16771.49
822.885	16918.58
823.271	16812.5
823.657	17277.48
824.044	17288.52
824.43	17372.11
824.816	17351.46
825.202	16873.35
825.588	18004.96
825.974	18018.29
826.36	18581
826.746	18612.95
827.132	19000.59
827.517	18968.29
827.903	18096.69
828.289	18129.86
828.674	17272.65
829.06	17152.07
829.445	17587.14
829.83	17980.99
830.216	18505.43
830.601	18910.07
830.986	18462.27
831.371	18308.61
831.756	18927.89
832.141	18450.12
832.526	18446.44
832.911	18753.74
833.295	18624.25
833.68	19144.89
834.065	18454.79
834.449	17450.85
834.834	17369.56
835.218	17367.24
835.603	17747.66
835.987	17516.15
836.371	18434.73
836.755	18319.63
837.139	18755.21
837.524	19024.53
837.908	18826.51
838.291	18902.31
838.675	18973.55
839.059	19208.43
839.443	19192.18
839.827	18939.79
840.21	19466.61
840.594	19308.76
840.977	19537.78
841.361	19523.18
841.744	19933.39
842.127	19760.37
842.511	20027.41
842.894	20689.01
843.277	21102.72
843.66	21707.93
844.043	21796.19
844.426	20907.34
844.809	20563.37
845.191	20595.54
845.574	20086.21
845.957	19684.54
846.339	19572.2
846.722	18993.07
847.104	19066.75
847.487	18881.45
847.869	18892.51
848.252	19205.57
848.634	19569.69
849.016	19863.69
849.398	20009.86
849.78	20951.56
850.162	20963.04
850.544	21417.41
850.926	22108.3
851.307	22017.4
851.689	22313.35
852.071	22812.84
852.452	23165.79
852.834	23138.65
853.215	23579.67
853.597	23746.76
853.978	24064.03
854.359	24565.14
854.741	23468.27
855.122	23351.17
855.503	23030.95
855.884	23193.35
856.265	23130.02
856.646	23261.34
857.026	22832.87
857.407	22756.35
857.788	22926.26
858.169	23248.36
858.549	22303.53
858.93	22988.9
859.31	23051.58
859.69	23282.56
860.071	22835.86
860.451	22587.7
860.831	21776.25
861.211	23054.83
861.591	23656.7
861.971	23628.48
862.351	23830.22
862.731	24259.6
863.111	24555.05
863.491	24928.18
863.87	25895.46
864.25	26277.42
864.629	25844.47
865.009	26391.03
865.388	27336.15
865.768	29299.37
866.147	29185.26
866.526	27576.05
866.905	27905.78
867.284	29476.9
867.663	27972.32
868.042	26813.62
868.421	26726.68
868.8	27169.82
869.179	27447.76
869.558	25840.31
869.936	23805.67
870.315	24229.87
870.693	24821.14
871.072	26766.47
871.45	25491.45
871.828	25812.84
872.207	27128.35
872.585	26718.71
872.963	27440.81
873.341	26499.65
873.719	26184.11
874.097	25883.26
874.475	26375.04
874.853	26983.75
875.23	25861.7
875.608	26933.67
875.986	29151.64
876.363	27873.41
876.741	28729.3
877.118	28012.09
877.495	29378.56
877.873	29865.19
878.25	31421.98
878.627	30131.68
879.004	30550.44
879.381	30399.87
879.758	29601.86
880.135	27554.32
880.512	29137.76
880.889	28358.8
881.265	28058.39
881.642	27827.64
882.019	28306.2
882.395	27727.58
882.772	28832.78
883.148	27575.35
883.524	27467.19
883.901	27305.94
884.277	27714.16
884.653	27541.93
885.029	28336.01
885.405	31377.17
885.781	31126.75
886.157	29854.93
886.532	30218.96
886.908	30199.16
887.284	33588.47
887.659	34671.75
888.035	35755.97
888.411	36671.56
888.786	37151.14
889.161	38430.32
889.537	37734.69
889.912	38959.02
890.287	38899.23
890.662	39912.63
891.037	39176.4
891.412	36525.23
891.787	36160.36
892.162	34904.9
892.536	35732.07
892.911	34402.24
893.286	33692.02
893.66	32323.58
894.035	33138.71
894.409	36102.21
894.784	34647.76
895.158	35238.64
895.532	37343.38
895.906	38376.36
896.281	39292.34
896.655	38662.45
897.029	44162.98
897.402	45968.54
897.776	51191.93
898.15	51008.34
898.524	50434.31
898.898	51100.75
899.271	57226.06
899.645	49540.64
900.018	47586.95
900.392	49319.5
900.765	49726.46
901.138	46021.19
901.511	45337.3
901.884	41624.6
902.258	38403.96
902.631	39693.51
903.003	45665.41
903.376	41181.29
903.749	46175.85
904.122	49438.28
904.495	54456.01
904.867	55120.74
905.24	47872.22
905.612	44543.87
905.985	45531.84
906.357	47620.1
906.729	45462.34
907.102	38846.63
907.474	37364.41
907.846	37621.73
908.218	37118.56
908.59	32780.35
908.962	31702.47
909.334	34119.16
909.705	35838.38
910.077	34791.49
910.449	36193.76
910.82	37194.99
911.192	40931.71
911.563	42530.38
911.935	45468.96
912.306	45516.51
912.677	47019.88
913.048	46544.87
913.419	50494.61
913.79	50789.95
914.161	54469.02
914.532	52068.94
914.903	47839.83
915.274	45409.75
915.645	44750.39
916.015	39398.41
916.386	37562.48
916.756	39965.45
917.127	41234.24
917.497	36835.92
917.868	40085.7
918.238	38091.38
918.608	39189.43
918.978	40008.01
919.348	42366.72
919.718	43753.34
920.088	42137.69
920.458	43768.67
920.828	46053.98
921.198	43618.38
921.567	46604.14
921.937	36092.55
922.306	36431.7
922.676	39274.8
923.045	32763.41
923.415	31120.05
923.784	28346.34
924.153	29134.28
924.522	29107.53
924.891	27371.32
925.26	29333.87
925.629	28647.74
925.998	32932.76
926.367	32139.12
926.736	30606.52
927.104	36414.66
927.473	39151.46
927.842	47276.01
928.21	46848.55
928.578	49244.99
928.947	46541.77
929.315	46820.85
929.683	54863.55
930.051	55301.49
930.42	64205.24
930.788	54900.52
931.156	54513.02
931.523	51095.66
931.891	47193.81
932.259	45310.64
932.627	52506.23
932.994	74314.77
933.362	61452.32
933.729	53389.16
934.097	51115.56
934.464	43274.41
934.831	49913.21
935.199	49207.04
935.566	47754.75
935.933	48494.56
936.3	58772.72
936.667	45755.79
937.034	41252.83
937.401	40789.4
937.767	35184.83
938.134	31313.74
938.501	44173.6
938.867	47088.69
939.234	79634.23
939.6	67883.39
939.967	74653.78
940.333	49933.09
940.699	42527.18
941.065	34162.28
941.431	44773.06
941.798	43224.17
942.163	56761.03
942.529	35470.05
942.895	32653.11
943.261	21113.55
943.627	27701.83
943.992	24253.38
944.358	24302.4
944.723	24373.09
945.089	23755.22
945.454	21949.43
945.82	23439.59
946.185	22537.45
946.55	26135.15
946.915	23429.54
947.28	27499.4
947.645	24203.7
948.01	22335.57
948.375	23291.05
948.74	27917.85
949.104	32537.04
949.469	47044.87
949.834	83134.65
950.198	78819.15
950.562	47187.67
950.927	39306.47
951.291	47288.91
951.655	40301.03
952.02	37825.85
952.384	28606.73
952.748	24920.79
953.112	24311.89
953.476	21142.45
953.839	19532.39
954.203	19308.5
954.567	24148.52
954.931	38025.93
955.294	32518.05
955.658	32699.25
956.021	55639.99
956.385	94344.33
956.748	139200.81
957.111	215775.31
957.474	241947.08
957.837	272501.66
958.2	206308.13
958.563	74203.18
958.926	50172.54
959.289	76122.23
959.652	85063.32
960.015	63826.12
960.377	91557.9
960.74	104383.94
961.102	180424.81
961.465	193724.97
961.827	103724.68
962.189	199084.04
962.552	137882.33
962.914	110529.63
963.276	71758.95
963.638	59260.29
964	58667.86
964.362	39622.72
964.724	38297.86
965.085	27283.07
965.447	22374.24
965.809	25527.03
966.17	25565.84
966.532	27676.59
966.893	25405.61
967.255	23096.02
967.616	27265.22
967.977	21827.85
968.338	23842.87
968.699	19608.47
969.061	19603.72
969.421	19731.03
969.782	22137.45
970.143	18681.05
970.504	19341.93
970.865	21957.84
971.225	22431.9
971.586	21942.64
971.946	31263.03
972.307	27165.46
972.667	35539.37
973.027	36583.37
973.388	44355.58
973.748	30149.52
974.108	32816.44
974.468	44384.83
974.828	34230.52
975.188	26371.99
975.548	24227.49
975.907	20347.45
976.267	22804.61
976.627	19147.49
976.986	19860.72
977.346	18932.48
977.705	18206.99
978.064	16580.74
978.424	13801.34
978.783	14271.46
979.142	16293.17
979.501	15579.9
979.86	16456.95
980.219	15830
980.578	20423.2
980.937	22836.13
981.296	20337.66
981.654	20903.47
982.013	32535.28
982.371	42195.74
982.73	39416.79
983.088	44627.85
983.447	47691.49
983.805	68215.17
984.163	142815.96
984.521	158133.14
984.879	232126.94
985.237	-377610.16
985.595	364067.34
985.953	90594.1
986.311	52314.89
986.669	30383
987.026	26183.73
987.384	35153.56
987.741	36303.31
988.099	25913.52
988.456	20654.16
988.814	19305.59
989.171	16780.9
989.528	16569.79
989.885	17463.02
990.242	13851.1
990.599	17249.77
990.956	14120.26
991.313	9890.79
991.67	8120.89
992.027	8611.76
992.383	7648.81
992.74	6710.75
993.096	7041.45
993.453	7295.39
993.809	7567.39
994.165	10056.2
994.522	9208.68
994.878	10160.98
995.234	12736.57
995.59	12556.91
995.946	11894.27
996.302	13581.48
996.658	15696.72
997.013	17299.26
997.369	20534.96
997.725	26268.04
998.08	17033.66
998.436	26252.25
998.791	36152.71
999.147	36167.31
999.502	39450.57
999.857	28703.59
1000.212	46781.47
1000.567	66639.82
1000.922	38394.7
1001.277	24361.26
1001.632	18067.43
1001.987	23292.1
1002.342	16709.85
1002.696	13368.79
1003.051	10649.74
1003.406	12923.27
1003.76	12839.35
1004.114	12672.21
1004.469	10661.85
1004.823	8851.07
1005.177	9565.05
1005.531	7577.37
1005.885	6708.31
1006.239	7571.6
1006.593	9505.24
1006.947	12715.16
1007.301	9527.72
1007.655	10400.29
1008.008	7626.53
1008.362	8561.92
1008.715	12181.91
1009.069	11038.75
1009.422	16603.16
1009.776	33296.56
1010.129	22162.62
1010.482	18502.71
1010.835	15673.6
1011.188	32708.64
1011.541	30781.95
1011.894	-188260.74
1012.247	554604.44
1012.6	37718.67
1012.952	23839.39
1013.305	12291.1
1013.657	8896.57
1014.01	8407.47
1014.362	6935.08
1014.715	6154.13
1015.067	5349.16
1015.419	5215.5
1015.771	4623.84
1016.123	4114.81
1016.475	4233.07
1016.827	4514.38
1017.179	4854.26
1017.531	4875.79
1017.883	4975.83
1018.234	4793.38
1018.586	6038.93
1018.938	6397.98
1019.289	8855.65
1019.64	10144.02
1019.992	9430.47
1020.343	8635.79
1020.694	6814.82
1021.045	6027.66
1021.396	6878
1021.747	7363.06
1022.098	8872.29
1022.449	6458.77
1022.8	5983.86
1023.151	4149.26
1023.501	3668.26
1023.852	3976.31
1024.202	4126.33
1024.553	4544
1024.903	4446.99
1025.253	3804.59
1025.604	3443.29
1025.954	4272.29
1026.304	5184.49
1026.654	6057.26
1027.004	8912.33
1027.354	14440.27
1027.703	13703.93
1028.053	18078.06
1028.403	26048.25
1028.753	37569.06
1029.102	51298.76
1029.452	263394.53
1029.801	11380.4
1030.15	7370.14
1030.499	6229.54
897.758	2743.65
901.051	2705.2
904.343	2743.49
907.636	2743.31
910.928	2809.17
914.22	2717.61
917.511	2726.21
920.803	2794.99
924.094	2817.37
927.384	2792.78
930.675	2757.19
933.965	2710.17
937.255	2718.9
940.544	2685.43
943.834	2614.4
947.123	2560.4
950.411	2656.99
953.7	2628.94
956.988	2595.43
960.276	2536.51
963.563	2623.32
966.851	2618.28
970.138	2679.62
973.424	2668.82
976.711	2616.67
979.997	2765.29
983.283	2795.51
986.568	2696.41
989.853	2720.72
993.138	2744.16
996.423	2826.48
999.708	2758.61
1002.992	2830.18
1006.275	2651.35
1009.559	2704.22
1012.842	2823.41
1016.125	2754.19
1019.408	2734.22
1022.69	2828.35
1025.972	2840
1029.254	2816.45
1032.536	2744.11
1035.817	2776.25
1039.098	2709.54
1042.379	2872.22
1045.659	2867.07
1048.939	2796.08
1052.219	2817.4
1055.498	2832.48
1058.778	2813.89
1062.057	2801.49
1065.335	2821.85
1068.614	2841.38
1071.892	2820.58
1075.17	2903.23
1078.447	2893.05
1081.724	2879.74
1085.001	2919.23
1088.278	2891.68
1091.554	2909.62
1094.83	2905.63
1098.106	2933.35
1101.382	2980.47
1104.657	2983.09
1107.932	2975.09
1111.206	2940.78
1114.481	2893.37
1117.755	2901.18
1121.029	2877.76
1124.302	2933.07
1127.575	2876.11
1130.848	2862.68
1134.121	2819.43
1137.393	2768.57
1140.665	2837.19
1143.937	2814.57
1147.208	2773.41
1150.48	2811.6
1153.75	2794.61
1157.021	2833.19
1160.291	2798.67
1163.561	2845.15
1166.831	2837.25
1170.101	2873.81
1173.37	2848.96
1176.639	2790.07
1179.907	2852.17
1183.176	2856.33
1186.444	2865.52
1189.711	2894.48
1192.979	2904.25
1196.246	2861.54
1199.513	2880.38
1202.78	2878.77
1206.046	2886.02
1209.312	2911.1
1212.578	2938.04
1215.843	2886.79
1219.108	2865.42
1222.373	2889.3
1225.638	2850.05
1228.902	2831.8
1232.166	2796.27
1235.43	2778.01
1238.693	2800.63
1241.956	2799.98
1245.219	2838.57
1248.482	2829.21
1251.744	2823.86
1255.006	2977.91
1258.268	2929.91
1261.529	2872.76
1264.79	2881.61
1268.051	2990.06
1271.312	3007.83
1274.572	2967.7
1277.832	2956.5
1281.092	2948.77
1284.351	2920.49
1287.61	2898.3
1290.869	2806.24
1294.128	2780.99
1297.386	2877.97
1300.644	2863.82
1303.902	2875.94
1307.159	2730.9
1310.416	2787.99
1313.673	2811.4
1316.93	2795.2
1320.186	2845.56
1323.442	2890.64
1326.697	2876.31
1329.953	2871.27
1333.208	2890.77
1336.463	2874.61
1339.717	2808.29
1342.972	2950.25
1346.226	2928.84
1349.479	2857.62
1352.733	2825.48
1355.986	2852.47
1359.238	2826.06
1362.491	2826.13
1365.743	2832.07
1368.995	2828.35
1372.247	2840.45
1375.498	2867.46
1378.749	2874.55
1382	2830.19
1385.251	2887.59
1388.501	2849.66
1391.751	2828.48
1395	2800.78
1398.25	2838.36
1401.499	2839.83
1404.748	2761.95
1407.996	2754.62
1411.244	2737.36
1414.492	2718.56
1417.74	2695.11
1420.987	2704.69
1424.234	2760.85
1427.481	2741.31
1430.728	2804.68
1433.974	2775.82
1437.22	2795.29
1440.465	2800.07
1443.711	2755.5
1446.956	2791.88
1450.201	2785.9
1453.445	2829.16
1456.689	2806.61
1459.933	2822.66
1463.177	2857.65
1466.42	2823.62
1469.663	2804.86
1472.906	2793.22
1476.148	2878.38
1479.391	2830.69
1482.633	2804.13
1485.874	2808.14
1489.115	2794.69
1492.356	2805.25
1495.597	2777.79
1498.838	2780.44
1502.078	2746.96
1505.318	2693.09
1508.557	2739.08
1511.797	2704.91
1515.036	2787.99
1518.274	2777.81
1521.513	2752.88
1524.751	2775.93
1527.989	2785.52
1531.227	2797.92
1534.464	2789.5
1537.701	2817.12
1540.938	2837.02
1544.174	2789.91
1547.41	2791.93
1550.646	2832.62
1553.882	2869.96
1557.117	2922.37
1560.352	2941.06
1563.587	2896.73
1566.821	2855.21
1570.055	2892.07
1573.289	2862.23
1576.523	2943.38
1579.756	2951.32
1582.989	2968.3
1586.222	2929.49
1589.454	2965.84
1592.686	2942.27
1595.918	2964.55
1599.15	2952.85
1602.381	3033.47
1605.612	2984.94
1608.843	3085.41
1612.073	2992.83
1615.303	2972.27
1618.533	2963.68
1621.762	2963.56
1624.992	2955.15
1628.221	2936.69
1631.449	2922.52
1634.678	2985.68
1637.906	2937.24
1641.134	2979.1
1644.361	2930.05
1647.588	2918.43
1650.815	2936.65
1654.042	2917.84
1657.269	2950.77
1660.495	2896.72
1663.72	2908.66
1666.946	2872.43
1670.171	2807.87
1673.396	2782.56
1676.621	2775.56
1679.845	2798.28
1683.069	2822.52
1686.293	2866.69
1689.517	2835.38
1692.74	2760.18
1695.963	2791.13
1699.185	2817.3
1702.408	2790.19
1705.63	2835.1
1708.852	2845.6
1712.073	2817
1715.294	2798.4
1718.515	2860.3
1721.736	2806.2
1724.956	2798.59
1728.176	2824.69
1731.396	2848.18
1734.616	2837.26
1737.835	2863.16
1741.054	2846.36
1744.272	2841.61
1747.491	2868
1750.709	2927.68
1753.927	2825.27
1757.144	2873.58
1760.361	2915.06
1763.578	2909.98
1766.795	2848.82
1770.011	2858.18
1773.227	2904.19
1776.443	2935.88
1779.658	2980.59
1782.874	2924.51
1786.089	2900.33
1789.303	2903.02
1792.518	2910.37
1795.732	2896.85
1798.945	2903.42
1802.159	2957.74
1805.372	2850.31
1808.585	2833.09
1811.797	2834.4
1815.01	2887.72
1818.222	2885.57
1821.434	2846.51
1824.645	2909.31
1827.856	2886.97
1831.067	2923.21
1834.278	2887.71
1837.488	2867.19
1840.698	3025.06
1843.908	2943.18
1847.117	2906.24
1850.326	2780.88
1853.535	2891.96
1856.744	2931.39
1859.952	2842.22
1863.16	2846.75
1866.368	2868.08
1869.575	2972.67
1872.782	2858.21
1875.989	2795.17
1879.196	2887.19
1882.402	2878.61
1885.608	2921.03
1888.814	2818.78
1892.019	2707.3
1895.224	2760.99
1898.429	2742.58
1901.634	2721.46
1904.838	2699.32
1908.042	2746.63
1911.246	2755.71
1914.449	2680.65
1917.652	2680.65
1920.855	2663.45
1924.058	2716.47
1927.26	2752.82
1930.462	2783.85
1933.664	2808.33
1936.865	2743.58
1940.066	2747.69
1943.267	2696.69
1946.467	2711.3
1949.668	2740.88
1952.868	2809.09
1956.067	2784.45
1959.267	2712.51
1962.466	2741.33
1965.665	2725.05
1968.863	2719.34
1972.061	2738.3
1975.259	2737.13
1978.457	2816.98
1981.654	2774.93
1984.852	2774.35
1988.048	2702.08
1991.245	2706.94
1994.441	2795.51
1997.637	2786.47
2000.833	2769.35
2004.028	2808.96
2007.223	2863.59
2010.418	2836.96
2013.613	2800.97
2016.807	2766.37
2020.001	2777.12
2023.194	2821.18
2026.388	2796.77
2029.581	2742.46
2032.774	2786.11
2035.966	2788.53
2039.158	2719.54
2042.35	2746
2045.542	2677.83
2048.733	2778.64
2051.924	2808.32
2055.115	2837.16
2058.306	2779.42
2061.496	2841.75
2064.686	2904.88
2067.875	2821.55
2071.065	2841.41
2074.254	2868.16
2077.442	2819.23
2080.631	2911.49
2083.819	2796.74
2087.007	2775.06
2090.195	2742.95
2093.382	2783.13
2096.569	2760.21
2099.756	2711.47
2102.942	2732.73
2106.128	2731.8
2109.314	2730.03
2112.5	2688.67
2115.685	2663.31
2118.87	2673.6
2122.055	2740.8
2125.239	2706.69
2128.424	2674.77
2131.608	2786.25
2134.791	2771.45
2137.974	2834.37
2141.157	2820.85
2144.34	2763.94
2147.523	2786.05
2150.705	2798.71
2153.887	2782.46
2157.068	2727.95
2160.25	2730.14
2163.431	2772.99
2166.611	2715.25
2169.792	2726.78
2172.972	2618.13
2176.152	2701.15
2179.331	2738.17
2182.511	2713.74
2185.69	2745.64
2188.868	2733.54
2192.047	2793.82
2195.225	2780.24
2198.403	2728.87
2201.58	2721.08
2204.758	2721.63
2207.935	2803.96
2211.111	2685.62
2214.288	2670.08
2217.464	2709.26
2220.64	2684.45
2223.815	2743.41
2226.991	2661.18
2230.166	2681.88
2233.34	2710.23
2236.515	2737.39
2239.689	2810.92
2242.863	2754.59
2246.036	2814.71
2249.209	2815.88
2252.382	2855.59
2255.555	2837.89
2258.727	2773.06
2261.9	2815.03
2265.071	2807
2268.243	2809.05
2271.414	2739.25
2274.585	2695.49
2277.756	2765.55
2280.926	2719.95
2284.096	2764.15
2287.266	2667.51
2290.436	2723.66
2293.605	2753.44
2296.774	2781.75
2299.942	2808.46
2303.111	2822.74
2306.279	2871.01
2309.447	2862.25
2312.614	2838.14
2315.781	2854.89
2318.948	2825.62
2322.115	2863.2
2325.281	2764.18
2328.447	2787.51
2331.613	2764.6
2334.779	2731.94
2337.944	2740.82
2341.109	2735.41
2344.274	2713.94
2347.438	2677.08
2350.602	2706.77
2353.766	2720.29
2356.929	2705.39
2360.092	2752.45
2363.255	2699.33
2366.418	2625.62
2369.58	2747.47
2372.742	2515.89
2375.904	2534.7
2379.066	2507.43
2382.227	2547.63
2385.388	2509.69
2388.548	2430.88
2391.709	2490.92
2394.869	2462.76
2398.029	2570.18
2401.188	2588.04
2404.347	2515.93
2407.506	2670.73
2410.665	2701.04
2413.823	2710.99
2416.981	2660.87
2420.139	2695.82
2423.296	2749.89
2426.453	2720.49
2429.61	2750.49
2432.767	2677.85
2435.923	2713.25
2439.079	2675.42
2442.235	2726.45
2445.391	2648.32
2448.546	2676.61
2451.701	2729.95
2454.855	2696.31
2458.009	2752.23
2461.163	2758.09
2464.317	2710.68
2467.471	2746.75
2470.624	2790.27
2473.777	2761.13
2476.929	2774.31
2480.082	2799.41
2483.234	2760.4
2486.385	2715.58
2489.537	2707.2
2492.688	2663.56
2495.839	2681.43
2498.989	2691.78
2502.14	2674.24
2505.29	2653.77
2508.439	2682.49
2511.589	2600.54
2514.738	2615.51
2517.887	2649.67
2521.035	2710.78
2524.183	2700.65
2527.331	2678.7
2530.479	2648.04
2533.627	2660.34
