Data from N_2_DEC_VA_2N_Splice17_12-06-54-274.txt Node
Date: Sat Mar 14 12:06:54 EDT 2020
User: sa697716
Spectrometer: FLMS03696
Trigger mode: 0
Integration Time (sec): 3.180400E-1
Scans to average: 20
Electric dark correction enabled: true
Nonlinearity correction enabled: true
Boxcar width: 5
XAxis mode: Wavelengths
Number of Pixels in Spectrum: 2048
>>>>>Begin Spectral Data<<<<<
187.83	-219704.32
188.298	1662.51
188.766	979.26
189.233	845.83
189.701	1130.18
190.169	1573.06
190.636	581.04
191.104	388.15
191.571	10.56
192.039	-110.6
192.506	-120.51
192.974	276.33
193.441	-376.57
193.908	35.09
194.375	-2.91
194.842	-3.09
195.31	71.4
195.777	150.39
196.244	451.64
196.711	802.83
197.177	1093.2
197.644	1663.87
198.111	2879.83
198.578	4049.16
199.045	3268.8
199.511	5359.61
199.978	6279.9
200.445	5269.45
200.911	5814.22
201.378	6502.17
201.844	5759.67
202.31	9779.04
202.777	9990.84
203.243	5470.3
203.709	5163.38
204.176	6071.85
204.642	4959.07
205.108	4583.76
205.574	3700.89
206.04	3405.31
206.506	3163.01
206.972	2996.28
207.438	2872.19
207.903	3265.72
208.369	2829.81
208.835	2780.81
209.301	2888.69
209.766	2935.52
210.232	2866.29
210.697	3527.18
211.163	4280.9
211.628	6398.22
212.094	5255.17
212.559	6296.38
213.024	3855.08
213.49	4623.08
213.955	4442.81
214.42	4307.23
214.885	3919.29
215.35	3712.99
215.815	3444.57
216.28	3565.3
216.745	2819.85
217.21	2903.73
217.675	2522.99
218.14	2647.42
218.604	2737.03
219.069	2865.9
219.534	2747.9
219.998	2933.73
220.463	3229.85
220.927	3609.37
221.392	3117.28
221.856	2908.34
222.32	3372.66
222.785	3882.29
223.249	4563.49
223.713	4794.58
224.177	4541.69
224.642	5483.69
225.106	6402.32
225.57	6691.37
226.034	4854.64
226.497	7115.76
226.961	6251.37
227.425	7097.91
227.889	7574
228.353	7330.9
228.816	14660.75
229.28	13657.63
229.744	11174.77
230.207	6696.38
230.671	6410.37
231.134	10158.49
231.597	11485.21
232.061	11140.38
232.524	10580.8
232.987	7203.13
233.45	6392.41
233.914	5634.47
234.377	5616.99
234.84	5069.35
235.303	5880.47
235.766	6506.54
236.229	6641.17
236.691	4114.61
237.154	4566.9
237.617	3411.63
238.08	3455.68
238.542	4016.18
239.005	2883.26
239.468	2862.25
239.93	2696.84
240.393	2434.83
240.855	2129.24
241.317	2171.97
241.78	2604.85
242.242	2684.22
242.704	2914.09
243.166	2533.09
243.629	2318.65
244.091	2647.24
244.553	2889.26
245.015	3097.3
245.477	3967.39
245.939	5774.98
246.4	6098.99
246.862	5895.61
247.324	5548.6
247.786	6164.81
248.247	7988.66
248.709	8028.29
249.17	5972.5
249.632	5693.72
250.093	6644.21
250.555	5736.06
251.016	3513.77
251.477	3330.71
251.939	3605.29
252.4	3764.3
252.861	4431.44
253.322	4143.1
253.783	4912.64
254.244	6348.87
254.705	4930.69
255.166	4324.99
255.627	4258.95
256.088	6008.52
256.549	6388.1
257.009	5465.42
257.47	6585.02
257.931	5346.26
258.391	4002.1
258.852	4132.7
259.312	4306.74
259.773	5297.66
260.233	4496.49
260.694	3773.02
261.154	4218.07
261.614	3392.11
262.074	3007.3
262.534	3102.59
262.994	2892.6
263.455	3781.44
263.915	3144.27
264.374	2908.54
264.834	3135.38
265.294	3381.85
265.754	3462.09
266.214	3233.63
266.673	2975.59
267.133	3695.59
267.593	3599.27
268.052	4365.63
268.512	3764.99
268.971	4571.68
269.431	5005.62
269.89	4436.33
270.349	6682.89
270.809	7442.48
271.268	6685.21
271.727	14852.15
272.186	9630.62
272.645	7246.68
273.104	5175.99
273.563	7480.59
274.022	5782.04
274.481	4958.39
274.94	3850.75
275.399	2840.82
275.857	3295.35
276.316	4462.56
276.775	3978.72
277.233	3944.8
277.692	3762.36
278.15	4318.65
278.609	4541.47
279.067	4269.39
279.525	4054.26
279.984	5267.9
280.442	6412.15
280.9	6487.34
281.358	4346.56
281.816	4122.68
282.274	4103.5
282.732	4260.8
283.19	4333.14
283.648	3745.56
284.106	4025.82
284.564	4088.24
285.021	3870.2
285.479	2930.66
285.937	2653.39
286.394	2367.53
286.852	2456.91
287.309	2606.95
287.767	2573.47
288.224	2481.38
288.682	2742.63
289.139	3029.81
289.596	2793.59
290.053	2896.37
290.511	3628.27
290.968	4423.13
291.425	5906.53
291.882	4947.6
292.339	4278.36
292.796	4181.75
293.252	3895.93
293.709	3106.79
294.166	2773.42
294.623	3035.06
295.079	2871.53
295.536	2892.55
295.992	2621.04
296.449	2595.95
296.905	2705.46
297.362	2614.08
297.818	2736.04
298.274	2869.59
298.731	2905.94
299.187	2880.8
299.643	3090.1
300.099	3767.76
300.555	4140.13
301.011	3468.51
301.467	3424.75
301.923	3955.89
302.379	3879.84
302.835	3847.97
303.291	3859.92
303.746	4416.9
304.202	5608.48
304.658	5693.68
305.113	3865.96
305.569	3828.16
306.024	4096.59
306.479	3826.79
306.935	3283.12
307.39	3573.58
307.845	3330.08
308.301	3399.34
308.756	3336.1
309.211	3244.87
309.666	3350.67
310.121	4251.54
310.576	4328.41
311.031	4359.3
311.486	5071.27
311.94	5061.23
312.395	6896.01
312.85	13022.82
313.305	63907.66
313.759	340223.41
314.214	24942.78
314.668	19949.82
315.123	16896.44
315.577	6172.07
316.032	5515.77
316.486	6942.08
316.94	5600.13
317.394	3906.33
317.849	3032.41
318.303	2863.23
318.757	2692.73
319.211	2988
319.665	2604.2
320.119	2621.94
320.572	3712.9
321.026	3456.85
321.48	2865.42
321.934	3071.26
322.387	3059.74
322.841	3333.68
323.295	3057.17
323.748	3467.2
324.202	3523.47
324.655	4286.93
325.108	6049.65
325.562	4294.81
326.015	5125.27
326.468	3898.36
326.921	4408.97
327.374	4159.06
327.827	4363.54
328.28	4951.03
328.733	3373.96
329.186	2970.87
329.639	2831.41
330.092	2386.97
330.545	2319.27
330.997	2375.52
331.45	2641.98
331.903	3144.03
332.355	5390.81
332.808	5290.23
333.26	4370.52
333.713	4815.84
334.165	4889.23
334.617	6575.46
335.069	5301.45
335.522	9553.71
335.974	10613.29
336.426	9711.09
336.878	6676.68
337.33	3451.41
337.782	3367.37
338.234	4282.06
338.686	5086.5
339.137	6045.49
339.589	5700.73
340.041	4501.27
340.493	3857.91
340.944	3948.51
341.396	4244.08
341.847	3608.81
342.299	4247.93
342.75	5236.78
343.201	4504.73
343.653	5156.99
344.104	6265.72
344.555	4899.29
345.006	7538.69
345.457	5849.4
345.908	4640.09
346.359	4372.72
346.81	3554.19
347.261	3738.26
347.712	3653.13
348.163	3921.22
348.613	4039.77
349.064	3802.15
349.515	3352.76
349.965	3486.32
350.416	4166.48
350.866	4568.76
351.317	5169.38
351.767	8578.54
352.217	10874.1
352.668	9068.06
353.118	8346.54
353.568	7940.9
354.018	6329.57
354.468	6721.94
354.918	4826.7
355.368	4258.91
355.818	6039.27
356.268	17341.9
356.718	73509.1
357.168	18407.19
357.617	9239.49
358.067	10247.63
358.517	9682.17
358.966	11475.78
359.416	12940.88
359.865	13998.91
360.315	16633.12
360.764	7829.48
361.213	4416.11
361.663	4143.94
362.112	5126.31
362.561	8354.19
363.01	6369.49
363.459	5386.5
363.908	5806.69
364.357	4973.93
364.806	8398.64
365.255	5809.15
365.703	5370.48
366.152	5423.22
366.601	4438.13
367.05	3657.79
367.498	3341.86
367.947	3508.28
368.395	3648.25
368.844	3256.72
369.292	3908.18
369.74	2761.33
370.189	4229.97
370.637	4947.41
371.085	4290.22
371.533	5215.35
371.981	5002.3
372.429	4822.25
372.877	5011.15
373.325	4228.93
373.773	4305.08
374.221	3846.36
374.669	4731.43
375.116	4110.39
375.564	4149.38
376.012	4617.54
376.459	3847.45
376.907	4600.31
377.354	5519.29
377.801	5203.5
378.249	6044.59
378.696	7765.12
379.143	9488.59
379.591	10096.43
380.038	17160.32
380.485	12520.04
380.932	13644.59
381.379	12588.81
381.826	9378.37
382.273	6713.79
382.72	5910.08
383.166	5774.56
383.613	3799.18
384.06	3438.32
384.506	4064.62
384.953	3028.5
385.4	3089.62
385.846	2759.13
386.292	2734.82
386.739	2754.58
387.185	2810.37
387.631	2930.95
388.078	2995.17
388.524	3373.35
388.97	3291.49
389.416	2872.94
389.862	3186.46
390.308	3158.72
390.754	3408.03
391.2	4002.07
391.645	4482.45
392.091	4765.16
392.537	5071.68
392.983	5530.04
393.428	5847.57
393.874	6780.26
394.319	7536.94
394.765	8099.99
395.21	9567.46
395.655	10325.85
396.101	11035.7
396.546	11306.74
396.991	12918.69
397.436	13523.59
397.881	14731.21
398.326	15813.73
398.771	16758.95
399.216	16367.46
399.661	16266.76
400.106	17641.38
400.551	19526.09
400.995	18817.42
401.44	19846.51
401.885	19740.16
402.329	21008.39
402.774	21108.46
403.218	21249.21
403.663	21438.92
404.107	22990.48
404.551	24201.9
404.995	23302.95
405.44	23622.46
405.884	25179.05
406.328	25508.07
406.772	26475.91
407.216	25083.89
407.66	25322.03
408.104	25322.74
408.547	24786.83
408.991	24965.06
409.435	24915.15
409.879	25264.57
410.322	25608.46
410.766	25373.84
411.209	24789.4
411.653	24558.94
412.096	24755.36
412.54	25492.28
412.983	25907.68
413.426	26460.34
413.869	27040.22
414.312	27021.99
414.756	26629.73
415.199	25937.72
415.642	25647.91
416.085	26126.17
416.527	26362.57
416.97	27206.35
417.413	26075.97
417.856	26109.71
418.298	26075.8
418.741	26048.64
419.184	26149.95
419.626	27422.19
420.069	27518.27
420.511	27786.58
420.953	27327.99
421.396	27278.63
421.838	26840.25
422.28	27679.52
422.722	28040.43
423.164	28880.56
423.606	28796.02
424.048	29216.43
424.49	28051.91
424.932	28302.66
425.374	28286.06
425.816	29031.44
426.258	29546.19
426.699	29580.62
427.141	28599.6
427.582	28616.49
428.024	28174.9
428.465	28062.87
428.907	27613.54
429.348	27727.7
429.789	28054.99
430.231	27698.78
430.672	28349.56
431.113	28135.3
431.554	28467.29
431.995	28892.02
432.436	28806.44
432.877	29042.35
433.318	29112.08
433.759	29526.58
434.2	29916.12
434.64	29986.28
435.081	30456.71
435.522	29295.55
435.962	28741.93
436.403	28541.13
436.843	29409.39
437.284	29242.06
437.724	28843.29
438.164	29339.9
438.604	28934.7
439.045	27992.65
439.485	27015.73
439.925	26796.27
440.365	26465.98
440.805	26392.82
441.245	26198.18
441.685	25355.78
442.125	25308.23
442.564	25546.28
443.004	24947.41
443.444	24951.6
443.883	25059.53
444.323	25107.94
444.762	25406.76
445.202	25875.28
445.641	26336.79
446.081	26421.91
446.52	26671.99
446.959	26476.68
447.398	25914.16
447.837	25765.53
448.276	25451.2
448.716	25773.2
449.154	26053.19
449.593	25292.27
450.032	25096.27
450.471	24646.97
450.91	24572.88
451.349	24344.39
451.787	24145.25
452.226	24355.89
452.664	24191.86
453.103	24055.14
453.541	23880.08
453.98	23521.32
454.418	23521.37
454.856	22909.97
455.295	22701.27
455.733	22624.12
456.171	22593.92
456.609	22393.74
457.047	22169.42
457.485	22257.92
457.923	22114.87
458.361	21723.24
458.798	21774.12
459.236	21674.68
459.674	21905.19
460.111	21992.77
460.549	21826.06
460.987	21848.5
461.424	21855.3
461.862	21839.57
462.299	21587.67
462.736	21587.22
463.173	21739.25
463.611	21444.47
464.048	21437.26
464.485	21660.28
464.922	21583.24
465.359	21621.77
465.796	21092.9
466.233	21063.4
466.67	20918.89
467.106	20953.68
467.543	20941.59
467.98	20817.39
468.416	20538.65
468.853	20568.09
469.29	20103.25
469.726	19998.94
470.162	19554.95
470.599	19660.24
471.035	19577.57
471.471	19200.32
471.907	19217.2
472.344	19130.17
472.78	19120.06
473.216	19327.61
473.652	19002.76
474.088	18885.51
474.523	18668.21
474.959	18729.62
475.395	18427.83
475.831	18137.78
476.266	18085.22
476.702	17874.51
477.138	17482.88
477.573	17254.02
478.008	16978.71
478.444	16811.26
478.879	16695.15
479.314	16560.98
479.75	16327.33
480.185	16208.83
480.62	16142.52
481.055	16012.34
481.49	15873.06
481.925	15860.33
482.36	15808.67
482.795	15994.41
483.229	16185.87
483.664	16257.16
484.099	16066.55
484.534	16042.77
484.968	15952.67
485.403	15782.55
485.837	15583.06
486.271	15366.73
486.706	15199.57
487.14	14939.44
487.574	14564.27
488.009	14312.88
488.443	14080.35
488.877	14068.42
489.311	13999.69
489.745	14024.7
490.179	14017.91
490.613	14086.71
491.046	14090.35
491.48	14084.71
491.914	13976.94
492.348	13971.94
492.781	13943.82
493.215	13889.62
493.648	13859.47
494.082	13878.79
494.515	13798.35
494.948	13843.37
495.382	13882.01
495.815	13862.26
496.248	13857.04
496.681	14003.96
497.114	14124.56
497.547	14191.1
497.98	14283.32
498.413	14229.67
498.846	14260.76
499.279	14287.98
499.711	14247.71
500.144	14154.42
500.577	14182.5
501.009	14242.17
501.442	14244.13
501.874	14093.51
502.306	14006.72
502.739	13942.68
503.171	14077.96
503.603	13984.56
504.036	13984.38
504.468	13914.27
504.9	13933.69
505.332	13883.63
505.764	13776.11
506.196	13725.05
506.627	13776.11
507.059	13789.83
507.491	13791.67
507.923	13546.77
508.354	13568.8
508.786	13530.82
509.217	13581.49
509.649	13591.31
510.08	13658.81
510.512	13674.68
510.943	13679.07
511.374	13635.36
511.805	13692.01
512.237	13744.9
512.668	13969.87
513.099	14114.43
513.53	14229.01
513.961	14250.79
514.391	14395.42
514.822	14515.12
515.253	14688.23
515.684	14730.35
516.114	14814.15
516.545	14792.77
516.975	14821.2
517.406	14758.64
517.836	14550.26
518.267	14387.1
518.697	14339.54
519.127	14166.37
519.558	14038.69
519.988	13872.9
520.418	13781.27
520.848	13754.03
521.278	13655.88
521.708	13263.9
522.138	13216.96
522.567	13325.23
522.997	13381.19
523.427	13360.06
523.857	13341.38
524.286	13285.46
524.716	13270.73
525.145	13281.19
525.575	13244.66
526.004	13247.32
526.433	13408.45
526.863	13305.66
527.292	13116.01
527.721	13065.79
528.15	13035.73
528.579	12968.28
529.008	12983.69
529.437	13093.28
529.866	13131.66
530.295	13191.83
530.724	13203.33
531.152	13332.82
531.581	13362.23
532.01	13435.61
532.438	13442.35
532.867	13499.8
533.295	13584.67
533.723	13580.33
534.152	13516.91
534.58	13470.94
535.008	13319.28
535.436	13297.39
535.865	13325.79
536.293	13408.6
536.721	13497.23
537.149	13648.3
537.576	13638.3
538.004	13715.84
538.432	13764.99
538.86	13742.65
539.287	13793.32
539.715	13888.28
540.143	13924.85
540.57	13912.44
540.998	13906.18
541.425	13740.6
541.852	13624.92
542.28	13643.03
542.707	13560.92
543.134	13485.56
543.561	13482.16
543.988	13455.13
544.415	13489.2
544.842	13482.2
545.269	13452.27
545.696	13486.23
546.123	13631.73
546.549	13580.69
546.976	13507.56
547.403	13524.76
547.829	13570.95
548.256	13623.48
548.682	13623.98
549.108	13590.66
549.535	13619.01
549.961	13663.51
550.387	13591.51
550.813	13563.53
551.24	13638.44
551.666	13673.77
552.092	13623.33
552.518	13602.66
552.943	13569.2
553.369	13658.02
553.795	13727.69
554.221	13746.4
554.646	13743.25
555.072	13820.77
555.498	13880.33
555.923	13962.65
556.349	14085.18
556.774	14163.62
557.199	14179.37
557.625	14256.39
558.05	14212.56
558.475	14301.55
558.9	14302.96
559.325	14242.51
559.75	14215.28
560.175	14181.1
560.6	14150.11
561.025	14143.91
561.449	14163.75
561.874	14211.01
562.299	14229.77
562.723	14293.26
563.148	14206.2
563.572	14233.08
563.997	14310.5
564.421	14350.63
564.846	14344.47
565.27	14348.46
565.694	14321.3
566.118	14381.91
566.542	14413.12
566.966	14343.48
567.39	14275.43
567.814	14172.1
568.238	14157.58
568.662	14189.41
569.086	14203.06
569.509	14274.96
569.933	14167.54
570.357	14146.36
570.78	14028
571.204	13968.46
571.627	13951.28
572.05	14015.87
572.474	14094.02
572.897	14095.47
573.32	14131.25
573.743	14174.94
574.166	14124.02
574.589	14252.39
575.012	14304.46
575.435	14429.5
575.858	14486.52
576.281	14530.09
576.704	14535.09
577.126	14575.15
577.549	14607.07
577.972	14664.73
578.394	14696.11
578.817	14742.5
579.239	14705.17
579.661	14705.97
580.084	14660.34
580.506	14667.77
580.928	14756.95
581.35	14776.3
581.772	14846.07
582.194	14830.96
582.616	14810.51
583.038	14792.18
583.46	14815.97
583.882	14878.38
584.303	15026.74
584.725	15104.14
585.147	15150.65
585.568	15322.23
585.99	15494.91
586.411	15619.35
586.833	15823.18
587.254	15896.96
587.675	16100.07
588.096	16291.44
588.518	16297.49
588.939	16176.4
589.36	16201.04
589.781	16214.06
590.202	15925.91
590.623	15893.82
591.043	15917.92
591.464	15817.18
591.885	15798.42
592.305	15757.23
592.726	15618.7
593.147	15619.45
593.567	15550.63
593.987	15447.46
594.408	15365.15
594.828	15353.58
595.248	15229.09
595.669	14962.83
596.089	14829.16
596.509	14708.52
596.929	14487.65
597.349	14417.99
597.769	14242.28
598.189	14092.57
598.608	14031.23
599.028	13966.23
599.448	13893.42
599.867	13707.55
600.287	13622.65
600.706	13513.81
601.126	13353.82
601.545	13290.43
601.965	13243.69
602.384	13165.06
602.803	13175.36
603.222	13104.07
603.641	13038.63
604.061	12994.62
604.48	12970.21
604.898	13064.56
605.317	13146.67
605.736	13203.85
606.155	13211
606.574	13164.19
606.992	13267.81
607.411	13270.29
607.829	13265.46
608.248	13304.73
608.666	13359.13
609.085	13418.5
609.503	13397.65
609.921	13404.61
610.339	13499.91
610.758	13580.57
611.176	13615.21
611.594	13597.26
612.012	13645
612.43	13741.73
612.847	13884.74
613.265	13952.19
613.683	14078.98
614.101	14175.85
614.518	14227.54
614.936	14202.11
615.353	14117.35
615.771	14153.27
616.188	14231.23
616.606	14266.92
617.023	14269.86
617.44	14181.89
617.857	14194.5
618.274	14172.26
618.691	14158.73
619.108	14114.96
619.525	14105.04
619.942	14223.69
620.359	14297.99
620.776	14283.43
621.192	14262.21
621.609	14262.82
622.026	14354.93
622.442	14442.88
622.859	14503.42
623.275	14449.83
623.691	14529.61
624.108	14677.47
624.524	14866.51
624.94	14882.23
625.356	15008.95
625.772	15187.7
626.188	15348.67
626.604	15385.33
627.02	15352.19
627.436	15333.9
627.852	15413.91
628.268	15557.22
628.683	15473.8
629.099	15394.7
629.514	15374.66
629.93	15450.18
630.345	15536.32
630.761	15528.85
631.176	15613.04
631.591	15561.32
632.007	15538.38
632.422	15592.29
632.837	15524.2
633.252	15539.69
633.667	15485.37
634.082	15440.45
634.497	15353.52
634.911	15171.79
635.326	15210.94
635.741	15088.02
636.155	15082.48
636.57	15182.77
636.984	15273.98
637.399	15378.87
637.813	15500.05
638.228	15595.84
638.642	15776.36
639.056	15772.63
639.47	15924.41
639.884	15944.92
640.298	16000.31
640.712	16113.07
641.126	16095.28
641.54	16136.47
641.954	16252.35
642.368	16224.57
642.781	16222.98
643.195	16118.37
643.609	16262.84
644.022	16317.63
644.436	16393.39
644.849	16356.38
645.262	16317.85
645.676	16478.02
646.089	16506.91
646.502	16354.88
646.915	16385.15
647.328	16272.8
647.741	16343.57
648.154	16248.65
648.567	16251.32
648.98	16123.17
649.393	16218.19
649.805	16251.47
650.218	16221.86
650.631	16040.09
651.043	16037.11
651.456	16006.59
651.868	16084.63
652.28	16413.91
652.693	16646.56
653.105	16751.38
653.517	16859.58
653.929	16813.64
654.341	16880.2
654.753	16675.73
655.165	16831.09
655.577	16849.37
655.989	16866.16
656.401	16852.04
656.813	16346.1
657.224	16180.16
657.636	15939.58
658.047	15858.01
658.459	15757.63
658.87	15840.87
659.282	15846
659.693	15627.9
660.104	15513.38
660.515	15417.4
660.926	15520.85
661.338	15632
661.749	15662.28
662.159	15595.16
662.57	15671.34
662.981	15709.68
663.392	15673.72
663.803	15855.05
664.213	15937.27
664.624	15975.39
665.035	16145.21
665.445	15977.54
665.855	15902.66
666.266	15794.92
666.676	15832.5
667.086	15714.84
667.497	15734.63
667.907	15653.9
668.317	15503.7
668.727	15377.98
669.137	15425.12
669.547	15377
669.956	15444.56
670.366	15486.17
670.776	15512.1
671.186	15584.2
671.595	15617.07
672.005	15688
672.414	15626.13
672.824	15547.94
673.233	15688.47
673.642	15683.75
674.052	15681.84
674.461	15642.55
674.87	15697.3
675.279	15573.46
675.688	15577.19
676.097	15522.6
676.506	15392.15
676.915	15633.31
677.323	15628.79
677.732	15526.34
678.141	15456.34
678.549	15204.86
678.958	15145.14
679.366	15064.02
679.775	15117.45
680.183	15156.05
680.592	15190.02
681	15188.67
681.408	14935.81
681.816	14953.71
682.224	14986.71
682.632	14973.12
683.04	15314.03
683.448	15484.87
683.856	15637.82
684.264	15766.05
684.671	15852.47
685.079	16007.41
685.487	16199.3
685.894	16617.61
686.302	16825.95
686.709	16828.59
687.116	16930.42
687.524	16870.08
687.931	16782.72
688.338	16724.82
688.745	16688.33
689.152	16678.68
689.559	16745.51
689.966	16737.32
690.373	16454.59
690.78	16353.69
691.187	16475.81
691.593	16393.04
692	16256.69
692.407	16288.65
692.813	16406.13
693.22	16401.01
693.626	16448.97
694.032	16386.19
694.439	16555.54
694.845	16607.77
695.251	16783.19
695.657	16882.52
696.063	17233.42
696.469	17360.26
696.875	17432.38
697.281	17300.41
697.687	17203.87
698.093	17024.84
698.498	17083.83
698.904	17036.09
699.31	17169.25
699.715	17142.05
700.12	17333.08
700.526	17116.21
700.931	17231.68
701.337	17264.01
701.742	17211.62
702.147	17457.01
702.552	17410.72
702.957	17544.14
703.362	17465.42
703.767	17449.05
704.172	17508.91
704.577	17108.14
704.981	17193.37
705.386	17104.65
705.791	16899.54
706.195	17116.29
706.6	16998.23
707.004	17248.39
707.408	16957.63
707.813	16945.64
708.217	16750.32
708.621	16627.62
709.025	16951.23
709.43	16811.48
709.834	16960.31
710.237	17157.46
710.641	16962.87
711.045	16939.58
711.449	16780.19
711.853	16756.03
712.256	16807.53
712.66	16832.95
713.064	16989.64
713.467	16941.19
713.87	17134.17
714.274	16966.54
714.677	16994.76
715.08	17164.73
715.484	17306.44
715.887	17502.42
716.29	17671.71
716.693	17802.64
717.096	18012.34
717.499	17909.58
717.901	17614.12
718.304	17516.17
718.707	17592
719.109	17389.64
719.512	17479.41
719.915	17226.4
720.317	17230.71
720.719	17510.13
721.122	17541.04
721.524	17475.39
721.926	17373.54
722.328	17680.4
722.731	17524.05
723.133	17430.76
723.535	17837.7
723.937	17665.25
724.338	17621.5
724.74	17578.85
725.142	17117.18
725.544	17056.49
725.945	17062.31
726.347	17032.83
726.748	16981.8
727.15	17018.87
727.551	16874.27
727.952	16763.55
728.354	16660.86
728.755	16686.66
729.156	16628.12
729.557	16847.63
729.958	16588.07
730.359	16597.6
730.76	16712.65
731.161	16715.04
731.562	16824.46
731.962	17026.17
732.363	16986.29
732.763	16932.9
733.164	17188.09
733.564	17055.02
733.965	16792
734.365	16720.39
734.766	16845.43
735.166	16717.8
735.566	16511.25
735.966	16390.73
736.366	16351.73
736.766	16136.18
737.166	16247.95
737.566	16116.59
737.966	16041.44
738.365	16177.48
738.765	16153.03
739.165	15897.13
739.564	15816.64
739.964	15993.28
740.363	15870.42
740.763	15897.93
741.162	15879.67
741.561	15784.13
741.96	15636.04
742.36	15725.36
742.759	15767.41
743.158	15927
743.557	16003.62
743.955	16153.29
744.354	15993.76
744.753	16188.46
745.152	16026.32
745.55	16209.62
745.949	16176.18
746.348	16162.64
746.746	16191.03
747.144	16010.58
747.543	15900.34
747.941	16016.71
748.339	15732.41
748.737	15666.45
749.136	15584.1
749.534	15764.02
749.932	15611.72
750.33	15644.98
750.727	15794.68
751.125	15677.97
751.523	15604.36
751.921	15700.57
752.318	15554.99
752.716	15710.86
753.113	15722.83
753.511	15771.52
753.908	15729.05
754.305	15626.5
754.703	15784.18
755.1	15925.49
755.497	16058.23
755.894	16553.8
756.291	16870.65
756.688	17391.55
757.085	17885.73
757.482	18501.98
757.878	18920.09
758.275	18996.81
758.672	19512.08
759.068	19554.94
759.465	19972.64
759.861	20559.5
760.258	21155.13
760.654	20716.35
761.05	19610.58
761.447	18614.89
761.843	17830.2
762.239	17257.83
762.635	17444.48
763.031	17545.75
763.427	17252.07
763.822	16915.9
764.218	16651.7
764.614	16008.15
765.01	15799.63
765.405	15888.25
765.801	16051.93
766.196	15935.27
766.592	16072.52
766.987	15778.78
767.382	15649.41
767.778	15770.6
768.173	15702.75
768.568	15718.68
768.963	15522.16
769.358	15694.02
769.753	15643.35
770.148	15461.82
770.542	15508.15
770.937	15451.95
771.332	15734.4
771.726	15791.93
772.121	15585.64
772.515	15728.14
772.91	15674.39
773.304	15880.36
773.699	15669.6
774.093	15806.91
774.487	15940.05
774.881	16028.22
775.275	15975.92
775.669	15822.61
776.063	15920.18
776.457	15997.26
776.851	15743.78
777.245	15670.56
777.638	15709.51
778.032	15992.87
778.425	15835.3
778.819	15904.71
779.212	15741.47
779.606	15579.44
779.999	15587.67
780.392	15484.31
780.786	15667.82
781.179	15670.88
781.572	15738.45
781.965	15718.42
782.358	15498.06
782.751	15600
783.143	15407.16
783.536	15533.67
783.929	15575.82
784.322	15802.32
784.714	15802.7
785.107	15694.07
785.499	15787.52
785.891	15613.3
786.284	15445.78
786.676	15683.36
787.068	15488.5
787.46	15489.85
787.852	15420.33
788.245	15516.1
788.636	15468.44
789.028	15510.65
789.42	15489.79
789.812	15396.37
790.204	15540.28
790.595	15688.27
790.987	15151.02
791.378	15145.73
791.77	15395.56
792.161	15648.97
792.553	15702.08
792.944	15362.77
793.335	15120.93
793.726	15206.74
794.117	15340.4
794.508	15590.11
794.899	15464.01
795.29	15717.54
795.681	15779.65
796.072	15373.79
796.463	14832.2
796.853	14773.06
797.244	15035.93
797.634	15031.28
798.025	14949.64
798.415	14890.98
798.806	14975.8
799.196	15034.21
799.586	15012.57
799.976	14793.51
800.366	15161.14
800.756	15583.13
801.146	15380.48
801.536	15334.11
801.926	15380.25
802.316	15337.36
802.706	15398.42
803.095	15068.34
803.485	15202.8
803.874	15224.26
804.264	15676.55
804.653	15542.91
805.043	15732.55
805.432	15848.99
805.821	15750.62
806.21	15676.9
806.599	15774.11
806.988	15692.55
807.377	15729.34
807.766	15785.56
808.155	16093.48
808.544	15404.98
808.933	15211.55
809.321	14947.77
809.71	15214.14
810.098	15198.79
810.487	15648.92
810.875	16072.08
811.264	15736.65
811.652	15763.08
812.04	15542.61
812.428	15335.03
812.816	15945.4
813.204	16009.06
813.592	16222.92
813.98	16157.68
814.368	15588.66
814.756	15776.35
815.144	15318.32
815.531	15543.14
815.919	15204.85
816.306	15339.54
816.694	14824.74
817.081	14789.74
817.469	15162.18
817.856	15231.98
818.243	15609.67
818.63	16121.46
819.017	15669.01
819.404	15669.48
819.791	15914.38
820.178	16335.62
820.565	16383.44
820.952	17216.51
821.339	16562.05
821.725	16616.01
822.112	15674.61
822.498	15460.85
822.885	15424.34
823.271	15227.46
823.657	15663.1
824.044	15775.35
824.43	15972.08
824.816	15985.16
825.202	15493.68
825.588	16413.41
825.974	16266.36
826.36	16594.04
826.746	16429.83
827.132	16586.95
827.517	16368.99
827.903	15415.04
828.289	15256.1
828.674	14381.01
829.06	14167.09
829.445	14421.93
829.83	14649.46
830.216	14977.36
830.601	15197.12
830.986	14748.15
831.371	14560.08
831.756	14990.63
832.141	14575.85
832.526	14530.45
832.911	14747.19
833.295	14628.61
833.68	15030.68
834.065	14484.37
834.449	13699.26
834.834	13642.19
835.218	13642.29
835.603	13920.54
835.987	13714.1
836.371	14404.76
836.755	14284.74
837.139	14596.67
837.524	14769.32
837.908	14567.01
838.291	14571.47
838.675	14567.24
839.059	14691.76
839.443	14622.6
839.827	14378.09
840.21	14714.59
840.594	14513.66
840.977	14610.59
841.361	14511.86
841.744	14736.8
842.127	14541.91
842.511	14674.24
842.894	15093.94
843.277	15328.56
843.66	15694.12
844.043	15675.23
844.426	14963.48
844.809	14656.18
845.191	14616.83
845.574	14195.9
845.957	13834.46
846.339	13649.13
846.722	13122.59
847.104	13030.82
847.487	12764.07
847.869	12645.33
848.252	12733.94
848.634	12860.62
849.016	12935.49
849.398	12907.01
849.78	13382.75
850.162	13268.51
850.544	13428.17
850.926	13702.53
851.307	13482.28
851.689	13504.24
852.071	13634.83
852.452	13703
852.834	13557.9
853.215	13694.46
853.597	13692.95
853.978	13790.85
854.359	13995.19
854.741	13333.14
855.122	13285.66
855.503	13154.45
855.884	13290.14
856.265	13292.53
856.646	13372.37
857.026	13110.19
857.407	13040.98
857.788	13093.17
858.169	13218.78
858.549	12636.09
858.93	12962.28
859.31	12925.94
859.69	12981.67
860.071	12661.27
860.451	12448.63
860.831	11931.7
861.211	12554
861.591	12804.04
861.971	12699.07
862.351	12715.28
862.731	12809.61
863.111	12801.92
863.491	12815.91
863.87	13121.69
864.25	13142.68
864.629	12767.89
865.009	12893.27
865.388	13199.38
865.768	13996.29
866.147	13818.84
866.526	12958.99
866.905	13049.44
867.284	13764.81
867.663	13073.37
868.042	12548.72
868.421	12504.93
868.8	12704.28
869.179	12820.43
869.558	12060.39
869.936	11095.33
870.315	11264.18
870.693	11508.26
871.072	12374.91
871.45	11747.21
871.828	11848.28
872.207	12405.52
872.585	12166.19
872.963	12438.27
873.341	11956.68
873.719	11774.74
874.097	11586.11
874.475	11766.36
874.853	11989.21
875.23	11451.63
875.608	11883.53
875.986	12815.39
876.363	12206.83
876.741	12545.73
877.118	12195.76
877.495	12736.1
877.873	12879.05
878.25	13479.78
878.627	12858.77
879.004	12975.8
879.381	12849.01
879.758	12461.26
880.135	11541.35
880.512	12150.46
880.889	11769.37
881.265	11594.81
881.642	11446.71
882.019	11595.53
882.395	11332.18
882.772	11735.58
883.148	11176.95
883.524	11082.16
883.901	10959.83
884.277	11068.31
884.653	10936.84
885.029	11194.92
885.405	12327.78
885.781	12176.63
886.157	11615.72
886.532	11693.42
886.908	11637.17
887.284	12880.16
887.659	13248.61
888.035	13598.8
888.411	13896.56
888.786	14025.49
889.161	14437.53
889.537	14095.08
889.912	14443.2
890.287	14327.97
890.662	14566.98
891.037	14159.69
891.412	13066.53
891.787	12765.03
892.162	12148.9
892.536	12226.99
892.911	11562.42
893.286	11090.46
893.66	10413.66
894.035	10437.84
894.409	11087.56
894.784	10392.1
895.158	10303.14
895.532	10635.65
895.906	10643.49
896.281	10595.54
896.655	10168.26
897.029	11324.99
897.402	11530.91
897.776	12573.6
898.15	12300.41
898.524	11972.46
898.898	11941.49
899.271	13193.6
899.645	11305.34
900.018	10785.77
900.392	11186.6
900.765	11319.68
901.138	10563.67
901.511	10504.86
901.884	9782.83
902.258	9162.92
902.631	9619.82
903.003	11236.19
903.376	10295.65
903.749	11681.65
904.122	12610.46
904.495	13934.37
904.867	14070.71
905.24	12136.88
905.612	11197.09
905.985	11282.04
906.357	11596.34
906.729	10854.72
907.102	9089.91
907.474	8564.51
907.846	8452.2
908.218	8209.89
908.59	7164
908.962	6860.03
909.334	7323.76
909.705	7652.4
910.077	7379.62
910.449	7636.95
910.82	7810.16
911.192	8556.13
911.563	8856.46
911.935	9441.64
912.306	9413.7
912.677	9666.03
913.048	9513.8
913.419	10247.73
913.79	10217.67
914.161	10916.07
914.532	10393.1
914.903	9517.89
915.274	9007.89
915.645	8857.75
916.015	7785.36
916.386	7427.59
916.756	7923.35
917.127	8222.28
917.497	7420.34
917.868	8176.92
918.238	7854.35
918.608	8185.66
918.978	8449.62
919.348	9053.9
919.718	9470.9
920.088	9243.39
920.458	9714.02
920.828	10298.46
921.198	9810.28
921.567	10487.48
921.937	8106.22
922.306	8158.38
922.676	8764.61
923.045	7310.24
923.415	6932.47
923.784	6282.71
924.153	6434.37
924.522	6393.5
924.891	5972.8
925.26	6336.82
925.629	6117.83
925.998	6939.44
926.367	6688.21
926.736	6287.32
927.104	7318.97
927.473	7674.44
927.842	9009.94
928.21	8605.5
928.578	8699.15
928.947	7917.09
929.315	7637.93
929.683	8572.53
930.051	8239.89
930.42	9089.77
930.788	7323.56
931.156	6867.07
931.523	6118.62
931.891	5338.6
932.259	4865.38
932.627	5348.54
932.994	7164.82
933.362	5713.55
933.729	4780.35
934.097	4418.74
934.464	3636.05
934.831	4102.2
935.199	4007.63
935.566	3838.31
935.933	3947.79
936.3	4865.02
936.667	3843.11
937.034	3628.21
937.401	3669.83
937.767	3306.37
938.134	3070.66
938.501	4516.28
938.867	5057.57
939.234	8904.28
939.6	7923.2
939.967	9047.68
940.333	6257.51
940.699	5512.87
941.065	4481.54
941.431	6012.28
941.798	5898.12
942.163	7856.8
942.529	4891.23
942.895	4501.02
943.261	2937.12
943.627	3856.61
943.992	3343.22
944.358	3325.73
944.723	3356.33
945.089	3247.89
945.454	2988.8
945.82	3143.63
946.185	2994.51
946.55	3488.56
946.915	3120.48
947.28	3637.02
947.645	3192.21
948.01	2961.25
948.375	3108.86
948.74	3672.2
949.104	4287.91
949.469	6088.87
949.834	10751.54
950.198	10321.48
950.562	6213.38
950.927	5167.37
951.291	6186.21
951.655	5214.28
952.02	4860.69
952.384	3653.08
952.748	3216.71
953.112	3168.28
953.476	2770.96
953.839	2541.85
954.203	2514.85
954.567	3120.27
954.931	4876.73
955.294	4203.78
955.658	4252.01
956.021	7234.32
956.385	12252.16
956.748	18062.8
957.111	27689.79
957.474	31065.58
957.837	35071.18
958.2	26405.48
958.563	9493.47
958.926	6449.24
959.289	9755.98
959.652	10998.86
960.015	8329.28
960.377	11981.9
960.74	13665.45
961.102	23534.62
961.465	25612.56
961.827	14277.62
962.189	27548.09
962.552	19384.34
962.914	15713.84
963.276	10344.4
963.638	8621.43
964	8529.83
964.362	5835.07
964.724	5668.73
965.085	4100.04
965.447	3390.95
965.809	3799.41
966.17	3825.7
966.532	4171.63
966.893	3893.11
967.255	3583.66
967.616	4271.67
967.977	3500.54
968.338	3888.96
968.699	3287.35
969.061	3367.16
969.421	3467.55
969.782	3962.36
970.143	3436.08
970.504	3650.59
970.865	4222.79
971.225	4388.62
971.586	4338.85
971.946	6216.37
972.307	5417.42
972.667	7043.11
973.027	7234.32
973.388	8722.92
973.748	5941.74
974.108	6415.14
974.468	8532.89
974.828	6586.42
975.188	5003.4
975.548	4549.14
975.907	3802.99
976.267	4256.82
976.627	3617.44
976.986	3737.46
977.346	3573.48
977.705	3451.26
978.064	3166.13
978.424	2653.71
978.783	2723.34
979.142	3137.32
979.501	3053.11
979.86	3260.06
980.219	3152.76
980.578	4058.13
980.937	4594.18
981.296	4118.25
981.654	4268.26
982.013	6688.08
982.371	8790.47
982.73	8293.2
983.088	9489.89
983.447	10204.22
983.805	14758.91
984.163	31043.1
984.521	34687.7
984.879	50967.98
985.237	-83951.99
985.595	81710.46
985.953	20306.58
986.311	11798.16
986.669	6892.81
987.026	5989.91
987.384	8094.92
987.741	8404.17
988.099	6124.9
988.456	4923.73
988.814	4683.51
989.171	4078.8
989.528	4003.76
989.885	4265.7
990.242	3421.17
990.599	4245.88
990.956	3489.74
991.313	2462.62
991.67	2031.02
992.027	2195.73
992.383	1969.64
992.74	1736.42
993.096	1849.5
993.453	1933.41
993.809	2009.34
994.165	2663.09
994.522	2517.94
994.878	2789.89
995.234	3504.88
995.59	3465.74
995.946	3224.18
996.302	3677.98
996.658	4252.16
997.013	4649.84
997.369	5599.7
997.725	7235.67
998.08	4726.52
998.436	7109.87
998.791	9830.24
999.147	9912.43
999.502	10882.87
999.857	7942.59
1000.212	12987.36
1000.567	18488.8
1000.922	10800.83
1001.277	6869.22
1001.632	5147.91
1001.987	6668.92
1002.342	4829.21
1002.696	3878.38
1003.051	3125.29
1003.406	3802.65
1003.76	3810.62
1004.114	3800.16
1004.469	3227.83
1004.823	2680.11
1005.177	2881.71
1005.531	2279.98
1005.885	2047.58
1006.239	2361.38
1006.593	2994.24
1006.947	4002.91
1007.301	3009.19
1007.655	3279.71
1008.008	2419.17
1008.362	2741.47
1008.715	3930.58
1009.069	3597.46
1009.422	5504.84
1009.776	11023.86
1010.129	7269.68
1010.482	6059.97
1010.835	5133.32
1011.188	10823.61
1011.541	10335.41
1011.894	-63385.47
1012.247	187104.28
1012.6	12828.47
1012.952	8251.63
1013.305	4247.34
1013.657	3102.87
1014.01	2984.36
1014.362	2480.49
1014.715	2249.11
1015.067	1972.01
1015.419	1942.58
1015.771	1738.53
1016.123	1574.62
1016.475	1620.41
1016.827	1722.68
1017.179	1881.09
1017.531	1893.75
1017.883	1919.69
1018.234	1910.48
1018.586	2422.19
1018.938	2609.18
1019.289	3634.01
1019.64	4181.12
1019.992	3891.28
1020.343	3591.59
1020.694	2902.81
1021.045	2572.38
1021.396	2966.96
1021.747	3241.26
1022.098	3870.04
1022.449	2840.89
1022.8	2631.6
1023.151	1868.85
1023.501	1682.04
1023.852	1838.2
1024.202	1940.14
1024.553	2131.31
1024.903	2118.54
1025.253	1835.42
1025.604	1676.16
1025.954	2095.47
1026.304	2543.73
1026.654	3010.29
1027.004	4369.69
1027.354	7047.76
1027.703	6688.53
1028.053	8786.28
1028.403	13001.12
1028.753	18940.72
1029.102	25940.93
1029.452	133617.94
1029.801	5800.3
1030.15	3781.01
1030.499	3198.61
897.758	2242.12
901.051	2174.48
904.343	2210.02
907.636	2218.13
910.928	2279.59
914.22	2197.8
917.511	2200.42
920.803	2255.12
924.094	2254.01
927.384	2256.53
930.675	2218.97
933.965	2180.46
937.255	2212.37
940.544	2178.35
943.834	2178.29
947.123	2119.08
950.411	2210.51
953.7	2191.98
956.988	2173.02
960.276	2110.51
963.563	2161.85
966.851	2174.67
970.138	2217.82
973.424	2218.79
976.711	2173.37
979.997	2222.15
983.283	2266.91
986.568	2195.46
989.853	2186.53
993.138	2216.43
996.423	2300.82
999.708	2257.64
1002.992	2291.25
1006.275	2199.06
1009.559	2205.71
1012.842	2306.46
1016.125	2258.38
1019.408	2238.35
1022.69	2298.35
1025.972	2334.2
1029.254	2307.79
1032.536	2268.65
1035.817	2280.76
1039.098	2247.99
1042.379	2305.73
1045.659	2335.07
1048.939	2280.9
1052.219	2289.86
1055.498	2283.3
1058.778	2282.76
1062.057	2256.48
1065.335	2281.48
1068.614	2295.53
1071.892	2290.68
1075.17	2346.75
1078.447	2351.47
1081.724	2345.53
1085.001	2373.64
1088.278	2350.98
1091.554	2359.79
1094.83	2351.32
1098.106	2391.68
1101.382	2422.98
1104.657	2422.86
1107.932	2421.71
1111.206	2398.38
1114.481	2352.37
1117.755	2352.15
1121.029	2343.97
1124.302	2408.5
1127.575	2369.83
1130.848	2367.09
1134.121	2336.33
1137.393	2297.46
1140.665	2361.04
1143.937	2339.72
1147.208	2287.68
1150.48	2345.8
1153.75	2334.55
1157.021	2340.69
1160.291	2314.75
1163.561	2374
1166.831	2340.44
1170.101	2368.59
1173.37	2327.64
1176.639	2280.01
1179.907	2325.77
1183.176	2351.07
1186.444	2351.62
1189.711	2378.72
1192.979	2401.72
1196.246	2354.28
1199.513	2368.79
1202.78	2374.56
1206.046	2382.89
1209.312	2411.81
1212.578	2430.92
1215.843	2396.5
1219.108	2361.43
1222.373	2386.82
1225.638	2356.99
1228.902	2348.96
1232.166	2304.68
1235.43	2291.45
1238.693	2315.36
1241.956	2306.94
1245.219	2356.58
1248.482	2337.86
1251.744	2336.94
1255.006	2464.81
1258.268	2411.3
1261.529	2366.23
1264.79	2364.92
1268.051	2468.76
1271.312	2478.53
1274.572	2448.43
1277.832	2438.5
1281.092	2417.58
1284.351	2408.63
1287.61	2392.92
1290.869	2324.56
1294.128	2320.58
1297.386	2370.18
1300.644	2363.99
1303.902	2374.77
1307.159	2237.96
1310.416	2291.54
1313.673	2320.22
1316.93	2319.1
1320.186	2351.34
1323.442	2386.52
1326.697	2384.45
1329.953	2357.06
1333.208	2392.88
1336.463	2366.5
1339.717	2324.61
1342.972	2433.64
1346.226	2406.64
1349.479	2350.46
1352.733	2329.12
1355.986	2334.05
1359.238	2312.88
1362.491	2321.5
1365.743	2320.89
1368.995	2311.3
1372.247	2324.67
1375.498	2344.8
1378.749	2385.06
1382	2333.63
1385.251	2373.45
1388.501	2323.44
1391.751	2324.53
1395	2287.93
1398.25	2312.47
1401.499	2334.24
1404.748	2284.36
1407.996	2258.38
1411.244	2245.88
1414.492	2232.04
1417.74	2212.8
1420.987	2217.48
1424.234	2278.95
1427.481	2238.97
1430.728	2298.82
1433.974	2274.16
1437.22	2274.61
1440.465	2270.78
1443.711	2269.04
1446.956	2295.16
1450.201	2266.07
1453.445	2310.72
1456.689	2297.45
1459.933	2310.69
1463.177	2354.51
1466.42	2325.33
1469.663	2309.27
1472.906	2323.85
1476.148	2374.29
1479.391	2349.84
1482.633	2324.2
1485.874	2350.56
1489.115	2357.77
1492.356	2343.57
1495.597	2322.29
1498.838	2314.8
1502.078	2300.1
1505.318	2269.51
1508.557	2306.21
1511.797	2304.85
1515.036	2349.47
1518.274	2321.74
1521.513	2276.72
1524.751	2290.53
1527.989	2316.79
1531.227	2335.2
1534.464	2352.2
1537.701	2346.59
1540.938	2360.39
1544.174	2308.38
1547.41	2298.45
1550.646	2336.38
1553.882	2388.66
1557.117	2447.89
1560.352	2456.84
1563.587	2418.27
1566.821	2383.86
1570.055	2397.57
1573.289	2379.41
1576.523	2441.5
1579.756	2453.85
1582.989	2477.44
1586.222	2439.49
1589.454	2468.13
1592.686	2452.27
1595.918	2480.09
1599.15	2477.28
1602.381	2525.27
1605.612	2507.13
1608.843	2604.82
1612.073	2525.87
1615.303	2513.01
1618.533	2512.71
1621.762	2508.06
1624.992	2482.94
1628.221	2485.05
1631.449	2470.29
1634.678	2497.5
1637.906	2465.86
1641.134	2494.65
1644.361	2457.72
1647.588	2443.71
1650.815	2466.92
1654.042	2427.11
1657.269	2458.4
1660.495	2436.02
1663.72	2421.2
1666.946	2391.17
1670.171	2362.85
1673.396	2335.22
1676.621	2316.46
1679.845	2314.73
1683.069	2323.52
1686.293	2355.5
1689.517	2345.53
1692.74	2294.06
1695.963	2318.08
1699.185	2359.77
1702.408	2330.35
1705.63	2360.56
1708.852	2377.53
1712.073	2346.63
1715.294	2356.48
1718.515	2400.3
1721.736	2356.96
1724.956	2334.92
1728.176	2356.12
1731.396	2378.52
1734.616	2363.75
1737.835	2400.9
1741.054	2370.36
1744.272	2360.34
1747.491	2403.92
1750.709	2428.92
1753.927	2373.79
1757.144	2398.37
1760.361	2459.07
1763.578	2434.23
1766.795	2381.7
1770.011	2369.15
1773.227	2395.29
1776.443	2440.29
1779.658	2485.44
1782.874	2420.15
1786.089	2411.25
1789.303	2414.29
1792.518	2411.83
1795.732	2396.42
1798.945	2412.81
1802.159	2454.36
1805.372	2395.46
1808.585	2389.96
1811.797	2388.33
1815.01	2410.34
1818.222	2433.31
1821.434	2389.6
1824.645	2433.25
1827.856	2442.59
1831.067	2474.71
1834.278	2409.54
1837.488	2392.07
1840.698	2517.81
1843.908	2455.61
1847.117	2423.97
1850.326	2345.23
1853.535	2407.05
1856.744	2442.73
1859.952	2361.72
1863.16	2362.26
1866.368	2374.13
1869.575	2489.4
1872.782	2369.59
1875.989	2297.52
1879.196	2348.93
1882.402	2337.39
1885.608	2370.91
1888.814	2307.25
1892.019	2210.53
1895.224	2260.72
1898.429	2226.87
1901.634	2208.81
1904.838	2181.32
1908.042	2236.31
1911.246	2248.5
1914.449	2207.95
1917.652	2189.23
1920.855	2168.43
1924.058	2194.79
1927.26	2239.93
1930.462	2262.89
1933.664	2299.52
1936.865	2241.84
1940.066	2257.16
1943.267	2202.2
1946.467	2213.24
1949.668	2233.55
1952.868	2303.95
1956.067	2294.3
1959.267	2234.47
1962.466	2258.08
1965.665	2240.82
1968.863	2234.86
1972.061	2238.65
1975.259	2232.8
1978.457	2308.82
1981.654	2268.4
1984.852	2271.46
1988.048	2223.13
1991.245	2213.8
1994.441	2302.47
1997.637	2260.22
2000.833	2243.41
2004.028	2280.49
2007.223	2344.57
2010.418	2331.71
2013.613	2282.58
2016.807	2275.81
2020.001	2268.74
2023.194	2293.25
2026.388	2276.14
2029.581	2217.84
2032.774	2285
2035.966	2295.38
2039.158	2239.03
2042.35	2258.32
2045.542	2183.73
2048.733	2267.45
2051.924	2260.46
2055.115	2280.02
2058.306	2242.84
2061.496	2297.48
2064.686	2354.73
2067.875	2258.84
2071.065	2260.96
2074.254	2280.86
2077.442	2234.28
2080.631	2319.08
2083.819	2247.29
2087.007	2240.51
2090.195	2223.68
2093.382	2241.89
2096.569	2225.18
2099.756	2183.58
2102.942	2230.4
2106.128	2243.5
2109.314	2230.52
2112.5	2214.35
2115.685	2181.65
2118.87	2189.84
2122.055	2252.78
2125.239	2230.42
2128.424	2216.57
2131.608	2279.52
2134.791	2264.3
2137.974	2303.08
2141.157	2293.7
2144.34	2264.77
2147.523	2255.89
2150.705	2282.73
2153.887	2250.1
2157.068	2219.48
2160.25	2201.85
2163.431	2223.8
2166.611	2193.39
2169.792	2211.67
2172.972	2122.77
2176.152	2174.67
2179.331	2202.53
2182.511	2205.61
2185.69	2227.58
2188.868	2231.67
2192.047	2268.23
2195.225	2283.47
2198.403	2233.64
2201.58	2217.86
2204.758	2207.34
2207.935	2282.9
2211.111	2195.54
2214.288	2184.74
2217.464	2217.73
2220.64	2173.32
2223.815	2223.52
2226.991	2154.79
2230.166	2171.65
2233.34	2212.24
2236.515	2228.18
2239.689	2291.58
2242.863	2240.24
2246.036	2294.41
2249.209	2275.24
2252.382	2296.09
2255.555	2306.77
2258.727	2255.29
2261.9	2284.17
2265.071	2273.16
2268.243	2271.56
2271.414	2217.52
2274.585	2201.57
2277.756	2260.89
2280.926	2215.63
2284.096	2247.45
2287.266	2175.53
2290.436	2218.93
2293.605	2239.23
2296.774	2276.63
2299.942	2283.01
2303.111	2298.31
2306.279	2351.3
2309.447	2334.45
2312.614	2306.32
2315.781	2329.56
2318.948	2308.54
2322.115	2343.86
2325.281	2246.83
2328.447	2254.34
2331.613	2224.23
2334.779	2215.24
2337.944	2211.64
2341.109	2210.67
2344.274	2199.4
2347.438	2168.16
2350.602	2192.36
2353.766	2198.65
2356.929	2188.1
2360.092	2224.59
2363.255	2195.51
2366.418	2159.41
2369.58	2230.23
2372.742	2096.08
2375.904	2093.72
2379.066	2078.01
2382.227	2103.08
2385.388	2063.42
2388.548	2011.94
2391.709	2055.49
2394.869	2042.67
2398.029	2098.43
2401.188	2096.27
2404.347	2055.73
2407.506	2140.51
2410.665	2178.25
2413.823	2164.06
2416.981	2142.22
2420.139	2160.55
2423.296	2203.91
2426.453	2175.42
2429.61	2195.86
2432.767	2163.9
2435.923	2204.32
2439.079	2153.49
2442.235	2189.86
2445.391	2130.61
2448.546	2174.77
2451.701	2209.7
2454.855	2203.15
2458.009	2233.31
2461.163	2223.3
2464.317	2194.38
2467.471	2221.7
2470.624	2251.57
2473.777	2240.71
2476.929	2254.95
2480.082	2277.91
2483.234	2250.25
2486.385	2191.05
2489.537	2185.54
2492.688	2171.92
2495.839	2188.24
2498.989	2204.49
2502.14	2190.95
2505.29	2181.47
2508.439	2204.45
2511.589	2144.87
2514.738	2143.48
2517.887	2168.02
2521.035	2241.55
2524.183	2205.41
2527.331	2192.58
2530.479	2185.76
2533.627	2187.99
