Data from N_2_DEC_NC_4N_Splice17_12-25-12-472.txt Node
Date: Sat Mar 14 12:25:12 EDT 2020
User: sa697716
Spectrometer: FLMS03696
Trigger mode: 0
Integration Time (sec): 3.180400E-1
Scans to average: 20
Electric dark correction enabled: true
Nonlinearity correction enabled: true
Boxcar width: 5
XAxis mode: Wavelengths
Number of Pixels in Spectrum: 2048
>>>>>Begin Spectral Data<<<<<
187.83	-391516.29
188.298	2771.64
188.766	1559.21
189.233	1454.01
189.701	2107.22
190.169	2808.94
190.636	1023.39
191.104	784.96
191.571	100.71
192.039	-67.5
192.506	-52.75
192.974	499.83
193.441	-691.98
193.908	60.59
194.375	21.14
194.842	163.87
195.31	241.58
195.777	208.83
196.244	447.6
196.711	471.7
197.177	546.99
197.644	752.53
198.111	1332.97
198.578	1825.7
199.045	1474.23
199.511	2398.66
199.978	2754.38
200.445	2349.74
200.911	2574.24
201.378	2849
201.844	2577.07
202.31	4435.61
202.777	4679.39
203.243	2596.21
203.709	2478.66
204.176	2950.77
204.642	2475.31
205.108	2333.03
205.574	1914.07
206.04	1760.79
206.506	1661.52
206.972	1584.35
207.438	1535.61
207.903	1730.74
208.369	1507.73
208.835	1512.96
209.301	1574.64
209.766	1613.9
210.232	1589.52
210.697	1962.61
211.163	2402.02
211.628	3577.09
212.094	3000.69
212.559	3688
213.024	2314.65
213.49	2829.59
213.955	2762.04
214.42	2705.58
214.885	2495.42
215.35	2388.36
215.815	2300.1
216.28	2449.12
216.745	1991.06
217.21	2138.93
217.675	1954.7
218.14	2200.04
218.604	2450.95
219.069	2794.75
219.534	2932.53
219.998	3400.42
220.463	4112.81
220.927	5029.92
221.392	4724.28
221.856	4787.6
222.32	6047.34
222.785	7444.19
223.249	9319.26
223.713	10378.06
224.177	10360.2
224.642	13232.86
225.106	16262.02
225.57	17832.08
226.034	13283.25
226.497	20255.62
226.961	18277.39
227.425	21248.02
227.889	23537.71
228.353	23544.28
228.816	48638.09
229.28	46451.35
229.744	39131.9
230.207	23817.25
230.671	23371.38
231.134	38516.94
231.597	44344.85
232.061	44201.47
232.524	42944.12
232.987	29537.19
233.45	26504.75
233.914	23682.24
234.377	24237.8
234.84	22183.65
235.303	26063.43
235.766	28988.53
236.229	29883.74
236.691	18754.18
237.154	21073.9
237.617	15864.73
238.08	16219.62
238.542	19000.18
239.005	13591.13
239.468	13455.89
239.93	12663.89
240.393	11519.24
240.855	10122.43
241.317	10366.54
241.78	12601.97
242.242	12999.58
242.704	14025.35
243.166	12210.21
243.629	11078.17
244.091	12741.13
244.553	13953.13
245.015	14975.15
245.477	19304.98
245.939	28225.44
246.4	29904.42
246.862	29044.01
247.324	27368.12
247.786	30551.71
248.247	39995.62
248.709	41195.1
249.17	30750.98
249.632	28965.96
250.093	33558.86
250.555	28934.48
251.016	17619.5
251.477	16720.52
251.939	18013.6
252.4	18862.54
252.861	22428.38
253.322	20845.2
253.783	24753.4
254.244	32105.99
254.705	25263.98
255.166	22421.5
255.627	22059
256.088	31096.51
256.549	32990.64
257.009	28366.55
257.47	34440.14
257.931	27980.13
258.391	20971.74
258.852	21623.21
259.312	22665.86
259.773	28004.12
260.233	23681.58
260.694	19983.63
261.154	22677.16
261.614	18191.85
262.074	16283.42
262.534	16898.82
262.994	15934.27
263.455	21183.94
263.915	17841.97
264.374	16773.12
264.834	18301.44
265.294	20262.45
265.754	20966.74
266.214	19815.18
266.673	18524.24
267.133	23363.52
267.593	23143.65
268.052	28273.5
268.512	24565.97
268.971	29599.04
269.431	32456.1
269.89	29010.35
270.349	43418.25
270.809	48397.12
271.268	43482.14
271.727	97493.87
272.186	63038.76
272.645	47315.09
273.104	34096.07
273.563	49312.35
274.022	38718.1
274.481	32886.87
274.94	25348.9
275.399	18838.12
275.857	21916.74
276.316	29589.44
276.775	26304.87
277.233	25870.73
277.692	24188.97
278.15	27339.04
278.609	28159.89
279.067	26070.94
279.525	24232.89
279.984	31252.06
280.442	37501.1
280.9	36921.54
281.358	24293.58
281.816	22646.31
282.274	22193.46
282.732	22910.43
283.19	23035.44
283.648	19856.68
284.106	21139.27
284.564	21485.01
285.021	19909.67
285.479	14845.47
285.937	13505.02
286.394	11866.61
286.852	12200.29
287.309	12816.2
287.767	12398.02
288.224	11789.84
288.682	12920.88
289.139	14182.25
289.596	12945.6
290.053	13449.31
290.511	16940.89
290.968	20545.06
291.425	27818.78
291.882	23182.45
292.339	20135.75
292.796	19930.39
293.252	18752.59
293.709	14902.14
294.166	13327.86
294.623	14711.18
295.079	14094.65
295.536	14160.64
295.992	12843.07
296.449	12692.04
296.905	13161.31
297.362	12640.82
297.818	13285.91
298.274	13784.61
298.731	14003.94
299.187	13866.76
299.643	14893.62
300.099	18013.75
300.555	19720.03
301.011	16468.69
301.467	15871.4
301.923	18567.03
302.379	18112.06
302.835	17749.81
303.291	17759.91
303.746	20217.53
304.202	25505.89
304.658	25602.21
305.113	17217.93
305.569	16906.75
306.024	18001.99
306.479	17126.74
306.935	14429.38
307.39	15719.13
307.845	14536.86
308.301	14629.71
308.756	14253.21
309.211	13729.72
309.666	14071.1
310.121	17455.61
310.576	17668.07
311.031	17537.55
311.486	20045.23
311.94	19998.44
312.395	26756.68
312.85	50271.76
313.305	245968.22
313.759	1273685.26
314.214	92340.74
314.668	73228.59
315.123	61590.14
315.577	22109.14
316.032	19649.25
316.486	24586.82
316.94	19435.55
317.394	13534.6
317.849	10508.25
318.303	9959.29
318.757	9407.02
319.211	10373.8
319.665	9075.04
320.119	9176.85
320.572	13138.66
321.026	12251.65
321.48	10201.56
321.934	11104.02
322.387	11094.5
322.841	11969.32
323.295	10806.08
323.748	12409.61
324.202	12590.39
324.655	15102.96
325.108	21102.17
325.562	14912.68
326.015	17721.09
326.468	13405.31
326.921	14992.37
327.374	14008.72
327.827	14599.02
328.28	16495.99
328.733	11074.72
329.186	9743.58
329.639	9283.43
330.092	7807.75
330.545	7434.45
330.997	7499.26
331.45	8206.69
331.903	9625.26
332.355	16530.68
332.808	16057.1
333.26	13220.57
333.713	14347.63
334.165	14437.44
334.617	19264.41
335.069	15571.14
335.522	28089.09
335.974	31066.46
336.426	28359.05
336.878	19612.94
337.33	9965.79
337.782	9751.16
338.234	12219.44
338.686	14589.94
339.137	17296.68
339.589	16266.8
340.041	12759.56
340.493	10951.75
340.944	11241.13
341.396	12079.64
341.847	10181.71
342.299	12011.88
342.75	14662.46
343.201	12799.62
343.653	14688.77
344.104	18006.32
344.555	14143.16
345.006	21932.28
345.457	16855.17
345.908	13354.36
346.359	12576.49
346.81	10214.32
347.261	10742.9
347.712	10532.79
348.163	11277.23
348.613	11464
349.064	10690.58
349.515	9367.45
349.965	9628.27
350.416	11559.12
350.866	12672.62
351.317	14317.58
351.767	23668.85
352.217	29875.31
352.668	24814.12
353.118	22704.06
353.568	21817.73
354.018	17284.27
354.468	18232.91
354.918	13116.14
355.368	11499.26
355.818	16305.07
356.268	46909.68
356.718	197187.96
357.168	49199.33
357.617	24681.34
358.067	27392
358.517	25651.27
358.966	30085.48
359.416	33767.11
359.865	36389.81
360.315	43327.26
360.764	20190.53
361.213	11300.56
361.663	10686.27
362.112	13176.3
362.561	21286.95
363.01	16114.34
363.459	13581.77
363.908	14709.78
364.357	12514.53
364.806	21109.54
365.255	14535.46
365.703	13369.45
366.152	13382.97
366.601	10835.97
367.05	8811.74
367.498	8017.96
367.947	8358.52
368.395	8677.69
368.844	7684.36
369.292	9234.96
369.74	6398.24
370.189	9764.91
370.637	11377.61
371.085	9821.11
371.533	11997.75
371.981	11528.66
372.429	11016.58
372.877	11503.92
373.325	9625.02
373.773	9803.24
374.221	8712.52
374.669	10786.43
375.116	9326.93
375.564	9404.39
376.012	10519.07
376.459	8655.45
376.907	10332.91
377.354	12414.03
377.801	11577.84
378.249	13323.75
378.696	16974.96
379.143	20627.25
379.591	22006.71
380.038	37201.07
380.485	26967.24
380.932	29078.75
381.379	26633.83
381.826	19653.66
382.273	14020.75
382.72	12250.62
383.166	11921.25
383.613	7744.13
384.06	6983.28
384.506	8083.19
384.953	5946.48
385.4	5968.64
385.846	5240.03
386.292	5095.32
386.739	4973.74
387.185	4909.2
387.631	4906.26
388.078	4780.76
388.524	5116.71
388.97	4728.68
389.416	3945.22
389.862	4200.7
390.308	3985.74
390.754	4045.76
391.2	4396.19
391.645	4514.5
392.091	4354.62
392.537	4224.39
392.983	4232.68
393.428	4191.41
393.874	4504.7
394.319	4551.44
394.765	4341.93
395.21	4483.52
395.655	4219.8
396.101	3973.45
396.546	3603.53
396.991	3634.41
397.436	3393.88
397.881	3289.65
398.326	3115.24
398.771	2957.52
399.216	2586.14
399.661	2332.17
400.106	2338.22
400.551	2404.88
400.995	2163.3
401.44	2142.61
401.885	2016.73
402.329	2035.82
402.774	1959.5
403.218	1913.02
403.663	1846.88
404.107	1906.35
404.551	1928.11
404.995	1766.96
405.44	1706.37
405.884	1734.84
406.328	1683.52
406.772	1684.97
407.216	1543.27
407.66	1494.25
408.104	1416.91
408.547	1330.65
408.991	1288.42
409.435	1238.4
409.879	1223.86
410.322	1210.12
410.766	1171.82
411.209	1118.02
411.653	1073.17
412.096	1054.74
412.54	1057.45
412.983	1054
413.426	1059.83
413.869	1060.87
414.312	1047.64
414.756	1012.15
415.199	967.85
415.642	942.69
416.085	945.88
416.527	939.82
416.97	951.43
417.413	903.27
417.856	892.59
418.298	881.67
418.741	876.43
419.184	871.29
419.626	905.45
420.069	902.99
420.511	906.97
420.953	887.32
421.396	880.24
421.838	861.19
422.28	883.87
422.722	890.48
423.164	903.97
423.606	889.32
424.048	889.02
424.49	847.96
424.932	844.84
425.374	833.79
425.816	848.75
426.258	865.16
426.699	874.07
427.141	859.3
427.582	869.15
428.024	864.32
428.465	858.31
428.907	837.21
429.348	824.85
429.789	826.98
430.231	810.53
430.672	820.71
431.113	801.33
431.554	787.57
431.995	769.26
432.436	743.2
432.877	727.7
433.318	715.53
433.759	711.94
434.2	714.93
434.64	708.35
435.081	709.71
435.522	673.75
435.962	650.52
436.403	640.65
436.843	648.56
437.284	636.21
437.724	619.02
438.164	620.39
438.604	608.06
439.045	584.61
439.485	562.77
439.925	552.17
440.365	539.1
440.805	532.54
441.245	526.95
441.685	508.83
442.125	505.81
442.564	510.79
443.004	500.41
443.444	501.03
443.883	503.69
444.323	500.03
444.762	500.65
445.202	507.95
445.641	522.1
446.081	519.49
446.52	526.36
446.959	523.98
447.398	513.38
447.837	511.87
448.276	504.33
448.716	510.51
449.154	517.4
449.593	510.08
450.032	511.44
450.471	500.77
450.91	501.52
451.349	503.23
451.787	502.62
452.226	512.09
452.664	513.31
453.103	516.58
453.541	518.29
453.98	518.6
454.418	522.45
454.856	516.62
455.295	518.07
455.733	525.23
456.171	528.12
456.609	531.11
457.047	531.44
457.485	540.36
457.923	542.57
458.361	535.92
458.798	538.38
459.236	537.52
459.674	539.67
460.111	542.27
460.549	536.49
460.987	534.9
461.424	532.11
461.862	529.35
462.299	521.93
462.736	520.86
463.173	523.25
463.611	518.32
464.048	518.01
464.485	524.68
464.922	520.23
465.359	517.85
465.796	515.72
466.233	512.46
466.67	509.42
467.106	508.4
467.543	504.07
467.98	497.31
468.416	485.59
468.853	480.79
469.29	465.83
469.726	461.1
470.162	448.64
470.599	439.3
471.035	435.24
471.471	425.08
471.907	422.22
472.344	419.92
472.78	422.07
473.216	426.5
473.652	423.28
474.088	422.73
474.523	422.51
474.959	427.62
475.395	424.63
475.831	422.66
476.266	424.42
476.702	423.81
477.138	420.35
477.573	419.29
478.008	418.94
478.444	420.75
478.879	425.98
479.314	428.23
479.75	428.6
480.185	430.98
480.62	435.57
481.055	438.76
481.49	442.97
481.925	450.1
482.36	459.42
482.795	472.24
483.229	485.08
483.664	494.92
484.099	497.09
484.534	505.68
484.968	511.91
485.403	513.62
485.837	514
486.271	513.61
486.706	514.57
487.14	509.14
487.574	501.83
488.009	499.31
488.443	496.66
488.877	503.38
489.311	506.03
489.745	513.61
490.179	521.18
490.613	533.71
491.046	540.2
491.48	546.17
491.914	549.02
492.348	556.44
492.781	561.88
493.215	565.92
493.648	569.7
494.082	578.39
494.515	581.77
494.948	591.46
495.382	598.53
495.815	606.3
496.248	615.77
496.681	630.6
497.114	645.16
497.547	659.57
497.98	676.12
498.413	687.78
498.846	701.09
499.279	714.07
499.711	724.21
500.144	732.71
500.577	748.03
501.009	763.16
501.442	779.43
501.874	785.91
502.306	792.59
502.739	806.89
503.171	827.07
503.603	836.35
504.036	852.58
504.468	863.93
504.9	880.66
505.332	894.77
505.764	906.12
506.196	920.12
506.627	941.91
507.059	963.04
507.491	978.11
507.923	982.3
508.354	1004.73
508.786	1022.43
509.217	1047.17
509.649	1069.56
510.08	1094.23
510.512	1117.69
510.943	1137.79
511.374	1155.18
511.805	1181.84
512.237	1207.17
512.668	1247.36
513.099	1281.53
513.53	1315.87
513.961	1342.87
514.391	1381.66
514.822	1421.13
515.253	1465.01
515.684	1497.62
516.114	1532.94
516.545	1559.72
516.975	1592.24
517.406	1614.52
517.836	1619.68
518.267	1627.65
518.697	1649.99
519.127	1656.9
519.558	1667.22
519.988	1672.08
520.418	1684.53
520.848	1707.04
521.278	1717.25
521.708	1734.1
522.138	1748.53
522.567	1784.1
522.997	1812.56
523.427	1830.67
523.857	1849.98
524.286	1862.35
524.716	1880.21
525.145	1901.18
525.575	1912.72
526.004	1928.98
526.433	1924.48
526.863	1925.47
527.292	1913.25
527.721	1919.21
528.15	1925.07
528.579	1923.96
529.008	1935.23
529.437	1959.89
529.866	1975.47
530.295	1995.29
530.724	2008.54
531.152	2038.2
531.581	2053.61
532.01	2074.1
532.438	2084.04
532.867	2100.01
533.295	2122.07
533.723	2128.86
534.152	2125.33
534.58	2125.32
535.008	2105.39
535.436	2107.72
535.865	2117.24
536.293	2133.07
536.721	2150.6
537.149	2181.46
537.576	2184.36
538.004	2198.1
538.432	2207.95
538.86	2207
539.287	2215.47
539.715	2232.8
540.143	2236.58
540.57	2231.99
540.998	2227.87
541.425	2201.74
541.852	2175.28
542.28	2173.19
542.707	2154.26
543.134	2137.81
543.561	2132.64
543.988	2122.72
544.415	2120.96
544.842	2114.23
545.269	2105.18
545.696	2106.7
546.123	2121.08
546.549	2108.97
546.976	2093.87
547.403	2092.41
547.829	2095.04
548.256	2096.12
548.682	2092.33
549.108	2083.06
549.535	2081.64
549.961	2084.04
550.387	2068.02
550.813	2060.04
551.24	2067.97
551.666	2068.67
552.092	2057.67
552.518	2049.7
552.943	2043.02
553.369	2051.41
553.795	2056.44
554.221	2059.19
554.646	2055
555.072	2067.57
555.498	2073.86
555.923	2083.85
556.349	2100.77
556.774	2112
557.199	2113.08
557.625	2119.5
558.05	2111.11
558.475	2125.06
558.9	2122.43
559.325	2114.08
559.75	2108.3
560.175	2101.66
560.6	2093.83
561.025	2092.46
561.449	2093.58
561.874	2100.38
562.299	2107.64
562.723	2117.7
563.148	2106.6
563.572	2113.07
563.997	2125.36
564.421	2131.79
564.846	2133.21
565.27	2138.93
565.694	2138.02
566.118	2153
566.542	2163.25
566.966	2157.22
567.39	2153.48
567.814	2142.76
568.238	2143.8
568.662	2152.33
569.086	2156.91
569.509	2167.63
569.933	2150.54
570.357	2142.13
570.78	2119.31
571.204	2105.67
571.627	2094.47
572.05	2093.9
572.474	2093.42
572.897	2080.33
573.32	2070.49
573.743	2059.25
574.166	2039.02
574.589	2041.16
575.012	2033.94
575.435	2032.81
575.858	2022.05
576.281	2009.41
576.704	1990.84
577.126	1977.67
577.549	1964.26
577.972	1953.91
578.394	1941.99
578.817	1932.62
579.239	1910.02
579.661	1893.78
580.084	1873.97
580.506	1858.8
580.928	1853.05
581.35	1840.06
581.772	1834.69
582.194	1818.01
582.616	1803.07
583.038	1787.27
583.46	1775.5
583.882	1771.71
584.303	1777.45
584.725	1773.93
585.147	1775.34
585.568	1788.39
585.99	1802.36
586.411	1810.51
586.833	1828.95
587.254	1830.82
587.675	1847.36
588.096	1860.69
588.518	1855.61
588.939	1835.85
589.36	1833.49
589.781	1821.49
590.202	1787.65
590.623	1777.38
591.043	1774.56
591.464	1760.07
591.885	1756.34
592.305	1749.41
592.726	1734.29
593.147	1735.12
593.567	1728.83
593.987	1719.49
594.408	1714.4
594.828	1712.22
595.248	1705.86
595.669	1684.32
596.089	1675.46
596.509	1667.2
596.929	1651.77
597.349	1652.56
597.769	1640.08
598.189	1631.91
598.608	1633.74
599.028	1635.73
599.448	1635.96
599.867	1620.19
600.287	1615.04
600.706	1610.24
601.126	1598.94
601.545	1597.05
601.965	1595.36
602.384	1589.66
602.803	1593.64
603.222	1586.86
603.641	1578.93
604.061	1575
604.48	1570.45
604.898	1579.19
605.317	1584.12
605.736	1585.86
606.155	1581.39
606.574	1570.14
606.992	1575.04
607.411	1568.22
607.829	1558.52
608.248	1554.15
608.666	1549.73
609.085	1548.22
609.503	1536.92
609.921	1529.22
610.339	1530.84
610.758	1530.06
611.176	1524.12
611.594	1513.44
612.012	1507.7
612.43	1510.47
612.847	1517.05
613.265	1515.88
613.683	1520.06
614.101	1520.78
614.518	1515.31
614.936	1502.78
615.353	1484.54
615.771	1480.1
616.188	1480.06
616.606	1476.34
617.023	1467.19
617.44	1450.58
617.857	1442.95
618.274	1431.6
618.691	1423.69
619.108	1412.26
619.525	1404.62
619.942	1411.54
620.359	1412.64
620.776	1405.22
621.192	1399.4
621.609	1397.14
622.026	1402.01
622.442	1407.29
622.859	1411.7
623.275	1404.06
623.691	1409.56
624.108	1422.17
624.524	1437.4
624.94	1437.26
625.356	1448.12
625.772	1462.84
626.188	1475.4
626.604	1477.76
627.02	1473.59
627.436	1470.94
627.852	1477.46
628.268	1490.68
628.683	1479.92
629.099	1470.92
629.514	1464.97
629.93	1469.74
630.345	1474.69
630.761	1468.93
631.176	1473.09
631.591	1467.22
632.007	1459.72
632.422	1457.52
632.837	1444.68
633.252	1441.56
633.667	1429.23
634.082	1418.46
634.497	1403.41
634.911	1381.39
635.326	1377.02
635.741	1356.89
636.155	1344.49
636.57	1344.08
636.984	1342.49
637.399	1342.82
637.813	1340.77
638.228	1338.47
638.642	1342.95
639.056	1329.76
639.47	1328.17
639.884	1317.5
640.298	1308.18
640.712	1305.02
641.126	1290.81
641.54	1278.37
641.954	1270.48
642.368	1254.33
642.781	1241.98
643.195	1220.06
643.609	1216.8
644.022	1206.05
644.436	1199.19
644.849	1183.59
645.262	1167.73
645.676	1165.76
646.089	1157.32
646.502	1137.59
646.915	1128.74
647.328	1107.89
647.741	1102.03
648.154	1086.01
648.567	1080.63
648.98	1063.47
649.393	1060.5
649.805	1053.73
650.218	1042.72
650.631	1024.35
651.043	1014.79
651.456	1005.84
651.868	1004
652.28	1018.92
652.693	1027.71
653.105	1030.4
653.517	1034.85
653.929	1031.42
654.341	1031.55
654.753	1015.74
655.165	1018.48
655.577	1011.48
655.989	1002.82
656.401	988.96
656.813	948.63
657.224	926.09
657.636	893.15
658.047	871.81
658.459	847.42
658.87	832.99
659.282	814.65
659.693	789.13
660.104	770.25
660.515	751.43
660.926	745.11
661.338	735.47
661.749	722.31
662.159	708.09
662.57	697.04
662.981	686.74
663.392	674.73
663.803	671.2
664.213	662.32
664.624	651.56
665.035	647.48
665.445	628.82
665.855	617.37
666.266	606.2
666.676	598.62
667.086	586.22
667.497	580.85
667.907	571.73
668.317	560.38
668.727	554.41
669.137	550.51
669.547	545.02
669.956	543.72
670.366	540.6
670.776	538.37
671.186	537.77
671.595	538.11
672.005	537.67
672.414	536.1
672.824	534.16
673.233	535.23
673.642	537.13
674.052	538.31
674.461	540.15
674.87	543.97
675.279	542.27
675.688	542.85
676.097	543.78
676.506	541.25
676.915	550.62
677.323	553.8
677.732	552.29
678.141	551.64
678.549	544.92
678.958	544.69
679.366	545.17
679.775	550.73
680.183	562.23
680.592	569.42
681	577.36
681.408	576.06
681.816	585.85
682.224	597.27
682.632	611.86
683.04	641.59
683.448	668.24
683.856	701.35
684.264	738.3
684.671	773.46
685.079	818.09
685.487	868
685.894	935.84
686.302	996.17
686.709	1050.42
687.116	1111.74
687.524	1166.23
687.931	1216
688.338	1262.27
688.745	1304.38
689.152	1350.92
689.559	1407.46
689.966	1462.65
690.373	1495.05
690.78	1544.2
691.187	1617.71
691.593	1676.3
692	1727.18
692.407	1797.95
692.813	1883.43
693.22	1952.1
693.626	2021.88
694.032	2077.93
694.439	2161.29
694.845	2227.47
695.251	2309.96
695.657	2381.45
696.063	2487.57
696.469	2566.47
696.875	2640.22
697.281	2679.81
697.687	2727.94
698.093	2767.73
698.498	2846.11
698.904	2905.78
699.31	2995.26
699.715	3059.19
700.12	3154.4
700.526	3168.25
700.931	3238.18
701.337	3289.38
701.742	3320.97
702.147	3405.43
702.552	3434.26
702.957	3493.57
703.362	3510.78
703.767	3537.3
704.172	3574.36
704.577	3519.91
704.981	3563.62
705.386	3576.7
705.791	3559.63
706.195	3632.37
706.6	3636.81
707.004	3715.22
707.408	3676.25
707.813	3699.2
708.217	3682.17
708.621	3679.25
709.025	3776.12
709.43	3775.01
709.834	3831.83
710.237	3902.69
710.641	3881.95
711.045	3902.21
711.449	3891.78
711.853	3918.91
712.256	3958.15
712.66	3991.95
713.064	4064
713.467	4103.19
713.87	4215.26
714.274	4259.5
714.677	4367.63
715.08	4529
715.484	4697.47
715.887	4901.26
716.29	5099.78
716.693	5306.62
717.096	5548.2
717.499	5679.95
717.901	5699.33
718.304	5719.22
718.707	5738.54
719.109	5629.85
719.512	5592.77
719.915	5447.87
720.317	5384.24
720.719	5424.09
721.122	5388.55
721.524	5334.09
721.926	5288.74
722.328	5382.81
722.731	5371.77
723.133	5395.91
723.535	5588.23
723.937	5604.91
724.338	5654.77
724.74	5692.33
725.142	5622.78
725.544	5620.98
725.945	5640.74
726.347	5631.59
726.748	5622.42
727.15	5633.17
727.551	5590.72
727.952	5556.97
728.354	5525.23
728.755	5521.8
729.156	5476.19
729.557	5462.95
729.958	5339.28
730.359	5283.41
730.76	5265.21
731.161	5204.81
731.562	5175.95
731.962	5179.17
732.363	5115.7
732.763	5050.8
733.164	5085.24
733.564	5016.59
733.965	4920.28
734.365	4882.76
734.766	4909.43
735.166	4867.45
735.566	4809.54
735.966	4782.18
736.366	4773.75
736.766	4710.56
737.166	4740.4
737.566	4698.26
737.966	4673
738.365	4709.28
738.765	4702.22
739.165	4625.65
739.564	4597.42
739.964	4641.56
740.363	4593.45
740.763	4588.57
741.162	4577.1
741.561	4544.91
741.96	4496.36
742.36	4516.2
742.759	4520.24
743.158	4557.14
743.557	4573.03
743.955	4612.61
744.354	4566.59
744.753	4625.67
745.152	4588.14
745.55	4640.17
745.949	4633.89
746.348	4637.72
746.746	4652.31
747.144	4612.52
747.543	4588.42
747.941	4635.69
748.339	4564.53
748.737	4556.42
749.136	4546.18
749.534	4608.14
749.932	4579.89
750.33	4601.89
750.727	4655.8
751.125	4631.44
751.523	4617.08
751.921	4660.2
752.318	4623.92
752.716	4682.98
753.113	4697.09
753.511	4719.95
753.908	4720.99
754.305	4706.52
754.703	4766.98
755.1	4826.17
755.497	4883.93
755.894	5068.41
756.291	5243.24
756.688	5565.48
757.085	5993.74
757.482	6597.44
757.878	7255.88
758.275	7849.62
758.672	8668.05
759.068	9336.43
759.465	10289.15
759.861	11517.73
760.258	12941.94
760.654	13686.48
761.05	13582.62
761.447	12953.88
761.843	12057.68
762.239	11133.58
762.635	10716.7
763.031	10310.77
763.427	9732.53
763.822	9121.49
764.218	8524.94
764.614	7745.29
765.01	7219.79
765.405	6882.15
765.801	6630.24
766.196	6304.42
766.592	6124.35
766.987	5816.11
767.382	5608.35
767.778	5518.05
768.173	5391.71
768.568	5318.63
768.963	5198.84
769.358	5214.52
769.753	5168.89
770.148	5086.83
770.542	5083.01
770.937	5049.29
771.332	5134.35
771.726	5152.58
772.121	5093.62
772.515	5147.13
772.91	5131.95
773.304	5198.54
773.699	5137.13
774.093	5186.01
774.487	5241.56
774.881	5284.78
775.275	5279.68
775.669	5240.26
776.063	5282.76
776.457	5317.7
776.851	5245.5
777.245	5239.84
777.638	5275.13
778.032	5385.15
778.425	5351.56
778.819	5393.15
779.212	5353.01
779.606	5315.83
779.999	5336.47
780.392	5321.62
780.786	5401.09
781.179	5422.29
781.572	5463.09
781.965	5475.25
782.358	5416.07
782.751	5469.05
783.143	5419.66
783.536	5491.59
783.929	5534.17
784.322	5647.67
784.714	5676.86
785.107	5672.68
785.499	5741.63
785.891	5723.95
786.284	5704.84
786.676	5846.9
787.068	5830.88
787.46	5880.65
787.852	5898.19
788.245	5980.46
788.636	6008.63
789.028	6074.29
789.42	6110.49
789.812	6116.48
790.204	6206.94
790.595	6300.9
790.987	6110.5
791.378	6133.41
791.77	6258.77
792.161	6390.72
792.553	6446.49
792.944	6338.27
793.335	6271.48
793.726	6343.22
794.117	6430.95
794.508	6562.1
794.899	6534.1
795.29	6667.43
795.681	6723.09
796.072	6584.28
796.463	6403.08
796.853	6413.39
797.244	6561.68
797.634	6596.96
798.025	6595.36
798.415	6606.92
798.806	6692.79
799.196	6775.34
799.586	6823.4
799.976	6786.74
800.366	7011.45
800.756	7246.28
801.146	7203.5
801.536	7235.67
801.926	7303.31
802.316	7328.22
802.706	7397.17
803.095	7282.87
803.485	7378.64
803.874	7419.28
804.264	7671.77
804.653	7646.53
805.043	7784.44
805.432	7891.24
805.821	7890.43
806.21	7914.34
806.599	8032.06
806.988	8076.57
807.377	8178.99
807.766	8306.39
808.155	8581.98
808.544	8322.46
808.933	8334.21
809.321	8314.82
809.71	8601.92
810.098	8758.26
810.487	9204.45
810.875	9667.69
811.264	9691.04
811.652	9967.77
812.04	10110.65
812.428	10274.27
812.816	11017.04
813.204	11424.76
813.592	11958.12
813.98	12281.44
814.368	12184.75
814.756	12651.7
815.144	12571.51
815.531	13025.3
815.919	12958.34
816.306	13255.96
816.694	12954.13
817.081	13007.21
817.469	13338.08
817.856	13341.51
818.243	13599.91
818.63	13984.44
819.017	13574.74
819.404	13641.08
819.791	14006.94
820.178	14600.2
820.565	14836.47
820.952	15735.65
821.339	15253.94
821.725	15440.39
822.112	14719.42
822.498	14687.83
822.885	14814.74
823.271	14722.67
823.657	15126.09
824.044	15136.14
824.43	15208.5
824.816	15174.92
825.202	14760.3
825.588	15750.54
825.974	15766.43
826.36	16277.03
826.746	16308.11
827.132	16656.41
827.517	16641.48
827.903	15878.8
828.289	15917.82
828.674	15167.2
829.06	15077.76
829.445	15460.8
829.83	15807.5
830.216	16267.18
830.601	16616.24
830.986	16222.78
831.371	16085.16
831.756	16619.56
832.141	16210.76
832.526	16202.29
832.911	16477.36
833.295	16353.36
833.68	16804.39
834.065	16201.9
834.449	15320.56
834.834	15246.48
835.218	15239.53
835.603	15573
835.987	15366.42
836.371	16169.93
836.755	16066.22
837.139	16447.21
837.524	16687.91
837.908	16511.12
838.291	16568.19
838.675	16629.54
839.059	16829.42
839.443	16824.79
839.827	16601.49
840.21	17067.11
840.594	16916.77
840.977	17112.25
841.361	17086.57
841.744	17446.12
842.127	17299.49
842.511	17535.04
842.894	18114.12
843.277	18479.74
843.66	19003.53
844.043	19085.59
844.426	18309.23
844.809	18015.2
845.191	18046.18
845.574	17609.54
845.957	17265.06
846.339	17154
846.722	16650.33
847.104	16712.39
847.487	16544.73
847.869	16555.1
848.252	16825.11
848.634	17138.1
849.016	17390.97
849.398	17516.59
849.78	18331.27
850.162	18332.36
850.544	18742.34
850.926	19352.14
851.307	19269.42
851.689	19542.74
852.071	19988.01
852.452	20297.08
852.834	20277.65
853.215	20664.07
853.597	20811.51
853.978	21101.52
854.359	21543.02
854.741	20580.16
855.122	20483.95
855.503	20212.83
855.884	20344.91
856.265	20272.25
856.646	20390.48
857.026	20019.09
857.407	19957.14
857.788	20121.28
858.169	20397.77
858.549	19575.29
858.93	20178.97
859.31	20226.7
859.69	20423.44
860.071	20030.81
860.451	19820.79
860.831	19100.18
861.211	20216.34
861.591	20743.11
861.971	20709.28
862.351	20894.41
862.731	21265.5
863.111	21525.35
863.491	21835.96
863.87	22688.15
864.25	23021.35
864.629	22637.22
865.009	23129.75
865.388	23949.2
865.768	25670.18
866.147	25571.4
866.526	24161.09
866.905	24445.31
867.284	25809.16
867.663	24518.5
868.042	23500.45
868.421	23425.66
868.8	23813.36
869.179	24049.04
869.558	22654.72
869.936	20878.32
870.315	21247.09
870.693	21758.24
871.072	23473.63
871.45	22359.51
871.828	22634.94
872.207	23791.07
872.585	23426.93
872.963	24058.33
873.341	23225.1
873.719	22942.69
874.097	22664.73
874.475	23100.95
874.853	23634.74
875.23	22644.82
875.608	23587.89
875.986	25513.14
876.363	24396.17
876.741	25137.42
877.118	24506.8
877.495	25718.17
877.873	26141.16
878.25	27501.01
878.627	26366.27
879.004	26737.08
879.381	26613.87
879.758	25913.14
880.135	24118.76
880.512	25501.87
880.889	24819.19
881.265	24560.86
881.642	24353.34
882.019	24764.34
882.395	24267.64
882.772	25237.79
883.148	24145.1
883.524	24051.72
883.901	23925.88
884.277	24299.14
884.653	24144.56
885.029	24847.93
885.405	27525.48
885.781	27320.4
886.157	26203.96
886.532	26523
886.908	26504.72
887.284	29463.27
887.659	30416.36
888.035	31362.91
888.411	32162.54
888.786	32584.06
889.161	33713.11
889.537	33102.87
889.912	34151.69
890.287	34117.37
890.662	35001.29
891.037	34363.89
891.412	32047.14
891.787	31728.15
892.162	30622.29
892.536	31346.39
892.911	30169.28
893.286	29545.44
893.66	28330.86
894.035	29056.05
894.409	31645.27
894.784	30367.81
895.158	30884.95
895.532	32719.76
895.906	33614.68
896.281	34391.21
896.655	33839.32
897.029	38662.87
897.402	40256.51
897.776	44830.43
898.15	44678.17
898.524	44206.31
898.898	44806.55
899.271	50147.16
899.645	43446.12
900.018	41730.55
900.392	43283.64
900.765	43629.13
901.138	40400.53
901.511	39795.7
901.884	36558.49
902.258	33730.98
902.631	34844.77
903.003	40087.79
903.376	36193.63
903.749	40577.86
904.122	43414.93
904.495	47790.27
904.867	48378.58
905.24	41990.49
905.612	39068.87
905.985	39944.77
906.357	41742.22
906.729	39851.63
907.102	34044.43
907.474	32725.61
907.846	32919.08
908.218	32498.5
908.59	28708.85
908.962	27773.27
909.334	29906.22
909.705	31423.59
910.077	30511.42
910.449	31742.54
910.82	32615.05
911.192	35903.92
911.563	37305.59
911.935	39936.73
912.306	39989.97
912.677	41338.75
913.048	40936.16
913.419	44417.96
913.79	44686.84
914.161	47883.52
914.532	45817.76
914.903	42092.04
915.274	39932.7
915.645	39333.65
916.015	34610.14
916.386	32982.73
916.756	35086.06
917.127	36179.64
917.497	32324.89
917.868	35172.77
918.238	33454.67
918.608	34402.04
918.978	35128.36
919.348	37211.92
919.718	38453.47
920.088	37018.57
920.458	38475.9
920.828	40500.67
921.198	38397.53
921.567	41006.71
921.937	31750.91
922.306	32036.77
922.676	34542.66
923.045	28805.71
923.415	27363.5
923.784	24935.26
924.153	25649.93
924.522	25639.79
924.891	24096.16
925.26	25818.58
925.629	25216.07
925.998	29010.17
926.367	28325.77
926.736	26981.53
927.104	32151.79
927.473	34601.44
927.842	41766.23
928.21	41383.94
928.578	43485.76
928.947	41149.95
929.315	41426.2
929.683	48582.8
930.051	48955.19
930.42	56844.79
930.788	48617.71
931.156	48237.48
931.523	45204.77
931.891	41812.21
932.259	40146.07
932.627	46554.62
932.994	65834.81
933.362	54415.99
933.729	47275.98
934.097	45227.78
934.464	38273.47
934.831	44150.23
935.199	43558.68
935.566	42231.76
935.933	42751.74
936.3	51818.88
936.667	40342.58
937.034	36408.22
937.401	35982.2
937.767	31048.08
938.134	27679.01
938.501	39036.74
938.867	41588.15
939.234	70366.13
939.6	60066.16
939.967	66237.86
940.333	44309.06
940.699	37693.6
941.065	30248.93
941.431	39647.26
941.798	38256.96
942.163	50158.02
942.529	31347.8
942.895	28859.81
943.261	18634.24
943.627	24433.37
943.992	21377.35
944.358	21421.77
944.723	21498.15
945.089	20932.97
945.454	19319.64
945.82	20627.26
946.185	19852.19
946.55	22997.05
946.915	20625.89
947.28	24212.08
947.645	21314.68
948.01	19677.58
948.375	20528.15
948.74	24620.01
949.104	28760.21
949.469	41575.54
949.834	73425.89
950.198	69580.3
950.562	41728.09
950.927	34758.27
951.291	41805.94
951.655	35627.87
952.02	33469.04
952.384	25282.93
952.748	22001.29
953.112	21458.43
953.476	18677.27
953.839	17259.34
954.203	17070.63
954.567	21352.83
954.931	33643.21
955.294	28800.37
955.658	28957.4
956.021	49252.33
956.385	83570.81
956.748	123276.7
957.111	191133.66
957.474	214701.83
957.837	241802.42
958.2	183123.66
958.563	65858.83
958.926	44493.37
959.289	67461.03
959.652	75350.71
960.015	56533.25
960.377	81189.51
960.74	92674.38
961.102	160048.35
961.465	171611.09
961.827	92045.44
962.189	176784.17
962.552	122575.49
962.914	98415.87
963.276	63890.08
963.638	52835.34
964	52324.04
964.362	35336.73
964.724	34151.23
965.085	24355.99
965.447	19991.42
965.809	22765.12
966.17	22776.78
966.532	24627.29
966.893	22592.32
967.255	20570.24
967.616	24288.59
967.977	19460.4
968.338	21270.49
968.699	17491.6
969.061	17481.92
969.421	17587.52
969.782	19733.69
970.143	16656.33
970.504	17268.18
970.865	19610.14
971.225	20040.76
971.586	19597.78
971.946	27918.74
972.307	24214.12
972.667	31692.24
973.027	32640.01
973.388	39626.81
973.748	26978.55
974.108	29393.92
974.468	39710.28
974.828	30662.69
975.188	23587.16
975.548	21638.39
975.907	18172.3
976.267	20388.84
976.627	17122.46
976.986	17752
977.346	16910.25
977.705	16254.6
978.064	14816.19
978.424	12351.18
978.783	12761.26
979.142	14587.28
979.501	13976.57
979.86	14777.56
980.219	14235.95
980.578	18377.07
980.937	20566.47
981.296	18328.74
981.654	18860.09
982.013	29327.59
982.371	38031.43
982.73	35525.9
983.088	40181.45
983.447	42899.38
983.805	61314.35
984.163	128133.91
984.521	142039.57
984.879	208454.94
985.237	-338758.79
985.595	326363.99
985.953	81104.68
986.311	46833.81
986.669	27199.21
987.026	23505
987.384	31662.57
987.741	32708.37
988.099	23359.47
988.456	18621.62
988.814	17454.27
989.171	15185.41
989.528	15004.49
989.885	15819.26
990.242	12526.29
990.599	15596.58
990.956	12744.18
991.313	8907.38
991.67	7317.08
992.027	7769.74
992.383	6900.32
992.74	6041.2
993.096	6331.93
993.453	6567.38
993.809	6820.04
994.165	9091.28
994.522	8332.25
994.878	9186.96
995.234	11525.38
995.59	11372.46
995.946	10755.43
996.302	12280.96
996.658	14208.04
997.013	15665.04
997.369	18570.99
997.725	23771.49
998.08	15386.78
998.436	23755.2
998.791	32761.37
999.147	32712.79
999.502	35713.9
999.857	25989.38
1000.212	42312.65
1000.567	60240.45
1000.922	34771.63
1001.277	22098.85
1001.632	16397.17
1001.987	21110.3
1002.342	15112.22
1002.696	12088.41
1003.051	9654.87
1003.406	11693.23
1003.76	11643.63
1004.114	11466.31
1004.469	9629.47
1004.823	7970.89
1005.177	8601.48
1005.531	6817.01
1005.885	6050.02
1006.239	6837.62
1006.593	8566.24
1006.947	11442.17
1007.301	8563.99
1007.655	9349.39
1008.008	6883.37
1008.362	7750.99
1008.715	11070.09
1009.069	10036.12
1009.422	15094.6
1009.776	30349.24
1010.129	20155.73
1010.482	16879.98
1010.835	14273.48
1011.188	29693.39
1011.541	27873.83
1011.894	-169634.27
1012.247	498362.98
1012.6	33784.6
1012.952	21275.03
1013.305	10950.78
1013.657	7882.31
1014.01	7449.9
1014.362	6139.88
1014.715	5460.21
1015.067	4760.03
1015.419	4656.37
1015.771	4143.17
1016.123	3689.24
1016.475	3801.15
1016.827	4051.11
1017.179	4357.79
1017.531	4391.38
1017.883	4490.68
1018.234	4327.99
1018.586	5467.96
1018.938	5804.03
1019.289	7999.45
1019.64	9113.93
1019.992	8477.56
1020.343	7777.97
1020.694	6148.37
1021.045	5435.16
1021.396	6198.07
1021.747	6654.81
1022.098	8008.26
1022.449	5818.3
1022.8	5398.31
1023.151	3769.23
1023.501	3348.32
1023.852	3646.05
1024.202	3773.33
1024.553	4137.3
1024.903	4052.42
1025.253	3479.79
1025.604	3127.12
1025.954	3874.26
1026.304	4710.67
1026.654	5485.62
1027.004	8004.86
1027.354	12960.63
1027.703	12197.57
1028.053	16038.31
1028.403	23311.86
1028.753	33863.04
1029.102	45713.56
1029.452	233787.41
1029.801	10033.42
1030.15	6465.38
1030.499	5464.91
897.758	2581.39
901.051	2537.56
904.343	2571.38
907.636	2573.99
910.928	2638.52
914.22	2548.78
917.511	2556.57
920.803	2619.54
924.094	2633.81
927.384	2620.67
930.675	2583.53
933.965	2538.8
937.255	2552.6
940.544	2520.25
943.834	2472.22
947.123	2413.24
950.411	2509.34
953.7	2482.37
956.988	2451.5
960.276	2392.58
963.563	2468.19
966.851	2466.54
970.138	2522.67
973.424	2514.76
976.711	2467.32
979.997	2581.19
983.283	2619.61
986.568	2528.6
989.853	2543.14
993.138	2569.01
996.423	2650.87
999.708	2591.78
1002.992	2648.59
1006.275	2498.75
1009.559	2537.51
1012.842	2643.97
1016.125	2581.79
1019.408	2562.39
1022.69	2646.26
1025.972	2665.17
1029.254	2641.72
1032.536	2579.3
1035.817	2602.11
1039.098	2552.24
1042.379	2677.61
1045.659	2681.58
1048.939	2620.33
1052.219	2637.03
1055.498	2645.22
1058.778	2631.24
1062.057	2613.17
1065.335	2635.45
1068.614	2652.11
1071.892	2639.77
1075.17	2711.45
1078.447	2703.84
1081.724	2693.08
1085.001	2728.7
1088.278	2704.34
1091.554	2717.28
1094.83	2711.57
1098.106	2742.22
1101.382	2784.09
1104.657	2785.55
1107.932	2777.82
1111.206	2745.58
1114.481	2703.77
1117.755	2708.38
1121.029	2690.53
1124.302	2744.94
1127.575	2696.91
1130.848	2687.04
1134.121	2649.22
1137.393	2602.05
1140.665	2668.45
1143.937	2643.99
1147.208	2601.5
1150.48	2643.54
1153.75	2631.04
1157.021	2656.56
1160.291	2626.45
1163.561	2676.08
1166.831	2662.79
1170.101	2693.7
1173.37	2665.32
1176.639	2611.19
1179.907	2669.71
1183.176	2676.66
1186.444	2684.5
1189.711	2709.81
1192.979	2725.61
1196.246	2679.71
1199.513	2695.43
1202.78	2693.93
1206.046	2703.97
1209.312	2728.55
1212.578	2753.11
1215.843	2706.8
1219.108	2683.42
1222.373	2705.65
1225.638	2670.78
1228.902	2656.03
1232.166	2623.77
1235.43	2602.96
1238.693	2628.95
1241.956	2624.73
1245.219	2666.23
1248.482	2656.23
1251.744	2650.53
1255.006	2792.18
1258.268	2746.05
1261.529	2692.82
1264.79	2696.98
1268.051	2801.6
1271.312	2819.09
1274.572	2779.64
1277.832	2769.88
1281.092	2760.92
1284.351	2736.14
1287.61	2716.46
1290.869	2635.71
1294.128	2616.1
1297.386	2698.49
1300.644	2687.37
1303.902	2698.38
1307.159	2560.7
1310.416	2615.19
1313.673	2639.71
1316.93	2625.49
1320.186	2669.11
1323.442	2711.03
1326.697	2703.38
1329.953	2690.7
1333.208	2715.39
1336.463	2694.58
1339.717	2635.43
1342.972	2764.9
1346.226	2741.03
1349.479	2676.08
1352.733	2648.76
1355.986	2670.17
1359.238	2646.86
1362.491	2646.96
1365.743	2651.11
1368.995	2645.36
1372.247	2659.16
1375.498	2682.99
1378.749	2700.33
1382	2656.32
1385.251	2708.22
1388.501	2666.92
1391.751	2653.36
1395	2623.42
1398.25	2657.29
1401.499	2666.73
1404.748	2599.2
1407.996	2586.04
1411.244	2572.72
1414.492	2555.29
1417.74	2534.4
1420.987	2542.17
1424.234	2600.22
1427.481	2576.28
1430.728	2636.09
1433.974	2609.53
1437.22	2621.86
1440.465	2621.82
1443.711	2593.09
1446.956	2625.85
1450.201	2609.07
1453.445	2654.21
1456.689	2633.12
1459.933	2644.15
1463.177	2677.8
1466.42	2650.48
1469.663	2630.59
1472.906	2625.15
1476.148	2692.05
1479.391	2666.39
1482.633	2632.89
1485.874	2646.12
1489.115	2634.01
1492.356	2639.4
1495.597	2617.21
1498.838	2619.11
1502.078	2589.32
1505.318	2543.73
1508.557	2585.49
1511.797	2566.96
1515.036	2621.12
1518.274	2613.88
1521.513	2583.47
1524.751	2605.16
1527.989	2615.22
1531.227	2629.91
1534.464	2624.53
1537.701	2642.51
1540.938	2659.96
1544.174	2611.95
1547.41	2610.91
1550.646	2651.92
1553.882	2690.66
1557.117	2743.61
1560.352	2757.46
1563.587	2718.45
1566.821	2678.27
1570.055	2711.68
1573.289	2681.21
1576.523	2752.53
1579.756	2763.59
1582.989	2781.62
1586.222	2740.37
1589.454	2777.03
1592.686	2750.9
1595.918	2775.1
1599.15	2765.98
1602.381	2836.56
1605.612	2794.62
1608.843	2892.04
1612.073	2811.38
1615.303	2793.24
1618.533	2783.96
1621.762	2785.8
1624.992	2769.63
1628.221	2761.54
1631.449	2747.02
1634.678	2797.06
1637.906	2752.92
1641.134	2791.89
1644.361	2749.99
1647.588	2733.13
1650.815	2751.39
1654.042	2729.36
1657.269	2761.09
1660.495	2716.92
1663.72	2736.29
1666.946	2701.1
1670.171	2649.57
1673.396	2624.19
1676.621	2610.65
1679.845	2626.94
1683.069	2650.22
1686.293	2687.6
1689.517	2663.18
1692.74	2596.38
1695.963	2625.47
1699.185	2642.59
1702.408	2616.55
1705.63	2655.6
1708.852	2668.72
1712.073	2643.35
1715.294	2631.72
1718.515	2687.48
1721.736	2638.72
1724.956	2629.69
1728.176	2653.27
1731.396	2674.65
1734.616	2660.34
1737.835	2690.3
1741.054	2672.05
1744.272	2665.01
1747.491	2692.22
1750.709	2742.07
1753.927	2653.23
1757.144	2697.04
1760.361	2739.73
1763.578	2731.67
1766.795	2675.43
1770.011	2678.69
1773.227	2716.43
1776.443	2751.47
1779.658	2793.66
1782.874	2737.93
1786.089	2719.17
1789.303	2720.76
1792.518	2725.19
1795.732	2714.42
1798.945	2722.37
1802.159	2771.23
1805.372	2681.44
1808.585	2667.81
1811.797	2668.22
1815.01	2713.9
1818.222	2719.53
1821.434	2701.39
1824.645	2756.31
1827.856	2745.77
1831.067	2779.69
1834.278	2734.24
1837.488	2716.62
1840.698	2862.71
1843.908	2789.86
1847.117	2756.08
1850.326	2646.43
1853.535	2742.25
1856.744	2757.52
1859.952	2676.21
1863.16	2677.28
1866.368	2696.72
1869.575	2802.27
1872.782	2690.72
1875.989	2626.47
1879.196	2706.6
1882.402	2695.23
1885.608	2736.34
1888.814	2644.28
1892.019	2541.51
1895.224	2593.02
1898.429	2572.13
1901.634	2553.67
1904.838	2528.79
1908.042	2575.8
1911.246	2587.22
1914.449	2521.9
1917.652	2514.43
1920.855	2498.74
1924.058	2542.51
1927.26	2581.22
1930.462	2607.24
1933.664	2636.21
1936.865	2572.01
1940.066	2582.87
1943.267	2530.03
1946.467	2543.83
1949.668	2569.52
1952.868	2638.66
1956.067	2616.19
1959.267	2552.29
1962.466	2578.09
1965.665	2562.52
1968.863	2553.38
1972.061	2570.86
1975.259	2567.49
1978.457	2649.32
1981.654	2605.21
1984.852	2607.15
1988.048	2544.01
1991.245	2546.84
1994.441	2631.95
1997.637	2611.01
2000.833	2593.87
2004.028	2633.93
2007.223	2690.19
2010.418	2667.81
2013.613	2625.04
2016.807	2599.83
2020.001	2606.51
2023.194	2645.67
2026.388	2621.23
2029.581	2567.58
2032.774	2618.97
2035.966	2624.47
2039.158	2559.48
2042.35	2582.46
2045.542	2514
2048.733	2607.87
2051.924	2631.21
2055.115	2654.01
2058.306	2601.65
2061.496	2660.47
2064.686	2722.38
2067.875	2637.32
2071.065	2650.06
2074.254	2674.65
2077.442	2626.75
2080.631	2713.28
2083.819	2614.29
2087.007	2595.48
2090.195	2568.53
2093.382	2600.34
2096.569	2580.26
2099.756	2535.52
2102.942	2563.69
2106.128	2572.03
2109.314	2561.49
2112.5	2528.27
2115.685	2503.73
2118.87	2513.23
2122.055	2575.77
2125.239	2545.51
2128.424	2524.11
2131.608	2619.58
2134.791	2600.97
2137.974	2655.83
2141.157	2640.16
2144.34	2596.83
2147.523	2610.69
2150.705	2626.48
2153.887	2604.88
2157.068	2558.5
2160.25	2558.36
2163.431	2590.91
2166.611	2540.74
2169.792	2557.11
2172.972	2454.59
2176.152	2528.77
2179.331	2563.83
2182.511	2544.53
2185.69	2573.99
2188.868	2568.1
2192.047	2618.35
2195.225	2612.13
2198.403	2562.63
2201.58	2552.95
2204.758	2551.32
2207.935	2632.79
2211.111	2522.33
2214.288	2506.36
2217.464	2546.53
2220.64	2513.94
2223.815	2568.44
2226.991	2494
2230.166	2512.78
2233.34	2545.26
2236.515	2568.3
2239.689	2636.34
2242.863	2582.45
2246.036	2641.33
2249.209	2638.82
2252.382	2672.28
2255.555	2663.65
2258.727	2602.4
2261.9	2641.38
2265.071	2632.49
2268.243	2634.89
2271.414	2570.03
2274.585	2534.92
2277.756	2598.01
2280.926	2554.47
2284.096	2591.82
2287.266	2502.49
2290.436	2558.05
2293.605	2586.51
2296.774	2617.38
2299.942	2632.91
2303.111	2648.79
2306.279	2697.61
2309.447	2685.48
2312.614	2663.1
2315.781	2684.04
2318.948	2655.4
2322.115	2692.86
2325.281	2592.1
2328.447	2611.84
2331.613	2583.98
2334.779	2563.09
2337.944	2563.63
2341.109	2562.86
2344.274	2543.67
2347.438	2510.38
2350.602	2536.26
2353.766	2551.47
2356.929	2538.39
2360.092	2581.73
2363.255	2534.53
2366.418	2473.81
2369.58	2580.42
2372.742	2382.23
2375.904	2394.3
2379.066	2373.66
2382.227	2406.32
2385.388	2368.58
2388.548	2298.36
2391.709	2350.74
2394.869	2329.31
2398.029	2421.02
2401.188	2433.28
2404.347	2369.72
2407.506	2501.72
2410.665	2533.44
2413.823	2535.46
2416.981	2495.12
2420.139	2522.66
2423.296	2573.51
2426.453	2546.51
2429.61	2568.1
2432.767	2509.01
2435.923	2545.36
2439.079	2509.06
2442.235	2556.31
2445.391	2481.66
2448.546	2515.4
2451.701	2562.38
2454.855	2538.69
2458.009	2585.09
2461.163	2585.12
2464.317	2547.31
2467.471	2578.72
2470.624	2617.58
2473.777	2589.21
2476.929	2601.57
2480.082	2630.43
2483.234	2593.47
2486.385	2543.05
2489.537	2535.34
2492.688	2502.1
2495.839	2518.73
2498.989	2532.92
2502.14	2518.49
2505.29	2501.63
2508.439	2525.26
2511.589	2452.57
2514.738	2461.54
2517.887	2490.77
2521.035	2562.11
2524.183	2539.44
2527.331	2521
2530.479	2498.72
2533.627	2507.17
