Data from N_2_DIV_PA_2N_Splice17_12-39-06-515.txt Node
Date: Sat Mar 14 12:39:06 EDT 2020
User: sa697716
Spectrometer: FLMS03696
Trigger mode: 0
Integration Time (sec): 3.180400E-1
Scans to average: 20
Electric dark correction enabled: true
Nonlinearity correction enabled: true
Boxcar width: 5
XAxis mode: Wavelengths
Number of Pixels in Spectrum: 2048
>>>>>Begin Spectral Data<<<<<
187.83	-271905.49
188.298	1987.28
188.766	1043.1
189.233	922.93
189.701	1384.73
190.169	1850.91
190.636	699.08
191.104	623.51
191.571	91.21
192.039	-95.44
192.506	-82.92
192.974	437.21
193.441	-861.5
193.908	-336.49
194.375	-116.04
194.842	-21.81
195.31	-5.25
195.777	133.69
196.244	360.14
196.711	394.84
197.177	521.13
197.644	747.23
198.111	1267.67
198.578	1807.18
199.045	1466.56
199.511	2393
199.978	2786.47
200.445	2389.85
200.911	2639.53
201.378	2910.75
201.844	2666.53
202.31	4507.46
202.777	4683.8
203.243	2607.2
203.709	2466.29
204.176	2920.86
204.642	2433.11
205.108	2262.67
205.574	1820.74
206.04	1652.31
206.506	1573.06
206.972	1462.46
207.438	1416.37
207.903	1609.04
208.369	1416.59
208.835	1413.19
209.301	1475.14
209.766	1489.91
210.232	1466.91
210.697	1820.3
211.163	2240.36
211.628	3322.94
212.094	2820.43
212.559	3485.3
213.024	2185.24
213.49	2664.93
213.955	2596.35
214.42	2520.12
214.885	2331.34
215.35	2252.37
215.815	2200.89
216.28	2332.65
216.745	1885.54
217.21	2040.46
217.675	1848.82
218.14	2056.2
218.604	2257.93
219.069	2555.69
219.534	2661.54
219.998	3063.72
220.463	3697.81
220.927	4480.59
221.392	4186.51
221.856	4236.44
222.32	5287.86
222.785	6477.93
223.249	8112.63
223.713	9033.91
224.177	9013.95
224.642	11538.33
225.106	14174.67
225.57	15391.75
226.034	11465.58
226.497	17484.61
226.961	15815.16
227.425	18411.68
227.889	20434.51
228.353	20401.98
228.816	42085.85
229.28	40356.04
229.744	33965.3
230.207	20696.57
230.671	20383.96
231.134	33634.48
231.597	38771.49
232.061	38709.48
232.524	37729.13
232.987	26021.91
233.45	23463.38
233.914	21065.91
234.377	21556.51
234.84	19774.65
235.303	23337.57
235.766	26080.9
236.229	27013.35
236.691	16985.18
237.154	19087.7
237.617	14391.36
238.08	14765.2
238.542	17293.98
239.005	12383.49
239.468	12322.84
239.93	11636.57
240.393	10572.03
240.855	9281.51
241.317	9482.54
241.78	11551.46
242.242	11965.33
242.704	12948.85
243.166	11279.42
243.629	10275.86
244.091	11860.78
244.553	12985.1
245.015	13951.21
245.477	18061.97
245.939	26501.39
246.4	28178.89
246.862	27418.11
247.324	25872.42
247.786	28928.15
248.247	37933.43
248.709	39117.72
249.17	29301.84
249.632	27707.64
250.093	32205.42
250.555	27837.19
251.016	17024.04
251.477	16177.87
251.939	17505.27
252.4	18382.31
252.861	21902.58
253.322	20411.87
253.783	24319.87
254.244	31583.63
254.705	24892.91
255.166	22133.72
255.627	21838.39
256.088	30823.79
256.549	32763.48
257.009	28225.61
257.47	34246.58
257.931	27881.73
258.391	20910.18
258.852	21546.93
259.312	22570.54
259.773	27887.28
260.233	23611.19
260.694	19950.23
261.154	22621.34
261.614	18180
262.074	16257.08
262.534	16927.62
262.994	15960.86
263.455	21277.75
263.915	17941.79
264.374	16923.26
264.834	18493.32
265.294	20495.48
265.754	21221.95
266.214	20094.41
266.673	18881.89
267.133	23873.26
267.593	23671.54
268.052	29021.05
268.512	25262.5
268.971	30564.62
269.431	33543.04
269.89	30045.02
270.349	45089.71
270.809	50334.89
271.268	45344.63
271.727	101584.25
272.186	65795.9
272.645	49369.26
273.104	35632
273.563	51590.82
274.022	40550
274.481	34523.63
274.94	26640.79
275.399	19794.94
275.857	23046.52
276.316	31172.02
276.775	27759.55
277.233	27352.2
277.692	25660.9
278.15	29060.09
278.609	29964.68
279.067	27729.64
279.525	25787.58
279.984	33298.89
280.442	40081.12
280.9	39586.82
281.358	26068.57
281.816	24301.3
282.274	23831.08
282.732	24627.94
283.19	24761.74
283.648	21328.58
284.106	22722.91
284.564	23090.63
285.021	21432.38
285.479	15979.09
285.937	14507.15
286.394	12739.85
286.852	13099.01
287.309	13753.12
287.767	13291.41
288.224	12624.35
288.682	13886.04
289.139	15254.25
289.596	13975.21
290.053	14533.55
290.511	18348.83
290.968	22300.14
291.425	30289.39
291.882	25307.96
292.339	22058.83
292.796	21897.67
293.252	20675.58
293.709	16449.28
294.166	14778.08
294.623	16355.96
295.079	15713.82
295.536	15810.84
295.992	14368.46
296.449	14216.97
296.905	14770.35
297.362	14185.89
297.818	14940.89
298.274	15519.62
298.731	15824.34
299.187	15647.77
299.643	16799.82
300.099	20325.1
300.555	22291.33
301.011	18639.92
301.467	18004.22
301.923	21070.65
302.379	20574.92
302.835	20212.4
303.291	20243.83
303.746	23040.99
304.202	29160.2
304.658	29266.5
305.113	19709.39
305.569	19333.34
306.024	20606.51
306.479	19573.35
306.935	16515.98
307.39	18028.43
307.845	16657.23
308.301	16783.85
308.756	16373.33
309.211	15778.09
309.666	16194.93
310.121	20092.13
310.576	20388.45
311.031	20208.83
311.486	23167.33
311.94	23167.97
312.395	31039.7
312.85	58371.53
313.305	286783.65
313.759	1487168.36
314.214	107608.43
314.668	85369.69
315.123	71994.01
315.577	25831.65
316.032	23040.54
316.486	28888.85
316.94	22841.86
317.394	15908.78
317.849	12370.48
318.303	11705.3
318.757	11041.69
319.211	12245.44
319.665	10732.89
320.119	10859.87
320.572	15600.32
321.026	14609.22
321.48	12186.6
321.934	13273.33
322.387	13295.55
322.841	14378.18
323.295	12967.4
323.748	14929.59
324.202	15145.91
324.655	18196.03
325.108	25479.73
325.562	17967.31
326.015	21341.45
326.468	16123.12
326.921	18052.49
327.374	16853.1
327.827	17555.53
328.28	19872.35
328.733	13322.14
329.186	11715.22
329.639	11157.14
330.092	9388.12
330.545	8971.5
330.997	9072.96
331.45	9945.09
331.903	11659.41
332.355	20063.84
332.808	19519.16
333.26	16078.08
333.713	17457.88
334.165	17599.14
334.617	23500.85
335.069	18967.94
335.522	34277.33
335.974	37789.9
336.426	34472.9
336.878	23889.9
337.33	12131.72
337.782	11854.72
338.234	14890.99
338.686	17791.21
339.137	21133
339.589	19878.4
340.041	15592.46
340.493	13371.38
340.944	13714.56
341.396	14762.17
341.847	12430.63
342.299	14688.93
342.75	17937.57
343.201	15625.04
343.653	17987.61
344.104	22064.52
344.555	17418.5
345.006	27127.77
345.457	20880.24
345.908	16635.88
346.359	15652.42
346.81	12751.89
347.261	13423
347.712	13224.51
348.163	14197.84
348.613	14429.56
349.064	13462.6
349.515	11772.86
349.965	12086.48
350.416	14523.5
350.866	15938.65
351.317	18050.68
351.767	29950.26
352.217	37884.5
352.668	31384.95
353.118	28785.43
353.568	27759.47
354.018	21966.26
354.468	23254.45
354.918	16681.27
355.368	14592.17
355.818	20616.82
356.268	59327.84
356.718	247954.06
357.168	61672.21
357.617	31005.61
358.067	34502.96
358.517	32304.22
358.966	37903.99
359.416	42503.05
359.865	46017.72
360.315	54841.66
360.764	25620.46
361.213	14362.43
361.663	13624.37
362.112	16835.91
362.561	27261.25
363.01	20546.19
363.459	17287.96
363.908	18783.32
364.357	15999.16
364.806	27033.24
365.255	18588.2
365.703	17069.85
366.152	17104.87
366.601	13892.99
367.05	11294.48
367.498	10258.06
367.947	10753.75
368.395	11213.48
368.844	9929.87
369.292	11951.81
369.74	8278.56
370.189	12721.24
370.637	14900.98
371.085	12865.81
371.533	15645.72
371.981	15120.86
372.429	14451.51
372.877	15052.25
373.325	12606.26
373.773	12856.33
374.221	11452.13
374.669	14206.94
375.116	12312.46
375.564	12455.57
376.012	13941.49
376.459	11516.01
376.907	13766.59
377.354	16691.91
377.801	15639.97
378.249	18036.1
378.696	23132.46
379.143	28084.79
379.591	30045.5
380.038	51000.62
380.485	36969.96
380.932	40182.9
381.379	36986.28
381.826	27373.62
382.273	19507.56
382.72	17073.84
383.166	16665.79
383.613	10843.07
384.06	9803.68
384.506	11396.97
384.953	8403.5
385.4	8474.16
385.846	7453.12
386.292	7277.2
386.739	7139.75
387.185	7085.65
387.631	7132.68
388.078	6964.83
388.524	7473.81
388.97	6942.53
389.416	5822.2
389.862	6214.08
390.308	5914.6
390.754	6027.82
391.2	6576.09
391.645	6762.53
392.091	6502.66
392.537	6290.71
392.983	6325.4
393.428	6264.48
393.874	6730.95
394.319	6770.98
394.765	6444.55
395.21	6654.94
395.655	6270.07
396.101	5898.06
396.546	5338.44
396.991	5402.81
397.436	5054.1
397.881	4904.83
398.326	4661.84
398.771	4436.83
399.216	3897.42
399.661	3524.99
400.106	3533.02
400.551	3634.46
400.995	3274.55
401.44	3258.47
401.885	3079.53
402.329	3119.6
402.774	3005.9
403.218	2924.31
403.663	2831.08
404.107	2925.72
404.551	2962.13
404.995	2728.39
405.44	2642.83
405.884	2696.13
406.328	2620.82
406.772	2626.82
407.216	2406.02
407.66	2337.52
408.104	2231.4
408.547	2100.49
408.991	2043.31
409.435	1975.21
409.879	1955.95
410.322	1936.96
410.766	1881.17
411.209	1798.23
411.653	1732.01
412.096	1703.8
412.54	1711.31
412.983	1705.37
413.426	1716.46
413.869	1722.12
414.312	1696.24
414.756	1641.06
415.199	1571.24
415.642	1531.76
416.085	1537.54
416.527	1528.9
416.97	1554.45
417.413	1478.18
417.856	1467.91
418.298	1454.52
418.741	1444.63
419.184	1445.76
419.626	1509.01
420.069	1514.69
420.511	1523.72
420.953	1494.45
421.396	1486.54
421.838	1455.18
422.28	1491.54
422.722	1503.69
423.164	1530.09
423.606	1507.94
424.048	1507.98
424.49	1436.9
424.932	1430.7
425.374	1411.88
425.816	1439.36
426.258	1466.64
426.699	1482.37
427.141	1457.73
427.582	1474.07
428.024	1461.91
428.465	1453.73
428.907	1421.36
429.348	1405.33
429.789	1406.07
430.231	1378.51
430.672	1397.39
431.113	1367.94
431.554	1350.78
431.995	1326.05
432.436	1286.9
432.877	1266.84
433.318	1250.91
433.759	1247.96
434.2	1249.7
434.64	1237.7
435.081	1242.79
435.522	1180.36
435.962	1139.52
436.403	1118.34
436.843	1135.04
437.284	1111.47
437.724	1080.22
438.164	1084.57
438.604	1062.24
439.045	1024.72
439.485	985.63
439.925	968.9
440.365	945.79
440.805	935.09
441.245	922.37
441.685	888.69
442.125	882.35
442.564	890.87
443.004	869.78
443.444	864.87
443.883	864.25
444.323	857.58
444.762	857.64
445.202	868.98
445.641	885.51
446.081	881.96
446.52	887.72
446.959	880.32
447.398	857.42
447.837	848.75
448.276	836.33
448.716	844.77
449.154	850.56
449.593	830.7
450.032	826.38
450.471	808.55
450.91	805.62
451.349	802.02
451.787	795.02
452.226	805.41
452.664	801.31
453.103	799
453.541	795.69
453.98	791.96
454.418	794.32
454.856	779.79
455.295	776.44
455.733	781.43
456.171	784.53
456.609	785.87
457.047	784.26
457.485	794.73
457.923	795.49
458.361	783.67
458.798	786.04
459.236	784.66
459.674	790.55
460.111	794.99
460.549	788.67
460.987	786.07
461.424	782.54
461.862	779.49
462.299	767.73
462.736	767.09
463.173	770.74
463.611	763.08
464.048	759.68
464.485	767.22
464.922	759.67
465.359	757.34
465.796	749.24
466.233	745.47
466.67	739.46
467.106	740.34
467.543	734.58
467.98	726.43
468.416	709.92
468.853	706.94
469.29	687.58
469.726	683.92
470.162	665.8
470.599	658.03
471.035	653.1
471.471	638.86
471.907	635.24
472.344	632.14
472.78	633.91
473.216	641.51
473.652	633.95
474.088	631.87
474.523	628.52
474.959	634.58
475.395	628.62
475.831	624.97
476.266	627.42
476.702	626.19
477.138	619.06
477.573	615.85
478.008	613.06
478.444	615.93
478.879	621.72
479.314	623.27
479.75	622.52
480.185	623.8
480.62	627.47
481.055	629.78
481.49	631.88
481.925	639.02
482.36	648.39
482.795	662.43
483.229	675.19
483.664	683.9
484.099	683.14
484.534	689.33
484.968	693.2
485.403	691.94
485.837	688.33
486.271	684.84
486.706	684
487.14	674.53
487.574	663.46
488.009	657.43
488.443	651.07
488.877	655.8
489.311	655.96
489.745	661.28
490.179	665.74
490.613	675.92
491.046	678.65
491.48	680.6
491.914	679.34
492.348	680.86
492.781	681.86
493.215	679.95
493.648	678.49
494.082	680.58
494.515	677.78
494.948	681.12
495.382	680.87
495.815	681.07
496.248	681
496.681	687.45
497.114	693.15
497.547	696.47
497.98	703.87
498.413	702.58
498.846	705.61
499.279	706.82
499.711	704.31
500.144	700.87
500.577	704.32
501.009	707.37
501.442	709.1
501.874	703.93
502.306	700.02
502.739	701.27
503.171	708.1
503.603	704.53
504.036	705.59
504.468	704.74
504.9	706.42
505.332	704.23
505.764	701.67
506.196	700.5
506.627	703.87
507.059	706.24
507.491	703.24
507.923	694.05
508.354	697.83
508.786	698.32
509.217	702.37
509.649	705.29
510.08	711.83
510.512	716.31
510.943	719.63
511.374	720.75
511.805	726.97
512.237	732.53
512.668	746.22
513.099	755.28
513.53	764.49
513.961	769.76
514.391	782.12
514.822	795.4
515.253	808.97
515.684	816.59
516.114	828.07
516.545	836.01
516.975	846.77
517.406	852.73
517.836	850.1
518.267	852.33
518.697	862.37
519.127	863.13
519.558	864.62
519.988	865.69
520.418	870.66
520.848	879.72
521.278	883.72
521.708	916.04
522.138	924.06
522.567	942.34
522.997	955.81
523.427	961.65
523.857	968.88
524.286	973.72
524.716	981.73
525.145	993.74
525.575	999.82
526.004	1008.11
526.433	981.58
526.863	981.1
527.292	976.5
527.721	981.25
528.15	987.47
528.579	992.05
529.008	999.94
529.437	1013.97
529.866	1021.43
530.295	1032.08
530.724	1039.87
531.152	1056.03
531.581	1065.66
532.01	1077.07
532.438	1082.37
532.867	1091.65
533.295	1102.68
533.723	1107.45
534.152	1108.09
534.58	1109.72
535.008	1101.98
535.436	1105.16
535.865	1110.77
536.293	1119.04
536.721	1127.5
537.149	1141.98
537.576	1142.35
538.004	1148.97
538.432	1152.85
538.86	1151.95
539.287	1155.63
539.715	1164.16
540.143	1163.99
540.57	1162.57
540.998	1161.7
541.425	1150.87
541.852	1140.32
542.28	1141.78
542.707	1133.31
543.134	1127.08
543.561	1125.72
543.988	1122.53
544.415	1122.92
544.842	1121.9
545.269	1118.57
545.696	1120.93
546.123	1129.87
546.549	1124.15
546.976	1117.18
547.403	1118.85
547.829	1119.8
548.256	1122
548.682	1120.6
549.108	1117.8
549.535	1118.13
549.961	1120.01
550.387	1112.12
550.813	1109.7
551.24	1114.89
551.666	1115.31
552.092	1109.47
552.518	1106.69
552.943	1103.92
553.369	1109.46
553.795	1112.25
554.221	1112.85
554.646	1110.22
555.072	1117.53
555.498	1117.16
555.923	1120.72
556.349	1128.75
556.774	1132.64
557.199	1130.36
557.625	1130.98
558.05	1125.21
558.475	1130.32
558.9	1128
559.325	1122.56
559.75	1116.67
560.175	1111.68
560.6	1106.76
561.025	1103.91
561.449	1102.57
561.874	1105.28
562.299	1106.06
562.723	1108.36
563.148	1099.02
563.572	1098.94
563.997	1100.74
564.421	1100.76
564.846	1098.15
565.27	1097.5
565.694	1093.03
566.118	1097.09
566.542	1100.1
566.966	1094.99
567.39	1089.73
567.814	1080.88
568.238	1077.86
568.662	1078.64
569.086	1078.03
569.509	1081.69
569.933	1072.16
570.357	1067.12
570.78	1054.21
571.204	1046.87
571.627	1039.69
572.05	1037.98
572.474	1038.92
572.897	1031.42
573.32	1028.07
573.743	1021.7
574.166	1010.96
574.589	1009.74
575.012	1005.8
575.435	1003.74
575.858	996.13
576.281	988.26
576.704	978.82
577.126	970.6
577.549	965
577.972	958.89
578.394	953.28
578.817	950.53
579.239	939.94
579.661	932.04
580.084	925.86
580.506	920.38
580.928	920.39
581.35	915.24
581.772	913.72
582.194	906.71
582.616	899.51
583.038	891.43
583.46	884.67
583.882	882.51
584.303	884.9
584.725	880.8
585.147	884.81
585.568	889.35
585.99	893.92
586.411	896.43
586.833	902.45
587.254	902.12
587.675	909.36
588.096	915.32
588.518	911.76
588.939	899.86
589.36	899.3
589.781	887.9
590.202	874.21
590.623	871.34
591.043	869.8
591.464	863.32
591.885	862.02
592.305	859.4
592.726	851.73
593.147	853.9
593.567	852.58
593.987	846.83
594.408	843.37
594.828	839.22
595.248	836.14
595.669	826.79
596.089	822.36
596.509	817.64
596.929	809.04
597.349	809.05
597.769	802.41
598.189	798.76
598.608	799.44
599.028	800.94
599.448	800.16
599.867	791.55
600.287	787.81
600.706	786.51
601.126	781.69
601.545	781.79
601.965	781.41
602.384	778.42
602.803	779.61
603.222	778.04
603.641	774.38
604.061	773.67
604.48	771.47
604.898	775.68
605.317	777.97
605.736	778.78
606.155	777.58
606.574	772.18
606.992	774.56
607.411	771.8
607.829	765.73
608.248	762.94
608.666	760.96
609.085	761.41
609.503	757.93
609.921	755
610.339	756.42
610.758	755.55
611.176	752.08
611.594	747.4
612.012	746.44
612.43	750.07
612.847	754.07
613.265	755.6
613.683	757.98
614.101	758.55
614.518	756.16
614.936	751.31
615.353	743.38
615.771	743.35
616.188	744.45
616.606	743.47
617.023	740.36
617.44	733.87
617.857	730.83
618.274	727.31
618.691	725.53
619.108	721.07
619.525	717.73
619.942	723.72
620.359	725.49
620.776	722.61
621.192	720.62
621.609	719.44
622.026	723.34
622.442	726.29
622.859	727.44
623.275	722.73
623.691	726.27
624.108	732.76
624.524	738.51
624.94	738.36
625.356	744.18
625.772	750.5
626.188	756.02
626.604	756.64
627.02	753.65
627.436	752.65
627.852	756.13
628.268	761.9
628.683	757.78
629.099	754.2
629.514	751.55
629.93	754.18
630.345	757.36
630.761	755.39
631.176	758.24
631.591	757.93
632.007	755.6
632.422	755.25
632.837	750.07
633.252	749.81
633.667	744.12
634.082	740.75
634.497	736.5
634.911	727.49
635.326	728.09
635.741	720.82
636.155	716.05
636.57	720.63
636.984	723.96
637.399	729.56
637.813	731.33
638.228	734.52
638.642	739.59
639.056	735.58
639.47	739.48
639.884	738.3
640.298	738.33
640.712	741.75
641.126	736.61
641.54	734.34
641.954	733.7
642.368	730.02
642.781	730.65
643.195	723.18
643.609	727.84
644.022	727.4
644.436	727.74
644.849	722.37
645.262	717.62
645.676	721.85
646.089	722.16
646.502	716.01
646.915	716.94
647.328	708.77
647.741	711.92
648.154	706.6
648.567	710.26
648.98	704.95
649.393	708.59
649.805	709.34
650.218	706.93
650.631	699.46
651.043	697.61
651.456	696.52
651.868	698.15
652.28	710.67
652.693	719.75
653.105	722.67
653.517	729.17
653.929	730.1
654.341	735.11
654.753	729.11
655.165	734.8
655.577	735.26
655.989	732.77
656.401	730.47
656.813	709.97
657.224	700.77
657.636	684.72
658.047	677.78
658.459	668.59
658.87	666.82
659.282	663.15
659.693	653.85
660.104	647.52
660.515	642.61
660.926	646.88
661.338	648.68
661.749	648.91
662.159	647.16
662.57	648.05
662.981	650.04
663.392	649.52
663.803	656.95
664.213	658.74
664.624	659.5
665.035	665.65
665.445	656.97
665.855	655.32
666.266	653.19
666.676	655.46
667.086	651.82
667.497	654.22
667.907	651.69
668.317	646.65
668.727	647.35
669.137	650.32
669.547	651.01
669.956	655.99
670.366	659.3
670.776	661.93
671.186	665.21
671.595	668.44
672.005	671.57
672.414	672.47
672.824	671.25
673.233	673.46
673.642	675.79
674.052	679.86
674.461	681.2
674.87	684.8
675.279	681.91
675.688	683.43
676.097	684.27
676.506	680.92
676.915	691.71
677.323	694.01
677.732	691.25
678.141	689.55
678.549	677.29
678.958	674.02
679.366	671.57
679.775	673.53
680.183	680.14
680.592	682
681	683.77
681.408	673.99
681.816	675.57
682.224	678.75
682.632	682.66
683.04	700.91
683.448	714.37
683.856	730.33
684.264	748.8
684.671	761.84
685.079	778.97
685.487	798.92
685.894	829.3
686.302	847.44
686.709	859.38
687.116	874.05
687.524	883.49
687.931	886.38
688.338	886.01
688.745	881.22
689.152	879.19
689.559	885.34
689.966	890.66
690.373	883.09
690.78	888.83
691.187	904.01
691.593	910.96
692	914.51
692.407	931.76
692.813	958.44
693.22	976.76
693.626	995.98
694.032	1012.17
694.439	1041.47
694.845	1064.4
695.251	1095.56
695.657	1126.93
696.063	1173.33
696.469	1208.82
696.875	1244.03
697.281	1263.71
697.687	1291
698.093	1316.51
698.498	1360.79
698.904	1396.48
699.31	1449.53
699.715	1493.94
700.12	1551.02
700.526	1573.14
700.931	1623.7
701.337	1665.35
701.742	1698.36
702.147	1759.49
702.552	1793.93
702.957	1844.6
703.362	1873.79
703.767	1908.08
704.172	1948.64
704.577	1941.96
704.981	1988.94
705.386	2019.05
705.791	2034.59
706.195	2099.64
706.6	2125.59
707.004	2194.7
707.408	2194.57
707.813	2234.18
708.217	2248.01
708.621	2271.26
709.025	2355.53
709.43	2379.12
709.834	2439.84
710.237	2509.21
710.641	2519.83
711.045	2555.35
711.449	2572.42
711.853	2616.67
712.256	2666.15
712.66	2714.76
713.064	2787.98
713.467	2837.4
713.87	2937.62
714.274	2987.81
714.677	3082.24
715.08	3218.05
715.484	3361.35
715.887	3530.71
716.29	3694.38
716.693	3866.8
717.096	4062.92
717.499	4182.27
717.901	4223.49
718.304	4267.81
718.707	4317.34
719.109	4269.53
719.512	4278.87
719.915	4204.16
720.317	4190.43
720.719	4253.24
721.122	4260.66
721.524	4249.53
721.926	4244.12
722.328	4350
722.731	4364.24
723.133	4410.15
723.535	4592.75
723.937	4626.92
724.338	4691.91
724.74	4745.81
725.142	4735.72
725.544	4752.78
725.945	4802.12
726.347	4818.75
726.748	4836.12
727.15	4870.13
727.551	4856.97
727.952	4849.07
728.354	4842.74
728.755	4860.51
729.156	4843.06
729.557	4832.38
729.958	4743.78
730.359	4709.68
730.76	4711.61
731.161	4673.97
731.562	4669.67
731.962	4692.14
732.363	4652.46
732.763	4614.79
733.164	4664.54
733.564	4617.24
733.965	4544.73
734.365	4525.06
734.766	4565.35
735.166	4540.47
735.566	4501.59
735.966	4488.73
736.366	4491.67
736.766	4442.59
737.166	4479.65
737.566	4450.58
737.966	4436.54
738.365	4480.25
738.765	4486.95
739.165	4423.3
739.564	4407.07
739.964	4457.32
740.363	4419.68
740.763	4425.27
741.162	4425.35
741.561	4402.55
741.96	4364.06
742.36	4387.67
742.759	4399.93
743.158	4441.3
743.557	4461.07
743.955	4504.11
744.354	4465.83
744.753	4526.36
745.152	4491.81
745.55	4547.21
745.949	4544.96
746.348	4547.12
746.746	4566.2
747.144	4532.13
747.543	4511.71
747.941	4558.68
748.339	4494.31
748.737	4489.04
749.136	4481.98
749.534	4545.83
749.932	4521.56
750.33	4542.01
750.727	4599.46
751.125	4578.9
751.523	4565.28
751.921	4611.12
752.318	4580.8
752.716	4639.39
753.113	4655.56
753.511	4682.55
753.908	4683.29
754.305	4668.42
754.703	4733.41
755.1	4795
755.497	4854.05
755.894	5037.48
756.291	5204.93
756.688	5513.11
757.085	5914.02
757.482	6478.13
757.878	7089.93
758.275	7630.64
758.672	8384.13
759.068	8988.8
759.465	9861.1
759.861	10993.51
760.258	12298.14
760.654	12950.47
761.05	12821.45
761.447	12242.93
761.843	11416.98
762.239	10560.19
762.635	10194.34
763.031	9837.46
763.427	9314.51
763.822	8759.63
764.218	8209.37
764.614	7485.46
765.01	7010.36
765.405	6711.9
765.801	6487.45
766.196	6190
766.592	6030.95
766.987	5745.93
767.382	5554.13
767.778	5477.29
768.173	5362.27
768.568	5299.84
768.963	5187.45
769.358	5212.77
769.753	5170.8
770.148	5088.8
770.542	5089.69
770.937	5063.3
771.332	5154.54
771.726	5176.66
772.121	5114.07
772.515	5166.33
772.91	5150.95
773.304	5221.74
773.699	5156.73
774.093	5208.6
774.487	5265.85
774.881	5307.39
775.275	5299.9
775.669	5257.57
776.063	5303.59
776.457	5341.39
776.851	5267.6
777.245	5259.08
777.638	5288.48
778.032	5398.99
778.425	5362.65
778.819	5401.45
779.212	5358.02
779.606	5318.15
779.999	5337.31
780.392	5315.28
780.786	5392.82
781.179	5411.28
781.572	5451.93
781.965	5466.41
782.358	5408.73
782.751	5459.69
783.143	5410.89
783.536	5479.47
783.929	5520.09
784.322	5629.05
784.714	5655.53
785.107	5650.65
785.499	5717.19
785.891	5695.59
786.284	5674.09
786.676	5806.56
787.068	5786.74
787.46	5831.32
787.852	5846.95
788.245	5926.48
788.636	5950.21
789.028	6013.75
789.42	6046.49
789.812	6052.25
790.204	6144.51
790.595	6234.45
790.987	6047.95
791.378	6066.85
791.77	6189.55
792.161	6315.73
792.553	6366.34
792.944	6259.78
793.335	6192.67
793.726	6258.35
794.117	6346.46
794.508	6473.19
794.899	6442.97
795.29	6573.67
795.681	6630.25
796.072	6494.11
796.463	6323.21
796.853	6331.49
797.244	6479.54
797.634	6509.53
798.025	6507.38
798.415	6515.03
798.806	6596.16
799.196	6673.39
799.586	6721.17
799.976	6682.85
800.366	6900.49
800.756	7118.95
801.146	7080.61
801.536	7102.41
801.926	7171.58
802.316	7196.54
802.706	7260.22
803.095	7145
803.485	7243.85
803.874	7282.48
804.264	7524.46
804.653	7498.46
805.043	7636.08
805.432	7733.86
805.821	7736.39
806.21	7754.02
806.599	7860.98
806.988	7903.13
807.377	7999.35
807.766	8116.12
808.155	8373.21
808.544	8117.19
808.933	8122.69
809.321	8100.25
809.71	8375.87
810.098	8513.48
810.487	8941.59
810.875	9385.77
811.264	9393.08
811.652	9655.52
812.04	9778.09
812.428	9919.66
812.816	10620.39
813.204	11000.53
813.592	11493.59
813.98	11785.57
814.368	11686.31
814.756	12118.92
815.144	12027.65
815.531	12449.1
815.919	12364.71
816.306	12637.47
816.694	12346.66
817.081	12396.86
817.469	12711.4
817.856	12710.75
818.243	12962.02
818.63	13323.82
819.017	12926.88
819.404	12980.62
819.791	13325.58
820.178	13888.56
820.565	14113.72
820.952	14968.73
821.339	14511.1
821.725	14681.99
822.112	13998.36
822.498	13957.76
822.885	14072.83
823.271	13986.07
823.657	14375.65
824.044	14382.94
824.43	14456.88
824.816	14437.6
825.202	14029.77
825.588	14960.99
825.974	14963.08
826.36	15430
826.746	15461.89
827.132	15789.12
827.517	15762.22
827.903	15039.93
828.289	15081.6
828.674	14353.79
829.06	14253.82
829.445	14612.93
829.83	14932.24
830.216	15364.79
830.601	15696.88
830.986	15319.38
831.371	15192.09
831.756	15704.87
832.141	15312.17
832.526	15303.88
832.911	15561.47
833.295	15452.47
833.68	15885.69
834.065	15323.59
834.449	14489.98
834.834	14422.78
835.218	14416.73
835.603	14725.23
835.987	14534.1
836.371	15300.6
836.755	15204.19
837.139	15575.44
837.524	15792.1
837.908	15625.05
838.291	15682.06
838.675	15744.19
839.059	15936.23
839.443	15920.62
839.827	15707.41
840.21	16136.45
840.594	15992.02
840.977	16175.95
841.361	16156.57
841.744	16493.67
842.127	16346.03
842.511	16559.29
842.894	17092.59
843.277	17435
843.66	17930.05
844.043	18009.22
844.426	17275.15
844.809	16986.22
845.191	17006.7
845.574	16583.75
845.957	16258.11
846.339	16161.07
846.722	15683.58
847.104	15748.95
847.487	15587.75
847.869	15594.44
848.252	15841.65
848.634	16131.36
849.016	16369.16
849.398	16484.51
849.78	17252.08
850.162	17243.57
850.544	17619.87
850.926	18184.82
851.307	18099.82
851.689	18344.3
852.071	18752.73
852.452	19041.99
852.834	19031.81
853.215	19386.55
853.597	19516.11
853.978	19782.76
854.359	20201.96
854.741	19297.01
855.122	19208.21
855.503	18945.68
855.884	19071.97
856.265	19015.2
856.646	19112.87
857.026	18752.03
857.407	18690.05
857.788	18838.39
858.169	19096.39
858.549	18319.23
858.93	18879.31
859.31	18918.34
859.69	19110.74
860.071	18748.44
860.451	18547.23
860.831	17870.28
861.211	18918.86
861.591	19414.11
861.971	19390.9
862.351	19564.88
862.731	19912.69
863.111	20152.96
863.491	20452.2
863.87	21232.93
864.25	21533.35
864.629	21166.77
865.009	21636.19
865.388	22397.98
865.768	24003.84
866.147	23911.92
866.526	22583.39
866.905	22856.51
867.284	24126.98
867.663	22910.52
868.042	21962.98
868.421	21892.78
868.8	22260.71
869.179	22485.55
869.558	21176.12
869.936	19513.87
870.315	19844.68
870.693	20326.75
871.072	21917.32
871.45	20900.71
871.828	21173.81
872.207	22263.6
872.585	21926.48
872.963	22519
873.341	21737.05
873.719	21478.57
874.097	21219.75
874.475	21628.5
874.853	22122.08
875.23	21205.47
875.608	22087.27
875.986	23879.34
876.363	22823.29
876.741	23529.7
877.118	22946.71
877.495	24078.07
877.873	24473.79
878.25	25759.11
878.627	24712.86
879.004	25045.69
879.381	24911.86
879.758	24254.65
880.135	22574.16
880.512	23864.85
880.889	23221.77
881.265	22981.66
881.642	22795.39
882.019	23181.65
882.395	22712.71
882.772	23609.45
883.148	22581.91
883.524	22495.41
883.901	22357.26
884.277	22689.37
884.653	22553.75
885.029	23193.35
885.405	25678.04
885.781	25460.66
886.157	24415.64
886.532	24710.71
886.908	24699.14
887.284	27495.47
887.659	28397.27
888.035	29264.56
888.411	30017.89
888.786	30415.26
889.161	31486.93
889.537	30906.77
889.912	31915.82
890.287	31881.82
890.662	32686.23
891.037	32076.82
891.412	29876.13
891.787	29564.06
892.162	28535.2
892.536	29210.16
892.911	28101.64
893.286	27496.95
893.66	26371.97
894.035	27026.57
894.409	29421.35
894.784	28229.28
895.158	28694.11
895.532	30394.41
895.906	31219.2
896.281	31940.66
896.655	31415.97
897.029	35903
897.402	37365.77
897.776	41586.86
898.15	41432.75
898.524	40974.95
898.898	41522.63
899.271	46486.59
899.645	40267.01
900.018	38677.23
900.392	40119.15
900.765	40439.35
901.138	37408.07
901.511	36871.6
901.884	33881.93
902.258	31275.59
902.631	32323.09
903.003	37224.7
903.376	33599.55
903.749	37669.8
904.122	40313.01
904.495	44386.16
904.867	44954.03
905.24	39034.48
905.612	36325.21
905.985	37132.15
906.357	38806.1
906.729	37043.8
907.102	31624.25
907.474	30407.25
907.846	30602.96
908.218	30200.28
908.59	26691.08
908.962	25807.91
909.334	27785.82
909.705	29190.99
910.077	28334.47
910.449	29497.29
910.82	30309.75
911.192	33339.03
911.563	34606.63
911.935	37024.87
912.306	37070.35
912.677	38252.66
913.048	37865.53
913.419	41074.43
913.79	41286.12
914.161	44254.11
914.532	42275.71
914.903	38855.39
915.274	36918.79
915.645	36419.14
916.015	32050.46
916.386	30559.36
916.756	32547.21
917.127	33578.57
917.497	30001.22
917.868	32645.36
918.238	31043.43
918.608	31946.6
918.978	32607.39
919.348	34516.87
919.718	35657.02
920.088	34367.5
920.458	35725.76
920.828	37585.39
921.198	35616.68
921.567	38072.53
921.937	29495.5
922.306	29759.36
922.676	32087.92
923.045	26776.06
923.415	25450.27
923.784	23174.68
924.153	23814.28
924.522	23773.2
924.891	22349.76
925.26	23959.99
925.629	23378.63
925.998	26868.83
926.367	26228.91
926.736	24975.32
927.104	29739.97
927.473	31959.24
927.842	38616.54
928.21	38225.72
928.578	40191.82
928.947	37999.17
929.315	38214.01
929.683	44816.85
930.051	45184.71
930.42	52430.84
930.788	44797.23
931.156	44454.68
931.523	41673.43
931.891	38477.92
932.259	36969.24
932.627	42854.79
932.994	60621.85
933.362	50115.13
933.729	43540.8
934.097	41669.7
934.464	35271.55
934.831	40704.71
935.199	40134.43
935.566	38919.41
935.933	39504.63
936.3	47907.21
936.667	37309.15
937.034	33702.39
937.401	33345.22
937.767	28789.69
938.134	25623.49
938.501	36194.4
938.867	38594.98
939.234	65263.4
939.6	55671.93
939.967	61276.44
940.333	41000.83
940.699	34872.63
941.065	27945.83
941.431	36588.63
941.798	35270.78
942.163	46385.7
942.529	28944.84
942.895	26638.56
943.261	17213.71
943.627	22581.03
943.992	19741.63
944.358	19770.72
944.723	19877.94
945.089	19354.17
945.454	17890.39
945.82	19087.02
946.185	18339.29
946.55	21256.05
946.915	19080.84
947.28	22378.86
947.645	19710.61
948.01	18211.89
948.375	18984.93
948.74	22698.51
949.104	26498.31
949.469	38271.88
949.834	67619.08
950.198	64123.22
950.562	38411.66
950.927	31994.55
951.291	38518.29
951.655	32804.57
952.02	30784.76
952.384	23289.01
952.748	20312.38
953.112	19812.04
953.476	17229
953.839	15929.95
954.203	15764.55
954.567	19713.15
954.931	30987.74
955.294	26505.37
955.658	26634.39
956.021	45282.22
956.385	76699.15
956.748	113080.54
957.111	175426.91
957.474	196803.83
957.837	221512.46
958.2	167466.66
958.563	60236.75
958.926	40779.36
959.289	61871.02
959.652	69126.82
960.015	51932.41
960.377	74431.31
960.74	84954.83
961.102	146553.7
961.465	157273.07
961.827	84374.8
962.189	161975.58
962.552	112346.32
962.914	90131.75
963.276	58494.31
963.638	48342.88
964	47789.08
964.362	32348.29
964.724	31264.89
965.085	22303.95
965.447	18283.07
965.809	20815.21
966.17	20820.28
966.532	22517.78
966.893	20654.4
967.255	18802.05
967.616	22201.19
967.977	17776.65
968.338	19420.22
968.699	15953.66
969.061	15951.7
969.421	16085.45
969.782	18058.25
970.143	15272.17
970.504	15842.25
970.865	18008.25
971.225	18426.06
971.586	18041.93
971.946	25712.54
972.307	22317.09
972.667	29157.94
973.027	30023.76
973.388	36394.15
973.748	24744.64
974.108	26945.3
974.468	36417.52
974.828	28101.29
975.188	21581.84
975.548	19824.79
975.907	16656.68
976.267	18667.4
976.627	15708.22
976.986	16269.43
977.346	15504.29
977.705	14906.34
978.064	13568.73
978.424	11282.98
978.783	11650.52
979.142	13310.63
979.501	12731.46
979.86	13466.36
980.219	12981.67
980.578	16714.89
980.937	18746.54
981.296	16682.35
981.654	17190.54
982.013	26754.46
982.371	34697.77
982.73	32434.82
983.088	36679.48
983.447	39237.55
983.805	56075.89
984.163	117234.62
984.521	130189.71
984.879	190822.31
985.237	-311073.92
985.595	299697.29
985.953	74544.14
986.311	43088.29
986.669	24993.44
987.026	21608.06
987.384	29006.56
987.741	29970.23
988.099	21460.01
988.456	17095.27
988.814	16017.1
989.171	13926.29
989.528	13746.3
989.885	14487.87
990.242	11483.78
990.599	14305.03
990.956	11702.91
991.313	8188.48
991.67	6741.1
992.027	7156.62
992.383	6369.29
992.74	5584.09
993.096	5869.08
993.453	6091.9
993.809	6308.02
994.165	8398.23
994.522	7720.82
994.878	8494.13
995.234	10661.36
995.59	10494.34
995.946	9888.04
996.302	11268.07
996.658	13009.96
997.013	14268.04
997.369	16895.46
997.725	21693.42
998.08	14071.01
998.436	21604.26
998.791	29931.33
999.147	29866.45
999.502	32601.51
999.857	23700.7
1000.212	38680.26
1000.567	55154.54
1000.922	31894.49
1001.277	20243.52
1001.632	14984.58
1001.987	19299.78
1002.342	13858.63
1002.696	11061.05
1003.051	8833.95
1003.406	10706.47
1003.76	10674.89
1004.114	10526.31
1004.469	8859.16
1004.823	7332.69
1005.177	7932.88
1005.531	6299.17
1005.885	5587.8
1006.239	6314.08
1006.593	7918.02
1006.947	10591.4
1007.301	7944.98
1007.655	8670.11
1008.008	6367.07
1008.362	7148.53
1008.715	10223.68
1009.069	9276.04
1009.422	13995.13
1009.776	28096.9
1010.129	18624.88
1010.482	15598.12
1010.835	13180.44
1011.188	27384.08
1011.541	25786.03
1011.894	-157424.53
1012.247	463681.89
1012.6	31536.38
1012.952	19919.95
1013.305	10220.87
1013.657	7365.69
1014.01	6961.49
1014.362	5699.16
1014.715	5089.35
1015.067	4435.12
1015.419	4321.79
1015.771	3842.63
1016.123	3427.41
1016.475	3509.83
1016.827	3724.51
1017.179	4026.21
1017.531	4059.93
1017.883	4158.36
1018.234	4043.22
1018.586	5103.14
1018.938	5417.29
1019.289	7501.82
1019.64	8558.27
1019.992	7939.77
1020.343	7302.91
1020.694	5802.28
1021.045	5101.11
1021.396	5833.01
1021.747	6277.18
1022.098	7512.3
1022.449	5441.67
1022.8	5062.18
1023.151	3534.69
1023.501	3149.92
1023.852	3422.18
1024.202	3551.35
1024.553	3907.37
1024.903	3840.44
1025.253	3273.88
1025.604	2941.74
1025.954	3658.92
1026.304	4452.44
1026.654	5190.63
1027.004	7562.3
1027.354	12128
1027.703	11463.02
1028.053	14953.56
1028.403	21939.65
1028.753	31612.03
1029.102	43132.07
1029.452	221841.18
1029.801	9584.96
1030.15	6191.58
1030.499	5224.65
897.758	3029.23
901.051	3013.64
904.343	3053.9
907.636	3043.98
910.928	3111.32
914.22	3016.68
917.511	3027.96
920.803	3108.77
924.094	3147.1
927.384	3105.77
930.675	3074.73
933.965	3020.93
937.255	3013.15
940.544	2979.1
943.834	2870.55
947.123	2823.36
950.411	2926.97
953.7	2894.59
956.988	2844.6
960.276	2792.82
963.563	2900.95
966.851	2885.85
970.138	2956.67
973.424	2939.26
976.711	2885.4
979.997	3094.99
983.283	3116.44
986.568	2997.22
989.853	3036.07
993.138	3066.71
996.423	3141.72
999.708	3062.36
1002.992	3162.12
1006.275	2932.09
1009.559	3020.66
1012.842	3148.72
1016.125	3065.2
1019.408	3042.36
1022.69	3156.79
1025.972	3162.9
1029.254	3135.05
1032.536	3041.96
1035.817	3083.98
1039.098	2998.75
1042.379	3223.37
1045.659	3189.11
1048.939	3111.58
1052.219	3145.21
1055.498	3174.89
1058.778	3147.22
1062.057	3140.49
1065.335	3158.62
1068.614	3186.86
1071.892	3154.35
1075.17	3251.17
1078.447	3229.14
1081.724	3216.37
1085.001	3260.46
1088.278	3230.7
1091.554	3249.13
1094.83	3248.02
1098.106	3271.51
1101.382	3327.67
1104.657	3329.56
1107.932	3324.39
1111.206	3275.79
1114.481	3238.75
1117.755	3246.31
1121.029	3213.06
1124.302	3257.89
1127.575	3195.47
1130.848	3174.86
1134.121	3126.73
1137.393	3066.38
1140.665	3141.27
1143.937	3115.47
1147.208	3059.31
1150.48	3076.9
1153.75	3058.73
1157.021	3123.89
1160.291	3086.05
1163.561	3127.1
1166.831	3138.13
1170.101	3173.22
1173.37	3164.53
1176.639	3094.21
1179.907	3169.24
1183.176	3186.93
1186.444	3203.23
1189.711	3235.46
1192.979	3232.76
1196.246	3192.69
1199.513	3214.34
1202.78	3210.07
1206.046	3216.61
1209.312	3243.48
1212.578	3273.39
1215.843	3210.73
1219.108	3189.34
1222.373	3210.89
1225.638	3164.75
1228.902	3140.64
1232.166	3113.82
1235.43	3087.82
1238.693	3108.09
1241.956	3110.52
1245.219	3139.42
1248.482	3144.23
1251.744	3132.42
1255.006	3309.31
1258.268	3268.74
1261.529	3202.35
1264.79	3221.53
1268.051	3331.74
1271.312	3355.99
1274.572	3308.4
1277.832	3302.19
1281.092	3301.31
1284.351	3255.86
1287.61	3231.06
1290.869	3126.5
1294.128	3086.03
1297.386	3213.76
1300.644	3193.74
1303.902	3205.88
1307.159	3055.44
1310.416	3114.23
1313.673	3131.79
1316.93	3106.89
1320.186	3165.35
1323.442	3216.75
1326.697	3193.36
1329.953	3201.87
1333.208	3209.58
1336.463	3199.01
1339.717	3118.37
1342.972	3240.02
1346.226	3230.68
1349.479	3147.83
1352.733	3103.46
1355.986	3146.51
1359.238	3116.68
1362.491	3114.85
1365.743	3119.18
1368.995	3120.92
1372.247	3130.72
1375.498	3156.95
1378.749	3176.75
1382	3131.89
1385.251	3201.53
1388.501	3169.59
1391.751	3136.15
1395	3113.3
1398.25	3151.96
1401.499	3143.18
1404.748	3048.05
1407.996	3009.74
1411.244	2993.44
1414.492	2972.26
1417.74	2940.63
1420.987	2961.01
1424.234	3011.61
1427.481	3008.39
1430.728	3067.36
1433.974	3038.82
1437.22	3069.42
1440.465	3079.37
1443.711	3047.74
1446.956	3090.39
1450.201	3095.14
1453.445	3144.18
1456.689	3106.87
1459.933	3123.29
1463.177	3152.34
1466.42	3119.79
1469.663	3098.32
1472.906	3072.98
1476.148	3194.14
1479.391	3109.27
1482.633	3090.97
1485.874	3092.52
1489.115	3060.17
1492.356	3087.78
1495.597	3058.41
1498.838	3065.98
1502.078	3021.2
1505.318	2953.36
1508.557	2999.54
1511.797	2937.18
1515.036	3068.62
1518.274	3059.08
1521.513	3043.42
1524.751	3074.92
1527.989	3075.73
1531.227	3085.6
1534.464	3061.49
1537.701	3107.27
1540.938	3133.44
1544.174	3096.21
1547.41	3097.91
1550.646	3141.11
1553.882	3162.57
1557.117	3215.42
1560.352	3237.28
1563.587	3189.04
1566.821	3141.52
1570.055	3199.33
1573.289	3161.83
1576.523	3251.16
1579.756	3249.92
1582.989	3269.41
1586.222	3228.54
1589.454	3276.78
1592.686	3240.38
1595.918	3262.51
1599.15	3246.93
1602.381	3349.71
1605.612	3276.47
1608.843	3377.39
1612.073	3283.01
1615.303	3266.8
1618.533	3250.23
1621.762	3257.78
1624.992	3258.05
1628.221	3229.03
1631.449	3211.17
1634.678	3297.67
1637.906	3238.94
1641.134	3294.18
1644.361	3239.41
1647.588	3226.94
1650.815	3236.82
1654.042	3229.31
1657.269	3263.83
1660.495	3206.52
1663.72	3181.6
1666.946	3159.87
1670.171	3070.23
1673.396	3049.36
1676.621	3043.83
1679.845	3087.35
1683.069	3122.1
1686.293	3176.34
1689.517	3134.01
1692.74	3037.99
1695.963	3061.5
1699.185	3128.82
1702.408	3088.47
1705.63	3141.45
1708.852	3147.36
1712.073	3120.39
1715.294	3082.49
1718.515	3146.66
1721.736	3082.67
1724.956	3080.78
1728.176	3111.42
1731.396	3133.03
1734.616	3123.34
1737.835	3139.71
1741.054	3130.74
1744.272	3128.07
1747.491	3145.08
1750.709	3225.56
1753.927	3099.69
1757.144	3162.67
1760.361	3192.13
1763.578	3206.64
1766.795	3138.92
1770.011	3159.41
1773.227	3220.15
1776.443	3244.55
1779.658	3284.44
1782.874	3235.06
1786.089	3201.01
1789.303	3204.46
1792.518	3217.69
1795.732	3207.08
1798.945	3206
1802.159	3268.94
1805.372	3135.38
1808.585	3105.21
1811.797	3108.19
1815.01	3185.03
1818.222	3180.92
1821.434	3092.64
1824.645	3183.89
1827.856	3141.59
1831.067	3180.9
1834.278	3144.43
1837.488	3123.07
1840.698	3296.45
1843.908	3204.07
1847.117	3168.65
1850.326	3007.98
1853.535	3142.17
1856.744	3230.43
1859.952	3119.77
1863.16	3121.4
1866.368	3149.92
1869.575	3258.33
1872.782	3148.8
1875.989	3091.71
1879.196	3211.88
1882.402	3200.77
1885.608	3249.18
1888.814	3115.57
1892.019	2998.36
1895.224	3050.55
1898.429	3047.3
1901.634	3020.34
1904.838	3000.61
1908.042	3042.97
1911.246	3047.23
1914.449	2945.28
1917.652	2956.46
1920.855	2944.38
1924.058	3017.87
1927.26	3047.79
1930.462	3082.75
1933.664	3096.11
1936.865	3030.01
1940.066	3028.65
1943.267	2978.26
1946.467	3000.28
1949.668	3032.34
1952.868	3098.93
1956.067	3063.32
1959.267	2982.83
1962.466	3014.47
1965.665	3000.46
1968.863	3002.33
1972.061	3026.06
1975.259	3032.13
1978.457	3112.32
1981.654	3068.13
1984.852	3068.46
1988.048	2982.14
1991.245	2997.2
1994.441	3078.77
1997.637	3090.47
2000.833	3072.41
2004.028	3110.93
2007.223	3158.44
2010.418	3123.99
2013.613	3095.57
2016.807	3041.81
2020.001	3064.8
2023.194	3129.58
2026.388	3097.84
2029.581	3046.38
2032.774	3077.83
2035.966	3077.63
2039.158	2995.56
2042.35	3030.18
2045.542	2957.42
2048.733	3078.76
2051.924	3130.58
2055.115	3169.01
2058.306	3091.21
2061.496	3153.39
2064.686	3233.08
2067.875	3154.83
2071.065	3182.49
2074.254	3218.16
2077.442	3168.31
2080.631	3267.92
2083.819	3117.83
2087.007	3089.58
2090.195	3046.51
2093.382	3098.45
2096.569	3076.26
2099.756	3019.36
2102.942	3026.13
2106.128	3017.31
2109.314	3013.16
2112.5	2956.08
2115.685	2939.54
2118.87	2952.97
2122.055	3022.07
2125.239	2974.49
2128.424	2934.31
2131.608	3080.22
2134.791	3066.04
2137.974	3141.09
2141.157	3123.5
2144.34	3055.61
2147.523	3095.65
2150.705	3097.42
2153.887	3088.12
2157.068	3017.85
2160.25	3042.55
2163.431	3098.87
2166.611	3018.1
2169.792	3025.06
2172.972	2903.77
2176.152	3014.27
2179.331	3056.58
2182.511	3015.84
2185.69	3048.4
2188.868	3036.32
2192.047	3110.67
2195.225	3073.35
2198.403	3020.15
2201.58	3022.91
2204.758	3029.11
2207.935	3119.44
2211.111	2975.6
2214.288	2957.02
2217.464	3001.58
2220.64	2993.18
2223.815	3051.66
2226.991	2963.65
2230.166	2986.15
2233.34	3003.3
2236.515	3038.85
2239.689	3116.2
2242.863	3056.63
2246.036	3117.89
2249.209	3133.7
2252.382	3186.44
2255.555	3151.85
2258.727	3075.66
2261.9	3126.88
2265.071	3119.03
2268.243	3126.97
2271.414	3043.7
2274.585	2985.21
2277.756	3059.67
2280.926	3018.46
2284.096	3071.36
2287.266	2953.8
2290.436	3017.82
2293.605	3055.2
2296.774	3075.76
2299.942	3111.5
2303.111	3130.24
2306.279	3173.09
2309.447	3164.27
2312.614	3140.85
2315.781	3151.3
2318.948	3115.46
2322.115	3155.43
2325.281	3059.63
2328.447	3092.07
2331.613	3072.54
2334.779	3030.72
2337.944	3041.13
2341.109	3031.59
2344.274	3007.22
2347.438	2971.66
2350.602	3005.8
2353.766	3023.05
2356.929	3007.6
2360.092	3054.47
2363.255	2986.47
2366.418	2888.95
2369.58	3041.37
2372.742	2754.31
2375.904	2787.8
2379.066	2754.03
2382.227	2800.11
2385.388	2760.72
2388.548	2665.93
2391.709	2733.02
2394.869	2700.45
2398.029	2845.24
2401.188	2874.89
2404.347	2781.25
2407.506	2973.45
2410.665	2996.04
2413.823	3022.54
2416.981	2957.35
2420.139	3003.4
2423.296	3061.71
2426.453	3036.38
2429.61	3067.41
2432.767	2962.71
2435.923	3004.36
2439.079	2922.39
2442.235	2996.07
2445.391	2907.82
2448.546	2919.47
2451.701	2987.31
2454.855	2933.35
2458.009	3008.13
2461.163	3023.09
2464.317	2967.87
2467.471	3010.5
2470.624	3052.55
2473.777	3072.67
2476.929	3070.26
2480.082	3098.24
2483.234	3060.2
2486.385	2969.75
2489.537	2964.33
2492.688	2898.48
2495.839	2920.83
2498.989	2924.24
2502.14	2903.05
2505.29	2876.37
2508.439	2904.02
2511.589	2813.58
2514.738	2842.8
2517.887	2873.67
2521.035	2987.74
2524.183	2987.92
2527.331	2960.46
2530.479	2911.52
2533.627	2931.11
