Data from N_2_DIV_WI_4N_Splice17_12-17-41-310.txt Node
Date: Sat Mar 14 12:17:41 EDT 2020
User: sa697716
Spectrometer: FLMS03696
Trigger mode: 0
Integration Time (sec): 3.180400E-1
Scans to average: 20
Electric dark correction enabled: true
Nonlinearity correction enabled: true
Boxcar width: 5
XAxis mode: Wavelengths
Number of Pixels in Spectrum: 2048
>>>>>Begin Spectral Data<<<<<
187.83	-207143.41
188.298	1493.76
188.766	855.27
189.233	787.53
189.701	1144.37
190.169	1671.24
190.636	629.48
191.104	575.16
191.571	121.18
192.039	-47.36
192.506	-46.1
192.974	490.72
193.441	-786.55
193.908	-222.58
194.375	-59.18
194.842	38.54
195.31	173.05
195.777	174.94
196.244	407.1
196.711	471.82
197.177	573.24
197.644	802.51
198.111	1404.11
198.578	1951.25
199.045	1573.87
199.511	2578.08
199.978	2986.21
200.445	2530.26
200.911	2804.1
201.378	3127.12
201.844	2845.4
202.31	4840.77
202.777	5064.84
203.243	2819.12
203.709	2709.25
204.176	3234.46
204.642	2658.12
205.108	2492.81
205.574	2048.31
206.04	1869.25
206.506	1767.4
206.972	1676.76
207.438	1623.74
207.903	1846.44
208.369	1616.57
208.835	1607.05
209.301	1685.2
209.766	1748.97
210.232	1740.82
210.697	2154.33
211.163	2692.81
211.628	4077.06
212.094	3428.95
212.559	4236.55
213.024	2658.76
213.49	3257.48
213.955	3172.67
214.42	3120.85
214.885	2918.51
215.35	2804.7
215.815	2723.05
216.28	2912.26
216.745	2394.27
217.21	2631.64
217.675	2464.77
218.14	2815.12
218.604	3213.81
219.069	3772.93
219.534	4010.61
219.998	4741.37
220.463	5857.54
220.927	7320.99
221.392	6979.31
221.856	7123.23
222.32	9086.69
222.785	11314.91
223.249	14349.77
223.713	16105.69
224.177	16140.05
224.642	20802.31
225.106	25651.14
225.57	28083.67
226.034	20900
226.497	31881.39
226.961	28797.99
227.425	33488.2
227.889	37108.05
228.353	37135.84
228.816	76661.37
229.28	73233.04
229.744	61804.35
230.207	37525.22
230.671	36849.1
231.134	61007.2
231.597	70187.96
232.061	70301.32
232.524	68569.29
232.987	47228.48
233.45	42441.06
233.914	38013.82
234.377	38979.96
234.84	35642.06
235.303	42017.71
235.766	46908.67
236.229	48382.05
236.691	30482.79
237.154	34164.85
237.617	25655.3
238.08	26248.45
238.542	30703.41
239.005	21924.16
239.468	21730.8
239.93	20445.42
240.393	18563.48
240.855	16257.7
241.317	16655.31
241.78	20246.61
242.242	20904.06
242.704	22543.44
243.166	19604.98
243.629	17762.05
244.091	20440.45
244.553	22359.59
245.015	24018.6
245.477	31014.48
245.939	45439.2
246.4	48142.56
246.862	46708.11
247.324	43980.14
247.786	49169.86
248.247	64362.72
248.709	66474.53
249.17	49687.67
249.632	46756.98
250.093	54091.33
250.555	46695.42
251.016	28423.28
251.477	26927
251.939	29021.5
252.4	30446.69
252.861	36187.04
253.322	33615.79
253.783	39932
254.244	51731.17
254.705	40785.37
255.166	36248.73
255.627	35624.91
256.088	50249.85
256.549	53323.26
257.009	45864.6
257.47	55569.85
257.931	45204.24
258.391	33860.85
258.852	34861.19
259.312	36522.98
259.773	45027.22
260.233	38019.12
260.694	32029.36
261.154	36280.45
261.614	29069.02
262.074	25959.19
262.534	26920.24
262.994	25340.23
263.455	33676.9
263.915	28347.35
264.374	26656.27
264.834	29091.35
265.294	32228.12
265.754	33388.08
266.214	31591.55
266.673	29567.77
267.133	37296.46
267.593	36986.97
268.052	45213.03
268.512	39320.77
268.971	47359.23
269.431	51929.3
269.89	46447.47
270.349	69507.61
270.809	77363.65
271.268	69486.55
271.727	155832.44
272.186	100928.43
272.645	75683.94
273.104	54563.5
273.563	79023.23
274.022	62134.23
274.481	52797.47
274.94	40689.02
275.399	30242.12
275.857	35232.67
276.316	47629.23
276.775	42341.56
277.233	41619.21
277.692	38930.59
278.15	44024.42
278.609	45238.47
279.067	41872.89
279.525	38831.8
279.984	50095.83
280.442	60168.54
280.9	59212.5
281.358	38893.8
281.816	36245.63
282.274	35481
282.732	36603.01
283.19	36778.96
283.648	31698.58
284.106	33671.51
284.564	34223.81
285.021	31697.65
285.479	23595.12
285.937	21451.07
286.394	18804
286.852	19325.04
287.309	20293.66
287.767	19593.25
288.224	18599.74
288.682	20392.05
289.139	22364.64
289.596	20458.98
290.053	21221.66
290.511	26727.9
290.968	32359.32
291.425	43905.41
291.882	36482.59
292.339	31718.82
292.796	31483.33
293.252	29622.25
293.709	23504.7
294.166	21070.97
294.623	23264.78
295.079	22305.96
295.536	22379.89
295.992	20310.73
296.449	20060.11
296.905	20825.16
297.362	19960.5
297.818	20956.98
298.274	21719.06
298.731	22108.95
299.187	21850.2
299.643	23462.39
300.099	28362.31
300.555	31110.12
301.011	25952.88
301.467	24980.68
301.923	29212.19
302.379	28479.05
302.835	27932.97
303.291	27946.8
303.746	31762.6
304.202	40103.6
304.658	40180.27
305.113	26961.62
305.569	26375.16
306.024	28085.71
306.479	26714.51
306.935	22491.22
307.39	24523.2
307.845	22631.04
308.301	22761.4
308.756	22174.34
309.211	21341.82
309.666	21830.58
310.121	27109.39
310.576	27493.02
311.031	27322.22
311.486	31248.43
311.94	31190.72
312.395	41676.46
312.85	78234.83
313.305	383428.48
313.759	1982025.41
314.214	143391.57
314.668	113632.36
315.123	95419.01
315.577	34188.37
316.032	30352.73
316.486	38013.12
316.94	29976.76
317.394	20847.26
317.849	16178.24
318.303	15296.63
318.757	14413.55
319.211	15908.95
319.665	13895.75
320.119	14035.31
320.572	20119.19
321.026	18745.23
321.48	15572.84
321.934	16965.3
322.387	17001.19
322.841	18340.83
323.295	16485.58
323.748	18984.01
324.202	19251.95
324.655	23102.27
325.108	32292.25
325.562	22766.52
326.015	27025.75
326.468	20424
326.921	22837.12
327.374	21283.8
327.827	22158.09
328.28	25065.75
328.733	16790.51
329.186	14742.86
329.639	14060.41
330.092	11831.71
330.545	11260.86
330.997	11368.16
331.45	12419.83
331.903	14537.58
332.355	24978.82
332.808	24244.04
333.26	19997.51
333.713	21676.41
334.165	21822.6
334.617	29118.94
335.069	23517.34
335.522	42493.92
335.974	47049.66
336.426	42977.24
336.878	29848.4
337.33	15144.69
337.782	14786.93
338.234	18491.73
338.686	22135.78
339.137	26251.42
339.589	24722.81
340.041	19417.36
340.493	16696.74
340.944	17063.06
341.396	18360.98
341.847	15394.65
342.299	18171.43
342.75	22130.33
343.201	19331.98
343.653	22222.73
344.104	27331.85
344.555	21510.49
345.006	33421.65
345.457	25592.58
345.908	20360.66
346.359	19143.87
346.81	15591.22
347.261	16412.83
347.712	16196.88
348.163	17363.99
348.613	17561.19
349.064	16359.36
349.515	14315.5
349.965	14684.56
350.416	17668.19
350.866	19356.35
351.317	21874.87
351.767	36207.37
352.217	45718.18
352.668	37948.21
353.118	34747.04
353.568	33511.94
354.018	26496.76
354.468	27942.51
354.918	20002.88
355.368	17503.25
355.818	24749.12
356.268	71186.05
356.718	297783.86
357.168	74064.15
357.617	37101.13
358.067	41300.19
358.517	38666.21
358.966	45348.95
359.416	50714.7
359.865	54910.79
360.315	65354.86
360.764	30442.44
361.213	17061.33
361.663	16141.07
362.112	19948.27
362.561	32240.38
363.01	24265.39
363.459	20411.49
363.908	22101.94
364.357	18784.89
364.806	31682.92
365.255	21776.11
365.703	19966.47
366.152	19994.61
366.601	16208.35
367.05	13124.25
367.498	11938.15
367.947	12478.16
368.395	12943.73
368.844	11454.29
369.292	13799.45
369.74	9531.25
370.189	14558.87
370.637	17040.74
371.085	14696.29
371.533	17886.65
371.981	17229.64
372.429	16383.22
372.877	17045.86
373.325	14277.23
373.773	14508.16
374.221	12924.78
374.669	16007.57
375.116	13854.47
375.564	13955.1
376.012	15565.81
376.459	12832.45
376.907	15350.67
377.354	18519.03
377.801	17265.67
378.249	19839.42
378.696	25304.98
379.143	30584.47
379.591	32558.42
380.038	55028.04
380.485	39806.09
380.932	42987.35
381.379	39280.17
381.826	28875.24
382.273	20529.11
382.72	17940.72
383.166	17458.91
383.613	11329.03
384.06	10194.15
384.506	11799.41
384.953	8647.05
385.4	8684.98
385.846	7592.55
386.292	7388.49
386.739	7211.88
387.185	7126.26
387.631	7116.58
388.078	6902.32
388.524	7365.82
388.97	6793.41
389.416	5654.36
389.862	6006.92
390.308	5664.14
390.754	5746.62
391.2	6228.74
391.645	6362.99
392.091	6076.96
392.537	5863.65
392.983	5861.46
393.428	5759.35
393.874	6164.72
394.319	6177.96
394.765	5850.21
395.21	6026.19
395.655	5639.16
396.101	5263.7
396.546	4744.93
396.991	4769.96
397.436	4425.88
397.881	4275.35
398.326	4049.97
398.771	3829.85
399.216	3343.8
399.661	3002.69
400.106	2987.11
400.551	3048.54
400.995	2736.32
401.44	2704.69
401.885	2542.25
402.329	2562.66
402.774	2452.3
403.218	2368.23
403.663	2273.32
404.107	2339.62
404.551	2358.71
404.995	2158.05
405.44	2081.03
405.884	2108.39
406.328	2038.02
406.772	2027.11
407.216	1843.03
407.66	1778.61
408.104	1687.11
408.547	1580.07
408.991	1523.73
409.435	1461.19
409.879	1440.07
410.322	1420.08
410.766	1369.77
411.209	1299.96
411.653	1248.6
412.096	1223.44
412.54	1223.9
412.983	1214.41
413.426	1215.89
413.869	1212.76
414.312	1190.61
414.756	1148.11
415.199	1094.2
415.642	1061.44
416.085	1063.98
416.527	1052.35
416.97	1068.03
417.413	1012.89
417.856	1000.79
418.298	988.17
418.741	979.85
419.184	976.1
419.626	1010.54
420.069	1009.04
420.511	1013.76
420.953	990.2
421.396	984.83
421.838	956.89
422.28	976.72
422.722	980.07
423.164	993.56
423.606	978.14
424.048	974.44
424.49	928.94
424.932	923.38
425.374	910.64
425.816	924.42
426.258	939.35
426.699	947.69
427.141	929.11
427.582	944.56
428.024	939.08
428.465	931.61
428.907	910.04
429.348	900.33
429.789	902.25
430.231	882.33
430.672	894.65
431.113	871.53
431.554	861.27
431.995	843.02
432.436	813.09
432.877	796.62
433.318	785.33
433.759	782.9
434.2	781.02
434.64	770.62
435.081	774.41
435.522	735.61
435.962	710.4
436.403	697.39
436.843	707.43
437.284	693.24
437.724	673.37
438.164	672.05
438.604	657.26
439.045	634.63
439.485	610
439.925	595.93
440.365	579.96
440.805	570.61
441.245	561.2
441.685	541.45
442.125	536.48
442.564	541.33
443.004	530.96
443.444	529.51
443.883	528.07
444.323	521.62
444.762	521.55
445.202	526.96
445.641	538.63
446.081	535.49
446.52	538.65
446.959	533.17
447.398	519.76
447.837	512.75
448.276	503.17
448.716	506.89
449.154	512.01
449.593	500.43
450.032	499.7
450.471	488.64
450.91	488.24
451.349	488.18
451.787	484.46
452.226	490.18
452.664	489.54
453.103	489.61
453.541	489.47
453.98	488.69
454.418	491.5
454.856	484.39
455.295	484.04
455.733	488.14
456.171	489.27
456.609	492.54
457.047	493.36
457.485	500.92
457.923	502.33
458.361	495.5
458.798	498.05
459.236	497.29
459.674	499.85
460.111	501.76
460.549	496.99
460.987	494.62
461.424	491.27
461.862	488.13
462.299	480.58
462.736	479.47
463.173	480.84
463.611	476.74
464.048	476.36
464.485	480.5
464.922	476.33
465.359	474
465.796	470.83
466.233	468
466.67	463.8
467.106	463.55
467.543	460.42
467.98	454.46
468.416	441.48
468.853	437.13
469.29	423.51
469.726	418.78
470.162	407.54
470.599	399.5
471.035	395.21
471.471	385.67
471.907	381.77
472.344	377.8
472.78	379.64
473.216	383.56
473.652	377.48
474.088	375.59
474.523	374.06
474.959	377.96
475.395	374.47
475.831	372.53
476.266	374.58
476.702	373.13
477.138	368.84
477.573	366.36
478.008	364.61
478.444	366.75
478.879	370.48
479.314	371.49
479.75	369.96
480.185	371.21
480.62	373.12
481.055	374.36
481.49	377.05
481.925	382.4
482.36	390.03
482.795	400.38
483.229	410.93
483.664	419.78
484.099	420.64
484.534	427
484.968	431.69
485.403	433.18
485.837	432.24
486.271	432.1
486.706	432.21
487.14	426.08
487.574	419.43
488.009	415.67
488.443	411.42
488.877	416.33
489.311	417.46
489.745	422.61
490.179	426.63
490.613	435.48
491.046	438.22
491.48	442.07
491.914	443.15
492.348	447.07
492.781	450.57
493.215	452.11
493.648	453.43
494.082	457.56
494.515	458.34
494.948	465.05
495.382	468.81
495.815	473.66
496.248	478.86
496.681	488.8
497.114	496.94
497.547	504.75
497.98	515.64
498.413	522.22
498.846	530.84
499.279	538.79
499.711	543.28
500.144	546.47
500.577	556.13
501.009	565.26
501.442	574.15
501.874	578.12
502.306	581.47
502.739	591.11
503.171	603.26
503.603	608.7
504.036	616.99
504.468	624.1
504.9	635.64
505.332	643.02
505.764	650.15
506.196	658.63
506.627	673.38
507.059	687.75
507.491	696.37
507.923	699.61
508.354	714.66
508.786	727.12
509.217	744.97
509.649	760.83
510.08	779.93
510.512	797.38
510.943	813.56
511.374	826.1
511.805	846.61
512.237	865.93
512.668	896.42
513.099	922.44
513.53	949.37
513.961	970.37
514.391	1000.27
514.822	1032.04
515.253	1065.87
515.684	1091.69
516.114	1121.75
516.545	1144.34
516.975	1171.39
517.406	1191.12
517.836	1198.63
518.267	1208.95
518.697	1228.73
519.127	1237.34
519.558	1247.17
519.988	1254.14
520.418	1267.27
520.848	1285.68
521.278	1296.35
521.708	1320.46
522.138	1334.91
522.567	1365.57
522.997	1391.74
523.427	1408.3
523.857	1427.14
524.286	1439.68
524.716	1455.79
525.145	1475.18
525.575	1488.76
526.004	1505.05
526.433	1497.84
526.863	1500.41
527.292	1492.64
527.721	1499.24
528.15	1507.02
528.579	1508.58
529.008	1520.96
529.437	1543.11
529.866	1556.82
530.295	1572.19
530.724	1584.37
531.152	1609.94
531.581	1623.98
532.01	1641.91
532.438	1650.51
532.867	1664.38
533.295	1682.23
533.723	1688.5
534.152	1687.56
534.58	1687.86
535.008	1674.81
535.436	1677.18
535.865	1684.14
536.293	1697.2
536.721	1712.09
537.149	1735.94
537.576	1739.53
538.004	1750.99
538.432	1758.33
538.86	1756.63
539.287	1765.12
539.715	1778.23
540.143	1781.37
540.57	1778.01
540.998	1775.01
541.425	1753.87
541.852	1734.13
542.28	1732.3
542.707	1717.56
543.134	1703.33
543.561	1699.66
543.988	1691.17
544.415	1690.96
544.842	1685.08
545.269	1679.19
545.696	1680.82
546.123	1693.13
546.549	1683.12
546.976	1670.22
547.403	1669.38
547.829	1672.11
548.256	1674.3
548.682	1671.13
549.108	1662.33
549.535	1661.77
549.961	1662.55
550.387	1649.62
550.813	1643.79
551.24	1649.8
551.666	1650.46
552.092	1640.96
552.518	1634.23
552.943	1627.91
553.369	1634.55
553.795	1639.89
554.221	1640.34
554.646	1637.58
555.072	1646.81
555.498	1650.21
555.923	1657.73
556.349	1671.3
556.774	1678.86
557.199	1679.3
557.625	1683.71
558.05	1677.29
558.475	1685.77
558.9	1683.8
559.325	1674.86
559.75	1667.71
560.175	1660.15
560.6	1651.67
561.025	1646.83
561.449	1647.11
561.874	1650.26
562.299	1652.28
562.723	1656.58
563.148	1645.11
563.572	1645.97
563.997	1653.35
564.421	1656.31
564.846	1654.76
565.27	1657.57
565.694	1654.58
566.118	1661.5
566.542	1666.17
566.966	1658.98
567.39	1651.78
567.814	1639.91
568.238	1638.45
568.662	1639.53
569.086	1639.29
569.509	1644.67
569.933	1627.46
570.357	1618.01
570.78	1597.94
571.204	1584.2
571.627	1571.48
572.05	1568
572.474	1565.93
572.897	1552.47
573.32	1543.99
573.743	1533.34
574.166	1514.53
574.589	1513.05
575.012	1505.17
575.435	1501.58
575.858	1490.52
576.281	1477.98
576.704	1461.59
577.126	1448.9
577.549	1436.66
577.972	1425.02
578.394	1413.48
578.817	1404.66
579.239	1386.23
579.661	1372.04
580.084	1355.96
580.506	1342.73
580.928	1338.32
581.35	1327.12
581.772	1320.34
582.194	1307.19
582.616	1294.98
583.038	1281.21
583.46	1270.44
583.882	1266.02
584.303	1267.46
584.725	1261.83
585.147	1263.89
585.568	1271.06
585.99	1280.04
586.411	1284.47
586.833	1294.53
587.254	1295.02
587.675	1305.49
588.096	1315.15
588.518	1309.43
588.939	1293.95
589.36	1292.6
589.781	1280.48
590.202	1255.79
590.623	1246.84
591.043	1243.86
591.464	1232
591.885	1227.47
592.305	1221.55
592.726	1209.08
593.147	1209.44
593.567	1204.79
593.987	1197.15
594.408	1192.74
594.828	1190.53
595.248	1186.58
595.669	1171.17
596.089	1166.59
596.509	1161.26
596.929	1149.76
597.349	1149
597.769	1139.9
598.189	1134.39
598.608	1135.92
599.028	1137.03
599.448	1136.65
599.867	1124.39
600.287	1119.86
600.706	1115.27
601.126	1107
601.545	1105.77
601.965	1104.31
602.384	1100.11
602.803	1101.41
603.222	1095.23
603.641	1089.35
604.061	1085.37
604.48	1081.55
604.898	1087.21
605.317	1089.53
605.736	1089.62
606.155	1086.23
606.574	1078.28
606.992	1080.13
607.411	1074.44
607.829	1066.63
608.248	1061.77
608.666	1057.8
609.085	1055.61
609.503	1047.66
609.921	1041.45
610.339	1040.87
610.758	1038.46
611.176	1033.43
611.594	1024.6
612.012	1020.47
612.43	1021.44
612.847	1024.73
613.265	1024.7
613.683	1026.52
614.101	1025.74
614.518	1020.82
614.936	1011.8
615.353	998.91
615.771	994.52
616.188	992.81
616.606	988.39
617.023	982.32
617.44	969.65
617.857	962.14
618.274	953.9
618.691	947.81
619.108	939.82
619.525	933.41
619.942	937.19
620.359	937.26
620.776	932.65
621.192	929
621.609	926.11
622.026	930.63
622.442	934.62
622.859	936.21
623.275	929.63
623.691	932.54
624.108	940.68
624.524	949.92
624.94	950.56
625.356	957.74
625.772	966.96
626.188	974.73
626.604	974.65
627.02	970.52
627.436	968.6
627.852	974.17
628.268	983.3
628.683	976.11
629.099	969.68
629.514	964.39
629.93	966.69
630.345	969.39
630.761	965.47
631.176	967.75
631.591	962.99
632.007	958.26
632.422	955.06
632.837	945.19
633.252	943.08
633.667	934.23
634.082	926.69
634.497	916.54
634.911	901.59
635.326	897.43
635.741	883.59
636.155	873.88
636.57	873.43
636.984	871.25
637.399	870.17
637.813	866.79
638.228	863.57
638.642	862.72
639.056	852.2
639.47	849.3
639.884	839.83
640.298	832.75
640.712	830.01
641.126	817.64
641.54	807.9
641.954	801.03
642.368	789.88
642.781	782.57
643.195	768.88
643.609	766.76
644.022	759.52
644.436	755.99
644.849	744.43
645.262	733.08
645.676	731.34
646.089	726.17
646.502	714.88
646.915	709.31
647.328	696.28
647.741	693.31
648.154	682.31
648.567	679.69
648.98	668.49
649.393	667.96
649.805	665.26
650.218	658.88
650.631	648.95
651.043	643.1
651.456	638.72
651.868	637.79
652.28	647.25
652.693	655.16
653.105	657.95
653.517	662.78
653.929	662.88
654.341	665.17
654.753	657.67
655.165	659.66
655.577	658.08
655.989	654.26
656.401	647.3
656.813	624.62
657.224	609.41
657.636	589.73
658.047	578.49
658.459	563.75
658.87	555.97
659.282	545.92
659.693	532.48
660.104	521.72
660.515	511
660.926	508.7
661.338	504.9
661.749	500.98
662.159	493.98
662.57	489.45
662.981	485.99
663.392	481.63
663.803	483.4
664.213	480.68
664.624	477.76
665.035	479.84
665.445	470.83
665.855	466.83
666.266	462.68
666.676	461.65
667.086	455.31
667.497	454.71
667.907	450.94
668.317	446.16
668.727	445.86
669.137	445.47
669.547	443.68
669.956	445.03
670.366	446.33
670.776	447.19
671.186	449.81
671.595	453.05
672.005	455.42
672.414	455.81
672.824	455.48
673.233	457.05
673.642	458.99
674.052	462.45
674.461	465.24
674.87	468.22
675.279	467.68
675.688	468.47
676.097	470.7
676.506	470.11
676.915	478.66
677.323	481.71
677.732	481.68
678.141	482.99
678.549	476.34
678.958	476.67
679.366	476.92
679.775	479.94
680.183	488.02
680.592	491.65
681	495.27
681.408	492.82
681.816	498.36
682.224	504.53
682.632	512.95
683.04	532.4
683.448	548.57
683.856	570.07
684.264	593.96
684.671	615.87
685.079	642.42
685.487	673.07
685.894	715.27
686.302	749.28
686.709	779.72
687.116	815.25
687.524	846.07
687.931	875.43
688.338	900.18
688.745	923.21
689.152	950.4
689.559	986.7
689.966	1022.84
690.373	1045.24
690.78	1083.37
691.187	1135.51
691.593	1178.22
692	1218.42
692.407	1275.28
692.813	1342.51
693.22	1399.25
693.626	1457.29
694.032	1504.89
694.439	1573.97
694.845	1629.55
695.251	1698.93
695.657	1763.76
696.063	1855.43
696.469	1927.69
696.875	1993.56
697.281	2037.53
697.687	2089.05
698.093	2135.03
698.498	2211.72
698.904	2274.56
699.31	2362.13
699.715	2429.27
700.12	2521.18
700.526	2549.98
700.931	2623.74
701.337	2683.15
701.742	2725.18
702.147	2811.69
702.552	2849.32
702.957	2914.97
703.362	2944.6
703.767	2981.47
704.172	3027.02
704.577	2994.84
704.981	3044.89
705.386	3069.68
705.791	3071.53
706.195	3149.38
706.6	3167.32
707.004	3250.3
707.408	3231.95
707.813	3266.48
708.217	3266.27
708.621	3279
709.025	3379.65
709.43	3392.44
709.834	3455.63
710.237	3531.88
710.641	3524.27
711.045	3553.5
711.449	3557.63
711.853	3593.61
712.256	3641.34
712.66	3684.8
713.064	3766.04
713.467	3813.41
713.87	3929.51
714.274	3984.06
714.677	4097.53
715.08	4263.26
715.484	4438.14
715.887	4643.74
716.29	4846.68
716.693	5060.85
717.096	5305.99
717.499	5441.97
717.901	5475.66
718.304	5509.55
718.707	5541.23
719.109	5446.7
719.512	5421.78
719.915	5292.53
720.317	5241.93
720.719	5292.65
721.122	5268.32
721.524	5223.56
721.926	5187.76
722.328	5294.55
722.731	5293.43
723.133	5327.16
723.535	5523.73
723.937	5552.07
724.338	5611.12
724.74	5656.22
725.142	5593.84
725.544	5596.95
725.945	5629.24
726.347	5631.24
726.748	5626.45
727.15	5643.69
727.551	5609.42
727.952	5585.17
728.354	5558.92
728.755	5560.84
729.156	5523.58
729.557	5516.01
729.958	5393.35
730.359	5338.42
730.76	5321.36
731.161	5264.46
731.562	5239.94
731.962	5245.13
732.363	5181.82
732.763	5120.98
733.164	5160.82
733.564	5095.31
733.965	5000.97
734.365	4968.92
734.766	5000.42
735.166	4961.54
735.566	4907.1
735.966	4882.68
736.366	4877.86
736.766	4819.82
737.166	4851.74
737.566	4810.37
737.966	4784.98
738.365	4826.49
738.765	4823.98
739.165	4748.76
739.564	4722.54
739.964	4770.81
740.363	4725.35
740.763	4725.04
741.162	4711.15
741.561	4680.07
741.96	4633.1
742.36	4654.84
742.759	4660.73
743.158	4700.55
743.557	4718.04
743.955	4762.27
744.354	4717
744.753	4775.4
745.152	4730.97
745.55	4788.01
745.949	4781.13
746.348	4784.99
746.746	4801.23
747.144	4760.72
747.543	4737.25
747.941	4787.45
748.339	4715.89
748.737	4706.92
749.136	4696.27
749.534	4765.93
749.932	4738.64
750.33	4763.86
750.727	4819.7
751.125	4796.89
751.523	4781.87
751.921	4823.12
752.318	4788.01
752.716	4847.14
753.113	4861.93
753.511	4889.49
753.908	4889.56
754.305	4874.36
754.703	4937.21
755.1	4998.69
755.497	5059.41
755.894	5250.5
756.291	5435.39
756.688	5766.11
757.085	6209.17
757.482	6833.66
757.878	7516.96
758.275	8134.62
758.672	8983.29
759.068	9676.3
759.465	10660.67
759.861	11936.5
760.258	13417.6
760.654	14179.75
761.05	14073.9
761.447	13434.28
761.843	12507.6
762.239	11549.12
762.635	11116.2
763.031	10703.71
763.427	10104.04
763.822	9480.91
764.218	8858.32
764.614	8052.74
765.01	7511.79
765.405	7164.3
765.801	6899.44
766.196	6560.59
766.592	6369.15
766.987	6049.45
767.382	5833.03
767.778	5743.77
768.173	5610.28
768.568	5534.59
768.963	5405.92
769.358	5422.45
769.753	5373.31
770.148	5287.18
770.542	5285.65
770.937	5254.17
771.332	5348.5
771.726	5365.65
772.121	5300.8
772.515	5354.87
772.91	5338.94
773.304	5410.28
773.699	5346.75
774.093	5399.45
774.487	5459.65
774.881	5504.08
775.275	5502.53
775.669	5456.72
776.063	5499.71
776.457	5535.21
776.851	5463.46
777.245	5457.85
777.638	5489.41
778.032	5600.85
778.425	5562.91
778.819	5600.61
779.212	5555.23
779.606	5508.83
779.999	5530.62
780.392	5513.17
780.786	5595.87
781.179	5611.92
781.572	5652.99
781.965	5668.62
782.358	5612.67
782.751	5669.85
783.143	5621.46
783.536	5698.65
783.929	5746.89
784.322	5860.87
784.714	5895.15
785.107	5890.91
785.499	5961.64
785.891	5942.01
786.284	5919.42
786.676	6062.73
787.068	6042.32
787.46	6097.92
787.852	6114.34
788.245	6200.53
788.636	6230.66
789.028	6296.34
789.42	6333.4
789.812	6340.71
790.204	6436.55
790.595	6537.6
790.987	6341.17
791.378	6367.81
791.77	6492.67
792.161	6633.7
792.553	6687.8
792.944	6576.98
793.335	6508.98
793.726	6584.28
794.117	6678.41
794.508	6816.05
794.899	6786.04
795.29	6930.17
795.681	6986.43
796.072	6845.94
796.463	6655.29
796.853	6667.7
797.244	6826.53
797.634	6862.1
798.025	6862.31
798.415	6876.71
798.806	6968.55
799.196	7053.45
799.586	7102.28
799.976	7062.16
800.366	7291.66
800.756	7533.96
801.146	7493.84
801.536	7520.08
801.926	7592.39
802.316	7616.37
802.706	7684.14
803.095	7559.98
803.485	7663.45
803.874	7706.79
804.264	7967.77
804.653	7948.21
805.043	8091.49
805.432	8196.15
805.821	8198.33
806.21	8219.51
806.599	8339.39
806.988	8390.82
807.377	8495.23
807.766	8628.09
808.155	8911.71
808.544	8649.49
808.933	8658.73
809.321	8637.77
809.71	8939.15
810.098	9099.89
810.487	9571.81
810.875	10059.58
811.264	10073.88
811.652	10366.08
812.04	10512.05
812.428	10676.81
812.816	11446.56
813.204	11866.82
813.592	12427.32
813.98	12766.65
814.368	12675.63
814.756	13147.21
815.144	13055.76
815.531	13533.73
815.919	13455.92
816.306	13760.38
816.694	13447.24
817.081	13498.33
817.469	13849.13
817.856	13852.47
818.243	14123.35
818.63	14515.51
819.017	14096.55
819.404	14164.6
819.791	14541.27
820.178	15164.44
820.565	15422.55
820.952	16357.45
821.339	15865.13
821.725	16048.73
822.112	15296.67
822.498	15256.34
822.885	15385.22
823.271	15285.52
823.657	15708.43
824.044	15716.42
824.43	15787.79
824.816	15749.06
825.202	15318.95
825.588	16342.02
825.974	16353.23
826.36	16867.92
826.746	16896.28
827.132	17249.78
827.517	17233.34
827.903	16440.19
828.289	16480.84
828.674	15698.09
829.06	15592.55
829.445	15989.81
829.83	16347.55
830.216	16831.13
830.601	17206.04
830.986	16796.46
831.371	16669.57
831.756	17220.9
832.141	16801.09
832.526	16795.25
832.911	17083.56
833.295	16972.91
833.68	17439.57
834.065	16814.71
834.449	15897.28
834.834	15822.71
835.218	15826.8
835.603	16167.6
835.987	15961.43
836.371	16799.79
836.755	16699.98
837.139	17111.25
837.524	17359.74
837.908	17180.51
838.291	17240.95
838.675	17309.22
839.059	17521.84
839.443	17511.67
839.827	17282.23
840.21	17760.66
840.594	17606.74
840.977	17815.42
841.361	17793.04
841.744	18171.44
842.127	18015.37
842.511	18268.02
842.894	18870.76
843.277	19250.67
843.66	19790.26
844.043	19863.91
844.426	19064.74
844.809	18758.06
845.191	18793.04
845.574	18332.79
845.957	17970.67
846.339	17867.98
846.722	17346.1
847.104	17422.82
847.487	17251.13
847.869	17269.1
848.252	17558.2
848.634	17891.32
849.016	18156.56
849.398	18281.72
849.78	19136.16
850.162	19129
850.544	19547.05
850.926	20175.32
851.307	20071.37
851.689	20349.3
852.071	20800.29
852.452	21120.85
852.834	21097.25
853.215	21484.65
853.597	21633.02
853.978	21921.98
854.359	22378.98
854.741	21378.76
855.122	21280.23
855.503	20988.6
855.884	21126.58
856.265	21060.83
856.646	21175.7
857.026	20778.29
857.407	20715.93
857.788	20872.72
858.169	21156.2
858.549	20297.8
858.93	20913.39
859.31	20951.03
859.69	21167.47
860.071	20756.98
860.451	20542.76
860.831	19808.03
861.211	20964.82
861.591	21507.24
861.971	21485.99
862.351	21684.8
862.731	22085.41
863.111	22357.64
863.491	22695.56
863.87	23575.22
864.25	23925.19
864.629	23521.54
865.009	24035.96
865.388	24905.76
865.768	26703.88
866.147	26585.11
866.526	25109.36
866.905	25399.72
867.284	26820.5
867.663	25464.33
868.042	24411.62
868.421	24336.96
868.8	24744.23
869.179	24975.59
869.558	23521.48
869.936	21682.57
870.315	22082.18
870.693	22622.31
871.072	24406.18
871.45	23262.95
871.828	23554.59
872.207	24764.75
872.585	24389.29
872.963	25053.83
873.341	24202.32
873.719	23909.45
874.097	23626.62
874.475	24070.09
874.853	24626.92
875.23	23582.36
875.608	24564.49
875.986	26581.93
876.363	25416.42
876.741	26190.19
877.118	25538.19
877.495	26792.49
877.873	27236.08
878.25	28657.34
878.627	27489.93
879.004	27871.81
879.381	27761.42
879.758	27037.92
880.135	25175.82
880.512	26616.1
880.889	25918.34
881.265	25653.03
881.642	25433.84
882.019	25870.28
882.395	25342.46
882.772	26353.69
883.148	25220.93
883.524	25123.57
883.901	24977.32
884.277	25354.23
884.653	25194.8
885.029	25916.35
885.405	28693.46
885.781	28468.82
886.157	27298.79
886.532	27628.31
886.908	27615.97
887.284	30696.98
887.659	31680.24
888.035	32656.22
888.411	33488.03
888.786	33936.02
889.161	35117.74
889.537	34485.11
889.912	35609.06
890.287	35569.37
890.662	36492.88
891.037	35823.98
891.412	33406.92
891.787	33088.17
892.162	31939.18
892.536	32687.14
892.911	31457.83
893.286	30782.14
893.66	29522.6
894.035	30266.57
894.409	32960.93
894.784	31630.78
895.158	32156.95
895.532	34070.15
895.906	35003.14
896.281	35825.9
896.655	35258.97
897.029	40291.31
897.402	41980.66
897.776	46750.3
898.15	46584.1
898.524	46084.65
898.898	46700.21
899.271	52288.97
899.645	45291.72
900.018	43509.01
900.392	45112.36
900.765	45480.13
901.138	42088.51
901.511	41455.32
901.884	38058.67
902.258	35123.48
902.631	36288.8
903.003	41758.45
903.376	37680.06
903.749	42234.23
904.122	45194.08
904.495	49769.78
904.867	50375.53
905.24	43736.47
905.612	40708.87
905.985	41616.36
906.357	43481.13
906.729	41492.52
907.102	35454.41
907.474	34068.75
907.846	34285.22
908.218	33832.98
908.59	29899.12
908.962	28919.38
909.334	31121.78
909.705	32670.68
910.077	31720.69
910.449	33010.31
910.82	33936.52
911.192	37312.74
911.563	38773.28
911.935	41486.93
912.306	41534.7
912.677	42865.54
913.048	42447.12
913.419	46070.34
913.79	46333.01
914.161	49680.91
914.532	47496.21
914.903	43621.98
915.274	41419.78
915.645	40823.14
916.015	35920.79
916.386	34239.47
916.756	36449.97
917.127	37595.29
917.497	33599.02
917.868	36566.31
918.238	34755.36
918.608	35736.32
918.978	36474.11
919.348	38657.67
919.718	39941.39
920.088	38470.56
920.458	39989.19
920.828	42074.86
921.198	39867.18
921.567	42583.36
921.937	32977.3
922.306	33287.72
922.676	35904.52
923.045	29981.17
923.415	28476.38
923.784	25933.73
924.153	26662.75
924.522	26616.06
924.891	25017.28
925.26	26809.1
925.629	26182.22
925.998	30112.56
926.367	29399.66
926.736	28009.59
927.104	33348.79
927.473	35847.73
927.842	43310.72
928.21	42920.03
928.578	45142.23
928.947	42701.86
929.315	42946.04
929.683	50355.29
930.051	50744.45
930.42	58926.57
930.788	50367.47
931.156	49982.99
931.523	46868.35
931.891	43274.48
932.259	41542.48
932.627	48139.71
932.994	68102.51
933.362	56327.15
933.729	48924.09
934.097	46860
934.464	39643.81
934.831	45748.58
935.199	45099.85
935.566	43728.78
935.933	44390.77
936.3	53803.72
936.667	41887.99
937.034	37781.31
937.401	37341.11
937.767	32219.76
938.134	28650.32
938.501	40423.95
938.867	43077.32
939.234	72847.41
939.6	62164.73
939.967	68391.33
940.333	45719.59
940.699	38935.78
941.065	31283.14
941.431	41025.31
941.798	39566.56
942.163	51978.15
942.529	32446.42
942.895	29849.67
943.261	19304.99
943.627	25302.12
943.992	22151.13
944.358	22203.34
944.723	22279.68
945.089	21698.04
945.454	20053.65
945.82	21404
946.185	20559.92
946.55	23830.73
946.915	21396.77
947.28	25091.39
947.645	22118.63
948.01	20428.29
948.375	21312.48
948.74	25551.16
949.104	29817.14
949.469	43087.21
949.834	76152.55
950.198	72163.44
950.562	43306.82
950.927	36100.65
951.291	43469.88
951.655	36968.88
952.02	34715.51
952.384	26274.1
952.748	22843.9
953.112	22283.81
953.476	19374.18
953.839	17923.41
954.203	17761.09
954.567	22196.77
954.931	34938.75
955.294	29905.04
955.658	30077.21
956.021	51103.16
956.385	86606.6
956.748	127980.78
957.111	198332.06
957.474	222480.64
957.837	250450.48
958.2	189446.45
958.563	68139.93
958.926	46043.23
959.289	69826.67
959.652	78079.76
960.015	58627.18
960.377	84132.78
960.74	95935.48
961.102	165579.57
961.465	177832.97
961.827	95172.14
962.189	182817.48
962.552	126807.51
962.914	101721.67
963.276	65983.55
963.638	54580.41
964	54008.3
964.362	36480.16
964.724	35268.58
965.085	25157.87
965.447	20625.74
965.809	23520.67
966.17	23518.04
966.532	25435.05
966.893	23328.07
967.255	21233.11
967.616	25048.31
967.977	20069.43
968.338	21911.38
968.699	18002.17
969.061	18013.04
969.421	18139.38
969.782	20367
970.143	17201.84
970.504	17799.86
970.865	20241.2
971.225	20673.64
971.586	20229.07
971.946	28847.74
972.307	25048.2
972.667	32743.92
973.027	33684.57
973.388	40803.29
973.748	27705.12
974.108	30194.06
974.468	40850.03
974.828	31497.78
975.188	24241.43
975.548	22256.22
975.907	18684.15
976.267	20968.83
976.627	17639.32
976.986	18305.72
977.346	17460.73
977.705	16815.69
978.064	15303.39
978.424	12754.65
978.783	13178.68
979.142	15048.81
979.501	14400.23
979.86	15223.41
980.219	14665.59
980.578	18916.39
980.937	21192.99
981.296	18890.94
981.654	19465.86
982.013	30307.75
982.371	39304.39
982.73	36726.8
983.088	41595.57
983.447	44391.22
983.805	63423.36
984.163	132647.9
984.521	146943.42
984.879	215352.36
985.237	-349556.21
985.595	336200.72
985.953	83502.58
986.311	48225.95
986.669	28022.72
987.026	24224.63
987.384	32615.45
987.741	33693.68
988.099	24055.64
988.456	19203.22
988.814	17952.78
989.171	15644.13
989.528	15454.83
989.885	16327.21
990.242	12932.06
990.599	16093.16
990.956	13137.88
991.313	9185.3
991.67	7548.79
992.027	7992.34
992.383	7094.47
992.74	6221
993.096	6524.84
993.453	6765.97
993.809	7017.56
994.165	9324.29
994.522	8550.63
994.878	9433.01
995.234	11838.27
995.59	11682.48
995.946	11073.21
996.302	12633.9
996.658	14627.1
997.013	16101.77
997.369	19106.52
997.725	24462.69
998.08	15881.43
998.436	24452.06
998.791	33730.85
999.147	33676.01
999.502	36723.52
999.857	26729.69
1000.212	43640.26
1000.567	62208.18
1000.922	35979.11
1001.277	22882.11
1001.632	16963.11
1001.987	21864.17
1002.342	15693.18
1002.696	12563.27
1003.051	10031.4
1003.406	12127.97
1003.76	12041.76
1004.114	11878.26
1004.469	9994.6
1004.823	8259.37
1005.177	8885.79
1005.531	7031.66
1005.885	6224.55
1006.239	7040.94
1006.593	8829.7
1006.947	11790.13
1007.301	8871.31
1007.655	9698.33
1008.008	7101.62
1008.362	7943.72
1008.715	11356.48
1009.069	10322.6
1009.422	15525.02
1009.776	31095.3
1010.129	20583.36
1010.482	17189.24
1010.835	14571.66
1011.188	30261.6
1011.541	28496.18
1011.894	-174587.4
1012.247	514258.28
1012.6	35004.12
1012.952	22078.52
1013.305	11377.55
1013.657	8230.27
1014.01	7809.08
1014.362	6424.79
1014.715	5706.63
1015.067	4977
1015.419	4841.92
1015.771	4269.01
1016.123	3805.01
1016.475	3904.62
1016.827	4144.99
1017.179	4461.36
1017.531	4497.71
1017.883	4601.07
1018.234	4444.16
1018.586	5583.33
1018.938	5914.92
1019.289	8219.99
1019.64	9454.21
1019.992	8793.43
1020.343	8037.69
1020.694	6391.88
1021.045	5660
1021.396	6455.76
1021.747	6917.81
1022.098	8321.88
1022.449	6069.05
1022.8	5636.37
1023.151	3904.16
1023.501	3449.78
1023.852	3759.46
1024.202	3907.7
1024.553	4285.11
1024.903	4184.81
1025.253	3584.37
1025.604	3222.22
1025.954	3992.51
1026.304	4867.21
1026.654	5675.5
1027.004	8334.71
1027.354	13497.28
1027.703	12695.92
1028.053	16682.93
1028.403	24184.33
1028.753	35015.17
1029.102	47726
1029.452	245709.4
1029.801	10643.12
1030.15	6866.8
1030.499	5804.36
897.758	2473.94
901.051	2423.95
904.343	2455.66
907.636	2458.41
910.928	2521.22
914.22	2433.32
917.511	2440.26
920.803	2496.73
924.094	2507.01
927.384	2498.08
930.675	2462.87
933.965	2418.1
937.255	2433.79
940.544	2399.75
943.834	2369.3
947.123	2307.81
950.411	2399.15
953.7	2374.41
956.988	2348.39
960.276	2289.75
963.563	2357.55
966.851	2359.48
970.138	2411.36
973.424	2406.05
976.711	2361.94
979.997	2455.82
983.283	2498.69
986.568	2417.49
989.853	2424.65
993.138	2452.46
996.423	2532.74
999.708	2478.77
1002.992	2525.7
1006.275	2396.4
1009.559	2424.97
1012.842	2531.89
1016.125	2470.69
1019.408	2452.04
1022.69	2525.66
1025.972	2550.86
1029.254	2525.6
1032.536	2469.39
1035.817	2490.34
1039.098	2445.83
1042.379	2552.5
1045.659	2563.52
1048.939	2500.81
1052.219	2520.97
1055.498	2523.94
1058.778	2514.98
1062.057	2493.03
1065.335	2515.36
1068.614	2533.43
1071.892	2519.13
1075.17	2589.25
1078.447	2579.26
1081.724	2574.12
1085.001	2606.67
1088.278	2581.22
1091.554	2591.15
1094.83	2587.25
1098.106	2618.73
1101.382	2657.46
1104.657	2656.51
1107.932	2654.65
1111.206	2625
1114.481	2583.33
1117.755	2583.68
1121.029	2569.37
1124.302	2621.25
1127.575	2582.77
1130.848	2572.77
1134.121	2538.26
1137.393	2492.42
1140.665	2556.51
1143.937	2532.98
1147.208	2487.23
1150.48	2533.62
1153.75	2520.86
1157.021	2543.01
1160.291	2517.42
1163.561	2561.14
1166.831	2543.96
1170.101	2572.96
1173.37	2544.98
1176.639	2492.94
1179.907	2548.4
1183.176	2560.97
1186.444	2564.95
1189.711	2591.47
1192.979	2607.26
1196.246	2560.27
1199.513	2577.26
1202.78	2574.75
1206.046	2583.92
1209.312	2608.7
1212.578	2632.43
1215.843	2589.65
1219.108	2561.6
1222.373	2586.1
1225.638	2552.64
1228.902	2538.57
1232.166	2504.45
1235.43	2488.83
1238.693	2515.27
1241.956	2509.45
1245.219	2552.67
1248.482	2538.06
1251.744	2533.12
1255.006	2670.75
1258.268	2622.67
1261.529	2572.39
1264.79	2578.6
1268.051	2679.85
1271.312	2691.79
1274.572	2658.87
1277.832	2649.25
1281.092	2633.47
1284.351	2614.93
1287.61	2597.39
1290.869	2520.56
1294.128	2505.62
1297.386	2579.59
1300.644	2569.63
1303.902	2578.71
1307.159	2445.27
1310.416	2496.75
1313.673	2523.29
1316.93	2514.9
1320.186	2555.52
1323.442	2592.5
1326.697	2587.89
1329.953	2572.64
1333.208	2599.09
1336.463	2577.31
1339.717	2524.86
1342.972	2648.27
1346.226	2624.26
1349.479	2562.55
1352.733	2534.46
1355.986	2552.8
1359.238	2530.93
1362.491	2531.26
1365.743	2531.24
1368.995	2526.72
1372.247	2537.26
1375.498	2559.83
1378.749	2579.97
1382	2536.04
1385.251	2582.2
1388.501	2541.46
1391.751	2529.95
1395	2498.92
1398.25	2531.13
1401.499	2544.18
1404.748	2477.92
1407.996	2465.21
1411.244	2453.58
1414.492	2437.53
1417.74	2415.09
1420.987	2423.55
1424.234	2480.68
1427.481	2454.31
1430.728	2513.32
1433.974	2487.4
1437.22	2497.71
1440.465	2497.27
1443.711	2473.84
1446.956	2501.05
1450.201	2485.64
1453.445	2529.91
1456.689	2510.67
1459.933	2522.18
1463.177	2555.4
1466.42	2528.12
1469.663	2508.48
1472.906	2507.6
1476.148	2567.59
1479.391	2557.06
1482.633	2526.89
1485.874	2535.88
1489.115	2529.24
1492.356	2529.48
1495.597	2507.01
1498.838	2507.11
1502.078	2482.08
1505.318	2440.39
1508.557	2480.28
1511.797	2470.16
1515.036	2504.75
1518.274	2496.5
1521.513	2466.56
1524.751	2482.99
1527.989	2499.94
1531.227	2514.82
1534.464	2515.06
1537.701	2526.9
1540.938	2543.84
1544.174	2495.21
1547.41	2489.92
1550.646	2528.06
1553.882	2569.27
1557.117	2621.5
1560.352	2632.83
1563.587	2591.84
1566.821	2554.64
1570.055	2586.16
1573.289	2557.15
1576.523	2626.29
1579.756	2635.72
1582.989	2656.41
1586.222	2617.05
1589.454	2651.26
1592.686	2631.83
1595.918	2659.91
1599.15	2650.7
1602.381	2715.93
1605.612	2677.85
1608.843	2776.8
1612.073	2691.95
1615.303	2680.26
1618.533	2671.35
1621.762	2675.42
1624.992	2656.1
1628.221	2646.46
1631.449	2632.67
1634.678	2677.36
1637.906	2638.47
1641.134	2673.36
1644.361	2633.42
1647.588	2622.95
1650.815	2638.49
1654.042	2616.02
1657.269	2644.45
1660.495	2605.66
1663.72	2616.92
1666.946	2584.2
1670.171	2540.16
1673.396	2512.7
1676.621	2497.74
1679.845	2511.24
1683.069	2528.38
1686.293	2565.64
1689.517	2543.48
1692.74	2480.98
1695.963	2510.03
1699.185	2532.36
1702.408	2505.18
1705.63	2542.68
1708.852	2555.65
1712.073	2531.32
1715.294	2523.04
1718.515	2576.31
1721.736	2528.13
1724.956	2515.1
1728.176	2539.89
1731.396	2561.81
1734.616	2547.83
1737.835	2579.89
1741.054	2555.88
1744.272	2550.87
1747.491	2582.27
1750.709	2622.61
1753.927	2543.54
1757.144	2583.02
1760.361	2629.34
1763.578	2617.73
1766.795	2559.31
1770.011	2563.54
1773.227	2596.49
1776.443	2633.53
1779.658	2674.09
1782.874	2615.67
1786.089	2598.65
1789.303	2600.73
1792.518	2602.26
1795.732	2590.74
1798.945	2600.9
1802.159	2649.39
1805.372	2563.46
1808.585	2552.49
1811.797	2554.07
1815.01	2593.81
1818.222	2602.7
1821.434	2580.43
1824.645	2633.2
1827.856	2627.82
1831.067	2661.56
1834.278	2611.32
1837.488	2596.03
1840.698	2735.35
1843.908	2667.65
1847.117	2629.77
1850.326	2531.15
1853.535	2618.69
1856.744	2637.17
1859.952	2554.17
1863.16	2555.68
1866.368	2573.77
1869.575	2676.61
1872.782	2564.66
1875.989	2503.13
1879.196	2571.74
1882.402	2562.8
1885.608	2602.48
1888.814	2519.27
1892.019	2422.12
1895.224	2474.17
1898.429	2451.52
1901.634	2430.39
1904.838	2410.2
1908.042	2457.65
1911.246	2467
1914.449	2413.19
1917.652	2407.44
1920.855	2386.61
1924.058	2428.08
1927.26	2469.03
1930.462	2493.51
1933.664	2522.85
1936.865	2464.69
1940.066	2471.72
1943.267	2418.99
1946.467	2431.75
1949.668	2455.13
1952.868	2521.83
1956.067	2505
1959.267	2440.52
1962.466	2465.52
1965.665	2450.06
1968.863	2442.41
1972.061	2455.36
1975.259	2454.16
1978.457	2531.44
1981.654	2490.27
1984.852	2490.6
1988.048	2430.51
1991.245	2430.41
1994.441	2514.85
1997.637	2491.31
2000.833	2472.21
2004.028	2510.53
2007.223	2565.82
2010.418	2546.27
2013.613	2507.55
2016.807	2484.91
2020.001	2488.34
2023.194	2526.06
2026.388	2504.01
2029.581	2447.13
2032.774	2500.54
2035.966	2510.71
2039.158	2448.3
2042.35	2472.28
2045.542	2399.65
2048.733	2490.86
2051.924	2504.7
2055.115	2527.47
2058.306	2477.92
2061.496	2534.24
2064.686	2594.63
2067.875	2506.8
2071.065	2515.94
2074.254	2539.5
2077.442	2491.99
2080.631	2580.13
2083.819	2484.55
2087.007	2471.53
2090.195	2449.83
2093.382	2477.86
2096.569	2459.19
2099.756	2417.35
2102.942	2449.88
2106.128	2456.23
2109.314	2449.01
2112.5	2421.28
2115.685	2392.7
2118.87	2402.32
2122.055	2465.5
2125.239	2434.66
2128.424	2415.55
2131.608	2502.37
2134.791	2483.56
2137.974	2533.72
2141.157	2522.49
2144.34	2480.43
2147.523	2489.21
2150.705	2507.54
2153.887	2484.34
2157.068	2440.69
2160.25	2436.74
2163.431	2467.46
2166.611	2422.57
2169.792	2438.28
2172.972	2339.52
2176.152	2408.62
2179.331	2438.96
2182.511	2425.66
2185.69	2453.19
2188.868	2449.87
2192.047	2495.29
2195.225	2494.14
2198.403	2446.89
2201.58	2436.37
2204.758	2431.21
2207.935	2511.95
2211.111	2409.76
2214.288	2396.73
2217.464	2434.69
2220.64	2401.29
2223.815	2454.65
2226.991	2382.23
2230.166	2400.03
2233.34	2433.01
2236.515	2452.43
2239.689	2521.98
2242.863	2468.35
2246.036	2522.82
2249.209	2517.3
2252.382	2545.87
2255.555	2541.95
2258.727	2484.52
2261.9	2520.79
2265.071	2511.68
2268.243	2510.9
2271.414	2452.74
2274.585	2421.08
2277.756	2484.71
2280.926	2440.1
2284.096	2478.03
2287.266	2392.9
2290.436	2441.36
2293.605	2467.91
2296.774	2499.94
2299.942	2514.87
2303.111	2534.55
2306.279	2581.27
2309.447	2567.42
2312.614	2542.79
2315.781	2563.19
2318.948	2537.62
2322.115	2574.63
2325.281	2479.32
2328.447	2494.55
2331.613	2467.13
2334.779	2448.13
2337.944	2445.31
2341.109	2446.33
2344.274	2432.1
2347.438	2395.82
2350.602	2420.6
2353.766	2433.5
2356.929	2421.14
2360.092	2459.06
2363.255	2416.82
2366.418	2365.16
2369.58	2460.35
2372.742	2282.78
2375.904	2288.47
2379.066	2267.78
2382.227	2300.43
2385.388	2265.13
2388.548	2199.99
2391.709	2249.86
2394.869	2233.33
2398.029	2316.74
2401.188	2321.84
2404.347	2268.34
2407.506	2384.96
2410.665	2417
2413.823	2417.74
2416.981	2383.52
2420.139	2408.45
2423.296	2456.31
2426.453	2427.97
2429.61	2452.08
2432.767	2398.89
2435.923	2437.75
2439.079	2394.94
2442.235	2437.08
2445.391	2371.9
2448.546	2402.58
2451.701	2447.31
2454.855	2427.96
2458.009	2469.33
2461.163	2467.46
2464.317	2430.69
2467.471	2460.63
2470.624	2497.04
2473.777	2474.98
2476.929	2488.52
2480.082	2511.82
2483.234	2480.16
2486.385	2426.79
2489.537	2420.61
2492.688	2392.43
2495.839	2412.4
2498.989	2425.17
2502.14	2409.88
2505.29	2395.57
2508.439	2416.06
2511.589	2346.89
2514.738	2355.41
2517.887	2383.1
2521.035	2454.94
2524.183	2428.55
2527.331	2410.86
2530.479	2390.09
2533.627	2397.03
