Data from N_2_DIV_PA_2N_Splice17_12-39-18-391.txt Node
Date: Sat Mar 14 12:39:18 EDT 2020
User: sa697716
Spectrometer: FLMS03696
Trigger mode: 0
Integration Time (sec): 3.180400E-1
Scans to average: 20
Electric dark correction enabled: true
Nonlinearity correction enabled: true
Boxcar width: 5
XAxis mode: Wavelengths
Number of Pixels in Spectrum: 2048
>>>>>Begin Spectral Data<<<<<
187.83	-344831.26
188.298	2501.48
188.766	1386.9
189.233	1192.78
189.701	1794.49
190.169	2466.25
190.636	947.33
191.104	759.54
191.571	125.56
192.039	-60.25
192.506	-86.97
192.974	471.09
193.441	-599.28
193.908	-34.65
194.375	1.42
194.842	77.24
195.31	138.7
195.777	202.19
196.244	428.36
196.711	516.35
197.177	646.64
197.644	918.72
198.111	1609.66
198.578	2235.16
199.045	1818.78
199.511	2942.37
199.978	3454.94
200.445	2940.88
200.911	3229.43
201.378	3599.95
201.844	3252.97
202.31	5608.14
202.777	5805.29
203.243	3196.64
203.709	3025.4
204.176	3566.52
204.642	2926.83
205.108	2756.43
205.574	2263.87
206.04	2065.99
206.506	1930.52
206.972	1821.48
207.438	1747.05
207.903	1996.13
208.369	1755.11
208.835	1755.22
209.301	1840.36
209.766	1874.14
210.232	1841.23
210.697	2256.03
211.163	2786.6
211.628	4222.59
212.094	3555.13
212.559	4355.54
213.024	2718.17
213.49	3327.12
213.955	3269.87
214.42	3188.48
214.885	2983.32
215.35	2859.54
215.815	2759.76
216.28	2931.02
216.745	2364.73
217.21	2542.23
217.675	2321.11
218.14	2581.14
218.604	2847.37
219.069	3199.18
219.534	3337.7
219.998	3831.87
220.463	4621.65
220.927	5621.81
221.392	5255.48
221.856	5312.05
222.32	6645.9
222.785	8176.85
223.249	10228.99
223.713	11380.82
224.177	11388.02
224.642	14561.98
225.106	17928.06
225.57	19546.88
226.034	14535.56
226.497	22126.34
226.961	19924.67
227.425	23222.08
227.889	25733.41
228.353	25707.5
228.816	53015.07
229.28	50554.32
229.744	42561.7
230.207	25883.28
230.671	25398.54
231.134	41948.28
231.597	48325.7
232.061	48282.7
232.524	46969.77
232.987	32312.52
233.45	29147.96
233.914	26133.51
234.377	26760.38
234.84	24477.88
235.303	28836.34
235.766	32183.57
236.229	33249.16
236.691	20913.19
237.154	23480.63
237.617	17681.56
238.08	18117.91
238.542	21157.71
239.005	15121.54
239.468	15016.58
239.93	14157.63
240.393	12852.66
240.855	11281.66
241.317	11548.73
241.78	14031.79
242.242	14523.12
242.704	15670.17
243.166	13641.96
243.629	12400.18
244.091	14275.77
244.553	15635.98
245.015	16808.24
245.477	21754.27
245.939	31865.22
246.4	33817.55
246.862	32855.53
247.324	30966.08
247.786	34657.93
248.247	45356.39
248.709	46730.35
249.17	34973.23
249.632	33007.85
250.093	38308.02
250.555	33090.84
251.016	20203.23
251.477	19156.8
251.939	20692.31
252.4	21717.3
252.861	25840.07
253.322	24085.84
253.783	28693.46
254.244	37223.72
254.705	29315.57
255.166	26041.11
255.627	25644.98
256.088	36195.63
256.549	38480.81
257.009	33117.15
257.47	40196.72
257.931	32694.06
258.391	24479.38
258.852	25243.7
259.312	26455.84
259.773	32659.85
260.233	27619.86
260.694	23290.36
261.154	26365.22
261.614	21202.53
262.074	18962.43
262.534	19705.56
262.994	18580.76
263.455	24742.31
263.915	20850.29
264.374	19636.07
264.834	21438.67
265.294	23725.97
265.754	24561.18
266.214	23265.67
266.673	21749.99
267.133	27466.81
267.593	27231.45
268.052	33324.76
268.512	28985.39
268.971	34969.86
269.431	38351.56
269.89	34336.41
270.349	51543.34
270.809	57532.73
271.268	51743.49
271.727	116067.6
272.186	75179.71
272.645	56391.06
273.104	40700.5
273.563	58916.04
274.022	46306.92
274.481	39443.31
274.94	30433.75
275.399	22628.3
275.857	26359.72
276.316	35626.84
276.775	31719.75
277.233	31266.38
277.692	29276.21
278.15	33118.19
278.609	34108.02
279.067	31564
279.525	29347.12
279.984	37908.17
280.442	45545.23
280.9	44932.86
281.358	29604.64
281.816	27620.57
282.274	27058.37
282.732	27992.2
283.19	28133.03
283.648	24292.39
284.106	25893.14
284.564	26303.7
285.021	24409.12
285.479	18204.23
285.937	16545.38
286.394	14543.22
286.852	14970.44
287.309	15752.11
287.767	15232.58
288.224	14510.59
288.682	15941.05
289.139	17515.69
289.596	16055.26
290.053	16673.59
290.511	21050.26
290.968	25545.23
291.425	34629.63
291.882	28846.68
292.339	25080.87
292.796	24880.43
293.252	23437.07
293.709	18625.51
294.166	16698.8
294.623	18445.6
295.079	17707.38
295.536	17784.76
295.992	16148.51
296.449	15993.85
296.905	16608.3
297.362	15935.01
297.818	16746.22
298.274	17386.9
298.731	17718.74
299.187	17530.65
299.643	18831.3
300.099	22814.3
300.555	25043.62
301.011	20944.52
301.467	20197.3
301.923	23637.6
302.379	23106.19
302.835	22717.13
303.291	22740.22
303.746	25894.16
304.202	32725.49
304.658	32846.58
305.113	22080.29
305.569	21634.04
306.024	23053.15
306.479	21921.32
306.935	18501.85
307.39	20210.07
307.845	18681.69
308.301	18807.11
308.756	18323.51
309.211	17663.37
309.666	18134.44
310.121	22561.6
310.576	22907.55
311.031	22764.88
311.486	26107.28
311.94	26108.1
312.395	34918.08
312.85	65621.06
313.305	322599.78
313.759	1674473.84
314.214	121616.49
314.668	96388.99
315.123	81003.27
315.577	29129.8
316.032	25955.44
316.486	32537.16
316.94	25712.25
317.394	17939.57
317.849	13950.07
318.303	13213.68
318.757	12458.97
319.211	13771.14
319.665	12063.55
320.119	12223.56
320.572	17507.02
321.026	16339.83
321.48	13625.61
321.934	14843.33
322.387	14848.56
322.841	16064.84
323.295	14477.62
323.748	16664.61
324.202	16917.97
324.655	20330.75
325.108	28435.43
325.562	20096.47
326.015	23907.54
326.468	18081.84
326.921	20246.68
327.374	18913.77
327.827	19700.66
328.28	22295.28
328.733	14960.41
329.186	13158.6
329.639	12539.37
330.092	10564.82
330.545	10066.34
330.997	10148.21
331.45	11087.69
331.903	13024.18
332.355	22422.92
332.808	21793.45
333.26	17977.04
333.713	19537.04
334.165	19706.8
334.617	26328.71
335.069	21257.39
335.522	38478.66
335.974	42661.96
336.426	39001.21
336.878	26960.38
337.33	13664.51
337.782	13330.62
338.234	16730.15
338.686	20040.99
339.137	23748.41
339.589	22349.08
340.041	17549.25
340.493	15074.02
340.944	15452.73
341.396	16638.91
341.847	14021.13
342.299	16570.75
342.75	20259.81
343.201	17663.5
343.653	20289.81
344.104	24950.19
344.555	19646.41
345.006	30495.45
345.457	23418.13
345.908	18610.58
346.359	17532.25
346.81	14278.4
347.261	15019.97
347.712	14788.83
348.163	15852.29
348.613	16069.19
349.064	15009.17
349.515	13172.79
349.965	13546.58
350.416	16308.64
350.866	17891.6
351.317	20220.38
351.767	33562.28
352.217	42480.74
352.668	35271.6
353.118	32339.95
353.568	31149.54
354.018	24619.11
354.468	25944.13
354.918	18608.2
355.368	16283.05
355.818	23046.16
356.268	66342.76
356.718	277829.26
357.168	69263.02
357.617	34832.44
358.067	38744.5
358.517	36322.01
358.966	42598.27
359.416	47876.1
359.865	51761.55
360.315	61640.67
360.764	28816.85
361.213	16167.37
361.663	15310.75
362.112	18907.2
362.561	30565.62
363.01	23096.3
363.459	19509.46
363.908	21155.48
364.357	17991.93
364.806	30413.42
365.255	20938
365.703	19140.4
366.152	19176.68
366.601	15537.89
367.05	12610.12
367.498	11460.7
367.947	12003.82
368.395	12483.34
368.844	11067.91
369.292	13324.55
369.74	9217.98
370.189	14105.39
370.637	16571.01
371.085	14295.28
371.533	17397.33
371.981	16787.12
372.429	16038.26
372.877	16745.55
373.325	14030.63
373.773	14328.39
374.221	12790.62
374.669	15920.07
375.116	13811.15
375.564	13946.42
376.012	15660.31
376.459	12960.55
376.907	15514.15
377.354	18787.49
377.801	17555.62
378.249	20228.71
378.696	25893.65
379.143	31425.22
379.591	33578.48
380.038	57021.07
380.485	41353.31
380.932	44764.49
381.379	41178.37
381.826	30509.07
382.273	21777.1
382.72	19067.64
383.166	18632.48
383.613	12139.65
384.06	10991.65
384.506	12768.8
384.953	9407.95
385.4	9515.44
385.846	8357.81
386.292	8174.77
386.739	8018.78
387.185	7972.44
387.631	8022.56
388.078	7834.64
388.524	8419.18
388.97	7813.48
389.416	6545.8
389.862	6999.74
390.308	6667.34
390.754	6811.16
391.2	7424.97
391.645	7632.86
392.091	7312.68
392.537	7085.29
392.983	7100.3
393.428	7009.68
393.874	7524.79
394.319	7584.47
394.765	7218.14
395.21	7431.08
395.655	6990.96
396.101	6557.07
396.546	5937.75
396.991	6016.96
397.436	5608.45
397.881	5461.89
398.326	5187.76
398.771	4929.71
399.216	4323.47
399.661	3901.34
400.106	3897.72
400.551	3997.49
400.995	3600.74
401.44	3567.71
401.885	3356.9
402.329	3398.59
402.774	3262.65
403.218	3170.18
403.663	3061.28
404.107	3157.57
404.551	3190.59
404.995	2935.13
405.44	2834.76
405.884	2886.51
406.328	2800.19
406.772	2800.18
407.216	2559.98
407.66	2481.33
408.104	2361.27
408.547	2218.11
408.991	2150.52
409.435	2074.03
409.879	2049.79
410.322	2030.95
410.766	1965.07
411.209	1875.57
411.653	1805.37
412.096	1772.72
412.54	1776.85
412.983	1767.33
413.426	1776
413.869	1775.18
414.312	1746.02
414.756	1685.51
415.199	1607.35
415.642	1562.13
416.085	1566.42
416.527	1559.56
416.97	1587.29
417.413	1507.43
417.856	1493.2
418.298	1478.39
418.741	1469.46
419.184	1466.67
419.626	1528.31
420.069	1534.01
420.511	1546.52
420.953	1516.5
421.396	1501.75
421.838	1461.72
422.28	1494.67
422.722	1505.23
423.164	1526.89
423.606	1502.5
424.048	1503.96
424.49	1432.02
424.932	1425.19
425.374	1403.72
425.816	1424.89
426.258	1452.69
426.699	1470.89
427.141	1451.83
427.582	1473.19
428.024	1468.58
428.465	1462.81
428.907	1426.65
429.348	1411.35
429.789	1412.11
430.231	1385.42
430.672	1405.78
431.113	1375.33
431.554	1356.7
431.995	1323.77
432.436	1277.71
432.877	1248.08
433.318	1227.34
433.759	1220.66
434.2	1222.91
434.64	1210.52
435.081	1212.27
435.522	1148.23
435.962	1106.34
436.403	1083.12
436.843	1095.31
437.284	1070.95
437.724	1043.21
438.164	1046.78
438.604	1025.29
439.045	983.81
439.485	941.71
439.925	921.53
440.365	898.24
440.805	885.89
441.245	874.56
441.685	843.58
442.125	837.02
442.564	841.67
443.004	819.78
443.444	816.64
443.883	817.65
444.323	812.83
444.762	812.85
445.202	824.99
445.641	839.38
446.081	832.49
446.52	838.93
446.959	830.72
447.398	809.53
447.837	800.43
448.276	784.75
448.716	790.01
449.154	794.35
449.593	775.59
450.032	772.36
450.471	756.39
450.91	755.37
451.349	751.3
451.787	745.94
452.226	756.76
452.664	755.11
453.103	755.87
453.541	753.68
453.98	750.82
454.418	753.88
454.856	738.85
455.295	734.89
455.733	739.46
456.171	742.47
456.609	743.8
457.047	742.07
457.485	752.67
457.923	752.14
458.361	741.41
458.798	743.2
459.236	739.7
459.674	744.39
460.111	748.43
460.549	741.39
460.987	739.33
461.424	736.02
461.862	731.29
462.299	719.29
462.736	719.31
463.173	722.6
463.611	716.48
464.048	717.17
464.485	724.07
464.922	717.69
465.359	714.57
465.796	707.21
466.233	701.62
466.67	696.44
467.106	695.96
467.543	689.37
467.98	680.16
468.416	662.41
468.853	655.92
469.29	635.06
469.726	627.91
470.162	611.39
470.599	601.54
471.035	595.69
471.471	580.97
471.907	577.44
472.344	572.26
472.78	572.78
473.216	577.83
473.652	571.53
474.088	570.37
474.523	567.98
474.959	571.46
475.395	565.62
475.831	562.13
476.266	564.12
476.702	560.81
477.138	554.55
477.573	551.76
478.008	549.17
478.444	550.69
478.879	554.81
479.314	557.1
479.75	556.76
480.185	557.97
480.62	561.86
481.055	563.98
481.49	567.06
481.925	574.95
482.36	585.23
482.795	601.12
483.229	616
483.664	627.86
484.099	628.35
484.534	637.52
484.968	642.45
485.403	643.61
485.837	641.56
486.271	640.01
486.706	639.98
487.14	630.12
487.574	618.14
488.009	611.41
488.443	604.23
488.877	609.41
489.311	609.02
489.745	614.16
490.179	617.12
490.613	627.06
491.046	629.38
491.48	630.39
491.914	628.06
492.348	630.32
492.781	630.94
493.215	629.7
493.648	627.08
494.082	628.05
494.515	625.86
494.948	629.69
495.382	629.3
495.815	629.41
496.248	630.74
496.681	638.24
497.114	642.97
497.547	647.32
497.98	654.04
498.413	654.72
498.846	658.42
499.279	659.74
499.711	657.57
500.144	654.09
500.577	657.55
501.009	659.52
501.442	661.73
501.874	656.73
502.306	650.98
502.739	651.61
503.171	656.24
503.603	651.45
504.036	651.86
504.468	649.91
504.9	651.13
505.332	647.88
505.764	644.84
506.196	642.88
506.627	646.85
507.059	649.73
507.491	646.68
507.923	638.91
508.354	642.4
508.786	642.55
509.217	646.76
509.649	649.49
510.08	655.4
510.512	659.9
510.943	662.54
511.374	663.01
511.805	669.07
512.237	674.62
512.668	687.42
513.099	697.24
513.53	707.64
513.961	715.5
514.391	729.45
514.822	744.97
515.253	760.81
515.684	771.54
516.114	784.04
516.545	792.83
516.975	803.79
517.406	810.27
517.836	809.14
518.267	810.14
518.697	817.68
519.127	817.52
519.558	817.99
519.988	817.33
520.418	820.83
520.848	828.66
521.278	832.06
521.708	865.07
522.138	871.86
522.567	888.53
522.997	902.59
523.427	909.74
523.857	919.13
524.286	925.38
524.716	935.14
525.145	946.84
525.575	954.95
526.004	964.11
526.433	938.84
526.863	939.35
527.292	935.05
527.721	939.66
528.15	944.39
528.579	946.3
529.008	954.36
529.437	967.88
529.866	976.71
530.295	986.81
530.724	996.04
531.152	1013.05
531.581	1023.85
532.01	1035.78
532.438	1041.34
532.867	1051.57
533.295	1064.06
533.723	1067.99
534.152	1068.66
534.58	1071.02
535.008	1063.34
535.436	1065.62
535.865	1070.13
536.293	1079.45
536.721	1089.18
537.149	1106.59
537.576	1109.55
538.004	1118.6
538.432	1124.28
538.86	1124.34
539.287	1128.64
539.715	1137.86
540.143	1139.31
540.57	1138.09
540.998	1135.19
541.425	1123.75
541.852	1111.03
542.28	1109.91
542.707	1099.56
543.134	1092.15
543.561	1089.96
543.988	1086.36
544.415	1086.25
544.842	1083.04
545.269	1080.04
545.696	1082.91
546.123	1090.64
546.549	1084.85
546.976	1079.36
547.403	1080
547.829	1082.13
548.256	1084.11
548.682	1081.35
549.108	1077.49
549.535	1078.36
549.961	1079.48
550.387	1071.49
550.813	1068.85
551.24	1073.68
551.666	1072.81
552.092	1067.44
552.518	1062.94
552.943	1059.31
553.369	1064.68
553.795	1067.68
554.221	1067.59
554.646	1065.13
555.072	1072.12
555.498	1073.77
555.923	1077.7
556.349	1086.84
556.774	1090.36
557.199	1090.63
557.625	1092.44
558.05	1087.33
558.475	1092.63
558.9	1091.29
559.325	1086.07
559.75	1080.69
560.175	1073.99
560.6	1068.18
561.025	1064.23
561.449	1064.2
561.874	1065.28
562.299	1067.56
562.723	1069.85
563.148	1061.98
563.572	1062.32
563.997	1065.79
564.421	1066.43
564.846	1066.13
565.27	1066.05
565.694	1063.25
566.118	1067.62
566.542	1070
566.966	1063.4
567.39	1059.06
567.814	1050.89
568.238	1048.5
568.662	1049.23
569.086	1049.8
569.509	1052.31
569.933	1042.88
570.357	1037.23
570.78	1024.85
571.204	1017.3
571.627	1009.88
572.05	1007.32
572.474	1006.84
572.897	999.16
573.32	994.68
573.743	987.26
574.166	976.45
574.589	974.93
575.012	970.24
575.435	967.99
575.858	962.03
576.281	954.93
576.704	945.54
577.126	937.68
577.549	930.45
577.972	923.22
578.394	917.1
578.817	913.79
579.239	903.91
579.661	896.72
580.084	888.72
580.506	881.59
580.928	879.92
581.35	873.61
581.772	871.35
582.194	864.78
582.616	858.03
583.038	849.64
583.46	842.92
583.882	841.32
584.303	842.33
584.725	839.17
585.147	843.16
585.568	850.03
585.99	858.33
586.411	862.44
586.833	871.32
587.254	873.35
587.675	882.25
588.096	889.01
588.518	886.61
588.939	877.98
589.36	878.16
589.781	869.08
590.202	855.3
590.623	849.51
591.043	848.16
591.464	840.87
591.885	839.13
592.305	835.82
592.726	828.89
593.147	830.07
593.567	827.75
593.987	823.29
594.408	820.65
594.828	816.41
595.248	814.34
595.669	803.97
596.089	800.34
596.509	795.93
596.929	789
597.349	789.48
597.769	783.06
598.189	780.36
598.608	781.15
599.028	781.97
599.448	781.58
599.867	773.84
600.287	771.73
600.706	769.98
601.126	764.84
601.545	764.71
601.965	764.36
602.384	761.87
602.803	762.98
603.222	760.62
603.641	756.79
604.061	756.13
604.48	753.89
604.898	759.12
605.317	761.39
605.736	763.18
606.155	762.16
606.574	756.65
606.992	759.55
607.411	757.53
607.829	752.29
608.248	751.5
608.666	750.87
609.085	750.86
609.503	745.62
609.921	744.05
610.339	745.71
610.758	745.28
611.176	743.31
611.594	739.89
612.012	737.57
612.43	740.98
612.847	744.31
613.265	745.99
613.683	750.26
614.101	752.79
614.518	750.69
614.936	744.96
615.353	738.08
615.771	737.53
616.188	739.07
616.606	738.79
617.023	736.35
617.44	729.35
617.857	724.76
618.274	720.57
618.691	718.38
619.108	714.16
619.525	712.48
619.942	717.69
620.359	720.61
620.776	717.21
621.192	716.75
621.609	716.34
622.026	722.18
622.442	726.96
622.859	729.1
623.275	725.17
623.691	728.68
624.108	736.24
624.524	743.96
624.94	744.74
625.356	752.19
625.772	759.07
626.188	765.72
626.604	766.4
627.02	764.66
627.436	763.96
627.852	768.64
628.268	776.12
628.683	771.87
629.099	767.13
629.514	764.09
629.93	766.3
630.345	769.5
630.761	767.84
631.176	770.57
631.591	769.65
632.007	768.76
632.422	767.34
632.837	761.17
633.252	760.48
633.667	756.17
634.082	752.18
634.497	746.41
634.911	738.58
635.326	737.98
635.741	730.14
636.155	724.93
636.57	727.84
636.984	731.29
637.399	736.56
637.813	738.88
638.228	740.95
638.642	746.49
639.056	743.81
639.47	746.33
639.884	744.93
640.298	744.87
640.712	749.3
641.126	745.84
641.54	744.58
641.954	743.48
642.368	741.42
642.781	743.66
643.195	737.54
643.609	743.57
644.022	744.2
644.436	747.37
644.849	743.55
645.262	738.82
645.676	744.18
646.089	746.12
646.502	742.03
646.915	741.82
647.328	733.57
647.741	736.71
648.154	731.05
648.567	734.14
648.98	727.26
649.393	731.03
649.805	731.23
650.218	728.06
650.631	717.51
651.043	715.22
651.456	713.28
651.868	714.64
652.28	729.39
652.693	740.11
653.105	746.62
653.517	755.69
653.929	758.62
654.341	766.42
654.753	760.2
655.165	768.97
655.577	769.59
655.989	769.58
656.401	766.97
656.813	743.97
657.224	732.14
657.636	712.96
658.047	704.66
658.459	693.65
658.87	690.63
659.282	685.67
659.693	674.6
660.104	668.71
660.515	662.95
660.926	667.44
661.338	668.23
661.749	669.23
662.159	668.84
662.57	669.8
662.981	672.3
663.392	671.27
663.803	679.92
664.213	682.19
664.624	683.54
665.035	690.55
665.445	682.67
665.855	682.31
666.266	680.09
666.676	680.46
667.086	675.88
667.497	678.4
667.907	676.33
668.317	670.39
668.727	673.21
669.137	676.43
669.547	676.88
669.956	681.08
670.366	684.55
670.776	687.52
671.186	692.44
671.595	697.53
672.005	700.8
672.414	701.64
672.824	702.05
673.233	704.45
673.642	706.98
674.052	709.49
674.461	712.88
674.87	717.03
675.279	715.59
675.688	716.52
676.097	717.54
676.506	715.02
676.915	727.7
677.323	729.88
677.732	728.12
678.141	726.21
678.549	715.6
678.958	712.02
679.366	709.67
679.775	712.07
680.183	721.57
680.592	724.09
681	725.7
681.408	715.74
681.816	718.7
682.224	721.53
682.632	726.19
683.04	747.01
683.448	761.48
683.856	781.21
684.264	801.72
684.671	816.33
685.079	837.18
685.487	860.26
685.894	895.94
686.302	919.51
686.709	934.04
687.116	951.32
687.524	961.55
687.931	966.91
688.338	964.63
688.745	958.53
689.152	955.83
689.559	960.16
689.966	966.47
690.373	956.77
690.78	960.24
691.187	976.83
691.593	985.81
692	989.64
692.407	1008.33
692.813	1038.15
693.22	1059.86
693.626	1083.65
694.032	1103.13
694.439	1134.58
694.845	1160.32
695.251	1197.95
695.657	1232.49
696.063	1284.15
696.469	1327.05
696.875	1368.25
697.281	1392.65
697.687	1425.96
698.093	1455.33
698.498	1506.94
698.904	1551.29
699.31	1615.46
699.715	1666.85
700.12	1735.45
700.526	1763.37
700.931	1822.64
701.337	1872.1
701.742	1911.17
702.147	1982.34
702.552	2023.75
702.957	2081.66
703.362	2116.64
703.767	2157.41
704.172	2205.94
704.577	2198.1
704.981	2253.88
705.386	2288.5
705.791	2307.61
706.195	2383.93
706.6	2414.15
707.004	2495.72
707.408	2501.59
707.813	2547.12
708.217	2563.35
708.621	2588.81
709.025	2685.74
709.43	2713.39
709.834	2785.8
710.237	2866.32
710.641	2881.3
711.045	2928.36
711.449	2949.44
711.853	2999.51
712.256	3058.73
712.66	3117.5
713.064	3206.8
713.467	3270.38
713.87	3391.09
714.274	3459.08
714.677	3577.4
715.08	3744.78
715.484	3916.65
715.887	4124.35
716.29	4328.21
716.693	4546.58
717.096	4789.5
717.499	4939.75
717.901	5000.27
718.304	5058.83
718.707	5112.17
719.109	5053.87
719.512	5057.62
719.915	4968.05
720.317	4946.53
720.719	5017.93
721.122	5019.44
721.524	5006.59
721.926	4999.43
722.328	5121.89
722.731	5142.24
723.133	5201.24
723.535	5420.25
723.937	5468.41
724.338	5546.01
724.74	5618.52
725.142	5592.67
725.544	5617.51
725.945	5669.6
726.347	5689.8
726.748	5707.44
727.15	5745.05
727.551	5729
727.952	5721.51
728.354	5713.63
728.755	5734.96
729.156	5707.38
729.557	5708.31
729.958	5598.34
730.359	5558.2
730.76	5556.94
731.161	5512.36
731.562	5501.86
731.962	5521.16
732.363	5467.84
732.763	5412.44
733.164	5465.88
733.564	5410.32
733.965	5322.29
734.365	5301.77
734.766	5343.68
735.166	5313.27
735.566	5263.86
735.966	5247.22
736.366	5252.28
736.766	5197.4
737.166	5243.84
737.566	5209.14
737.966	5187.28
738.365	5239.94
738.765	5242.4
739.165	5168.42
739.564	5147.84
739.964	5206.46
740.363	5163.44
740.763	5167.67
741.162	5161.54
741.561	5135.74
741.96	5090.05
742.36	5121.91
742.759	5133.21
743.158	5182.03
743.557	5206.13
743.955	5256.83
744.354	5212.74
744.753	5282.16
745.152	5242.24
745.55	5308.24
745.949	5306.89
746.348	5311.86
746.746	5334.97
747.144	5294.36
747.543	5272.09
747.941	5329.36
748.339	5253.62
748.737	5248.17
749.136	5240.11
749.534	5314.37
749.932	5284.87
750.33	5309.89
750.727	5376.37
751.125	5351.37
751.523	5332.76
751.921	5383.01
752.318	5348.98
752.716	5417.96
753.113	5434.5
753.511	5465.82
753.908	5471.82
754.305	5455.66
754.703	5529.09
755.1	5601.81
755.497	5672.89
755.894	5893.52
756.291	6099.94
756.688	6478.22
757.085	6979.22
757.482	7683.71
757.878	8457.22
758.275	9154.59
758.672	10115.51
759.068	10905.58
759.465	12021.27
759.861	13458.7
760.258	15129.65
760.654	16000.92
761.05	15873.04
761.447	15151.26
761.843	14111.66
762.239	13034.37
762.635	12540.91
763.031	12077.59
763.427	11397.84
763.822	10694.65
764.218	9991.54
764.614	9086.89
765.01	8478.17
765.405	8082.06
765.801	7785.37
766.196	7405.35
766.592	7191.35
766.987	6831.84
767.382	6589.95
767.778	6489.94
768.173	6338.71
768.568	6257.91
768.963	6111.81
769.358	6130.45
769.753	6079.03
770.148	5982.66
770.542	5981.91
770.937	5945.9
771.332	6054.37
771.726	6076.43
772.121	6003.62
772.515	6067.54
772.91	6051.35
773.304	6134.09
773.699	6060.6
774.093	6123.69
774.487	6188.25
774.881	6237.97
775.275	6238.62
775.669	6187.95
776.063	6239.36
776.457	6280.46
776.851	6194.36
777.245	6189.64
777.638	6229.17
778.032	6363.3
778.425	6320.37
778.819	6369.9
779.212	6321.83
779.606	6272.26
779.999	6295.95
780.392	6275.05
780.786	6371.16
781.179	6396.15
781.572	6439.55
781.965	6454.22
782.358	6389.15
782.751	6455.16
783.143	6401.3
783.536	6484.11
783.929	6534.94
784.322	6670.46
784.714	6708.37
785.107	6705.02
785.499	6786.45
785.891	6762.56
786.284	6738.87
786.676	6901.61
787.068	6880.9
787.46	6937.88
787.852	6961.1
788.245	7060.19
788.636	7094.61
789.028	7173.5
789.42	7216.54
789.812	7230.07
790.204	7343.53
790.595	7459.02
790.987	7233.26
791.378	7258.89
791.77	7411.42
792.161	7571.21
792.553	7635.26
792.944	7503.49
793.335	7421.39
793.726	7508.48
794.117	7611.76
794.508	7765.56
794.899	7732.3
795.29	7895.29
795.681	7961.76
796.072	7798.22
796.463	7584.71
796.853	7595.96
797.244	7778.98
797.634	7821.1
798.025	7814.78
798.415	7824.17
798.806	7930.58
799.196	8026.58
799.586	8085.56
799.976	8043.01
800.366	8306.19
800.756	8578.95
801.146	8531.34
801.536	8567.32
801.926	8652.1
802.316	8683.59
802.706	8769.12
803.095	8627.28
803.485	8744.46
803.874	8790.12
804.264	9089.61
804.653	9061.98
805.043	9230.8
805.432	9358.58
805.821	9358.08
806.21	9387.17
806.599	9533.02
806.988	9586.99
807.377	9712.09
807.766	9862.12
808.155	10188.2
808.544	9885
808.933	9902.08
809.321	9874.15
809.71	10212.11
810.098	10396.63
810.487	10921.62
810.875	11469.45
811.264	11496.25
811.652	11829.96
812.04	11997.9
812.428	12179.96
812.816	13057.05
813.204	13536.5
813.592	14173.57
813.98	14564.67
814.368	14459.02
814.756	15013.79
815.144	14920.33
815.531	15454.35
815.919	15369.53
816.306	15720.5
816.694	15370.87
817.081	15429.79
817.469	15831.78
817.856	15828.48
818.243	16137.99
818.63	16590.54
819.017	16108.41
819.404	16179.33
819.791	16616.11
820.178	17322.89
820.565	17617.17
820.952	18696.46
821.339	18134.26
821.725	18340.88
822.112	17489.47
822.498	17444.26
822.885	17589.2
823.271	17470.37
823.657	17953.16
824.044	17961.85
824.43	18049.36
824.816	18007.45
825.202	17497.3
825.588	18663.68
825.974	18688.81
826.36	19291.65
826.746	19324.96
827.132	19722.77
827.517	19693.85
827.903	18791.02
828.289	18836.3
828.674	17936.51
829.06	17820.33
829.445	18281.39
829.83	18690.73
830.216	19232.81
830.601	19650.95
830.986	19191.34
831.371	19037.63
831.756	19682.07
832.141	19186.75
832.526	19171.14
832.911	19497.41
833.295	19364.14
833.68	19899.22
834.065	19196.38
834.449	18146.31
834.834	18059.93
835.218	18050.71
835.603	18445.89
835.987	18205.9
836.371	19162.61
836.755	19055.11
837.139	19512.49
837.524	19778.73
837.908	19571.61
838.291	19629.91
838.675	19713.83
839.059	19948.7
839.443	19940.12
839.827	19682.15
840.21	20231.29
840.594	20059.21
840.977	20294.04
841.361	20273.9
841.744	20715.53
842.127	20542.46
842.511	20826.82
842.894	21508.47
843.277	21942.65
843.66	22559.52
844.043	22656.93
844.426	21736.75
844.809	21386.28
845.191	21414.21
845.574	20888.35
845.957	20460.33
846.339	20330.84
846.722	19730.38
847.104	19801.68
847.487	19603.91
847.869	19620.67
848.252	19935.75
848.634	20306.63
849.016	20606.81
849.398	20755.26
849.78	21725.3
850.162	21737.49
850.544	22209
850.926	22916.14
851.307	22823.91
851.689	23144.23
852.071	23660.7
852.452	24030.56
852.834	24011.07
853.215	24477.05
853.597	24641.5
853.978	24973.66
854.359	25497.39
854.741	24364.26
855.122	24257.67
855.503	23919.69
855.884	24062.68
856.265	23998.36
856.646	24120.37
857.026	23666.56
857.407	23581.91
857.788	23771.19
858.169	24103.5
858.549	23128.75
858.93	23843.04
859.31	23898.23
859.69	24145.54
860.071	23698.81
860.451	23446.47
860.831	22604.08
861.211	23933.87
861.591	24557.95
861.971	24535.26
862.351	24754.34
862.731	25205.17
863.111	25510.24
863.491	25892.17
863.87	26888.64
864.25	27279.1
864.629	26824.07
865.009	27409.94
865.388	28386.07
865.768	30429.88
866.147	30302.89
866.526	28624.62
866.905	28966.57
867.284	30590.18
867.663	29039.78
868.042	27831.92
868.421	27752.15
868.8	28220.94
869.179	28507.67
869.558	26849.14
869.936	24740.31
870.315	25179.75
870.693	25809.52
871.072	27840.4
871.45	26526
871.828	26878.92
872.207	28276.2
872.585	27847.64
872.963	28594.81
873.341	27611.81
873.719	27286.99
874.097	26960.87
874.475	27480.44
874.853	28093.37
875.23	26930.46
875.608	28067.29
875.986	30360.48
876.363	29018.69
876.741	29897.21
877.118	29140.03
877.495	30571.59
877.873	31107.71
878.25	32737.29
878.627	31402.43
879.004	31846.03
879.381	31675.65
879.758	30833.78
880.135	28713.17
880.512	30372.22
880.889	29580
881.265	29284.8
881.642	29041.89
882.019	29507.79
882.395	28901.34
882.772	30045.22
883.148	28745.74
883.524	28631.78
883.901	28467.42
884.277	28886.91
884.653	28696.75
885.029	29511.24
885.405	32678.2
885.781	32421.41
886.157	31084.57
886.532	31465.74
886.908	31452.39
887.284	34968.23
887.659	36117.69
888.035	37236.22
888.411	38185.39
888.786	38688.54
889.161	40046.49
889.537	39308.42
889.912	40560.76
890.287	40526.28
890.662	41564.87
891.037	40804.48
891.412	38059.18
891.787	37677.46
892.162	36362.41
892.536	37224.66
892.911	35834.49
893.286	35062.3
893.66	33651.52
894.035	34507.64
894.409	37577.82
894.784	36066.64
895.158	36676.89
895.532	38842.78
895.906	39892.9
896.281	40830.38
896.655	40170.43
897.029	45901.38
897.402	47812.59
897.776	53219.21
898.15	53033.87
898.524	52470.57
898.898	53184.25
899.271	59529.39
899.645	51570.47
900.018	49543.7
900.392	51377.57
900.765	51795.68
901.138	47928.58
901.511	47208.53
901.884	43353
902.258	40002.96
902.631	41332.08
903.003	47568.47
903.376	42930.99
903.749	48131.13
904.122	51530.38
904.495	56739.94
904.867	57458.26
905.24	49913.16
905.612	46474.71
905.985	47524.36
906.357	49704.97
906.729	47453.61
907.102	40541.6
907.474	38962.83
907.846	39218.5
908.218	38684.29
908.59	34195.75
908.962	33078.87
909.334	35609.23
909.705	37384.86
910.077	36293.28
910.449	37766.3
910.82	38793.96
911.192	42687.46
911.563	44394.57
911.935	47513.88
912.306	47585.66
912.677	49129.6
913.048	48624.37
913.419	52733.29
913.79	53067.17
914.161	56882.88
914.532	54369.96
914.903	49987.96
915.274	47462.36
915.645	46768.43
916.015	41165.89
916.386	39249.09
916.756	41767.24
917.127	43077.41
917.497	38486.46
917.868	41887.94
918.238	39809.41
918.608	40957.99
918.978	41815.75
919.348	44311.19
919.718	45776.5
920.088	44067.52
920.458	45807.51
920.828	48196.58
921.198	45734.79
921.567	48875.8
921.937	37847.05
922.306	38210.51
922.676	41208.82
923.045	34370.39
923.415	32626.13
923.784	29716.12
924.153	30573.08
924.522	30529.5
924.891	28714.47
925.26	30749.22
925.629	30023.16
925.998	34520.27
926.367	33707.75
926.736	32100.55
927.104	38222.19
927.473	41103.93
927.842	49639.73
928.21	49149.09
928.578	51675.82
928.947	48856.95
929.315	49134.17
929.683	57631.54
930.051	58095.73
930.42	67475.16
930.788	57679.1
931.156	57282.52
931.523	53680.39
931.891	49599.43
932.259	47676.77
932.627	55257.76
932.994	78264.98
933.362	64766.54
933.729	56267.46
934.097	53861
934.464	45599.86
934.831	52649.12
935.199	51894.99
935.566	50385.76
935.933	51176.72
936.3	61957.03
936.667	48262.07
937.034	43526.06
937.401	43011.99
937.767	37108.08
938.134	33011.02
938.501	46533.17
938.867	49575.05
939.234	83848.66
939.6	71542.31
939.967	78646.87
940.333	52642.11
940.699	44803.91
941.065	35928.43
941.431	47087.35
941.798	45431.14
942.163	59682.82
942.529	37292.23
942.895	34320.48
943.261	22190.95
943.627	29087.54
943.992	25440.19
944.358	25476.51
944.723	25533.88
945.089	24880.37
945.454	23002.23
945.82	24561.43
946.185	23608.75
946.55	27340.62
946.915	24552.87
947.28	28813.92
947.645	25374.36
948.01	23441.58
948.375	24416.6
948.74	29296.51
949.104	34160.72
949.469	49319.93
949.834	87105.21
950.198	82551.17
950.562	49486.76
950.927	41188.62
951.291	49589.36
951.655	42234.75
952.02	39644.43
952.384	30006.38
952.748	26098.72
953.112	25451.51
953.476	22134.56
953.839	20472.98
954.203	20262.01
954.567	25330.81
954.931	39894.69
955.294	34071.2
955.658	34258.14
956.021	58254.29
956.385	98834.76
956.748	145972.27
957.111	226481.69
957.474	254125.56
957.837	286233.1
958.2	216925.84
958.563	78071.06
958.926	52771.74
959.289	80190.07
959.652	89609.71
960.015	67289.07
960.377	96476.11
960.74	110025.33
961.102	189965
961.465	204072.16
961.827	109269.47
962.189	209448.99
962.552	145247.32
962.914	116515.73
963.276	75579.57
963.638	62497.17
964	61846.31
964.362	41802.38
964.724	40462.66
965.085	28835.67
965.447	23634.16
965.809	26932.17
966.17	26971.28
966.532	29189.99
966.893	26781.8
967.255	24367.39
967.616	28749.17
967.977	23010.46
968.338	25159.94
968.699	20659.39
969.061	20675.14
969.421	20809.52
969.782	23347.89
970.143	19718.34
970.504	20417.34
970.865	23193.33
971.225	23718.85
971.586	23211.2
971.946	33111.9
972.307	28726.68
972.667	37574.78
973.027	38715.76
973.388	46988.28
973.748	31978.5
974.108	34895.29
974.468	47211.28
974.828	36418.99
975.188	28040.37
975.548	25755.09
975.907	21618.77
976.267	24252.73
976.627	20362.46
976.986	21116.64
977.346	20129.82
977.705	19363.24
978.064	17593.1
978.424	14646.96
978.783	15134.41
979.142	17258.16
979.501	16516.84
979.86	17453.06
980.219	16817.31
980.578	21710.14
980.937	24281.16
981.296	21628.84
981.654	22248.05
982.013	34643.26
982.371	44900.81
982.73	41970.89
983.088	47549.78
983.447	50767.53
983.805	72622.44
984.163	151855.39
984.521	168461.62
984.879	247057.57
985.237	-402197.79
985.595	387630.17
985.953	96308.15
986.311	55685.63
986.669	32343.75
987.026	27908.17
987.384	37606.07
987.741	38870.86
988.099	27787.24
988.456	22145.18
988.814	20763.27
989.171	18057.77
989.528	17833.35
989.885	18855.13
990.242	14934.39
990.599	18595.51
990.956	15229.44
991.313	10653.57
991.67	8745.78
992.027	9256.37
992.383	8227.96
992.74	7210.97
993.096	7570.99
993.453	7846.85
993.809	8129.96
994.165	10821.7
994.522	9929.02
994.878	10941.44
995.234	13711.9
995.59	13550.25
995.946	12842.56
996.302	14648.36
996.658	16935.31
997.013	18631.59
997.369	22113.94
997.725	28314.49
998.08	18366.03
998.436	28305.87
998.791	39120.3
999.147	39042.23
999.502	42525.41
999.857	30880.2
1000.212	50395.41
1000.567	71805.81
1000.922	41460.72
1001.277	26334.57
1001.632	19547.44
1001.987	25198.4
1002.342	18069.8
1002.696	14422.81
1003.051	11500.69
1003.406	13924.42
1003.76	13897.28
1004.114	13704.19
1004.469	11524.98
1004.823	9550.53
1005.177	10312.18
1005.531	8164.28
1005.885	7225.39
1006.239	8137.07
1006.593	10210.37
1006.947	13672.42
1007.301	10279.37
1007.655	11208.27
1008.008	8218.03
1008.362	9230.45
1008.715	13163.64
1009.069	11945.51
1009.422	17990.24
1009.776	36211.13
1010.129	24120.04
1010.482	20140.09
1010.835	16995.71
1011.188	35373.99
1011.541	33191.29
1011.894	-203351.31
1012.247	598407.06
1012.6	40637.52
1012.952	25640.2
1013.305	13214.16
1013.657	9499.52
1014.01	8981.89
1014.362	7409.06
1014.715	6613.11
1015.067	5749.7
1015.419	5639.87
1015.771	4983.64
1016.123	4431.8
1016.475	4546.53
1016.827	4842.32
1017.179	5208.01
1017.531	5258.7
1017.883	5370.41
1018.234	5196
1018.586	6550.37
1018.938	6937.11
1019.289	9561.45
1019.64	10981.58
1019.992	10243.25
1020.343	9420.14
1020.694	7429.37
1021.045	6540.21
1021.396	7459.18
1021.747	8013.23
1022.098	9612.18
1022.449	6977.55
1022.8	6457.6
1023.151	4490.27
1023.501	3974.92
1023.852	4318.81
1024.202	4483.26
1024.553	4951.61
1024.903	4852.17
1025.253	4152.27
1025.604	3726.38
1025.954	4621.93
1026.304	5614.28
1026.654	6569.19
1027.004	9641.22
1027.354	15561.35
1027.703	14649.4
1028.053	19200.87
1028.403	28216.95
1028.753	40866.54
1029.102	55760.64
1029.452	288860.97
1029.801	12502.26
1030.15	8108.99
1030.499	6900.47
897.758	3041.99
901.051	3022.91
904.343	3064.46
907.636	3056.35
910.928	3123.4
914.22	3026.53
917.511	3038.04
920.803	3116.61
924.094	3156.06
927.384	3113.15
930.675	3085.13
933.965	3030.48
937.255	3023.04
940.544	2988.35
943.834	2876.95
947.123	2829.12
950.411	2934.94
953.7	2902.2
956.988	2852.45
960.276	2800.79
963.563	2911.3
966.851	2891.99
970.138	2965
973.424	2948.58
976.711	2893.31
979.997	3106.52
983.283	3127.64
986.568	3007.31
989.853	3049.37
993.138	3078.72
996.423	3153.48
999.708	3071.42
1002.992	3173.69
1006.275	2940.24
1009.559	3028.13
1012.842	3159.04
1016.125	3073.19
1019.408	3052.2
1022.69	3166.7
1025.972	3169.43
1029.254	3142.3
1032.536	3049.54
1035.817	3093.15
1039.098	3008.57
1042.379	3233.89
1045.659	3202.15
1048.939	3122.07
1052.219	3156.72
1055.498	3185.67
1058.778	3158.72
1062.057	3150.73
1065.335	3169.48
1068.614	3198.58
1071.892	3167.58
1075.17	3260.23
1078.447	3240.41
1081.724	3226.84
1085.001	3271.83
1088.278	3242.02
1091.554	3260.49
1094.83	3256.83
1098.106	3281.24
1101.382	3341.12
1104.657	3340.42
1107.932	3332.79
1111.206	3289.09
1114.481	3247.72
1117.755	3256.12
1121.029	3223.28
1124.302	3266.61
1127.575	3205.81
1130.848	3186.26
1134.121	3141.3
1137.393	3076.4
1140.665	3154.43
1143.937	3127.92
1147.208	3068.04
1150.48	3088.87
1153.75	3069.17
1157.021	3132.7
1160.291	3095.48
1163.561	3133.47
1166.831	3147.23
1170.101	3179.44
1173.37	3171.17
1176.639	3098.93
1179.907	3175
1183.176	3193.12
1186.444	3209.78
1189.711	3241.23
1192.979	3241.47
1196.246	3197.79
1199.513	3221.41
1202.78	3214.41
1206.046	3222.01
1209.312	3249.82
1212.578	3280.45
1215.843	3216.83
1219.108	3199.77
1222.373	3218.58
1225.638	3172.45
1228.902	3147.85
1232.166	3121.99
1235.43	3097.12
1238.693	3118.36
1241.956	3121.58
1245.219	3148.69
1248.482	3152.77
1251.744	3141.44
1255.006	3317.49
1258.268	3278.5
1261.529	3212
1264.79	3229.67
1268.051	3341.35
1271.312	3362.91
1274.572	3316.95
1277.832	3309.67
1281.092	3309.92
1284.351	3264.75
1287.61	3241.34
1290.869	3132.41
1294.128	3091.86
1297.386	3221.09
1300.644	3202.82
1303.902	3214.4
1307.159	3065.03
1310.416	3123.06
1313.673	3140.31
1316.93	3115.55
1320.186	3174.1
1323.442	3225.58
1326.697	3204.47
1329.953	3210.28
1333.208	3218.89
1336.463	3205.67
1339.717	3128.25
1342.972	3247.98
1346.226	3239.51
1349.479	3155.61
1352.733	3111.82
1355.986	3154.68
1359.238	3123.64
1362.491	3121.37
1365.743	3130.12
1368.995	3128.59
1372.247	3138.84
1375.498	3162.43
1378.749	3185.36
1382	3139.62
1385.251	3210.87
1388.501	3178.41
1391.751	3144.88
1395	3123.21
1398.25	3160.39
1401.499	3150.71
1404.748	3057.45
1407.996	3017.98
1411.244	3003.37
1414.492	2979.51
1417.74	2947.91
1420.987	2966.72
1424.234	3018.34
1427.481	3015.24
1430.728	3072.05
1433.974	3045.14
1437.22	3076.18
1440.465	3087.03
1443.711	3055.89
1446.956	3098.52
1450.201	3105.23
1453.445	3152.4
1456.689	3115.2
1459.933	3133.83
1463.177	3160.39
1466.42	3129
1469.663	3108.16
1472.906	3081.92
1476.148	3202.19
1479.391	3116.85
1482.633	3098.04
1485.874	3095.76
1489.115	3065.1
1492.356	3094.23
1495.597	3062.59
1498.838	3073.8
1502.078	3027.89
1505.318	2959.18
1508.557	3005.8
1511.797	2940.76
1515.036	3074.8
1518.274	3066.15
1521.513	3052.6
1524.751	3085.31
1527.989	3085.33
1531.227	3094.99
1534.464	3068.9
1537.701	3118.1
1540.938	3143.04
1544.174	3105.58
1547.41	3111.74
1550.646	3153.01
1553.882	3175.1
1557.117	3228.4
1560.352	3247.99
1563.587	3204.16
1566.821	3155.38
1570.055	3211.36
1573.289	3174.09
1576.523	3265.06
1579.756	3264.63
1582.989	3282.03
1586.222	3244.7
1589.454	3288.85
1592.686	3253.49
1595.918	3276.49
1599.15	3256.24
1602.381	3358.85
1605.612	3288.4
1608.843	3385.76
1612.073	3294.24
1615.303	3275.06
1618.533	3259.34
1621.762	3264.29
1624.992	3266.49
1628.221	3236.88
1631.449	3219.52
1634.678	3305.94
1637.906	3251.37
1641.134	3304.68
1644.361	3250.33
1647.588	3235.88
1650.815	3248.76
1654.042	3240.74
1657.269	3274.45
1660.495	3219.45
1663.72	3192.38
1666.946	3172.76
1670.171	3082.71
1673.396	3059.32
1676.621	3057.26
1679.845	3100.13
1683.069	3134.63
1686.293	3186.47
1689.517	3145.27
1692.74	3049.88
1695.963	3072.68
1699.185	3142.31
1702.408	3098.02
1705.63	3151.2
1708.852	3157.54
1712.073	3128.28
1715.294	3090.96
1718.515	3153.21
1721.736	3090.11
1724.956	3085.09
1728.176	3115.68
1731.396	3137.68
1734.616	3125.92
1737.835	3142.15
1741.054	3137.45
1744.272	3133.2
1747.491	3148.6
1750.709	3231.15
1753.927	3105.62
1757.144	3168.95
1760.361	3200.89
1763.578	3216.07
1766.795	3147.33
1770.011	3168.47
1773.227	3229.52
1776.443	3250.66
1779.658	3292.45
1782.874	3244.94
1786.089	3208.37
1789.303	3211.86
1792.518	3226.59
1795.732	3217.08
1798.945	3215.2
1802.159	3278.75
1805.372	3146.09
1808.585	3114.72
1811.797	3120.92
1815.01	3195.59
1818.222	3191.8
1821.434	3102.86
1824.645	3195.53
1827.856	3153.36
1831.067	3192.02
1834.278	3153.96
1837.488	3131.41
1840.698	3305.65
1843.908	3213.88
1847.117	3174.57
1850.326	3015.83
1853.535	3149.42
1856.744	3237.1
1859.952	3126.73
1863.16	3128.74
1866.368	3157.44
1869.575	3263.47
1872.782	3153.68
1875.989	3096.68
1879.196	3216.99
1882.402	3205.87
1885.608	3256.18
1888.814	3122.69
1892.019	3006.22
1895.224	3057
1898.429	3053.24
1901.634	3024.01
1904.838	3009.08
1908.042	3052.29
1911.246	3057.18
1914.449	2956.3
1917.652	2968.57
1920.855	2953.28
1924.058	3026.74
1927.26	3057.39
1930.462	3091.96
1933.664	3105.67
1936.865	3040.55
1940.066	3036.43
1943.267	2987.47
1946.467	3007.32
1949.668	3039.39
1952.868	3107.98
1956.067	3071.33
1959.267	2993.17
1962.466	3025.14
1965.665	3011.27
1968.863	3011.46
1972.061	3035.93
1975.259	3044.55
1978.457	3122.45
1981.654	3080.48
1984.852	3078.52
1988.048	2988.87
1991.245	3007.33
1994.441	3087.18
1997.637	3096.04
2000.833	3079.06
2004.028	3118.8
2007.223	3164.35
2010.418	3127.59
2013.613	3103.64
2016.807	3048.06
2020.001	3071.87
2023.194	3137.5
2026.388	3100.46
2029.581	3051.1
2032.774	3086.42
2035.966	3083.4
2039.158	3002.02
2042.35	3036.31
2045.542	2964.1
2048.733	3082.57
2051.924	3138.09
2055.115	3175.99
2058.306	3097.96
2061.496	3163.41
2064.686	3242.55
2067.875	3165.29
2071.065	3192.91
2074.254	3228.93
2077.442	3178.74
2080.631	3280.29
2083.819	3129.69
2087.007	3100.57
2090.195	3057.73
2093.382	3113.1
2096.569	3090.53
2099.756	3031.57
2102.942	3035.76
2106.128	3029.79
2109.314	3025.74
2112.5	2968.75
2115.685	2951.64
2118.87	2966.85
2122.055	3035.98
2125.239	2990.09
2128.424	2944.92
2131.608	3091.52
2134.791	3076.72
2137.974	3154.47
2141.157	3134.71
2144.34	3065.84
2147.523	3105.99
2150.705	3107.14
2153.887	3096.51
2157.068	3023.84
2160.25	3047.99
2163.431	3105.17
2166.611	3025.32
2169.792	3033.61
2172.972	2911.13
2176.152	3021.03
2179.331	3063.89
2182.511	3022.57
2185.69	3055.08
2188.868	3040.51
2192.047	3117.61
2195.225	3081.11
2198.403	3030.49
2201.58	3028.54
2204.758	3035.05
2207.935	3124.7
2211.111	2983.8
2214.288	2962.98
2217.464	3010.29
2220.64	3001.47
2223.815	3062.14
2226.991	2971.08
2230.166	2994.39
2233.34	3010.22
2236.515	3050.03
2239.689	3127
2242.863	3065.63
2246.036	3126.52
2249.209	3143.04
2252.382	3195.72
2255.555	3162.26
2258.727	3085.67
2261.9	3135.74
2265.071	3126.49
2268.243	3135.62
2271.414	3050.56
2274.585	2992.56
2277.756	3067.39
2280.926	3029.28
2284.096	3081.15
2287.266	2962.93
2290.436	3028.94
2293.605	3065.19
2296.774	3086.36
2299.942	3124.36
2303.111	3140.91
2306.279	3184.42
2309.447	3174.73
2312.614	3151.5
2315.781	3160.36
2318.948	3126
2322.115	3165.89
2325.281	3068.23
2328.447	3101.48
2331.613	3084.54
2334.779	3040.68
2337.944	3050.58
2341.109	3042.47
2344.274	3018.33
2347.438	2982.45
2350.602	3012.86
2353.766	3031.99
2356.929	3015.92
2360.092	3063.58
2363.255	2996.29
2366.418	2896.96
2369.58	3050.75
2372.742	2762.67
2375.904	2794.32
2379.066	2760.61
2382.227	2808.56
2385.388	2772.37
2388.548	2675.69
2391.709	2745.13
2394.869	2710.54
2398.029	2856.04
2401.188	2884.84
2404.347	2791
2407.506	2984.39
2410.665	3006.63
2413.823	3033.84
2416.981	2967.66
2420.139	3013.74
2423.296	3071.87
2426.453	3043.62
2429.61	3075.8
2432.767	2970.66
2435.923	3011.91
2439.079	2928.34
2442.235	3003.85
2445.391	2917.27
2448.546	2926.64
2451.701	2995.57
2454.855	2939.07
2458.009	3017.06
2461.163	3032.98
2464.317	2973.93
2467.471	3017.51
2470.624	3061.47
2473.777	3080.45
2476.929	3078.37
2480.082	3105.09
2483.234	3068.2
2486.385	2975.87
2489.537	2973.12
2492.688	2904.98
2495.839	2925.89
2498.989	2930.88
2502.14	2909.75
2505.29	2883.19
2508.439	2911.81
2511.589	2819.35
2514.738	2848.73
2517.887	2879.77
2521.035	2994.45
2524.183	2994.7
2527.331	2966.88
2530.479	2919.34
2533.627	2940.01
