Data from N_2_DEC_OH_4N_Splice17_12-03-44-328.txt Node
Date: Sat Mar 14 12:03:44 EDT 2020
User: sa697716
Spectrometer: FLMS03696
Trigger mode: 0
Integration Time (sec): 3.180400E-1
Scans to average: 20
Electric dark correction enabled: true
Nonlinearity correction enabled: true
Boxcar width: 5
XAxis mode: Wavelengths
Number of Pixels in Spectrum: 2048
>>>>>Begin Spectral Data<<<<<
187.83	-263916.31
188.298	1913.41
188.766	1065.29
189.233	887.24
189.701	1307.27
190.169	1902.83
190.636	737.55
191.104	631.38
191.571	86.99
192.039	-60.43
192.506	-87.87
192.974	245.93
193.441	-523.68
193.908	52.38
194.375	-40.36
194.842	39.72
195.31	159.75
195.777	217.68
196.244	392.1
196.711	419.76
197.177	513.3
197.644	716.66
198.111	1233.76
198.578	1742.94
199.045	1381.97
199.511	2257.59
199.978	2620.6
200.445	2212.69
200.911	2427.9
201.378	2731.13
201.844	2491.45
202.31	4182.04
202.777	4334.41
203.243	2423.56
203.709	2304.36
204.176	2741.04
204.642	2280.35
205.108	2113.76
205.574	1733.21
206.04	1550.75
206.506	1449.26
206.972	1359.31
207.438	1321.17
207.903	1521.18
208.369	1330.72
208.835	1323.99
209.301	1396.07
209.766	1402.22
210.232	1391.37
210.697	1711.02
211.163	2135.66
211.628	3174.57
212.094	2657.58
212.559	3256.5
213.024	1999.68
213.49	2413.7
213.955	2336.64
214.42	2255.48
214.885	2103.04
215.35	2002.98
215.815	1943.36
216.28	2036.83
216.745	1659.68
217.21	1762.79
217.675	1573.67
218.14	1733.76
218.604	1875.52
219.069	2098.96
219.534	2160.18
219.998	2436.36
220.463	2890.32
220.927	3439.58
221.392	3185.48
221.856	3163.68
222.32	3903.54
222.785	4770.64
223.249	5943.16
223.713	6573.92
224.177	6519.24
224.642	8242.01
225.106	10062.08
225.57	10937.89
226.034	8116.6
226.497	12320.59
226.961	11112.71
227.425	12913.28
227.889	14239.05
228.353	14142.34
228.816	29023.37
229.28	27567.02
229.744	23150.83
230.207	14111.99
230.671	13856.64
231.134	22704.09
231.597	26088.62
232.061	25978.88
232.524	25251.2
232.987	17353.72
233.45	15590.32
233.914	13982.37
234.377	14324.97
234.84	13096.7
235.303	15365.22
235.766	17069.52
236.229	17659.76
236.691	11091.89
237.154	12397.4
237.617	9342.55
238.08	9553.5
238.542	11186.14
239.005	7996.68
239.468	7933.8
239.93	7479.01
240.393	6799.36
240.855	5970.43
241.317	6098.93
241.78	7414.76
242.242	7697.03
242.704	8297.76
243.166	7218.27
243.629	6550.32
244.091	7537.24
244.553	8224.45
245.015	8839.42
245.477	11400.89
245.939	16660.42
246.4	17654.8
246.862	17070.05
247.324	16033.96
247.786	17913.07
248.247	23472.85
248.709	24131.94
249.17	18036.35
249.632	17041.85
250.093	19758.85
250.555	17050.95
251.016	10412.67
251.477	9892.57
251.939	10699.77
252.4	11233.48
252.861	13351.97
253.322	12430.01
253.783	14763.51
254.244	19105.73
254.705	15027.76
255.166	13300.48
255.627	13081.82
256.088	18494.65
256.549	19620.79
257.009	16857.16
257.47	20422.57
257.931	16608.27
258.391	12445.34
258.852	12836.09
259.312	13453.82
259.773	16585.45
260.233	14073.75
260.694	11887.63
261.154	13441.41
261.614	10812.5
262.074	9651
262.534	10013.84
262.994	9412.56
263.455	12481.29
263.915	10509.77
264.374	9880.49
264.834	10792.8
265.294	11918.02
265.754	12316.83
266.214	11647.47
266.673	10892.52
267.133	13740.72
267.593	13605.86
268.052	16633.45
268.512	14481.59
268.971	17506.61
269.431	19155.95
269.89	17142.59
270.349	25686.87
270.809	28636.17
271.268	25705.74
271.727	57503.6
272.186	37209.25
272.645	27909.53
273.104	20102.8
273.563	29054.36
274.022	22732.47
274.481	19381.17
274.94	14908.97
275.399	11063.38
275.857	12885.01
276.316	17414.61
276.775	15481.84
277.233	15266.71
277.692	14312.36
278.15	16219.5
278.609	16720.96
279.067	15506.71
279.525	14418.83
279.984	18606.97
280.442	22401.01
280.9	22109.81
281.358	14546.52
281.816	13587.38
282.274	13290.19
282.732	13719.53
283.19	13797.33
283.648	11909.68
284.106	12692.65
284.564	12918.89
285.021	12026.5
285.479	8957.83
285.937	8134.49
286.394	7170.19
286.852	7383.68
287.309	7774.91
287.767	7539.55
288.224	7189.47
288.682	7880.68
289.139	8658.23
289.596	7925.81
290.053	8238.07
290.511	10398.44
290.968	12619.67
291.425	17047.72
291.882	14221.27
292.339	12370.23
292.796	12237.85
293.252	11494.24
293.709	9165.81
294.166	8213.28
294.623	9074.9
295.079	8675.63
295.536	8715.79
295.992	7904.24
296.449	7826.61
296.905	8122.92
297.362	7809.53
297.818	8214.47
298.274	8533.25
298.731	8670.21
299.187	8571.6
299.643	9187.04
300.099	11130.66
300.555	12207.98
301.011	10202.09
301.467	9870.95
301.923	11522.21
302.379	11251.79
302.835	11039.63
303.291	11072.86
303.746	12603.37
304.202	15918.75
304.658	15977.45
305.113	10747.45
305.569	10548.14
306.024	11249.14
306.479	10645.84
306.935	8997.26
307.39	9809.09
307.845	9051.21
308.301	9097.69
308.756	8862.74
309.211	8554.2
309.666	8783.56
310.121	10949.36
310.576	11106.99
311.031	11038.57
311.486	12678.17
311.94	12663.55
312.395	16904.7
312.85	31860.01
313.305	156485.49
313.759	814934.06
314.214	59115.08
314.668	46859.51
315.123	39482.33
315.577	14179.89
316.032	12598.43
316.486	15808.71
316.94	12481.4
317.394	8736.72
317.849	6791.73
318.303	6419.76
318.757	6027.71
319.211	6653.83
319.665	5822.14
320.119	5877.48
320.572	8404.74
321.026	7884.39
321.48	6564.53
321.934	7131.92
322.387	7129.99
322.841	7709.84
323.295	6968.39
323.748	8009.5
324.202	8118.94
324.655	9735.52
325.108	13632.73
325.562	9641.09
326.015	11405.59
326.468	8621.04
326.921	9665.95
327.374	9025.49
327.827	9413.57
328.28	10663.27
328.733	7178.81
329.186	6327.91
329.639	6041.28
330.092	5090.96
330.545	4869.64
330.997	4943.01
331.45	5417.33
331.903	6380.08
332.355	10936.1
332.808	10619.27
333.26	8722.16
333.713	9473.05
334.165	9527.74
334.617	12737.54
335.069	10245.21
335.522	18446.19
335.974	20386.57
336.426	18609.24
336.878	12842.39
337.33	6539.31
337.782	6381.81
338.234	8045.27
338.686	9607.72
339.137	11430.11
339.589	10753.61
340.041	8460.49
340.493	7279.13
340.944	7465.45
341.396	8042.3
341.847	6769.64
342.299	8015
342.75	9814.6
343.201	8513.41
343.653	9786.86
344.104	11995.63
344.555	9460.3
345.006	14647.34
345.457	11275.93
345.908	8923.97
346.359	8422.91
346.81	6850.46
347.261	7188.01
347.712	7063.17
348.163	7578.92
348.613	7707.34
349.064	7215.45
349.515	6294.83
349.965	6500.26
350.416	7791.04
350.866	8537.24
351.317	9611.22
351.767	15971.35
352.217	20198.62
352.668	16804.35
353.118	15409.62
353.568	14839.22
354.018	11727.69
354.468	12416.69
354.918	8883.16
355.368	7778.95
355.818	11041.37
356.268	31700.8
356.718	133091.47
357.168	33220.41
357.617	16606.88
358.067	18481.02
358.517	17297.36
358.966	20324.93
359.416	22903.24
359.865	24725.09
360.315	29392.92
360.764	13679.82
361.213	7685.38
361.663	7231.86
362.112	8916.02
362.561	14448.84
363.01	10914.45
363.459	9166.03
363.908	9891.21
364.357	8422.38
364.806	14239.29
365.255	9804.81
365.703	9022.15
366.152	9055.68
366.601	7349.84
367.05	6000.05
367.498	5445.05
367.947	5693.34
368.395	5946.18
368.844	5295.98
369.292	6336.75
369.74	4387.11
370.189	6705.21
370.637	7832.25
371.085	6744.82
371.533	8228.94
371.981	7886.07
372.429	7556.69
372.877	7870.29
373.325	6581.39
373.773	6672.24
374.221	5958.72
374.669	7380.33
375.116	6388.37
375.564	6456.37
376.012	7250.4
376.459	6008.8
376.907	7194.54
377.354	8708.53
377.801	8158.43
378.249	9407.74
378.696	12067.63
379.143	14616.09
379.591	15612.46
380.038	26662.83
380.485	19336.59
380.932	20883.86
381.379	19199.97
381.826	14198.25
382.273	10080.32
382.72	8794.98
383.166	8599.34
383.613	5600.32
384.06	5039.1
384.506	5857.64
384.953	4292.36
385.4	4314.89
385.846	3779.16
386.292	3670.04
386.739	3595.62
387.185	3566.62
387.631	3569.1
388.078	3485.76
388.524	3726.99
388.97	3453.41
389.416	2889.28
389.862	3072.4
390.308	2927.61
390.754	2991.29
391.2	3249.24
391.645	3331.7
392.091	3218.73
392.537	3122.95
392.983	3119.55
393.428	3107.02
393.874	3337.34
394.319	3355.98
394.765	3207.92
395.21	3306.33
395.655	3100.08
396.101	2905.32
396.546	2620.75
396.991	2633.47
397.436	2460.75
397.881	2381.79
398.326	2245.63
398.771	2139.57
399.216	1872.44
399.661	1683.9
400.106	1682.82
400.551	1734.61
400.995	1559.11
401.44	1546.27
401.885	1453.74
402.329	1468.63
402.774	1412.72
403.218	1375.47
403.663	1326.36
404.107	1366.71
404.551	1378.45
404.995	1259.88
405.44	1205.42
405.884	1224.14
406.328	1181.79
406.772	1179
407.216	1073.09
407.66	1031.26
408.104	971.4
408.547	906.81
408.991	874.01
409.435	840.23
409.879	833.38
410.322	826.92
410.766	802.27
411.209	765.88
411.653	733.18
412.096	718.5
412.54	720.42
412.983	715.81
413.426	720.69
413.869	723.99
414.312	714.04
414.756	687.29
415.199	655.18
415.642	635.75
416.085	638.83
416.527	632.91
416.97	641.31
417.413	610.46
417.856	604.98
418.298	595.75
418.741	587.94
419.184	583.14
419.626	602.14
420.069	602.34
420.511	606.68
420.953	592.32
421.396	588.81
421.838	575.43
422.28	587.51
422.722	592.28
423.164	600.9
423.606	593.32
424.048	591.51
424.49	566.65
424.932	563.75
425.374	554.36
425.816	562.62
426.258	572.68
426.699	578.8
427.141	572.35
427.582	577.28
428.024	574.67
428.465	571.52
428.907	559.35
429.348	550.98
429.789	551.46
430.231	543.48
430.672	550.96
431.113	539.57
431.554	532.43
431.995	516.76
432.436	502.4
432.877	491.02
433.318	483.47
433.759	479.98
434.2	479.21
434.64	473.33
435.081	473.62
435.522	451.02
435.962	436.37
436.403	428.02
436.843	434.54
437.284	423.93
437.724	414.42
438.164	413.36
438.604	405.57
439.045	393.73
439.485	380.45
439.925	371.91
440.365	362.28
440.805	355.28
441.245	351.14
441.685	339.34
442.125	335.85
442.564	337.21
443.004	329.58
443.444	328.27
443.883	327.73
444.323	321.68
444.762	319.57
445.202	322.84
445.641	328.13
446.081	323.61
446.52	324.64
446.959	321.52
447.398	313.18
447.837	309.36
448.276	302.96
448.716	307.87
449.154	310
449.593	304.32
450.032	303.37
450.471	297.71
450.91	297.18
451.349	297.74
451.787	296.5
452.226	300.75
452.664	299.9
453.103	299.64
453.541	294.76
453.98	297.04
454.418	297.96
454.856	292.61
455.295	291.37
455.733	294.3
456.171	294.18
456.609	295.46
457.047	294.52
457.485	299.97
457.923	301.28
458.361	297.61
458.798	296.15
459.236	294.79
459.674	296.19
460.111	297.53
460.549	294.22
460.987	292.37
461.424	289.76
461.862	288.55
462.299	283.81
462.736	283.23
463.173	284.25
463.611	283.97
464.048	284.64
464.485	288.1
464.922	285.33
465.359	284.05
465.796	286.09
466.233	285.27
466.67	284.82
467.106	285.2
467.543	282.72
467.98	278.48
468.416	269.85
468.853	265.99
469.29	257.75
469.726	255.42
470.162	249.07
470.599	241.51
471.035	237.45
471.471	230.24
471.907	227.37
472.344	225.87
472.78	227.35
473.216	228.25
473.652	225.73
474.088	223.43
474.523	222.65
474.959	223.87
475.395	221.15
475.831	220.54
476.266	220.21
476.702	218.84
477.138	216.23
477.573	214.34
478.008	213.45
478.444	214.12
478.879	217.27
479.314	217.49
479.75	216.49
480.185	216.25
480.62	216.84
481.055	217.74
481.49	219.26
481.925	221.52
482.36	226.35
482.795	231.29
483.229	236.44
483.664	239.82
484.099	238.93
484.534	242.3
484.968	245.37
485.403	245.15
485.837	244.14
486.271	243.37
486.706	242.68
487.14	238.08
487.574	234.43
488.009	232.09
488.443	229.69
488.877	233.46
489.311	233.86
489.745	236.29
490.179	239
490.613	244.56
491.046	246.04
491.48	248.1
491.914	248.76
492.348	250.4
492.781	251.86
493.215	252.46
493.648	252.03
494.082	254.07
494.515	254.12
494.948	257.47
495.382	257.77
495.815	259.22
496.248	261.58
496.681	266.42
497.114	270.72
497.547	275.07
497.98	281.12
498.413	284.58
498.846	288.39
499.279	291.59
499.711	292.9
500.144	294.52
500.577	300.51
501.009	304.64
501.442	309.2
501.874	311.05
502.306	312.74
502.739	317.27
503.171	323.04
503.603	325.14
504.036	330.11
504.468	333.39
504.9	339.54
505.332	342.23
505.764	345.83
506.196	349.81
506.627	356.99
507.059	363.83
507.491	368.34
507.923	370.37
508.354	379.35
508.786	386.57
509.217	396.47
509.649	405.81
510.08	416.27
510.512	427.01
510.943	437.47
511.374	446.29
511.805	458.3
512.237	469.43
512.668	486.88
513.099	502.57
513.53	518.18
513.961	533.16
514.391	551.57
514.822	572.54
515.253	594.64
515.684	611.28
516.114	630.41
516.545	646.76
516.975	665.52
517.406	680.34
517.836	686.78
518.267	696.88
518.697	711.26
519.127	718.7
519.558	728.1
519.988	734.8
520.418	745.38
520.848	759.32
521.278	768.57
521.708	800.73
522.138	812.74
522.567	834.06
522.997	852.88
523.427	865.98
523.857	880.66
524.286	891.38
524.716	904.83
525.145	920
525.575	931.65
526.004	944.3
526.433	929
526.863	933.37
527.292	932.98
527.721	939.39
528.15	947.07
528.579	951.78
529.008	961.55
529.437	977
529.866	988.89
530.295	1001.8
530.724	1013.18
531.152	1032.77
531.581	1044.57
532.01	1058.04
532.438	1066.42
532.867	1077.13
533.295	1090.4
533.723	1096.85
534.152	1099.38
534.58	1100.71
535.008	1093.74
535.436	1096.77
535.865	1103.19
536.293	1112.55
536.721	1123.29
537.149	1140.11
537.576	1143.03
538.004	1151.87
538.432	1157.87
538.86	1157.48
539.287	1163.08
539.715	1172.53
540.143	1174.21
540.57	1172.63
540.998	1171.33
541.425	1159.34
541.852	1146.06
542.28	1145.46
542.707	1136.38
543.134	1126.93
543.561	1124.24
543.988	1120.22
544.415	1118.86
544.842	1115.97
545.269	1111.65
545.696	1113.4
546.123	1121
546.549	1115.9
546.976	1108.74
547.403	1107.67
547.829	1109.69
548.256	1111.5
548.682	1108.94
549.108	1105.01
549.535	1104.69
549.961	1105.31
550.387	1096.64
550.813	1093.04
551.24	1096.24
551.666	1095.87
552.092	1090.09
552.518	1084.78
552.943	1080.78
553.369	1084.77
553.795	1087.77
554.221	1087.56
554.646	1085.5
555.072	1091.28
555.498	1092.22
555.923	1095.55
556.349	1103.53
556.774	1107.42
557.199	1106.52
557.625	1107.74
558.05	1101.38
558.475	1104.83
558.9	1102.09
559.325	1094.39
559.75	1089.01
560.175	1082.8
560.6	1076.29
561.025	1071.75
561.449	1068.78
561.874	1068.88
562.299	1068.01
562.723	1069.28
563.148	1060.61
563.572	1059
563.997	1061.74
564.421	1059.97
564.846	1055.64
565.27	1054.43
565.694	1049.26
566.118	1052.24
566.542	1052.88
566.966	1045.72
567.39	1038.83
567.814	1028.08
568.238	1024.15
568.662	1022.08
569.086	1019.05
569.509	1019.05
569.933	1006.55
570.357	997.66
570.78	981.23
571.204	970.34
571.627	959.84
572.05	954.29
572.474	950.06
572.897	939.75
573.32	931.45
573.743	922.8
574.166	910.03
574.589	906.36
575.012	899.81
575.435	895.74
575.858	887.16
576.281	878.84
576.704	868.12
577.126	858.39
577.549	849.52
577.972	841.69
578.394	833.22
578.817	827.12
579.239	814.53
579.661	804.65
580.084	795.32
580.506	786.61
580.928	781.92
581.35	774.67
581.772	770.42
582.194	760.87
582.616	752.33
583.038	742.17
583.46	734.02
583.882	730.44
584.303	729.83
584.725	725.19
585.147	726.32
585.568	728.58
585.99	732.15
586.411	733.59
586.833	738.64
587.254	738.07
587.675	743.98
588.096	748.74
588.518	744.88
588.939	735.05
589.36	732.7
589.781	722.78
590.202	709.93
590.623	703.78
591.043	700.36
591.464	693.46
591.885	689.61
592.305	685.57
592.726	676.99
593.147	676.6
593.567	673.89
593.987	668.63
594.408	665.82
594.828	662.45
595.248	660.42
595.669	652.33
596.089	647.59
596.509	643.7
596.929	637.04
597.349	637.35
597.769	631.53
598.189	628.06
598.608	628.54
599.028	628.6
599.448	628.07
599.867	620.69
600.287	617.19
600.706	615.24
601.126	610.51
601.545	609.14
601.965	606.82
602.384	602.95
602.803	602.84
603.222	599.11
603.641	594.61
604.061	592.12
604.48	588.47
604.898	590.79
605.317	591.24
605.736	590.8
606.155	588.46
606.574	583.09
606.992	584.54
607.411	581.78
607.829	576.7
608.248	574.02
608.666	571.09
609.085	570.1
609.503	565.25
609.921	562.34
610.339	560.82
610.758	558.3
611.176	555.41
611.594	550.52
612.012	547.55
612.43	548.19
612.847	549.63
613.265	548.89
613.683	548.96
614.101	548.22
614.518	543.68
614.936	538.23
615.353	531.61
615.771	529.84
616.188	528.67
616.606	525.35
617.023	521.03
617.44	514.28
617.857	509.79
618.274	505.3
618.691	501.72
619.108	497.79
619.525	494.55
619.942	495.61
620.359	495.48
620.776	492.51
621.192	490.61
621.609	489.68
622.026	492.07
622.442	493.87
622.859	493.82
623.275	490.24
623.691	491.49
624.108	496.44
624.524	502.07
624.94	501.24
625.356	504.48
625.772	509.06
626.188	512.79
626.604	512.67
627.02	511.02
627.436	510.95
627.852	514.23
628.268	519.07
628.683	514.7
629.099	510.7
629.514	508.55
629.93	509.88
630.345	511.33
630.761	509.35
631.176	510.58
631.591	508.62
632.007	505.31
632.422	502.86
632.837	497.08
633.252	496.23
633.667	491.6
634.082	487.11
634.497	480.69
634.911	473.11
635.326	469.96
635.741	462.44
636.155	455.68
636.57	455.3
636.984	453.57
637.399	453.38
637.813	450.27
638.228	447.94
638.642	447.15
639.056	441.29
639.47	438.31
639.884	433.58
640.298	428.22
640.712	425.95
641.126	419.38
641.54	413.81
641.954	408.4
642.368	402.78
642.781	400.87
643.195	393.34
643.609	391.77
644.022	388.02
644.436	384.17
644.849	378.52
645.262	372.64
645.676	370.7
646.089	368.32
646.502	363.25
646.915	360.04
647.328	351.59
647.741	350.35
648.154	345.97
648.567	346.37
648.98	342.45
649.393	342.22
649.805	342.59
650.218	339.84
650.631	334.32
651.043	331.31
651.456	329.4
651.868	328.85
652.28	333.25
652.693	337.09
653.105	337.68
653.517	340.88
653.929	341.03
654.341	341.89
654.753	339.23
655.165	342.02
655.577	343.05
655.989	342.58
656.401	338.91
656.813	329.13
657.224	323.07
657.636	312.47
658.047	307.4
658.459	301.59
658.87	297.7
659.282	292.81
659.693	287.03
660.104	282.79
660.515	278.24
660.926	277.66
661.338	276.11
661.749	274.37
662.159	273.78
662.57	272.24
662.981	271.87
663.392	270.62
663.803	273.56
664.213	273.99
664.624	272.89
665.035	274.66
665.445	273.18
665.855	273.39
666.266	273.52
666.676	273.74
667.086	271.41
667.497	272.48
667.907	272.14
668.317	271.16
668.727	273.24
669.137	274.72
669.547	275.84
669.956	277.18
670.366	279.18
670.776	281.38
671.186	284.28
671.595	288.48
672.005	290.18
672.414	292.99
672.824	294.2
673.233	294.86
673.642	297.97
674.052	301.74
674.461	306.07
674.87	309.53
675.279	310.85
675.688	313.38
676.097	316.16
676.506	317.83
676.915	324.33
677.323	327.49
677.732	329.21
678.141	330.59
678.549	327.13
678.958	327.44
679.366	328.19
679.775	330.72
680.183	338.34
680.592	342.73
681	347.19
681.408	346.91
681.816	350.21
682.224	354.46
682.632	360.29
683.04	374.15
683.448	383.85
683.856	398.34
684.264	413.3
684.671	423.6
685.079	438.12
685.487	453.61
685.894	476.48
686.302	495.56
686.709	510.52
687.116	527.89
687.524	542.74
687.931	556.84
688.338	565.71
688.745	573.31
689.152	585.75
689.559	602.86
689.966	623.13
690.373	633.53
690.78	654.98
691.187	685.48
691.593	711.52
692	733.39
692.407	766.69
692.813	810.04
693.22	846.81
693.626	884.56
694.032	918.19
694.439	965.81
694.845	1007.57
695.251	1056.43
695.657	1103.33
696.063	1166.53
696.469	1221.87
696.875	1276.5
697.281	1313.99
697.687	1358.19
698.093	1399.2
698.498	1461.75
698.904	1512.83
699.31	1583.61
699.715	1642.61
700.12	1718.18
700.526	1752.97
700.931	1817.62
701.337	1872.23
701.742	1916.48
702.147	1992.96
702.552	2035.68
702.957	2096.23
703.362	2133.99
703.767	2174.44
704.172	2222.71
704.577	2212.48
704.981	2264.4
705.386	2297.34
705.791	2312.11
706.195	2384.15
706.6	2409.93
707.004	2487.02
707.408	2486.32
707.813	2525.98
708.217	2538.93
708.621	2558.07
709.025	2648.97
709.43	2670.13
709.834	2732.62
710.237	2803.84
710.641	2810.72
711.045	2847.85
711.449	2861.34
711.853	2901.22
712.256	2950.69
712.66	2996.83
713.064	3076.28
713.467	3126.41
713.87	3231.53
714.274	3287.49
714.677	3393.52
715.08	3540.86
715.484	3694.51
715.887	3879.31
716.29	4060.88
716.693	4250.91
717.096	4468.74
717.499	4595.28
717.901	4637.4
718.304	4679.35
718.707	4718.32
719.109	4651.04
719.512	4645.17
719.915	4547.9
720.317	4515.29
720.719	4567.97
721.122	4557.84
721.524	4528.38
721.926	4508.29
722.328	4609.48
722.731	4618.11
723.133	4656.75
723.535	4837.84
723.937	4869.28
724.338	4929.99
724.74	4980.77
725.142	4940.47
725.544	4952.89
725.945	4992.45
726.347	5000.97
726.748	5007.67
727.15	5032.77
727.551	5008.96
727.952	4994.32
728.354	4980.61
728.755	4989.34
729.156	4958.43
729.557	4957.56
729.958	4854.63
730.359	4812.82
730.76	4803.37
731.161	4758.46
731.562	4742.25
731.962	4755.3
732.363	4705.89
732.763	4651.1
733.164	4690.61
733.564	4636.23
733.965	4554.67
734.365	4530.77
734.766	4561.41
735.166	4530.84
735.566	4484.38
735.966	4464.38
736.366	4463.22
736.766	4409.23
737.166	4442.75
737.566	4407.88
737.966	4388.83
738.365	4428.21
738.765	4426.51
739.165	4360.97
739.564	4341.09
739.964	4384.39
740.363	4343.87
740.763	4343.18
741.162	4335.57
741.561	4309.55
741.96	4270.65
742.36	4291.87
742.759	4300.78
743.158	4337.67
743.557	4354.02
743.955	4393.87
744.354	4355.07
744.753	4411.31
745.152	4377.16
745.55	4431.31
745.949	4428.85
746.348	4431.22
746.746	4449.51
747.144	4410.79
747.543	4390.13
747.941	4437.22
748.339	4372.52
748.737	4366.25
749.136	4359.81
749.534	4416.95
749.932	4389.61
750.33	4412.37
750.727	4465.08
751.125	4442.44
751.523	4429.55
751.921	4473.52
752.318	4441.19
752.716	4496.32
753.113	4510.37
753.511	4533.34
753.908	4536.69
754.305	4522.36
754.703	4578.61
755.1	4637.28
755.497	4692.71
755.894	4872.66
756.291	5041.34
756.688	5349.44
757.085	5762.6
757.482	6342.17
757.878	6976.08
758.275	7548.95
758.672	8338.3
759.068	8980.9
759.465	9899.31
759.861	11082.68
760.258	12452.23
760.654	13156.18
761.05	13057.55
761.447	12460.16
761.843	11602.12
762.239	10715.79
762.635	10312.46
763.031	9929.03
763.427	9376.72
763.822	8792.53
764.218	8214.41
764.614	7460.75
765.01	6958.82
765.405	6633.61
765.801	6386.29
766.196	6070.04
766.592	5893.65
766.987	5598.28
767.382	5395.36
767.778	5309.31
768.173	5184.85
768.568	5114.5
768.963	4996.61
769.358	5012.9
769.753	4970.98
770.148	4891.88
770.542	4889.75
770.937	4862.12
771.332	4948.03
771.726	4967.13
772.121	4908.16
772.515	4959.42
772.91	4948.45
773.304	5018.62
773.699	4956.99
774.093	5003.72
774.487	5054.7
774.881	5097.1
775.275	5090.37
775.669	5051.97
776.063	5093.7
776.457	5126.01
776.851	5056.65
777.245	5050.25
777.638	5080.04
778.032	5191.48
778.425	5157.99
778.819	5195.51
779.212	5155.4
779.606	5119.71
779.999	5133.9
780.392	5115.42
780.786	5195.29
781.179	5213.26
781.572	5251.46
781.965	5259.48
782.358	5199.52
782.751	5251.88
783.143	5208.03
783.536	5274.98
783.929	5315.22
784.322	5424.12
784.714	5454.81
785.107	5448.29
785.499	5513.98
785.891	5495.57
786.284	5482.94
786.676	5618.35
787.068	5600.19
787.46	5651.8
787.852	5671.08
788.245	5750.05
788.636	5779.5
789.028	5841.42
789.42	5880.87
789.812	5889.56
790.204	5974.35
790.595	6066.3
790.987	5881.8
791.378	5905.58
791.77	6024.63
792.161	6153.32
792.553	6200.46
792.944	6095.16
793.335	6033.45
793.726	6100.76
794.117	6184.29
794.508	6314.96
794.899	6284.05
795.29	6415.05
795.681	6464.05
796.072	6331.42
796.463	6154.21
796.853	6167.48
797.244	6314.01
797.634	6345.64
798.025	6344.16
798.415	6357.22
798.806	6440.78
799.196	6519.61
799.586	6569.48
799.976	6534.24
800.366	6748.42
800.756	6977.77
801.146	6940.99
801.536	6967.46
801.926	7035.02
802.316	7057.93
802.706	7123.7
803.095	7009.17
803.485	7106.12
803.874	7142.55
804.264	7385.31
804.653	7363.52
805.043	7497.6
805.432	7599.77
805.821	7600.33
806.21	7621.19
806.599	7731.69
806.988	7775.91
807.377	7874.24
807.766	7997.1
808.155	8259.7
808.544	8013.75
808.933	8027.25
809.321	8005.64
809.71	8278.78
810.098	8425.69
810.487	8854.03
810.875	9297.68
811.264	9320.02
811.652	9582.96
812.04	9712.31
812.428	9865.74
812.816	10576.68
813.204	10960.66
813.592	11472.61
813.98	11782.39
814.368	11698.21
814.756	12149.21
815.144	12074.75
815.531	12499.71
815.919	12438.14
816.306	12729.53
816.694	12439.73
817.081	12490.68
817.469	12813.01
817.856	12806.38
818.243	13060.91
818.63	13424.46
819.017	13023.98
819.404	13079.01
819.791	13429.06
820.178	13992.51
820.565	14217.99
820.952	15083.37
821.339	14624.74
821.725	14799.96
822.112	14111.64
822.498	14064.95
822.885	14192.6
823.271	14102.64
823.657	14497.93
824.044	14511.86
824.43	14580.64
824.816	14550.72
825.202	14148.41
825.588	15089.75
825.974	15099.76
826.36	15577.54
826.746	15614.48
827.132	15931.88
827.517	15914.04
827.903	15184.75
828.289	15214.9
828.674	14498.67
829.06	14402.88
829.445	14778.74
829.83	15110.32
830.216	15553.1
830.601	15895.6
830.986	15519.65
831.371	15401.58
831.756	15923.93
832.141	15525.79
832.526	15522.11
832.911	15786.5
833.295	15685.77
833.68	16118.9
834.065	15545.37
834.449	14705.37
834.834	14640.96
835.218	14640.16
835.603	14959.5
835.987	14759.94
836.371	15537.49
836.755	15449.2
837.139	15821.5
837.524	16044.45
837.908	15874.54
838.291	15933.48
838.675	15997.47
839.059	16194.22
839.443	16186.02
839.827	15975.09
840.21	16420.61
840.594	16284.19
840.977	16479.05
841.361	16462.42
841.744	16815.35
842.127	16671.71
842.511	16898.81
842.894	17452.21
843.277	17802.06
843.66	18304.38
844.043	18372.01
844.426	17627.57
844.809	17334.01
845.191	17360.71
845.574	16940.16
845.957	16600.79
846.339	16498.52
846.722	16019.16
847.104	16084.86
847.487	15922.01
847.869	15940.38
848.252	16199.09
848.634	16503.91
849.016	16754
849.398	16870.41
849.78	17662.11
850.162	17669.2
850.544	18060.27
850.926	18639
851.307	18554.31
851.689	18819.08
852.071	19234.76
852.452	19540.95
852.834	19530.16
853.215	19901.53
853.597	20047.78
853.978	20319.94
854.359	20739.56
854.741	19806.85
855.122	19711.89
855.503	19445.38
855.884	19574.19
856.265	19516.67
856.646	19625.81
857.026	19261.4
857.407	19198.97
857.788	19341.02
858.169	19605.69
858.549	18817.92
858.93	19402.87
859.31	19448.71
859.69	19643.17
860.071	19259.01
860.451	19057.01
860.831	18371.64
861.211	19439.6
861.591	19945.7
861.971	19924.44
862.351	20103.41
862.731	20462.24
863.111	20706.83
863.491	21014.48
863.87	21824.48
864.25	22145.11
864.629	21775.84
865.009	22252.28
865.388	23047.59
865.768	24687.53
866.147	24579.42
866.526	23210.58
866.905	23493.9
867.284	24814.49
867.663	23568.6
868.042	22590.98
868.421	22518.23
868.8	22887.16
869.179	23100.22
869.558	21747.97
869.936	20060.5
870.315	20414.34
870.693	20921.91
871.072	22546.8
871.45	21475.82
871.828	21744.19
872.207	22845.9
872.585	22502.95
872.963	23116.43
873.341	22331.31
873.719	22075.26
874.097	21800.19
874.475	22216.14
874.853	22715.78
875.23	21776.21
875.608	22684.38
875.986	24537.46
876.363	23478.45
876.741	24194.77
877.118	23585.24
877.495	24733.26
877.873	25138.56
878.25	26460.55
878.627	25386.97
879.004	25741.1
879.381	25625.39
879.758	24951.82
880.135	23228.5
880.512	24555.52
880.889	23913.58
881.265	23655.51
881.642	23452.39
882.019	23860.41
882.395	23364.82
882.772	24302.57
883.148	23259.9
883.524	23170.16
883.901	23042.18
884.277	23402.52
884.653	23263.24
885.029	23930.13
885.405	26516.2
885.781	26313.46
886.157	25235.42
886.532	25563.08
886.908	25529.27
887.284	28383.49
887.659	29306.44
888.035	30222.24
888.411	30991.87
888.786	31405.16
889.161	32497.74
889.537	31895.84
889.912	32934.25
890.287	32877.3
890.662	33724.74
891.037	33130.91
891.412	30893.33
891.787	30584.6
892.162	29522.54
892.536	30203.45
892.911	29074.36
893.286	28473.24
893.66	27315.65
894.035	28011.22
894.409	30516.22
894.784	29281.71
895.158	29775.14
895.532	31540.17
895.906	32395.22
896.281	33135.83
896.655	32611.71
897.029	37262.28
897.402	38779.04
897.776	43199.88
898.15	43044.67
898.524	42574.59
898.898	43135.68
899.271	48269.73
899.645	41811.33
900.018	40172.48
900.392	41668.22
900.765	42009.26
901.138	38857.01
901.511	38276.44
901.884	35141.37
902.258	32416.81
902.631	33494.72
903.003	38545.48
903.376	34780
903.749	38991.1
904.122	41704.93
904.495	45926.44
904.867	46483.3
905.24	40353.77
905.612	37560.26
905.985	38401.86
906.357	40126.98
906.729	38308.71
907.102	32725.69
907.474	31470.59
907.846	31661.15
908.218	31261
908.59	27610.18
908.962	26716.36
909.334	28771.98
909.705	30208.54
910.077	29321.4
910.449	30519.46
910.82	31373
911.192	34507.7
911.563	35870.92
911.935	38414.96
912.306	38442.45
912.677	39717.74
913.048	39332.27
913.419	42667.31
913.79	42940.8
914.161	46027.41
914.532	44000.66
914.903	40419.74
915.274	38383.37
915.645	37792.41
916.015	33228.93
916.386	31698.18
916.756	33733.63
917.127	34743.8
917.497	31049.69
917.868	33777.34
918.238	32103.96
918.608	33034.97
918.978	33730.64
919.348	35736.23
919.718	36943.67
920.088	35588.8
920.458	36976.42
920.828	38901.61
921.198	36922.35
921.567	39422.98
921.937	30528.24
922.306	30808.44
922.676	33227.13
923.045	27700.85
923.415	26319.64
923.784	23956.46
924.153	24634.69
924.522	24608.48
924.891	23132.78
925.26	24769.66
925.629	24191.21
925.998	27814.22
926.367	27146.48
926.736	25840.3
927.104	30774.76
927.473	33063.31
927.842	39931.61
928.21	39538.78
928.578	41548.35
928.947	39300.5
929.315	39537.78
929.683	46321.08
930.051	46687.74
930.42	54240.6
930.788	46373.79
931.156	46041.34
931.523	43187.14
931.891	39915.54
932.259	38372.8
932.627	44485.68
932.994	62928.38
933.362	51983.43
933.729	45176.9
934.097	43234.21
934.464	36575.49
934.831	42195.07
935.199	41593.65
935.566	40301.68
935.933	40903.05
936.3	49494.42
936.667	38507.25
937.034	34737.86
937.401	34353.81
937.767	29670.48
938.134	26424.97
938.501	37300.01
938.867	39779.3
939.234	67238.85
939.6	57428.21
939.967	63154.1
940.333	42298.51
940.699	36035.82
941.065	28905.14
941.431	37930.2
941.798	36551.29
942.163	47978.36
942.529	29948.24
942.895	27522.33
943.261	17790.6
943.627	23308.11
943.992	20407.18
944.358	20432.49
944.723	20499.01
945.089	19999.02
945.454	18490.72
945.82	19757.48
946.185	18991.53
946.55	22008.09
946.915	19745.33
947.28	23195.29
947.645	20429.69
948.01	18862.76
948.375	19681.72
948.74	23606.62
949.104	27532.09
949.469	39747.95
949.834	70219.54
950.198	66546.84
950.562	39880.65
950.927	33239.83
951.291	39956.22
951.655	34066.68
952.02	32002.06
952.384	24196.43
952.748	21050.86
953.112	20513.12
953.476	17840
953.839	16481.55
954.203	16291.91
954.567	20407.48
954.931	32129.57
955.294	27480.9
955.658	27622.44
956.021	46901.17
956.385	79526.27
956.748	117423.49
957.111	182036.5
957.474	204316.25
957.837	230313.2
958.2	174493.5
958.563	62591.39
958.926	42300.88
959.289	64239.94
959.652	71744
960.015	53903.08
960.377	77352.86
960.74	88300.7
961.102	152565.34
961.465	163791.07
961.827	87678.23
962.189	168227.22
962.552	116733.9
962.914	93659.41
963.276	60791.01
963.638	50261.29
964	49763.64
964.362	33622.05
964.724	32485.36
965.085	23162.79
965.447	19001.86
965.809	21666.86
966.17	21685.75
966.532	23490.06
966.893	21557.75
967.255	19619.57
967.616	23167.89
967.977	18528.96
968.338	20260.1
968.699	16636.25
969.061	16637.66
969.421	16734.73
969.782	18764.5
970.143	15884.06
970.504	16455.12
970.865	18716.89
971.225	19133.77
971.586	18713.85
971.946	26712.28
972.307	23168.25
972.667	30287.99
973.027	31197.15
973.388	37857.47
973.748	25752.38
974.108	28020.5
974.468	37873.34
974.828	29181.53
975.188	22453.71
975.548	20620.04
975.907	17298.32
976.267	19392.37
976.627	16294.7
976.986	16897.55
977.346	16107.16
977.705	15500.46
978.064	14102.61
978.424	11733.8
978.783	12147.12
979.142	13849.55
979.501	13259.73
979.86	14026.9
980.219	13513.85
980.578	17442.03
980.937	19508.64
981.296	17398.38
981.654	17915.17
982.013	27914.43
982.371	36223.35
982.73	33770.79
983.088	38222.14
983.447	40824.99
983.805	58293.74
984.163	121752.57
984.521	135077.33
984.879	198159.93
985.237	-321877.63
985.595	310047.45
985.953	77008.52
986.311	44391.79
986.669	25746.82
987.026	22241.93
987.384	29894.47
987.741	30932.97
988.099	22123.29
988.456	17636.79
988.814	16512.14
989.171	14373.51
989.528	14194.56
989.885	14971.35
990.242	11884.99
990.599	14815.61
990.956	12113.05
991.313	8467.13
991.67	6941.19
992.027	7362.06
992.383	6544.96
992.74	5739.77
993.096	6009.39
993.453	6225.64
993.809	6452.23
994.165	8593.87
994.522	7882.54
994.878	8694.47
995.234	10923.8
995.59	10782.59
995.946	10194.13
996.302	11622.32
996.658	13426.36
997.013	14804.9
997.369	17532.73
997.725	22469.95
998.08	14550.4
998.436	22459.14
998.791	30968.66
999.147	30833.09
999.502	33666.44
999.857	24509.84
1000.212	39936.05
1000.567	56948.01
1000.922	32791.38
1001.277	20849.35
1001.632	15403.03
1001.987	19864.11
1002.342	14216.55
1002.696	11377.83
1003.051	9118.23
1003.406	11016.96
1003.76	10946.55
1004.114	10787.19
1004.469	9060.11
1004.823	7510.29
1005.177	8109.03
1005.531	6428.1
1005.885	5698.85
1006.239	6442.55
1006.593	8074.83
1006.947	10781.56
1007.301	8099.56
1007.655	8836.13
1008.008	6488.58
1008.362	7279.57
1008.715	10408.93
1009.069	9450.86
1009.422	14268.44
1009.776	28545.25
1010.129	18954.17
1010.482	15878.58
1010.835	13415.92
1011.188	28000.35
1011.541	26368.72
1011.894	-161206.76
1012.247	474165.4
1012.6	32279.7
1012.952	20380.07
1013.305	10476.7
1013.657	7565.83
1014.01	7158.59
1014.362	5875.04
1014.715	5210.27
1015.067	4518.8
1015.419	4417.05
1015.771	3914.61
1016.123	3486.53
1016.475	3570.76
1016.827	3792.13
1017.179	4096.08
1017.531	4125.18
1017.883	4218.71
1018.234	4102.75
1018.586	5182.25
1018.938	5516.24
1019.289	7603.97
1019.64	8712.96
1019.992	8146.46
1020.343	7457.87
1020.694	5915.41
1021.045	5212.09
1021.396	5944.48
1021.747	6357.38
1022.098	7594.61
1022.449	5499.77
1022.8	5111.49
1023.151	3569.67
1023.501	3163.88
1023.852	3432.72
1024.202	3568.29
1024.553	3921.65
1024.903	3847.01
1025.253	3305.53
1025.604	2981.04
1025.954	3705.79
1026.304	4538.49
1026.654	5264.12
1027.004	7700.79
1027.354	12454.43
1027.703	11707.78
1028.053	15389.52
1028.403	22341.28
1028.753	32162.08
1029.102	43900.42
1029.452	226605.63
1029.801	9808.66
1030.15	6332
1030.499	5369.32
897.758	2222.02
901.051	2151.71
904.343	2188.04
907.636	2195.45
910.928	2258.09
914.22	2176.04
917.511	2180.16
920.803	2230.23
924.094	2228.25
927.384	2232.74
930.675	2196.1
933.965	2157.48
937.255	2187.96
940.544	2154.65
943.834	2153.9
947.123	2092.5
950.411	2181.74
953.7	2162.93
956.988	2143.94
960.276	2080.28
963.563	2129.16
966.851	2139.68
970.138	2179.75
973.424	2182.47
976.711	2135.5
979.997	2183.09
983.283	2227.22
986.568	2156.98
989.853	2148.78
993.138	2176.61
996.423	2261.39
999.708	2219.83
1002.992	2248.88
1006.275	2165.2
1009.559	2170.98
1012.842	2268.94
1016.125	2221.5
1019.408	2200.4
1022.69	2258.23
1025.972	2294.39
1029.254	2267.32
1032.536	2227.42
1035.817	2239.43
1039.098	2208.22
1042.379	2258.64
1045.659	2285.33
1048.939	2233.96
1052.219	2241.84
1055.498	2235.71
1058.778	2232.25
1062.057	2205.16
1065.335	2229.99
1068.614	2242.51
1071.892	2234.63
1075.17	2288.4
1078.447	2290.79
1081.724	2283.43
1085.001	2309.61
1088.278	2287.16
1091.554	2294.29
1094.83	2287.31
1098.106	2321.55
1101.382	2352.73
1104.657	2352.61
1107.932	2354.1
1111.206	2331.2
1114.481	2284.52
1117.755	2285.15
1121.029	2277.01
1124.302	2336.15
1127.575	2300.75
1130.848	2298.92
1134.121	2267.74
1137.393	2229.49
1140.665	2286.74
1143.937	2262.93
1147.208	2212.01
1150.48	2269.32
1153.75	2256.62
1157.021	2258.79
1160.291	2235.52
1163.561	2288.06
1166.831	2256.57
1170.101	2282.85
1173.37	2244.07
1176.639	2200.61
1179.907	2245.22
1183.176	2268.73
1186.444	2269.83
1189.711	2295.47
1192.979	2319.45
1196.246	2275.1
1199.513	2287.31
1202.78	2292.56
1206.046	2303.78
1209.312	2330.29
1212.578	2348.39
1215.843	2315.33
1219.108	2284.19
1222.373	2307.06
1225.638	2279.2
1228.902	2272.54
1232.166	2229.67
1235.43	2217.28
1238.693	2242.63
1241.956	2234.67
1245.219	2285.02
1248.482	2265.11
1251.744	2264.23
1255.006	2386.56
1258.268	2334.63
1261.529	2292.15
1264.79	2291.25
1268.051	2389.66
1271.312	2399.77
1274.572	2369.77
1277.832	2357.52
1281.092	2333.13
1284.351	2325.31
1287.61	2309.88
1290.869	2245.5
1294.128	2241.72
1297.386	2290.31
1300.644	2282.5
1303.902	2293.64
1307.159	2161.64
1310.416	2210.95
1313.673	2238.37
1316.93	2240.78
1320.186	2272.6
1323.442	2306.21
1326.697	2304.67
1329.953	2278.1
1333.208	2313.59
1336.463	2288.38
1339.717	2247.29
1342.972	2353.5
1346.226	2329.53
1349.479	2277.6
1352.733	2255.03
1355.986	2261.48
1359.238	2242.35
1362.491	2248.44
1365.743	2251.38
1368.995	2243.27
1372.247	2255.35
1375.498	2274.49
1378.749	2317.63
1382	2266.13
1385.251	2304.97
1388.501	2259.32
1391.751	2260.55
1395	2226.68
1398.25	2252.72
1401.499	2274.01
1404.748	2224.25
1407.996	2202.58
1411.244	2192.66
1414.492	2177.08
1417.74	2163.48
1420.987	2165.7
1424.234	2225.02
1427.481	2188.04
1430.728	2245.02
1433.974	2220.02
1437.22	2219.49
1440.465	2216.55
1443.711	2215.23
1446.956	2238.62
1450.201	2212.83
1453.445	2252.43
1456.689	2242.24
1459.933	2252.4
1463.177	2290.4
1466.42	2264.06
1469.663	2245.86
1472.906	2258.84
1476.148	2306.1
1479.391	2280.48
1482.633	2254.54
1485.874	2276.85
1489.115	2283.32
1492.356	2266.87
1495.597	2247.17
1498.838	2240.44
1502.078	2223.67
1505.318	2194.49
1508.557	2229.15
1511.797	2224.88
1515.036	2265.73
1518.274	2238.99
1521.513	2193.98
1524.751	2204.34
1527.989	2228.69
1531.227	2245.42
1534.464	2258.21
1537.701	2252.03
1540.938	2264.84
1544.174	2211.67
1547.41	2202.75
1550.646	2239.44
1553.882	2288.04
1557.117	2343.08
1560.352	2350.3
1563.587	2311.53
1566.821	2278.06
1570.055	2294.32
1573.289	2274.77
1576.523	2332.54
1579.756	2346.37
1582.989	2365.28
1586.222	2327.99
1589.454	2356.18
1592.686	2336.21
1595.918	2366.06
1599.15	2363.32
1602.381	2407.73
1605.612	2387.07
1608.843	2479.05
1612.073	2404.3
1615.303	2392.31
1618.533	2391.88
1621.762	2389.85
1624.992	2365.87
1628.221	2370.73
1631.449	2358.24
1634.678	2382.02
1637.906	2353.36
1641.134	2380.03
1644.361	2345.96
1647.588	2334.95
1650.815	2357.42
1654.042	2319.61
1657.269	2347.74
1660.495	2325.95
1663.72	2314.13
1666.946	2282.09
1670.171	2258.44
1673.396	2229.56
1676.621	2213.4
1679.845	2212.37
1683.069	2219.92
1686.293	2248.91
1689.517	2241.34
1692.74	2191.7
1695.963	2213.91
1699.185	2252.69
1702.408	2223.88
1705.63	2253.3
1708.852	2273.02
1712.073	2243.81
1715.294	2253.2
1718.515	2294.98
1721.736	2255.3
1724.956	2236.24
1728.176	2258.11
1731.396	2279.31
1734.616	2265.89
1737.835	2305.39
1741.054	2276.22
1744.272	2266.36
1747.491	2307.08
1750.709	2331.54
1753.927	2280.32
1757.144	2305.55
1760.361	2360.63
1763.578	2338.11
1766.795	2289.19
1770.011	2278.16
1773.227	2301.76
1776.443	2344.83
1779.658	2387.45
1782.874	2326.96
1786.089	2318.44
1789.303	2321.03
1792.518	2317.63
1795.732	2306.21
1798.945	2321.85
1802.159	2362.59
1805.372	2304.33
1808.585	2302.43
1811.797	2302.8
1815.01	2324.58
1818.222	2346.95
1821.434	2305.83
1824.645	2349.79
1827.856	2361.94
1831.067	2389.38
1834.278	2327.89
1837.488	2312
1840.698	2435.33
1843.908	2374.66
1847.117	2342.96
1850.326	2269.02
1853.535	2332.72
1856.744	2369.99
1859.952	2290.54
1863.16	2291.25
1866.368	2309.56
1869.575	2423.91
1872.782	2308.51
1875.989	2243.31
1879.196	2294.16
1882.402	2284.07
1885.608	2321.39
1888.814	2260.05
1892.019	2168.19
1895.224	2221.41
1898.429	2187.59
1901.634	2172.34
1904.838	2143.65
1908.042	2200.95
1911.246	2216.08
1914.449	2178.39
1917.652	2160.95
1920.855	2139.3
1924.058	2165.01
1927.26	2210.58
1930.462	2232.69
1933.664	2273.24
1936.865	2213.15
1940.066	2234.45
1943.267	2177.81
1946.467	2183.95
1949.668	2201.68
1952.868	2273.92
1956.067	2263.82
1959.267	2205.03
1962.466	2228.55
1965.665	2210.49
1968.863	2201.63
1972.061	2205.85
1975.259	2197.63
1978.457	2272.9
1981.654	2233.71
1984.852	2238.67
1988.048	2190.76
1991.245	2178.79
1994.441	2266.21
1997.637	2225.9
2000.833	2207.43
2004.028	2246.6
2007.223	2309.35
2010.418	2296.6
2013.613	2246.7
2016.807	2241.86
2020.001	2236.85
2023.194	2257.46
2026.388	2243.36
2029.581	2186.34
2032.774	2248.72
2035.966	2262.3
2039.158	2203.4
2042.35	2222.26
2045.542	2149.22
2048.733	2232.68
2051.924	2224.63
2055.115	2239.14
2058.306	2205.59
2061.496	2259.44
2064.686	2311.08
2067.875	2218.5
2071.065	2220.03
2074.254	2239.16
2077.442	2193.76
2080.631	2277.56
2083.819	2206.83
2087.007	2200.84
2090.195	2184.85
2093.382	2201.48
2096.569	2184.78
2099.756	2146.62
2102.942	2194.13
2106.128	2205.53
2109.314	2195.42
2112.5	2180.69
2115.685	2147.14
2118.87	2155.44
2122.055	2215.3
2125.239	2195.01
2128.424	2182.63
2131.608	2243.75
2134.791	2226.08
2137.974	2264.63
2141.157	2255.91
2144.34	2226.93
2147.523	2216.28
2150.705	2242.8
2153.887	2211.59
2157.068	2182.82
2160.25	2166.43
2163.431	2188.99
2166.611	2158.08
2169.792	2180.59
2172.972	2090.34
2176.152	2141.55
2179.331	2168.68
2182.511	2172.66
2185.69	2193.26
2188.868	2197.93
2192.047	2233.46
2195.225	2247.83
2198.403	2196.21
2201.58	2186.13
2204.758	2171.59
2207.935	2247.14
2211.111	2163.37
2214.288	2152.32
2217.464	2185.15
2220.64	2143.99
2223.815	2193.6
2226.991	2127.14
2230.166	2142.33
2233.34	2187.21
2236.515	2199
2239.689	2263.82
2242.863	2215.05
2246.036	2267.28
2249.209	2251.05
2252.382	2271.67
2255.555	2277.62
2258.727	2226.52
2261.9	2255.55
2265.071	2248.44
2268.243	2243.53
2271.414	2188.93
2274.585	2173.6
2277.756	2232.99
2280.926	2190.37
2284.096	2219.39
2287.266	2149.7
2290.436	2197.82
2293.605	2217.48
2296.774	2254.55
2299.942	2260.15
2303.111	2278.56
2306.279	2333.09
2309.447	2316.27
2312.614	2288.05
2315.781	2312.99
2318.948	2289.13
2322.115	2324.38
2325.281	2224.63
2328.447	2233.76
2331.613	2205.14
2334.779	2195.98
2337.944	2189.47
2341.109	2191.84
2344.274	2180.41
2347.438	2147.27
2350.602	2169.6
2353.766	2178.69
2356.929	2167.99
2360.092	2205.63
2363.255	2176.23
2366.418	2140.1
2369.58	2208.29
2372.742	2078.88
2375.904	2073.31
2379.066	2059.41
2382.227	2085.72
2385.388	2044.89
2388.548	1996.67
2391.709	2040.52
2394.869	2027.73
2398.029	2083.96
2401.188	2081.5
2404.347	2044.2
2407.506	2127.17
2410.665	2163.72
2413.823	2150.75
2416.981	2128.42
2420.139	2147.47
2423.296	2190.09
2426.453	2159.89
2429.61	2181.39
2432.767	2150.27
2435.923	2190.93
2439.079	2137.43
2442.235	2172.08
2445.391	2114.53
2448.546	2155.57
2451.701	2192.53
2454.855	2187.28
2458.009	2213.28
2461.163	2204.8
2464.317	2175.71
2467.471	2202.67
2470.624	2230.62
2473.777	2221.58
2476.929	2236.94
2480.082	2259.95
2483.234	2233.48
2486.385	2170.61
2489.537	2164.88
2492.688	2154.25
2495.839	2169.49
2498.989	2186.72
2502.14	2172.98
2505.29	2162.84
2508.439	2184.86
2511.589	2125.97
2514.738	2128.78
2517.887	2150.65
2521.035	2228.59
2524.183	2188.09
2527.331	2176.07
2530.479	2170.06
2533.627	2171.16
