Data from N_2_DIV_OH_2N_Splice17_12-21-38-757.txt Node
Date: Sat Mar 14 12:21:38 EDT 2020
User: sa697716
Spectrometer: FLMS03696
Trigger mode: 0
Integration Time (sec): 3.180400E-1
Scans to average: 20
Electric dark correction enabled: true
Nonlinearity correction enabled: true
Boxcar width: 5
XAxis mode: Wavelengths
Number of Pixels in Spectrum: 2048
>>>>>Begin Spectral Data<<<<<
187.83	-362811.34
188.298	2691.79
188.766	1438.12
189.233	1301.42
189.701	1732.02
190.169	2366.7
190.636	894.88
191.104	739.04
191.571	140.13
192.039	-38.29
192.506	-71.23
192.974	556.14
193.441	-662.11
193.908	-83.88
194.375	1.46
194.842	-7.04
195.31	61.69
195.777	130.31
196.244	387.5
196.711	527.46
197.177	669.01
197.644	964.8
198.111	1668.72
198.578	2334.64
199.045	1864.78
199.511	3046.38
199.978	3602.55
200.445	3066.72
200.911	3380.81
201.378	3742.34
201.844	3366.14
202.31	5764.17
202.777	5970
203.243	3329.48
203.709	3190.64
204.176	3826.65
204.642	3141.39
205.108	2915.68
205.574	2373.17
206.04	2183.46
206.506	2058.79
206.972	1944.22
207.438	1870.1
207.903	2131.89
208.369	1858.72
208.835	1838.71
209.301	1931.44
209.766	1993.92
210.232	1976.62
210.697	2436.22
211.163	2993.6
211.628	4541.06
212.094	3824.38
212.559	4687.77
213.024	2904.06
213.49	3559.81
213.955	3485.89
214.42	3379.45
214.885	3133.49
215.35	3005.67
215.815	2875.89
216.28	3044.62
216.745	2462.94
217.21	2630.12
217.675	2385.07
218.14	2661.67
218.604	2918.45
219.069	3262.22
219.534	3374.35
219.998	3881.28
220.463	4647.92
220.927	5674.45
221.392	5292.31
221.856	5329.4
222.32	6664.99
222.785	8197.08
223.249	10272.78
223.713	11429.84
224.177	11407.75
224.642	14572.9
225.106	17892.74
225.57	19509.04
226.034	14491.83
226.497	22075.88
226.961	19897.44
227.425	23146.89
227.889	25635.37
228.353	25582.89
228.816	52720.25
229.28	50386.42
229.744	42502.37
230.207	25792.56
230.671	25332.8
231.134	41798.85
231.597	48072.1
232.061	47949.1
232.524	46734.27
232.987	32151.04
233.45	28923.04
233.914	25925.85
234.377	26527.79
234.84	24244.33
235.303	28546.86
235.766	31863.93
236.229	32925.31
236.691	20715.41
237.154	23254.67
237.617	17473.5
238.08	17903.8
238.542	20940.14
239.005	14968.58
239.468	14864.7
239.93	14001.58
240.393	12721.71
240.855	11147.81
241.317	11405.8
241.78	13880.12
242.242	14355.88
242.704	15502.77
243.166	13488.05
243.629	12253.98
244.091	14123.43
244.553	15442.11
245.015	16591.42
245.477	21433.08
245.939	31372.65
246.4	33223.77
246.862	32253.04
247.324	30362.79
247.786	33906.29
248.247	44397.53
248.709	45672.48
249.17	34088.71
249.632	32155.07
250.093	37268.79
250.555	32167.5
251.016	19594.8
251.477	18594.51
251.939	20039.05
252.4	21013.24
252.861	24987.84
253.322	23232.31
253.783	27634.6
254.244	35799.84
254.705	28148.85
255.166	24977.23
255.627	24572.02
256.088	34675.67
256.549	36772.27
257.009	31679.51
257.47	38372.64
257.931	31228.12
258.391	23367.11
258.852	24072.67
259.312	25234.21
259.773	31137.28
260.233	26311.21
260.694	22168.21
261.154	25092.61
261.614	20142.11
262.074	17980.83
262.534	18670.66
262.994	17557.94
263.455	23356.48
263.915	19652.3
264.374	18456.07
264.834	20128.7
265.294	22261.99
265.754	23031.75
266.214	21814.48
266.673	20426.86
267.133	25735.04
267.593	25496.9
268.052	31178.7
268.512	27071.84
268.971	32655.02
269.431	35813.4
269.89	32063.59
270.349	48093.12
270.809	53649.9
271.268	48165.07
271.727	107924.45
272.186	69867.59
272.645	52382.46
273.104	37772.15
273.563	54706.39
274.022	42946.78
274.481	36564.14
274.94	28186.77
275.399	20942.38
275.857	24369.13
276.316	32947.86
276.775	29306.46
277.233	28837.14
277.692	27034.2
278.15	30630.29
278.609	31517.96
279.067	29241.17
279.525	27160.96
279.984	35086.25
280.442	42158.79
280.9	41618.21
281.358	27403.79
281.816	25549.08
282.274	25095.81
282.732	25905.36
283.19	26022.28
283.648	22506.61
284.106	23940.02
284.564	24346.95
285.021	22582.24
285.479	16837.55
285.937	15307.96
286.394	13446.14
286.852	13860.33
287.309	14561.22
287.767	14090.43
288.224	13416.94
288.682	14705.88
289.139	16154.66
289.596	14774.96
290.053	15343.22
290.511	19374.43
290.968	23499.25
291.425	31853.98
291.882	26458.86
292.339	22996.26
292.796	22775.01
293.252	21420.61
293.709	17019.72
294.166	15239.08
294.623	16844.66
295.079	16166.77
295.536	16238.81
295.992	14719.83
296.449	14558.31
296.905	15142.12
297.362	14520.09
297.818	15269.45
298.274	15839.7
298.731	16121.65
299.187	15977.98
299.643	17167.61
300.099	20762.3
300.555	22715.04
301.011	19009.43
301.467	18342.9
301.923	21458.03
302.379	20968.85
302.835	20583.69
303.291	20611.17
303.746	23457.27
304.202	29608.2
304.658	29707.07
305.113	19977.48
305.569	19616.63
306.024	20880.38
306.479	19870
306.935	16776.92
307.39	18321.19
307.845	16966.83
308.301	17087.78
308.756	16682.95
309.211	16088.37
309.666	16506.3
310.121	20504.83
310.576	20817.78
311.031	20706.13
311.486	23709.25
311.94	23687.8
312.395	31698.18
312.85	59524.18
313.305	292470.73
313.759	1515945.32
314.214	109838.33
314.668	87054
315.123	73310.12
315.577	26364.41
316.032	23465.01
316.486	29398.3
316.94	23232.4
317.394	16185
317.849	12594.17
318.303	11930.27
318.757	11248.96
319.211	12439.09
319.665	10901.27
320.119	11017.78
320.572	15758.36
321.026	14694.61
321.48	12240.84
321.934	13322.58
322.387	13348.79
322.841	14378.79
323.295	12917.82
323.748	14854.42
324.202	15077.34
324.655	18102.2
325.108	25300.38
325.562	17879.03
326.015	21263.3
326.468	16054.11
326.921	17938.33
327.374	16723.85
327.827	17451.63
328.28	19780.44
328.733	13287.84
329.186	11691.84
329.639	11124.3
330.092	9380.45
330.545	8928.97
330.997	9012.98
331.45	9869.54
331.903	11602.22
332.355	19966.05
332.808	19409.06
333.26	16020.9
333.713	17382.81
334.165	17508.04
334.617	23378.76
335.069	18907.96
335.522	34221.63
335.974	37862.07
336.426	34568.26
336.878	23933.84
337.33	12154.63
337.782	11883.33
338.234	14911.9
338.686	17851.98
339.137	21168.94
339.589	20004.85
340.041	15699.13
340.493	13505.68
340.944	13836.16
341.396	14914.62
341.847	12548.92
342.299	14784.81
342.75	18041.38
343.201	15747.61
343.653	18064.51
344.104	22150.84
344.555	17391.99
345.006	27027.38
345.457	20684.34
345.908	16462.29
346.359	15458.01
346.81	12581.78
347.261	13275.71
347.712	13034.73
348.163	13919.04
348.613	14118.1
349.064	13185.68
349.515	11557.75
349.965	11843.63
350.416	14262.14
350.866	15623.21
351.317	17700.41
351.767	29244.6
352.217	36923.9
352.668	30765.12
353.118	28281.55
353.568	27234.55
354.018	21579.19
354.468	22752.88
354.918	16341.25
355.368	14324.32
355.818	20237.71
356.268	58132.37
356.718	243962.78
357.168	60712.46
357.617	30460.92
358.067	33855.32
358.517	31748.23
358.966	37250.96
359.416	41844.73
359.865	45258.86
360.315	53819.17
360.764	25168.39
361.213	14129.84
361.663	13378.11
362.112	16548.76
362.561	26775.74
363.01	20223.19
363.459	17054.43
363.908	18436.99
364.357	15655.46
364.806	26398.67
365.255	18196.77
365.703	16687.56
366.152	16706.63
366.601	13547.73
367.05	11018.57
367.498	10006.2
367.947	10478.29
368.395	10900.75
368.844	9681.95
369.292	11677.06
369.74	8102.27
370.189	12432.02
370.637	14604.13
371.085	12651.48
371.533	15504.03
371.981	14961.58
372.429	14332.11
372.877	14945.04
373.325	12564.49
373.773	12839.98
374.221	11475.51
374.669	14279.33
375.116	12372.31
375.564	12504.33
376.012	14045.18
376.459	11611.74
376.907	13925.43
377.354	16881.99
377.801	15875.05
378.249	18316.52
378.696	23533.06
379.143	28669.63
379.591	30693.37
380.038	52191.28
380.485	37917.65
380.932	41040.18
381.379	37689.74
381.826	27945.09
382.273	19954.18
382.72	17464.98
383.166	17124.23
383.613	11159.45
384.06	10079.44
384.506	11707.3
384.953	8646.8
385.4	8752.19
385.846	7705.95
386.292	7547.63
386.739	7400.43
387.185	7340.92
387.631	7390.55
388.078	7209.32
388.524	7742.64
388.97	7194.76
389.416	6030.44
389.862	6433.69
390.308	6115.65
390.754	6247.73
391.2	6824.71
391.645	7032.82
392.091	6770.83
392.537	6554.54
392.983	6586.78
393.428	6512.36
393.874	7004.49
394.319	7060.67
394.765	6719.52
395.21	6923.65
395.655	6502.31
396.101	6089.88
396.546	5509.98
396.991	5567.33
397.436	5191.52
397.881	5009.78
398.326	4739.5
398.771	4486.91
399.216	3922.6
399.661	3534.79
400.106	3529.59
400.551	3613.71
400.995	3237.94
401.44	3193.71
401.885	2994.32
402.329	3015.03
402.774	2892.93
403.218	2797.47
403.663	2692.16
404.107	2761.09
404.551	2778.5
404.995	2541.62
405.44	2444.73
405.884	2476.52
406.328	2396.38
406.772	2387.55
407.216	2173.68
407.66	2097.46
408.104	1988.94
408.547	1857.87
408.991	1798.42
409.435	1725.78
409.879	1699.49
410.322	1674.06
410.766	1617.71
411.209	1533.3
411.653	1471.38
412.096	1439.31
412.54	1438.62
412.983	1426.28
413.426	1428.64
413.869	1424.59
414.312	1398.21
414.756	1347.9
415.199	1289.14
415.642	1250.98
416.085	1255.66
416.527	1243.91
416.97	1261.19
417.413	1195.32
417.856	1182.33
418.298	1169.4
418.741	1160.07
419.184	1155.96
419.626	1199.46
420.069	1196.1
420.511	1201.25
420.953	1172.8
421.396	1162.48
421.838	1132.52
422.28	1157.48
422.722	1166
423.164	1180.57
423.606	1162.39
424.048	1158.72
424.49	1104.36
424.932	1098.34
425.374	1080.9
425.816	1098.72
426.258	1117.34
426.699	1131.55
427.141	1114.76
427.582	1128.39
428.024	1125.89
428.465	1117.68
428.907	1090.6
429.348	1075.98
429.789	1075.18
430.231	1052.83
430.672	1067.02
431.113	1043.21
431.554	1024.72
431.995	1000.59
432.436	967.26
432.877	945.19
433.318	929.27
433.759	927.75
434.2	928.64
434.64	918.88
435.081	923.51
435.522	876.49
435.962	846.49
436.403	832.26
436.843	845.23
437.284	825.44
437.724	803.85
438.164	806.6
438.604	787.02
439.045	758.1
439.485	728.86
439.925	713.12
440.365	694.51
440.805	685.33
441.245	675.29
441.685	650.73
442.125	648.23
442.564	653.26
443.004	640.76
443.444	641.35
443.883	644.27
444.323	640.49
444.762	642.46
445.202	651.87
445.641	664.7
446.081	663.48
446.52	669.93
446.959	664.32
447.398	651.04
447.837	643.89
448.276	633.97
448.716	641.26
449.154	647.4
449.593	634.42
450.032	635.01
450.471	624.38
450.91	626.98
451.349	627.04
451.787	625.7
452.226	634.9
452.664	634.87
453.103	636.06
453.541	634.82
453.98	634.83
454.418	640.14
454.856	630.13
455.295	629.75
455.733	633.57
456.171	636.2
456.609	638.27
457.047	637.54
457.485	648.87
457.923	650.42
458.361	641.87
458.798	643.08
459.236	640.02
459.674	644.69
460.111	647.01
460.549	641.02
460.987	638.65
461.424	634.7
461.862	631.5
462.299	620.29
462.736	619.43
463.173	621.12
463.611	615.67
464.048	614.61
464.485	618.96
464.922	613.19
465.359	609.84
465.796	603.83
466.233	599.97
466.67	594.86
467.106	595.55
467.543	590.33
467.98	582.38
468.416	567.3
468.853	562.25
469.29	545.41
469.726	539.09
470.162	525.14
470.599	517.58
471.035	512.97
471.471	501
471.907	495.98
472.344	492.34
472.78	494.81
473.216	500.31
473.652	494.7
474.088	492.89
474.523	492.21
474.959	496.32
475.395	490.9
475.831	487.81
476.266	490.38
476.702	488.89
477.138	483.03
477.573	481.27
478.008	479.2
478.444	481.72
478.879	487.09
479.314	488.71
479.75	488.61
480.185	490.68
480.62	494.4
481.055	496.45
481.49	500.34
481.925	508.21
482.36	516.45
482.795	530.63
483.229	544.25
483.664	556.11
484.099	558.49
484.534	566.91
484.968	573.82
485.403	575.74
485.837	575.16
486.271	575.14
486.706	576.29
487.14	571.09
487.574	562.98
488.009	558.85
488.443	554.03
488.877	560.51
489.311	563.78
489.745	571.39
490.179	578.82
490.613	591.79
491.046	597.68
491.48	603.9
491.914	606.14
492.348	612.63
492.781	618.48
493.215	621.47
493.648	624.71
494.082	631.28
494.515	633.35
494.948	642.31
495.382	648.25
495.815	655.06
496.248	662.46
496.681	677.63
497.114	691.27
497.547	703.18
497.98	719.92
498.413	729.27
498.846	742.39
499.279	754.88
499.711	763.43
500.144	770.21
500.577	785.15
501.009	800.91
501.442	815.07
501.874	822.5
502.306	830.1
502.739	841.74
503.171	862.18
503.603	871.04
504.036	885.77
504.468	897.29
504.9	915.57
505.332	928.15
505.764	938.52
506.196	951.22
506.627	970.52
507.059	990.94
507.491	1007.15
507.923	1011.4
508.354	1033.74
508.786	1051.49
509.217	1076.74
509.649	1099.08
510.08	1125.88
510.512	1149.55
510.943	1172.49
511.374	1192.16
511.805	1220.54
512.237	1248.23
512.668	1291.26
513.099	1328.76
513.53	1366.55
513.961	1395.63
514.391	1436.81
514.822	1480.4
515.253	1529.35
515.684	1564.44
516.114	1603.29
516.545	1633.58
516.975	1669.48
517.406	1695.15
517.836	1702.18
518.267	1713.33
518.697	1738.95
519.127	1747.98
519.558	1761.87
519.988	1767.35
520.418	1783.33
520.848	1809.43
521.278	1823.25
521.708	1827.82
522.138	1846.03
522.567	1887.06
522.997	1920.77
523.427	1943.53
523.857	1967.81
524.286	1982
524.716	2004.24
525.145	2028.59
525.575	2044.06
526.004	2065.33
526.433	2079.64
526.863	2081.85
527.292	2070.46
527.721	2079.36
528.15	2088.14
528.579	2090.87
529.008	2106.59
529.437	2136.7
529.866	2156.48
530.295	2178.44
530.724	2193.54
531.152	2228.3
531.581	2247.2
532.01	2271.65
532.438	2284.1
532.867	2303.46
533.295	2328.44
533.723	2337.24
534.152	2336.46
534.58	2336.81
535.008	2318.69
535.436	2322.54
535.865	2335.24
536.293	2354.91
536.721	2375.46
537.149	2408.44
537.576	2412.64
538.004	2430.28
538.432	2441.15
538.86	2438.81
539.287	2449.7
539.715	2469.49
540.143	2475.89
540.57	2471.4
540.998	2468.5
541.425	2440.03
541.852	2414.52
542.28	2413.13
542.707	2391.94
543.134	2375.98
543.561	2372.61
543.988	2364.06
544.415	2363.63
544.842	2355.47
545.269	2346.09
545.696	2347.89
546.123	2364.61
546.549	2350.71
546.976	2334.46
547.403	2334.3
547.829	2336.3
548.256	2339.05
548.682	2334.13
549.108	2323.93
549.535	2324.98
549.961	2328.52
550.387	2311.36
550.813	2304.92
551.24	2313.68
551.666	2315.96
552.092	2303.64
552.518	2294.53
552.943	2286.36
553.369	2297.08
553.795	2303.39
554.221	2303.91
554.646	2299.55
555.072	2313.29
555.498	2319.06
555.923	2330.49
556.349	2349.79
556.774	2361.08
557.199	2364.44
557.625	2371.58
558.05	2362.17
558.475	2376.31
558.9	2375.52
559.325	2364.4
559.75	2355.6
560.175	2348.24
560.6	2339.44
561.025	2336.09
561.449	2336.1
561.874	2341.94
562.299	2347.37
562.723	2357.23
563.148	2344.16
563.572	2348.35
563.997	2360.86
564.421	2368.75
564.846	2369.16
565.27	2374.9
565.694	2372.14
566.118	2387.38
566.542	2397.61
566.966	2389.78
567.39	2383.07
567.814	2369.18
568.238	2368.18
568.662	2376.12
569.086	2379.59
569.509	2387.55
569.933	2366.42
570.357	2356.09
570.78	2329.06
571.204	2311.13
571.627	2296.61
572.05	2294.76
572.474	2293.72
572.897	2277.62
573.32	2266.13
573.743	2252.75
574.166	2228.7
574.589	2229.64
575.012	2220.76
575.435	2219.49
575.858	2208.05
576.281	2193.56
576.704	2172.41
577.126	2158.38
577.549	2143.6
577.972	2130.38
578.394	2116.67
578.817	2108.04
579.239	2082.31
579.661	2063.42
580.084	2041.79
580.506	2022.72
580.928	2017.53
581.35	2001.8
581.772	1993.44
582.194	1975.34
582.616	1958.32
583.038	1939.67
583.46	1925.24
583.882	1920.99
584.303	1925.5
584.725	1919.44
585.147	1920.57
585.568	1933.07
585.99	1948.75
586.411	1955.81
586.833	1973.65
587.254	1975.05
587.675	1992.83
588.096	2008.41
588.518	2001.91
588.939	1980.17
589.36	1976.38
589.781	1963.74
590.202	1925.87
590.623	1913.39
591.043	1910.69
591.464	1895.15
591.885	1890.8
592.305	1883.05
592.726	1864.99
593.147	1865.23
593.567	1857.81
593.987	1848.19
594.408	1840.53
594.828	1839.07
595.248	1832.22
595.669	1807.88
596.089	1797.48
596.509	1788.64
596.929	1770.79
597.349	1771.28
597.769	1758.9
598.189	1751.61
598.608	1752.68
599.028	1756.17
599.448	1755.13
599.867	1737.54
600.287	1731.94
600.706	1726.52
601.126	1713.38
601.545	1711.18
601.965	1708.51
602.384	1700.55
602.803	1704.17
603.222	1698.4
603.641	1689.46
604.061	1684.47
604.48	1678.54
604.898	1688.17
605.317	1694.05
605.736	1695.43
606.155	1691.29
606.574	1679.9
606.992	1686.47
607.411	1678.5
607.829	1667.48
608.248	1662.82
608.666	1659.21
609.085	1659.21
609.503	1648.26
609.921	1640.41
610.339	1643.45
610.758	1641.75
611.176	1635.47
611.594	1622.81
612.012	1617.99
612.43	1622
612.847	1629.32
613.265	1630.31
613.683	1634.99
614.101	1636.39
614.518	1630.02
614.936	1617.2
615.353	1599.51
615.771	1593.92
616.188	1594.25
616.606	1589.57
617.023	1578.98
617.44	1560.19
617.857	1551.46
618.274	1540.24
618.691	1531.48
619.108	1519.85
619.525	1511.83
619.942	1518.47
620.359	1522.77
620.776	1516.45
621.192	1511.3
621.609	1508.56
622.026	1516.15
622.442	1522.05
622.859	1526.42
623.275	1517.89
623.691	1524.64
624.108	1537.32
624.524	1554.08
624.94	1553.92
625.356	1564.89
625.772	1580.4
626.188	1593.26
626.604	1595.39
627.02	1590.49
627.436	1587.04
627.852	1594
628.268	1608.15
628.683	1597.42
629.099	1587.48
629.514	1580.48
629.93	1585.22
630.345	1590.08
630.761	1587.06
631.176	1591.46
631.591	1582.95
632.007	1574.56
632.422	1571
632.837	1556.56
633.252	1552.25
633.667	1537.75
634.082	1524.87
634.497	1505.85
634.911	1479.83
635.326	1471.04
635.741	1446.88
636.155	1432.66
636.57	1430.32
636.984	1427.28
637.399	1424.84
637.813	1419.97
638.228	1415
638.642	1415.99
639.056	1400.99
639.47	1396.34
639.884	1382.39
640.298	1370.56
640.712	1363.7
641.126	1345.05
641.54	1328.91
641.954	1318.59
642.368	1300.05
642.781	1285.22
643.195	1259.86
643.609	1254.87
644.022	1243.38
644.436	1234.33
644.849	1216.2
645.262	1198.4
645.676	1195.73
646.089	1187.07
646.502	1165.44
646.915	1155.59
647.328	1133.33
647.741	1127.84
648.154	1109.85
648.567	1103.4
648.98	1086.54
649.393	1084.24
649.805	1078.5
650.218	1067.52
650.631	1048.32
651.043	1040.09
651.456	1032.98
651.868	1033.34
652.28	1049.9
652.693	1063.19
653.105	1068.47
653.517	1077.65
653.929	1077.27
654.341	1080.63
654.753	1066.4
655.165	1071.35
655.577	1067.48
655.989	1059.09
656.401	1047.87
656.813	1008.79
657.224	986.02
657.636	953.99
658.047	932.36
658.459	908.69
658.87	896.44
659.282	881.52
659.693	858.02
660.104	840.37
660.515	823.2
660.926	818.24
661.338	809.85
661.749	799.51
662.159	787.13
662.57	778.11
662.981	769.37
663.392	759.06
663.803	759.21
664.213	753.06
664.624	743.99
665.035	743.96
665.445	726.71
665.855	718.32
666.266	708.28
666.676	703.09
667.086	692.06
667.497	688.73
667.907	680.79
668.317	670.37
668.727	665.75
669.137	664.92
669.547	660.16
669.956	661.4
670.366	661.06
670.776	661.81
671.186	664.6
671.595	667.56
672.005	669.62
672.414	668.68
672.824	667.11
673.233	669.93
673.642	672.14
674.052	676.18
674.461	678.48
674.87	682.74
675.279	680.52
675.688	682.33
676.097	683.44
676.506	681.43
676.915	695.08
677.323	698.41
677.732	698.44
678.141	699.09
678.549	690.23
678.958	690.99
679.366	693.22
679.775	700.06
680.183	713.19
680.592	722.48
681	731.03
681.408	728.76
681.816	740.62
682.224	753.67
682.632	769.78
683.04	804.35
683.448	834.84
683.856	871.36
684.264	914.6
684.671	953.79
685.079	1002.76
685.487	1060.76
685.894	1136.08
686.302	1202.68
686.709	1260.59
687.116	1327.75
687.524	1386.84
687.931	1440.79
688.338	1490.25
688.745	1533.6
689.152	1583.34
689.559	1646.65
689.966	1707.54
690.373	1746.1
690.78	1805.26
691.187	1891.39
691.593	1958.56
692	2019.49
692.407	2104.71
692.813	2206.8
693.22	2289.79
693.626	2375.65
694.032	2444.37
694.439	2545.85
694.845	2626.6
695.251	2726.79
695.657	2817.09
696.063	2946.97
696.469	3046.88
696.875	3136.56
697.281	3190.33
697.687	3254.25
698.093	3307.46
698.498	3409.72
698.904	3489.46
699.31	3602.32
699.715	3684.67
700.12	3802.25
700.526	3828.73
700.931	3919.17
701.337	3988.26
701.742	4029.34
702.147	4141.15
702.552	4182.75
702.957	4259.18
703.362	4284.67
703.767	4321.75
704.172	4374.13
704.577	4312.09
704.981	4372.72
705.386	4392.51
705.791	4381.53
706.195	4479.56
706.6	4488.06
707.004	4590.35
707.408	4549.62
707.813	4581.3
708.217	4565.56
708.621	4568.52
709.025	4694.49
709.43	4694.83
709.834	4771.37
710.237	4859.6
710.641	4839.88
711.045	4867.37
711.449	4855.92
711.853	4888.97
712.256	4942.45
712.66	4990.12
713.064	5083.21
713.467	5136.06
713.87	5275.67
714.274	5332.66
714.677	5474.05
715.08	5676.77
715.484	5892.23
715.887	6150.48
716.29	6409.93
716.693	6675.55
717.096	6980.72
717.499	7146.46
717.901	7175.64
718.304	7209.58
718.707	7238.94
719.109	7104.41
719.512	7064.23
719.915	6885.67
720.317	6813.47
720.719	6864.77
721.122	6825.84
721.524	6759.05
721.926	6700.53
722.328	6824.68
722.731	6811.55
723.133	6847.05
723.535	7090.23
723.937	7112.53
724.338	7178.59
724.74	7227.32
725.142	7122.43
725.544	7115.98
725.945	7142.79
726.347	7136.95
726.748	7126.79
727.15	7141.75
727.551	7088.29
727.952	7051.7
728.354	7014.82
728.755	7012.73
729.156	6959.45
729.557	6960.81
729.958	6802.72
730.359	6737.39
730.76	6716.36
731.161	6640.16
731.562	6606.62
731.962	6612.58
732.363	6529.01
732.763	6445.07
733.164	6490.94
733.564	6402.83
733.965	6282.29
734.365	6241.29
734.766	6275.33
735.166	6223.67
735.566	6153.94
735.966	6122.94
736.366	6114.36
736.766	6036.36
737.166	6074.67
737.566	6021.22
737.966	5988.16
738.365	6037.82
738.765	6026.47
739.165	5929.24
739.564	5893.83
739.964	5949.22
740.363	5887.85
740.763	5885.35
741.162	5869.82
741.561	5831.62
741.96	5772.19
742.36	5798.2
742.759	5803.42
743.158	5855.05
743.557	5876.36
743.955	5927.53
744.354	5869.19
744.753	5942.4
745.152	5887.7
745.55	5958.99
745.949	5950.17
746.348	5952.21
746.746	5973.26
747.144	5919.38
747.543	5890.63
747.941	5949.9
748.339	5861.1
748.737	5852.71
749.136	5839.82
749.534	5922.05
749.932	5885.51
750.33	5915.72
750.727	5986.55
751.125	5954.45
751.523	5936.45
751.921	5988.21
752.318	5946.83
752.716	6021.14
753.113	6036.4
753.511	6069.35
753.908	6067.59
754.305	6044.67
754.703	6118.47
755.1	6192.55
755.497	6267.54
755.894	6508.38
756.291	6732.81
756.688	7144.82
757.085	7694.89
757.482	8470.03
757.878	9316.67
758.275	10080.23
758.672	11133.67
759.068	11993.08
759.465	13215.56
759.861	14799.23
760.258	16623.06
760.654	17568.34
761.05	17427.51
761.447	16626.84
761.843	15484.29
762.239	14298.71
762.635	13765.77
763.031	13252.38
763.427	12513.89
763.822	11737.32
764.218	10963.47
764.614	9962.68
765.01	9292.39
765.405	8858.44
765.801	8536.47
766.196	8111.96
766.592	7875.03
766.987	7481.51
767.382	7213.76
767.778	7102.15
768.173	6938.26
768.568	6846.55
768.963	6691.97
769.358	6715.25
769.753	6658.12
770.148	6549.15
770.542	6549.66
770.937	6512.48
771.332	6624.56
771.726	6649.22
772.121	6568.94
772.515	6637.5
772.91	6619.8
773.304	6710
773.699	6630.83
774.093	6697.81
774.487	6768.4
774.881	6823.63
775.275	6816.66
775.669	6768.45
776.063	6824.26
776.457	6872.53
776.851	6779.57
777.245	6771.15
777.638	6812.97
778.032	6953.29
778.425	6907.38
778.819	6958.41
779.212	6902.47
779.606	6853.08
779.999	6878.5
780.392	6858.63
780.786	6960.37
781.179	6984.59
781.572	7036.5
781.965	7049.48
782.358	6981.45
782.751	7053.32
783.143	6995.86
783.536	7087.87
783.929	7139.04
784.322	7282.49
784.714	7318.62
785.107	7314.85
785.499	7407.14
785.891	7379.25
786.284	7355.53
786.676	7531.81
787.068	7504.64
787.46	7568.93
787.852	7597.06
788.245	7705.68
788.636	7742.65
789.028	7826.04
789.42	7871.92
789.812	7879.94
790.204	7997.77
790.595	8123.67
790.987	7875.33
791.378	7907.55
791.77	8068.43
792.161	8234.34
792.553	8303.38
792.944	8161.45
793.335	8078.27
793.726	8166.24
794.117	8278.82
794.508	8453.84
794.899	8413.15
795.29	8588.86
795.681	8659.8
796.072	8482.64
796.463	8244.86
796.853	8256.25
797.244	8450.94
797.634	8493.5
798.025	8494.79
798.415	8509.42
798.806	8618.81
799.196	8726.44
799.586	8790.89
799.976	8741.53
800.366	9031.96
800.756	9338.46
801.146	9291.47
801.536	9328.37
801.926	9418.73
802.316	9454.61
802.706	9549.41
803.095	9396.65
803.485	9523.09
803.874	9577.21
804.264	9902.31
804.653	9865.03
805.043	10049.49
805.432	10186.26
805.821	10189.03
806.21	10220.63
806.599	10368.05
806.988	10423.44
807.377	10562.55
807.766	10724.68
808.155	11078.33
808.544	10747.95
808.933	10765.01
809.321	10738.32
809.71	11108.37
810.098	11303.11
810.487	11874.82
810.875	12476.18
811.264	12505.83
811.652	12856.75
812.04	13044.8
812.428	13243.2
812.816	14199.01
813.204	14720.51
813.592	15410.25
813.98	15828
814.368	15708.51
814.756	16305.17
815.144	16202.56
815.531	16777.66
815.919	16690.69
816.306	17065.88
816.694	16682.79
817.081	16753.58
817.469	17183.29
817.856	17185.74
818.243	17520.9
818.63	18024.44
819.017	17504.84
819.404	17578.55
819.791	18058.72
820.178	18823.21
820.565	19140.48
820.952	20299.97
821.339	19670.95
821.725	19909.59
822.112	18969.27
822.498	18924.59
822.885	19077.79
823.271	18955.82
823.657	19478.89
824.044	19481.22
824.43	19570.78
824.816	19515.9
825.202	18969.48
825.588	20239.83
825.974	20255.86
826.36	20905.41
826.746	20938.55
827.132	21389.72
827.517	21354.13
827.903	20375.62
828.289	20420.1
828.674	19455.47
829.06	19333.59
829.445	19838.01
829.83	20291.04
830.216	20883.29
830.601	21329.92
830.986	20825.23
831.371	20652.31
831.756	21349.84
832.141	20814.8
832.526	20811.95
832.911	21165.6
833.295	21033.72
833.68	21609.2
834.065	20830.21
834.449	19693.94
834.834	19607.8
835.218	19601.91
835.603	20018.23
835.987	19754.32
836.371	20798.58
836.755	20660.14
837.139	21161.01
837.524	21461.26
837.908	21248.88
838.291	21323.24
838.675	21408.56
839.059	21668.26
839.443	21660.5
839.827	21381.87
840.21	21983.43
840.594	21801.02
840.977	22073.55
841.361	22050.14
841.744	22506.26
842.127	22305.89
842.511	22617.32
842.894	23366.95
843.277	23849.63
843.66	24522.65
844.043	24627.13
844.426	23620.79
844.809	23225.17
845.191	23255.39
845.574	22684.31
845.957	22232.1
846.339	22097.72
846.722	21443.25
847.104	21530.07
847.487	21308.74
847.869	21320.81
848.252	21665.61
848.634	22083.53
849.016	22420.96
849.398	22576.65
849.78	23636.13
850.162	23648.43
850.544	24175.05
850.926	24959.27
851.307	24850.41
851.689	25206.79
852.071	25776.52
852.452	26182.27
852.834	26153.19
853.215	26636.12
853.597	26839.65
853.978	27197.15
854.359	27754.19
854.741	26512.25
855.122	26387.98
855.503	26024.73
855.884	26190.17
856.265	26114.15
856.646	26262.99
857.026	25783.52
857.407	25695.94
857.788	25888.88
858.169	26258.52
858.549	25204.2
858.93	25973.12
859.31	26036.9
859.69	26293.51
860.071	25781.57
860.451	25500.56
860.831	24578.84
861.211	26005.82
861.591	26702.6
861.971	26676.02
862.351	26903.72
862.731	27380.32
863.111	27714.67
863.491	28114.98
863.87	29212.8
864.25	29652.45
864.629	29152.82
865.009	29781.81
865.388	30846.9
865.768	33049.56
866.147	32895.77
866.526	31074.71
866.905	31449.05
867.284	33207.93
867.663	31532.39
868.042	30218.66
868.421	30122.8
868.8	30625.56
869.179	30929.58
869.558	29117.76
869.936	26832.36
870.315	27313.98
870.693	27976.49
871.072	30158.94
871.45	28730.46
871.828	29102.16
872.207	30588.48
872.585	30114.53
872.963	30935.4
873.341	29864.16
873.719	29508.39
874.097	29160.98
874.475	29717.49
874.853	30407.2
875.23	29149.15
875.608	30370.34
875.986	32839.9
876.363	31416.37
876.741	32380.07
877.118	31577.57
877.495	33127.75
877.873	33692.54
878.25	35444.84
878.627	34003.41
879.004	34462.3
879.381	34310.58
879.758	33413.34
880.135	31122.82
880.512	32898.62
880.889	32020.98
881.265	31683.11
881.642	31421.14
882.019	31959.51
882.395	31318.77
882.772	32549.22
883.148	31144.23
883.524	31010.02
883.901	30825.53
884.277	31290.55
884.653	31093.59
885.029	31999.36
885.405	35446.75
885.781	35176.1
886.157	33722.63
886.532	34134.14
886.908	34131.34
887.284	37956.75
887.659	39201.55
888.035	40431.88
888.411	41459.24
888.786	42007.03
889.161	43463.68
889.537	42675.9
889.912	44030.7
890.287	43971.23
890.662	45108.45
891.037	44295.24
891.412	41302.33
891.787	40885.28
892.162	39463.64
892.536	40399
892.911	38883.42
893.286	38054.31
893.66	36494.78
894.035	37431.54
894.409	40782.16
894.784	39144.89
895.158	39784.49
895.532	42150.48
895.906	43302.12
896.281	44308.35
896.655	43586.62
897.029	49811.19
897.402	51872.52
897.776	57759.34
898.15	57563.25
898.524	56926.89
898.898	57684.99
899.271	64600.02
899.645	55953.82
900.018	53762.04
900.392	55743.09
900.765	56200.6
901.138	51994.94
901.511	51220.71
901.884	47018.66
902.258	43364.56
902.631	44810.23
903.003	51563.37
903.376	46522.72
903.749	52144.72
904.122	55817.27
904.495	61475.08
904.867	62256.17
905.24	54045.15
905.612	50296.54
905.985	51469.08
906.357	53849.57
906.729	51402.49
907.102	43904.22
907.474	42225.16
907.846	42511.05
908.218	41928.19
908.59	37037.46
908.962	35825.26
909.334	38596.62
909.705	40558.96
910.077	39368.13
910.449	40958.38
910.82	42101.93
911.192	46340.12
911.563	48147.65
911.935	51523.29
912.306	51625.55
912.677	53315.82
913.048	52781.2
913.419	57255.38
913.79	57554.43
914.161	61722.37
914.532	59002.19
914.903	54206.59
915.274	51436.68
915.645	50688.07
916.015	44610.57
916.386	42510.64
916.756	45248.67
917.127	46667.25
917.497	41696.42
917.868	45404.27
918.238	43122.95
918.608	44350.03
918.978	45264.92
919.348	47945.25
919.718	49519.29
920.088	47671.7
920.458	49506.9
920.828	52091.32
921.198	49372.86
921.567	52740.6
921.937	40843.44
922.306	41239.93
922.676	44492.51
923.045	37128.44
923.415	35269.63
923.784	32117.33
924.153	33022.75
924.522	33009.72
924.891	31047.48
925.26	33265.87
925.629	32478.68
925.998	37320.85
926.367	36427.69
926.736	34663.77
927.104	41290.39
927.473	44393.27
927.842	53617.85
928.21	53103.87
928.578	55808.95
928.947	52761.66
929.315	53077.76
929.683	62253.13
930.051	62757.83
930.42	72854.27
930.788	62263.98
931.156	61796.28
931.523	57915.36
931.891	53518.13
932.259	51422.04
932.627	59592.72
932.994	84306.39
933.362	69669.22
933.729	60502.24
934.097	57933.25
934.464	49025.78
934.831	56591.91
935.199	55778.11
935.566	54083.52
935.933	54895.12
936.3	66486.36
936.667	51768.93
937.034	46676.3
937.401	46160.86
937.767	39788.47
938.134	35384.58
938.501	49946.77
938.867	53211.53
939.234	89905.5
939.6	76733.81
939.967	84258.53
940.333	56378.11
940.699	48011.15
941.065	38521.02
941.431	50501.51
941.798	48719.59
942.163	63990.24
942.529	39988.05
942.895	36853.05
943.261	23849.17
943.627	31305.18
943.992	27432.91
944.358	27483.2
944.723	27538.96
945.089	26853.69
945.454	24782.6
945.82	26461.07
946.185	25430.09
946.55	29446.7
946.915	26406.54
947.28	30951.51
947.645	27246.17
948.01	25138.95
948.375	26224.47
948.74	31472.97
949.104	36708.89
949.469	53100.4
949.834	93825.72
950.198	88972.04
950.562	53310.17
950.927	44357.78
951.291	53443.9
951.655	45523.28
952.02	42807.51
952.384	32355.2
952.748	28129.44
953.112	27435.53
953.476	23842.14
953.839	22068.34
954.203	21837.22
954.567	27316.02
954.931	43108.97
955.294	36864.89
955.658	37059.82
956.021	62990.6
956.385	106839.4
956.748	157857.97
957.111	244934.07
957.474	274946.96
957.837	309675.51
958.2	234342.93
958.563	84215.37
958.926	56885.9
959.289	86345.92
959.652	96544.68
960.015	72433.12
960.377	104019.64
960.74	118819.84
961.102	205208.95
961.465	220653.02
961.827	117985.67
962.189	226482.27
962.552	157096.68
962.914	126051.25
963.276	81831.61
963.638	67695.31
964	67083.56
964.362	45311.89
964.724	43769.83
965.085	31221.52
965.447	25592.85
965.809	29216.02
966.17	29258.03
966.532	31671.33
966.893	29056.41
967.255	26452.1
967.616	31196.26
967.977	24990.09
968.338	27303.55
968.699	22457.44
969.061	22457
969.421	22602.52
969.782	25341.57
970.143	21401.99
970.504	22163.03
970.865	25169.6
971.225	25711.77
971.586	25155.42
971.946	35859.41
972.307	31130.72
972.667	40697.77
973.027	41913.63
973.388	50789.84
973.748	34570.87
974.108	37666.23
974.468	50975.55
974.828	39320.75
975.188	30271.27
975.548	27817.24
975.907	23351.36
976.267	26192.77
976.627	22005.87
976.986	22807.26
977.346	21778.36
977.705	20962.06
978.064	19086.21
978.424	15896.5
978.783	16438.46
979.142	18759.44
979.501	17946.48
979.86	18956.62
980.219	18266.31
980.578	23518.17
980.937	26339.78
981.296	23441.57
981.654	24091.59
982.013	37551.75
982.371	48727.69
982.73	45526.49
983.088	51529.44
983.447	55051.52
983.805	78749.42
984.163	164787.75
984.521	183088.83
984.879	268420.14
985.237	-437053.22
985.595	421754.28
985.953	104726.04
986.311	60408.17
986.669	35030.99
987.026	30288.62
987.384	40773.63
987.741	42174.34
988.099	30085.7
988.456	23955.9
988.814	22407.77
989.171	19474.87
989.528	19198.41
989.885	20271.64
990.242	16045.56
990.599	20034.27
990.956	16370.46
991.313	11453.18
991.67	9394.43
992.027	9952.18
992.383	8853.86
992.74	7759.94
993.096	8131.75
993.453	8439.3
993.809	8744.56
994.165	11674.44
994.522	10672.81
994.878	11746.87
995.234	14730.73
995.59	14531.76
995.946	13780
996.302	15707.77
996.658	18178.27
997.013	20015.92
997.369	23714.43
997.725	30369.51
998.08	19630.36
998.436	30321.99
998.791	41865.48
999.147	41741.35
999.502	45516.6
999.857	33090.64
1000.212	54007.56
1000.567	76947.91
1000.922	44477.87
1001.277	28266.08
1001.632	20955.08
1001.987	27033.47
1002.342	19389.96
1002.696	15517.47
1003.051	12383.44
1003.406	15013.58
1003.76	14931.69
1004.114	14721.28
1004.469	12378.77
1004.823	10237.4
1005.177	11040.92
1005.531	8771.31
1005.885	7778.44
1006.239	8795.89
1006.593	11020.18
1006.947	14761.37
1007.301	11074.47
1007.655	12081.26
1008.008	8869.73
1008.362	9965.03
1008.715	14219.09
1009.069	12939.51
1009.422	19365.15
1009.776	38790.87
1010.129	25746.27
1010.482	21526.06
1010.835	18181.14
1011.188	37853.49
1011.541	35643.11
1011.894	-217960.85
1012.247	640262.27
1012.6	43541.47
1012.952	27431.96
1013.305	14178.11
1013.657	10223.68
1014.01	9652.84
1014.362	7969.2
1014.715	7057.23
1015.067	6131.23
1015.419	6007.34
1015.771	5306.88
1016.123	4723.58
1016.475	4849.35
1016.827	5165.32
1017.179	5548.99
1017.531	5598.35
1017.883	5727.92
1018.234	5514.36
1018.586	6978.82
1018.938	7381.47
1019.289	10148.94
1019.64	11631.7
1019.992	10840.63
1020.343	9958.57
1020.694	7838.85
1021.045	6911.6
1021.396	7883.97
1021.747	8431.36
1022.098	10143.91
1022.449	7361.28
1022.8	6844.44
1023.151	4762.27
1023.501	4222.57
1023.852	4586.66
1024.202	4738.23
1024.553	5238.86
1024.903	5113.96
1025.253	4374.88
1025.604	3943.63
1025.954	4891.29
1026.304	5961.36
1026.654	6955.26
1027.004	10234.01
1027.354	16594.52
1027.703	15685.46
1028.053	20684.97
1028.403	30075.72
1028.753	43909.05
1029.102	59797.9
1029.452	307333.48
1029.801	13267.35
1030.15	8587.79
1030.499	7293.56
897.758	2536.53
901.051	2487.76
904.343	2522.18
907.636	2524.89
910.928	2589.87
914.22	2500.75
917.511	2506.74
920.803	2567.23
924.094	2580.05
927.384	2566.72
930.675	2533.1
933.965	2489.2
937.255	2505.62
940.544	2472.05
943.834	2431.21
947.123	2369.47
950.411	2464.95
953.7	2440.04
956.988	2411.94
960.276	2353.51
963.563	2426.65
966.851	2425.06
970.138	2479.9
973.424	2472.31
976.711	2425.19
979.997	2533.38
983.283	2574.19
986.568	2486.75
989.853	2497.56
993.138	2525.15
996.423	2608.01
999.708	2548.3
1002.992	2605.73
1006.275	2462.48
1009.559	2495.55
1012.842	2605.66
1016.125	2543.1
1019.408	2523.22
1022.69	2604.93
1025.972	2625.41
1029.254	2600.75
1032.536	2540.92
1035.817	2566.9
1039.098	2516.08
1042.379	2636.7
1045.659	2645.81
1048.939	2584.79
1052.219	2599.73
1055.498	2607.92
1058.778	2595.29
1062.057	2580.2
1065.335	2602.53
1068.614	2619.06
1071.892	2605.24
1075.17	2677.33
1078.447	2667.1
1081.724	2661.4
1085.001	2696.49
1088.278	2673.28
1091.554	2684.49
1094.83	2680.74
1098.106	2708.16
1101.382	2749.61
1104.657	2752.66
1107.932	2746.79
1111.206	2713.26
1114.481	2674.33
1117.755	2675.7
1121.029	2657.89
1124.302	2712.57
1127.575	2669.74
1130.848	2658.21
1134.121	2624.01
1137.393	2575.57
1140.665	2639.14
1143.937	2618.98
1147.208	2575.94
1150.48	2620.17
1153.75	2606.78
1157.021	2629.65
1160.291	2604.83
1163.561	2651.5
1166.831	2635.83
1170.101	2667.06
1173.37	2637.45
1176.639	2585.28
1179.907	2641.88
1183.176	2651.58
1186.444	2656.49
1189.711	2684.79
1192.979	2701.21
1196.246	2652.18
1199.513	2669.67
1202.78	2670.18
1206.046	2677.85
1209.312	2703.83
1212.578	2728.62
1215.843	2683.47
1219.108	2656.24
1222.373	2679.47
1225.638	2644.72
1228.902	2630.82
1232.166	2595.12
1235.43	2578.37
1238.693	2598.04
1241.956	2594.24
1245.219	2639.52
1248.482	2625.84
1251.744	2617.99
1255.006	2762.9
1258.268	2716.36
1261.529	2662.63
1264.79	2666.32
1268.051	2772.63
1271.312	2784.19
1274.572	2753.35
1277.832	2744.42
1281.092	2730.27
1284.351	2710.09
1287.61	2691.68
1290.869	2610.34
1294.128	2591.44
1297.386	2672.18
1300.644	2661.44
1303.902	2672.83
1307.159	2534.4
1310.416	2587.95
1313.673	2612.4
1316.93	2600.8
1320.186	2641.39
1323.442	2683.01
1326.697	2676.63
1329.953	2661.13
1333.208	2686.01
1336.463	2665.63
1339.717	2606.87
1342.972	2736.4
1346.226	2710.73
1349.479	2647.32
1352.733	2619.8
1355.986	2637.9
1359.238	2614.75
1362.491	2615.69
1365.743	2618.44
1368.995	2613.06
1372.247	2626.97
1375.498	2651.08
1378.749	2671.09
1382	2623.54
1385.251	2673.49
1388.501	2633.59
1391.751	2621.89
1395	2588.99
1398.25	2621.2
1401.499	2632.46
1404.748	2564.55
1407.996	2547.62
1411.244	2533.13
1414.492	2515.41
1417.74	2493.56
1420.987	2502.74
1424.234	2556.62
1427.481	2532.07
1430.728	2592.77
1433.974	2566.41
1437.22	2575.42
1440.465	2574.78
1443.711	2549.57
1446.956	2581.61
1450.201	2566.04
1453.445	2612.9
1456.689	2590.64
1459.933	2603.73
1463.177	2640.34
1466.42	2611.55
1469.663	2592.46
1472.906	2592.94
1476.148	2656.59
1479.391	2634.15
1482.633	2601.13
1485.874	2612.79
1489.115	2603.89
1492.356	2607.25
1495.597	2583.06
1498.838	2584.01
1502.078	2557.01
1505.318	2512.57
1508.557	2554.48
1511.797	2541.41
1515.036	2594.17
1518.274	2584.62
1521.513	2555.08
1524.751	2574.16
1527.989	2590.62
1531.227	2607.45
1534.464	2606.93
1537.701	2619.77
1540.938	2637.45
1544.174	2590.13
1547.41	2587.18
1550.646	2624.91
1553.882	2669.33
1557.117	2721
1560.352	2735.99
1563.587	2693.57
1566.821	2655.21
1570.055	2685.49
1573.289	2661.31
1576.523	2734.85
1579.756	2743.98
1582.989	2764.42
1586.222	2724.76
1589.454	2756.56
1592.686	2736.46
1595.918	2763.49
1599.15	2754.62
1602.381	2822.92
1605.612	2785.3
1608.843	2882.09
1612.073	2794.94
1615.303	2780.08
1618.533	2773.15
1621.762	2771.3
1624.992	2760.21
1628.221	2749.86
1631.449	2735.53
1634.678	2785.42
1637.906	2739.28
1641.134	2778.8
1644.361	2738.08
1647.588	2724.29
1650.815	2741.04
1654.042	2716.94
1657.269	2749.77
1660.495	2704.47
1663.72	2720.31
1666.946	2685.61
1670.171	2636.5
1673.396	2612.26
1676.621	2597.52
1679.845	2610.41
1683.069	2628.5
1686.293	2669.24
1689.517	2644.03
1692.74	2580.74
1695.963	2606.97
1699.185	2629.6
1702.408	2602.3
1705.63	2641.87
1708.852	2653.93
1712.073	2625.66
1715.294	2616.31
1718.515	2675.07
1721.736	2624.72
1724.956	2612.77
1728.176	2635.58
1731.396	2661.49
1734.616	2646.57
1737.835	2676.51
1741.054	2653.26
1744.272	2645.27
1747.491	2675.45
1750.709	2722.93
1753.927	2636.86
1757.144	2677.84
1760.361	2725.23
1763.578	2713.98
1766.795	2657.47
1770.011	2657.38
1773.227	2695.2
1776.443	2731.25
1779.658	2780.41
1782.874	2718.76
1786.089	2699.9
1789.303	2701.68
1792.518	2705.39
1795.732	2692.41
1798.945	2703.75
1802.159	2749.91
1805.372	2661.78
1808.585	2649.42
1811.797	2649.98
1815.01	2687.48
1818.222	2697.68
1821.434	2674.07
1824.645	2729.97
1827.856	2718.48
1831.067	2753.25
1834.278	2705.35
1837.488	2685.86
1840.698	2829.33
1843.908	2756.02
1847.117	2719.97
1850.326	2617.76
1853.535	2709.62
1856.744	2726.27
1859.952	2640.73
1863.16	2644.81
1866.368	2661.14
1869.575	2762.36
1872.782	2650.85
1875.989	2587.56
1879.196	2660.64
1882.402	2649.89
1885.608	2687.53
1888.814	2598.35
1892.019	2496.76
1895.224	2547.96
1898.429	2523.75
1901.634	2503.67
1904.838	2482.87
1908.042	2528.8
1911.246	2536.96
1914.449	2476.97
1917.652	2471.52
1920.855	2452.61
1924.058	2496.75
1927.26	2536.19
1930.462	2563.24
1933.664	2590.01
1936.865	2530.31
1940.066	2538.2
1943.267	2487.22
1946.467	2499.21
1949.668	2524.47
1952.868	2592.05
1956.067	2573.87
1959.267	2506.65
1962.466	2532.39
1965.665	2517.66
1968.863	2514.93
1972.061	2525.37
1975.259	2522.99
1978.457	2602.21
1981.654	2561.82
1984.852	2562.44
1988.048	2501.19
1991.245	2500.74
1994.441	2585.71
1997.637	2563.76
2000.833	2544.42
2004.028	2581.04
2007.223	2639.67
2010.418	2619.01
2013.613	2575.58
2016.807	2551.45
2020.001	2560.88
2023.194	2596.73
2026.388	2574.88
2029.581	2521.05
2032.774	2573.76
2035.966	2581.82
2039.158	2518.19
2042.35	2542.11
2045.542	2470
2048.733	2568.67
2051.924	2585.72
2055.115	2605.99
2058.306	2555.66
2061.496	2614.02
2064.686	2676.94
2067.875	2587.91
2071.065	2598.22
2074.254	2622.53
2077.442	2574.86
2080.631	2664.17
2083.819	2564.07
2087.007	2547.98
2090.195	2522.85
2093.382	2554.97
2096.569	2535.77
2099.756	2490.08
2102.942	2523.15
2106.128	2531.24
2109.314	2521.94
2112.5	2491.86
2115.685	2463.6
2118.87	2473.73
2122.055	2537.66
2125.239	2507.97
2128.424	2485.63
2131.608	2576.26
2134.791	2561.25
2137.974	2612.13
2141.157	2596.85
2144.34	2553.6
2147.523	2563.62
2150.705	2580.83
2153.887	2558.24
2157.068	2513.68
2160.25	2509.6
2163.431	2541.58
2166.611	2494.65
2169.792	2510.11
2172.972	2409.41
2176.152	2481.36
2179.331	2514.19
2182.511	2501.13
2185.69	2529.53
2188.868	2524.05
2192.047	2574.77
2195.225	2570.85
2198.403	2520.62
2201.58	2512.87
2204.758	2505.25
2207.935	2586.93
2211.111	2481.95
2214.288	2468.21
2217.464	2504.64
2220.64	2470.42
2223.815	2524.75
2226.991	2448.2
2230.166	2467.62
2233.34	2503.34
2236.515	2520.57
2239.689	2590.3
2242.863	2536.25
2246.036	2592.89
2249.209	2587.16
2252.382	2618.37
2255.555	2613.53
2258.727	2554.02
2261.9	2590.59
2265.071	2583.03
2268.243	2582.5
2271.414	2520.03
2274.585	2487.81
2277.756	2552.91
2280.926	2506.18
2284.096	2543.94
2287.266	2457.53
2290.436	2507.44
2293.605	2536.36
2296.774	2567.58
2299.942	2583.61
2303.111	2597.64
2306.279	2651.68
2309.447	2635.26
2312.614	2610.01
2315.781	2633.37
2318.948	2605.19
2322.115	2642.79
2325.281	2546.25
2328.447	2562.25
2331.613	2534.78
2334.779	2513.16
2337.944	2515.14
2341.109	2511.36
2344.274	2499.14
2347.438	2464.25
2350.602	2487.7
2353.766	2504.14
2356.929	2490.73
2360.092	2533.24
2363.255	2487.87
2366.418	2431.72
2369.58	2532.53
2372.742	2342.98
2375.904	2352.03
2379.066	2329.9
2382.227	2362.52
2385.388	2324.77
2388.548	2255.96
2391.709	2307.08
2394.869	2286.59
2398.029	2377.43
2401.188	2385.06
2404.347	2326.61
2407.506	2452.7
2410.665	2483.73
2413.823	2483.31
2416.981	2445.82
2420.139	2474.16
2423.296	2524.7
2426.453	2495.82
2429.61	2517.6
2432.767	2457.76
2435.923	2496.76
2439.079	2457.71
2442.235	2504.27
2445.391	2433.19
2448.546	2465.13
2451.701	2512.4
2454.855	2490.29
2458.009	2534.28
2461.163	2533.64
2464.317	2497.14
2467.471	2529.76
2470.624	2565.08
2473.777	2539.25
2476.929	2550.12
2480.082	2577.49
2483.234	2544.47
2486.385	2494.62
2489.537	2487.24
2492.688	2454.28
2495.839	2471.94
2498.989	2485.12
2502.14	2469.61
2505.29	2458.86
2508.439	2480.14
2511.589	2408.71
2514.738	2416.38
2517.887	2445.84
2521.035	2512.6
2524.183	2491.03
2527.331	2473.79
2530.479	2454.23
2533.627	2461.2
