Data from N_2_DIV_IL_4N_Splice17_12-35-23-912.txt Node
Date: Sat Mar 14 12:35:23 EDT 2020
User: sa697716
Spectrometer: FLMS03696
Trigger mode: 0
Integration Time (sec): 3.180400E-1
Scans to average: 20
Electric dark correction enabled: true
Nonlinearity correction enabled: true
Boxcar width: 5
XAxis mode: Wavelengths
Number of Pixels in Spectrum: 2048
>>>>>Begin Spectral Data<<<<<
187.83	-330640.44
188.298	2349.41
188.766	1343.23
189.233	1220.97
189.701	1741.93
190.169	2474.73
190.636	937.55
191.104	744.76
191.571	113.74
192.039	-61.16
192.506	-172.15
192.974	518.49
193.441	-837.89
193.908	-95.85
194.375	-37.99
194.842	-0.78
195.31	95.66
195.777	161.28
196.244	369.69
196.711	436.38
197.177	556.42
197.644	756.48
198.111	1353.13
198.578	1907.35
199.045	1530.12
199.511	2544.39
199.978	3000.06
200.445	2568.36
200.911	2861.34
201.378	3205.63
201.844	2902.34
202.31	4933.23
202.777	5183.67
203.243	2878.17
203.709	2755.07
204.176	3305.85
204.642	2703.29
205.108	2524.06
205.574	2060.71
206.04	1877.59
206.506	1742.17
206.972	1656.74
207.438	1613.74
207.903	1835.79
208.369	1623.68
208.835	1613.05
209.301	1698.72
209.766	1737.36
210.232	1736.35
210.697	2147.93
211.163	2645.75
211.628	4010.32
212.094	3364.87
212.559	4148.59
213.024	2580.96
213.49	3151.54
213.955	3089.79
214.42	3027.13
214.885	2843.97
215.35	2745.21
215.815	2671.04
216.28	2858.18
216.745	2360.41
217.21	2580.12
217.675	2408.54
218.14	2737.81
218.604	3104.46
219.069	3611.08
219.534	3841.3
219.998	4542.79
220.463	5568.11
220.927	6938.02
221.392	6618.9
221.856	6786.1
222.32	8668.86
222.785	10782.76
223.249	13720.86
223.713	15411.34
224.177	15491.56
224.642	19991.04
225.106	24708.65
225.57	27132.2
226.034	20233.23
226.497	30852.82
226.961	27887.09
227.425	32500.23
227.889	36209.42
228.353	36307.16
228.816	75229.28
229.28	72095.63
229.744	60980.52
230.207	37141.14
230.671	36661.03
231.134	60809.88
231.597	70234.03
232.061	70442.95
232.524	68790.3
232.987	47457.27
233.45	42723.32
233.914	38334.18
234.377	39344.75
234.84	36043.37
235.303	42524.15
235.766	47428.74
236.229	49093.19
236.691	30974.68
237.154	34834.99
237.617	26244.25
238.08	26902.32
238.542	31527.38
239.005	22564.17
239.468	22412
239.93	21140.59
240.393	19229.94
240.855	16900.6
241.317	17333.95
241.78	21105.04
242.242	21828.55
242.704	23582.23
243.166	20509.43
243.629	18622.3
244.091	21474.66
244.553	23549.27
245.015	25315.95
245.477	32820.27
245.939	48164.57
246.4	51112.99
246.862	49732.92
247.324	46896.99
247.786	52511.78
248.247	69050.26
248.709	71407.79
249.17	53418.35
249.632	50363.92
250.093	58406.66
250.555	50438.48
251.016	30757.4
251.477	29198.96
251.939	31528.83
252.4	33101.77
252.861	39383.61
253.322	36596.74
253.783	43588.07
254.244	56571.19
254.705	44614.19
255.166	39698.24
255.627	39072.53
256.088	55072.76
256.549	58452.09
257.009	50304.6
257.47	61011.29
257.931	49711.54
258.391	37234.65
258.852	38338.08
259.312	40202.56
259.773	49640.13
260.233	41915.64
260.694	35348.54
261.154	40122.1
261.614	32193.56
262.074	28799.21
262.534	29921.88
262.994	28152.19
263.455	37489.04
263.915	31571.41
264.374	29689.77
264.834	32399.69
265.294	35898.31
265.754	37161.01
266.214	35173.59
266.673	32962.95
267.133	41565.52
267.593	41230.39
268.052	50490.7
268.512	43914.3
268.971	52953.07
269.431	58095.62
269.89	52031.45
270.349	77990.6
270.809	86976.23
271.268	78156.01
271.727	175178.26
272.186	113473.94
272.645	85094.5
273.104	61390.29
273.563	88832.77
274.022	69884.14
274.481	59437.08
274.94	45746.73
275.399	34014.96
275.857	39624.72
276.316	53605.34
276.775	47684.75
277.233	46930.94
277.692	43919.3
278.15	49629.87
278.609	51049.59
279.067	47167.96
279.525	43793.35
279.984	56604.85
280.442	67930.18
280.9	66896.12
281.358	43967.69
281.816	41027.18
282.274	40174.8
282.732	41506.67
283.19	41727.19
283.648	36031.69
284.106	38440.59
284.564	39107.25
285.021	36259.49
285.479	27064.83
285.937	24622.44
286.394	21625.84
286.852	22264.2
287.309	23415.36
287.767	22636.28
288.224	21534.49
288.682	23631.12
289.139	25938.36
289.596	23730.63
290.053	24676.58
290.511	31146.49
290.968	37771.55
291.425	51252.72
291.882	42637.13
292.339	37108.36
292.796	36817.65
293.252	34739.24
293.709	27620.73
294.166	24782.19
294.623	27412.67
295.079	26327.57
295.536	26459.48
295.992	24042.15
296.449	23819.49
296.905	24769.37
297.362	23792.67
297.818	25065.68
298.274	26011.44
298.731	26527.95
299.187	26299.02
299.643	28278.25
300.099	34240.38
300.555	37580.74
301.011	31445.98
301.467	30285.36
301.923	35488.72
302.379	34661.6
302.835	34063.42
303.291	34140.44
303.746	38891.9
304.202	49110.49
304.658	49306.34
305.113	33153.13
305.569	32516.75
306.024	34682.43
306.479	33065.46
306.935	27869.67
307.39	30457.77
307.845	28139.05
308.301	28296.85
308.756	27597.03
309.211	26592.21
309.666	27265.81
310.121	33838.87
310.576	34361.94
311.031	34136.28
311.486	39104.06
311.94	39134.87
312.395	52350.69
312.85	98402.29
313.305	484136.32
313.759	2503504.7
314.214	181489.27
314.668	143887.46
315.123	121110.38
315.577	43424.43
316.032	38576.51
316.486	48376.34
316.94	38123.76
317.394	26555.59
317.849	20651
318.303	19544.37
318.757	18468.04
319.211	20429.91
319.665	17888.78
320.119	18113.65
320.572	25988.67
321.026	24291.57
321.48	20211.36
321.934	22072.85
322.387	22111.63
322.841	23875.71
323.295	21450.96
323.748	24712.8
324.202	25070.56
324.655	30120.32
325.108	42083.71
325.562	29743.06
326.015	35366.93
326.468	26733.72
326.921	29888.37
327.374	27873.78
327.827	29052.34
328.28	32899.74
328.733	22032.94
329.186	19391.22
329.639	18479.16
330.092	15591.26
330.545	14838.01
330.997	14967.7
331.45	16357.05
331.903	19173.41
332.355	33049.06
332.808	32102.42
333.26	26520.14
333.713	28837.99
334.165	29012.38
334.617	38797.47
335.069	31327.3
335.522	56682.98
335.974	62791.66
336.426	57444.91
336.878	39804.81
337.33	20179.35
337.782	19695.43
338.234	24626.14
338.686	29442.65
339.137	34917.37
339.589	32847.29
340.041	25770.21
340.493	22141.93
340.944	22681.89
341.396	24421.8
341.847	20507.66
342.299	24186.23
342.75	29537.49
343.201	25839.88
343.653	29715.83
344.104	36573.1
344.555	28804.89
345.006	44842.31
345.457	34322.39
345.908	27293.6
346.359	25678.53
346.81	20962.7
347.261	22087.12
347.712	21739.32
348.163	23347.27
348.613	23626.88
349.064	22052.68
349.515	19302.62
349.965	19802.86
350.416	23892.9
350.866	26224.57
351.317	29689.29
351.767	49124.33
352.217	62038.28
352.668	51544.61
353.118	47199.65
353.568	45532.27
354.018	35970.77
354.468	37935.32
354.918	27235.03
355.368	23827.61
355.818	33649.77
356.268	96816.04
356.718	404749.4
357.168	100774.3
357.617	50604.12
358.067	56337.92
358.517	52875.9
358.966	62008.98
359.416	69519.4
359.865	75171.24
360.315	89496.1
360.764	41794.85
361.213	23421.01
361.663	22246.5
362.112	27490.62
362.561	44359.82
363.01	33393.97
363.459	28083.04
363.908	30415.79
364.357	25829.53
364.806	43547.75
365.255	29944.81
365.703	27424.26
366.152	27464.86
366.601	22252.34
367.05	18050.7
367.498	16397.79
367.947	17156.38
368.395	17824.97
368.844	15787.69
369.292	19032.35
369.74	13170.86
370.189	20177.78
370.637	23651.68
371.085	20381.08
371.533	24792.27
371.981	23933.95
372.429	22817.92
372.877	23766.4
373.325	19920.14
373.773	20265.86
374.221	18041.59
374.669	22362.46
375.116	19325.32
375.564	19469.7
376.012	21782.27
376.459	17961.75
376.907	21424.54
377.354	25949.12
377.801	24203.84
378.249	27758.98
378.696	35554.41
379.143	43043.04
379.591	45882.68
380.038	77555.49
380.485	56045.45
380.932	60592.31
381.379	55391.65
381.826	40795.02
382.273	28955.16
382.72	25325.07
383.166	24692.19
383.613	16000.27
384.06	14432.1
384.506	16688.95
384.953	12273.21
385.4	12351.28
385.846	10810.78
386.292	10553.52
386.739	10338.75
387.185	10239.99
387.631	10235.29
388.078	9933.89
388.524	10630.83
388.97	9833.05
389.416	8199.41
389.862	8712.78
390.308	8261.9
390.754	8385
391.2	9096.94
391.645	9300.03
392.091	8876.03
392.537	8578.42
392.983	8588.41
393.428	8421.63
393.874	9009.84
394.319	9034
394.765	8546.4
395.21	8774.3
395.655	8227.29
396.101	7702.03
396.546	6943.68
396.991	7006.92
397.436	6496.41
397.881	6273.07
398.326	5938.65
398.771	5604.15
399.216	4889
399.661	4398.76
400.106	4372.75
400.551	4459.17
400.995	3992.67
401.44	3947.25
401.885	3703.1
402.329	3739.57
402.774	3584.55
403.218	3467.79
403.663	3341.54
404.107	3435.48
404.551	3460.57
404.995	3169
405.44	3056.4
405.884	3099.97
406.328	2996.13
406.772	2983.34
407.216	2713.95
407.66	2619.56
408.104	2484.62
408.547	2322.49
408.991	2243.48
409.435	2158.23
409.879	2130.93
410.322	2100.98
410.766	2024.66
411.209	1921.84
411.653	1841.55
412.096	1802.98
412.54	1799.63
412.983	1786.22
413.426	1790.34
413.869	1791.46
414.312	1753.53
414.756	1685.63
415.199	1601.68
415.642	1553.85
416.085	1553.87
416.527	1544.99
416.97	1566.43
417.413	1488.63
417.856	1470.28
418.298	1450.4
418.741	1435.17
419.184	1431.86
419.626	1494.51
420.069	1496.95
420.511	1504.07
420.953	1472.24
421.396	1456.34
421.838	1416.87
422.28	1444.47
422.722	1452.79
423.164	1477.7
423.606	1453.37
424.048	1449.59
424.49	1371.65
424.932	1363.51
425.374	1345.73
425.816	1370.54
426.258	1395.02
426.699	1410.25
427.141	1391.99
427.582	1414.27
428.024	1406.51
428.465	1399.1
428.907	1366.77
429.348	1352.11
429.789	1352.68
430.231	1324.02
430.672	1340.34
431.113	1307.49
431.554	1292.81
431.995	1259.96
432.436	1214.56
432.877	1186.36
433.318	1165.9
433.759	1160.11
434.2	1161.11
434.64	1148.45
435.081	1150.69
435.522	1090.17
435.962	1050.1
436.403	1024.83
436.843	1038.01
437.284	1014.35
437.724	988.01
438.164	989.84
438.604	967.64
439.045	932.67
439.485	895.68
439.925	876.44
440.365	853.71
440.805	843.82
441.245	833.22
441.685	802.16
442.125	798.16
442.564	802.03
443.004	785.67
443.444	784.2
443.883	783.39
444.323	776.61
444.762	778.85
445.202	787.86
445.641	802.73
446.081	796.67
446.52	802.94
446.959	794.92
447.398	774.98
447.837	764.42
448.276	751.65
448.716	758.67
449.154	764.68
449.593	746.34
450.032	746.53
450.471	732.56
450.91	735.51
451.349	734.6
451.787	730.48
452.226	743.55
452.664	744.64
453.103	743.78
453.541	742.17
453.98	742.44
454.418	747.65
454.856	735.65
455.295	734.73
455.733	740.64
456.171	745.2
456.609	747.7
457.047	746.88
457.485	756.7
457.923	757.54
458.361	748.77
458.798	750.55
459.236	749.62
459.674	754.09
460.111	757.15
460.549	749.51
460.987	746.67
461.424	742.84
461.862	739.36
462.299	728.44
462.736	729.45
463.173	730.72
463.611	724.16
464.048	721.78
464.485	727.02
464.922	720.53
465.359	716.23
465.796	707.42
466.233	702.41
466.67	695.99
467.106	695.1
467.543	688.1
467.98	678.53
468.416	659.66
468.853	654.1
469.29	634.79
469.726	627.36
470.162	611.19
470.599	602.7
471.035	597.71
471.471	582.89
471.907	578.83
472.344	575.37
472.78	578.07
473.216	585.47
473.652	578.03
474.088	576.05
474.523	574.34
474.959	579.07
475.395	574.29
475.831	570.3
476.266	572.52
476.702	570.24
477.138	563.08
477.573	560.75
478.008	557.58
478.444	559.38
478.879	565.19
479.314	567.82
479.75	566.65
480.185	568.58
480.62	573.44
481.055	576.68
481.49	580.92
481.925	589.91
482.36	600.43
482.795	617.79
483.229	635.79
483.664	648.96
484.099	650.3
484.534	660.95
484.968	667.27
485.403	670.24
485.837	670.26
486.271	669.54
486.706	669.21
487.14	661.16
487.574	650.58
488.009	643.86
488.443	638.55
488.877	645.79
489.311	647.71
489.745	654.89
490.179	660.19
490.613	671.53
491.046	676.12
491.48	680.71
491.914	681.54
492.348	686.08
492.781	690.07
493.215	690.37
493.648	690.37
494.082	695.74
494.515	695.42
494.948	701.76
495.382	705.47
495.815	710.28
496.248	714.82
496.681	726.58
497.114	736.8
497.547	745.73
497.98	758.63
498.413	765.09
498.846	773.88
499.279	781.89
499.711	785.53
500.144	787.25
500.577	796.39
501.009	807.5
501.442	816.55
501.874	818.34
502.306	819.21
502.739	826.64
503.171	840.27
503.603	842.52
504.036	852.04
504.468	857.63
504.9	868.06
505.332	874.11
505.764	877.32
506.196	883.37
506.627	896.77
507.059	909.42
507.491	916.72
507.923	913.65
508.354	927.57
508.786	935.91
509.217	952.57
509.649	967.27
510.08	985.58
510.512	1001.66
510.943	1015.47
511.374	1025.71
511.805	1045.27
512.237	1062.82
512.668	1093.88
513.099	1119.91
513.53	1146.65
513.961	1166.41
514.391	1196.23
514.822	1227.71
515.253	1262.88
515.684	1287.09
516.114	1315.75
516.545	1336.14
516.975	1361.27
517.406	1378.29
517.836	1379.51
518.267	1385.1
518.697	1401.77
519.127	1405.32
519.558	1411.6
519.988	1413.23
520.418	1423.42
520.848	1438.66
521.278	1445.7
521.708	1456.39
522.138	1468.1
522.567	1498.12
522.997	1522.34
523.427	1536.48
523.857	1553.39
524.286	1562.67
524.716	1578.22
525.145	1596.26
525.575	1606.58
526.004	1621.31
526.433	1620.64
526.863	1621.44
527.292	1611.04
527.721	1616.68
528.15	1622.25
528.579	1621.57
529.008	1631.74
529.437	1652.72
529.866	1664.79
530.295	1681.66
530.724	1692.86
531.152	1718.8
531.581	1732.56
532.01	1750.05
532.438	1756.61
532.867	1770.74
533.295	1790.01
533.723	1796.23
534.152	1793.95
534.58	1794.14
535.008	1778.73
535.436	1781.11
535.865	1788.33
536.293	1801.69
536.721	1816.75
537.149	1842.34
537.576	1845.72
538.004	1856.98
538.432	1864.2
538.86	1862.53
539.287	1868.94
539.715	1882.87
540.143	1885.7
540.57	1882.3
540.998	1877.44
541.425	1854.65
541.852	1834.23
542.28	1831.37
542.707	1815.3
543.134	1801.51
543.561	1797.29
543.988	1790.39
544.415	1789.04
544.842	1782.04
545.269	1775.37
545.696	1778.31
546.123	1791.71
546.549	1782.21
546.976	1769.5
547.403	1769.19
547.829	1770.97
548.256	1773.33
548.682	1770.13
549.108	1762.42
549.535	1762.8
549.961	1763.53
550.387	1750.45
550.813	1744.61
551.24	1749.81
551.666	1750.88
552.092	1740.73
552.518	1734.33
552.943	1727.62
553.369	1734.82
553.795	1739.95
554.221	1740.96
554.646	1738.43
555.072	1749.23
555.498	1753.91
555.923	1764.07
556.349	1778.26
556.774	1787.7
557.199	1789.29
557.625	1795.9
558.05	1790.52
558.475	1802.08
558.9	1801.24
559.325	1794.47
559.75	1788.3
560.175	1782.28
560.6	1774.96
561.025	1774.67
561.449	1775.2
561.874	1780.88
562.299	1785.26
562.723	1791.88
563.148	1781.08
563.572	1784.59
563.997	1793.71
564.421	1798.54
564.846	1798.78
565.27	1802.16
565.694	1798.02
566.118	1808.14
566.542	1815.59
566.966	1809.17
567.39	1803.25
567.814	1792.72
568.238	1792.37
568.662	1796.92
569.086	1798.37
569.509	1804.98
569.933	1790.22
570.357	1782.11
570.78	1762.64
571.204	1748.61
571.627	1737.67
572.05	1736.89
572.474	1737.33
572.897	1724.45
573.32	1716.95
573.743	1708.4
574.166	1690.36
574.589	1690.53
575.012	1685.58
575.435	1684.85
575.858	1676.11
576.281	1665.75
576.704	1649.54
577.126	1635.59
577.549	1625.85
577.972	1615.61
578.394	1605.02
578.817	1597.4
579.239	1578.23
579.661	1563.1
580.084	1546.59
580.506	1533.53
580.928	1528.94
581.35	1518.39
581.772	1514.9
582.194	1501.49
582.616	1488.93
583.038	1474.81
583.46	1465.6
583.882	1462.62
584.303	1466.67
584.725	1462.49
585.147	1466.62
585.568	1476.92
585.99	1489.08
586.411	1495.91
586.833	1510.64
587.254	1512.24
587.675	1525.48
588.096	1538.07
588.518	1533.07
588.939	1517.78
589.36	1515.82
589.781	1503.88
590.202	1476.46
590.623	1467.79
591.043	1464.83
591.464	1451.92
591.885	1448.92
592.305	1444.49
592.726	1430.35
593.147	1431.24
593.567	1426.37
593.987	1419.76
594.408	1415.33
594.828	1414.33
595.248	1408.62
595.669	1391.64
596.089	1384.87
596.509	1378.93
596.929	1366.04
597.349	1367.8
597.769	1358.37
598.189	1353.04
598.608	1354.79
599.028	1356.9
599.448	1356.46
599.867	1344.24
600.287	1339.62
600.706	1336.33
601.126	1326.57
601.545	1325.05
601.965	1323.33
602.384	1317.87
602.803	1320.79
603.222	1316.35
603.641	1309.41
604.061	1304.98
604.48	1301.73
604.898	1310.71
605.317	1315.61
605.736	1317.32
606.155	1315.34
606.574	1306.28
606.992	1311.98
607.411	1306.28
607.829	1297.59
608.248	1294.5
608.666	1292.27
609.085	1290.8
609.503	1280.91
609.921	1273.97
610.339	1276.08
610.758	1274.14
611.176	1270.12
611.594	1261.08
612.012	1257.88
612.43	1260.97
612.847	1264.81
613.265	1265.38
613.683	1268.93
614.101	1269.72
614.518	1265.66
614.936	1254.42
615.353	1239.98
615.771	1234.52
616.188	1234.16
616.606	1229.74
617.023	1222.47
617.44	1209.47
617.857	1202.92
618.274	1195.09
618.691	1189.22
619.108	1179.96
619.525	1175.14
619.942	1181.79
620.359	1185.52
620.776	1179.6
621.192	1176.45
621.609	1173.66
622.026	1180.6
622.442	1186.39
622.859	1189.05
623.275	1181.94
623.691	1187.74
624.108	1198.91
624.524	1211.51
624.94	1211.5
625.356	1221.51
625.772	1232.8
626.188	1244.65
626.604	1246.39
627.02	1242.56
627.436	1239.69
627.852	1246.98
628.268	1256.58
628.683	1247.14
629.099	1238.39
629.514	1233.8
629.93	1237.58
630.345	1242.79
630.761	1238.29
631.176	1240.39
631.591	1234.44
632.007	1229.99
632.422	1227.76
632.837	1217.96
633.252	1216.61
633.667	1207.88
634.082	1200.2
634.497	1188.36
634.911	1170.18
635.326	1167.71
635.741	1152.74
636.155	1143.82
636.57	1145.46
636.984	1145.88
637.399	1148.5
637.813	1148.48
638.228	1148.4
638.642	1152.09
639.056	1143.13
639.47	1143.43
639.884	1135.6
640.298	1130.11
640.712	1129.61
641.126	1119.32
641.54	1111.95
641.954	1108.51
642.368	1098.29
642.781	1092.94
643.195	1077.12
643.609	1079.14
644.022	1075.31
644.436	1073.63
644.849	1063.56
645.262	1053.47
645.676	1056.16
646.089	1053.05
646.502	1039.82
646.915	1035.06
647.328	1018.55
647.741	1018.21
648.154	1006.19
648.567	1004.42
648.98	991.51
649.393	992.7
649.805	990
650.218	982.13
650.631	966.56
651.043	960.7
651.456	954.29
651.868	955.57
652.28	971.11
652.693	984.43
653.105	989.78
653.517	998.4
653.929	997.77
654.341	1002.63
654.753	989.49
655.165	996.4
655.577	992.1
655.989	988.39
656.401	979.52
656.813	945.88
657.224	925.5
657.636	898.75
658.047	881.72
658.459	863.88
658.87	855.13
659.282	845.22
659.693	824.6
660.104	812.75
660.515	800.14
660.926	800.28
661.338	797.13
661.749	792.18
662.159	783.52
662.57	780.06
662.981	775.4
663.392	768.67
663.803	772.72
664.213	771.71
664.624	766.8
665.035	770.15
665.445	755.98
665.855	749.78
666.266	742.72
666.676	740.56
667.086	732.5
667.497	732.88
667.907	727.95
668.317	720.22
668.727	717.38
669.137	718.8
669.547	716.36
669.956	719.41
670.366	721.4
670.776	722.9
671.186	726.44
671.595	728.46
672.005	730.8
672.414	730.77
672.824	728.77
673.233	731.22
673.642	732.91
674.052	735.63
674.461	737.84
674.87	741.62
675.279	738.51
675.688	739.48
676.097	741.06
676.506	737.8
676.915	749.41
677.323	751.61
677.732	749.77
678.141	747.58
678.549	737.03
678.958	735.24
679.366	733.41
679.775	737.63
680.183	746.67
680.592	752.05
681	756.72
681.408	750.47
681.816	756.07
682.224	764.11
682.632	773.07
683.04	798.51
683.448	819.45
683.856	846.44
684.264	876.82
684.671	904.39
685.079	938.31
685.487	975.98
685.894	1028.74
686.302	1072.05
686.709	1106.09
687.116	1147.65
687.524	1181.91
687.931	1210.05
688.338	1234.11
688.745	1252.97
689.152	1274.85
689.559	1307.98
689.966	1341.24
690.373	1355.99
690.78	1387.12
691.187	1438.25
691.593	1476.49
692	1510.75
692.407	1562.6
692.813	1627.03
693.22	1678.57
693.626	1732.87
694.032	1775.86
694.439	1842.09
694.845	1892.75
695.251	1959.13
695.657	2019.02
696.063	2107.98
696.469	2172.65
696.875	2234.49
697.281	2270.46
697.687	2314.21
698.093	2351.06
698.498	2421.77
698.904	2477.2
699.31	2560.77
699.715	2621.45
700.12	2707.08
700.526	2726.51
700.931	2793.69
701.337	2844.56
701.742	2877.92
702.147	2958.66
702.552	2990.14
702.957	3048.35
703.362	3069.82
703.767	3099.77
704.172	3139.56
704.577	3099.58
704.981	3145.99
705.386	3164.72
705.791	3161.88
706.195	3233.99
706.6	3244.66
707.004	3321.78
707.408	3296.61
707.813	3326.73
708.217	3318.33
708.621	3323.89
709.025	3419.81
709.43	3424.68
709.834	3484.54
710.237	3552.11
710.641	3541.99
711.045	3568.6
711.449	3566.55
711.853	3596.14
712.256	3637.27
712.66	3675.16
713.064	3750.01
713.467	3793.43
713.87	3905.3
714.274	3953.83
714.677	4063.82
715.08	4222.15
715.484	4386.82
715.887	4587.89
716.29	4785.46
716.693	4990.04
717.096	5228.56
717.499	5358.98
717.901	5385.58
718.304	5413.38
718.707	5441.71
719.109	5345.44
719.512	5320.03
719.915	5191.75
720.317	5138.98
720.719	5184.59
721.122	5160.02
721.524	5113.02
721.926	5077.56
722.328	5179.28
722.731	5173.94
723.133	5204.92
723.535	5395.9
723.937	5416.51
724.338	5468.85
724.74	5511.08
725.142	5454.12
725.544	5454.18
725.945	5485.61
726.347	5483.93
726.748	5477.25
727.15	5493.02
727.551	5457.58
727.952	5431.57
728.354	5406.29
728.755	5408.75
729.156	5369.39
729.557	5354.13
729.958	5236.3
730.359	5181.8
730.76	5165.01
731.161	5110.02
731.562	5085.18
731.962	5086.71
732.363	5024.61
732.763	4963.17
733.164	4998.82
733.564	4933.76
733.965	4842.3
734.365	4808.96
734.766	4837.15
735.166	4797.84
735.566	4742.66
735.966	4719.52
736.366	4715.8
736.766	4657.29
737.166	4687.45
737.566	4646.74
737.966	4622.95
738.365	4663.8
738.765	4660.88
739.165	4588.1
739.564	4563.47
739.964	4608.07
740.363	4565.22
740.763	4563.35
741.162	4550.9
741.561	4522.55
741.96	4481.63
742.36	4501.58
742.759	4507.01
743.158	4545.31
743.557	4560.7
743.955	4601.81
744.354	4558.92
744.753	4614.08
745.152	4572.5
745.55	4626.22
745.949	4619.84
746.348	4619.09
746.746	4635.5
747.144	4595.37
747.543	4572.03
747.941	4620.22
748.339	4548.94
748.737	4539.18
749.136	4527.67
749.534	4591.27
749.932	4564.39
750.33	4584.19
750.727	4638.6
751.125	4613.86
751.523	4598.73
751.921	4641.02
752.318	4605.86
752.716	4665.78
753.113	4679.86
753.511	4706.15
753.908	4706.93
754.305	4692.92
754.703	4753.72
755.1	4811.33
755.497	4869.75
755.894	5053.94
756.291	5229.41
756.688	5552.8
757.085	5979.77
757.482	6584.91
757.878	7246.82
758.275	7842.2
758.672	8658.81
759.068	9328.84
759.465	10286.81
759.861	11516.11
760.258	12946.28
760.654	13682.3
761.05	13568.42
761.447	12946.31
761.843	12050.68
762.239	11126.28
762.635	10710.44
763.031	10309.91
763.427	9734.73
763.822	9130.37
764.218	8531.11
764.614	7752.32
765.01	7231.67
765.405	6894.82
765.801	6641.63
766.196	6315.99
766.592	6132.12
766.987	5825.28
767.382	5616.78
767.778	5528.71
768.173	5396.54
768.568	5327.14
768.963	5204.1
769.358	5221.79
769.753	5175.77
770.148	5091
770.542	5089.23
770.937	5056.21
771.332	5142.41
771.726	5163.24
772.121	5103.69
772.515	5158.21
772.91	5143.6
773.304	5213.09
773.699	5149.2
774.093	5203.55
774.487	5258.1
774.881	5300.31
775.275	5300.79
775.669	5261.06
776.063	5301.48
776.457	5333.27
776.851	5263.49
777.245	5255.94
777.638	5288.26
778.032	5396.75
778.425	5359.73
778.819	5401.36
779.212	5357.61
779.606	5315.21
779.999	5336.44
780.392	5322.32
780.786	5402.22
781.179	5419.03
781.572	5459.62
781.965	5469.99
782.358	5416.08
782.751	5471.55
783.143	5423.88
783.536	5499.93
783.929	5539.47
784.322	5650.53
784.714	5677.89
785.107	5671.4
785.499	5742.92
785.891	5721.74
786.284	5703.61
786.676	5838.58
787.068	5819.58
787.46	5870.66
787.852	5885.48
788.245	5974.75
788.636	6001.02
789.028	6071.26
789.42	6111.42
789.812	6120.21
790.204	6214.68
790.595	6310.2
790.987	6123.52
791.378	6144.71
791.77	6269.47
792.161	6398.74
792.553	6447.68
792.944	6342.86
793.335	6275.49
793.726	6347.64
794.117	6436.29
794.508	6566.08
794.899	6538.13
795.29	6672.15
795.681	6729.89
796.072	6592.26
796.463	6421.82
796.853	6434.44
797.244	6583.7
797.634	6615.01
798.025	6613.56
798.415	6622.21
798.806	6711.01
799.196	6794.63
799.586	6846.65
799.976	6810.25
800.366	7036.6
800.756	7265.32
801.146	7225.55
801.536	7259.85
801.926	7332.58
802.316	7361.85
802.706	7430.27
803.095	7310.12
803.485	7411.41
803.874	7452.67
804.264	7701.38
804.653	7676.27
805.043	7819.43
805.432	7920.95
805.821	7919.19
806.21	7940.64
806.599	8054.53
806.988	8103.72
807.377	8207.76
807.766	8331
808.155	8602.21
808.544	8348.47
808.933	8362.36
809.321	8336.08
809.71	8628.58
810.098	8778.11
810.487	9222.08
810.875	9686.59
811.264	9703.85
811.652	9985.22
812.04	10123.11
812.428	10285.05
812.816	11024.17
813.204	11429.09
813.592	11958.74
813.98	12279.56
814.368	12191.02
814.756	12656.16
815.144	12577.32
815.531	13035.21
815.919	12961.62
816.306	13262.57
816.694	12959.45
817.081	13015.05
817.469	13351.98
817.856	13362.04
818.243	13629.09
818.63	14021.73
819.017	13617.24
819.404	13680.69
819.791	14043.31
820.178	14645.59
820.565	14888.44
820.952	15797.96
821.339	15316.55
821.725	15502.23
822.112	14773.46
822.498	14731.37
822.885	14849.66
823.271	14753.18
823.657	15150.2
824.044	15156.81
824.43	15221.64
824.816	15187.42
825.202	14760.59
825.588	15739.51
825.974	15746.92
826.36	16246.82
826.746	16279.6
827.132	16623.95
827.517	16601.63
827.903	15847.48
828.289	15890.59
828.674	15141.01
829.06	15043.56
829.445	15431.34
829.83	15784.51
830.216	16247.53
830.601	16606.41
830.986	16213.95
831.371	16077.26
831.756	16619.64
832.141	16205.59
832.526	16198.01
832.911	16475.31
833.295	16362.19
833.68	16818.99
834.065	16222.68
834.449	15335.77
834.834	15264.14
835.218	15261.79
835.603	15597.33
835.987	15394.59
836.371	16202.7
836.755	16101.17
837.139	16488.9
837.524	16726.44
837.908	16548.38
838.291	16603.14
838.675	16668.45
839.059	16870.99
839.443	16855.76
839.827	16637.2
840.21	17094.82
840.594	16952.09
840.977	17150.17
841.361	17124.95
841.744	17491.3
842.127	17345.73
842.511	17579.8
842.894	18154.22
843.277	18524.39
843.66	19050.59
844.043	19122.43
844.426	18344.57
844.809	18038.08
845.191	18070.5
845.574	17625.31
845.957	17259.94
846.339	17155.31
846.722	16647.79
847.104	16721.36
847.487	16549.3
847.869	16558.48
848.252	16824.57
848.634	17142.41
849.016	17401.83
849.398	17527.59
849.78	18355.72
850.162	18364.59
850.544	18763.73
850.926	19372.91
851.307	19288.15
851.689	19562.23
852.071	20000.8
852.452	20325.06
852.834	20304.04
853.215	20677.92
853.597	20821.95
853.978	21102.2
854.359	21544.93
854.741	20588.6
855.122	20487.5
855.503	20202.25
855.884	20331.59
856.265	20273.69
856.646	20378.86
857.026	20001.58
857.407	19953.06
857.788	20105.21
858.169	20372.47
858.549	19549.8
858.93	20137.69
859.31	20184.24
859.69	20382.99
860.071	19988.26
860.451	19778.69
860.831	19059.27
861.211	20178.06
861.591	20694.37
861.971	20667.88
862.351	20860.09
862.731	21237.55
863.111	21503.16
863.491	21827.33
863.87	22678.22
864.25	23012.11
864.629	22628.77
865.009	23122.33
865.388	23933.82
865.768	25660.08
866.147	25564.85
866.526	24153.59
866.905	24437.99
867.284	25801.91
867.663	24501.45
868.042	23486.31
868.421	23418.61
868.8	23804.14
869.179	24043.21
869.558	22651.41
869.936	20872.46
870.315	21237.2
870.693	21755.19
871.072	23459.39
871.45	22356.41
871.828	22644.98
872.207	23807.29
872.585	23453.56
872.963	24087.61
873.341	23256.86
873.719	22984.14
874.097	22713.58
874.475	23145.44
874.853	23680.99
875.23	22700.65
875.608	23648.15
875.986	25581.75
876.363	24457.17
876.741	25187.15
877.118	24550.81
877.495	25755.58
877.873	26189.7
878.25	27556.51
878.627	26436.52
879.004	26805.11
879.381	26686.16
879.758	25977
880.135	24177.22
880.512	25577.33
880.889	24901.58
881.265	24644.85
881.642	24444.78
882.019	24857.94
882.395	24354.07
882.772	25320.61
883.148	24219.32
883.524	24124.46
883.901	23986.81
884.277	24341.21
884.653	24184.77
885.029	24876.62
885.405	27566.07
885.781	27355.09
886.157	26224.71
886.532	26540.17
886.908	26521.08
887.284	29482.6
887.659	30435.45
888.035	31388.61
888.411	32202.6
888.786	32618.04
889.161	33760.01
889.537	33130.95
889.912	34192.64
890.287	34154.85
890.662	35039.95
891.037	34412.28
891.412	32097.19
891.787	31767.73
892.162	30653.91
892.536	31360.46
892.911	30190.8
893.286	29551.02
893.66	28357.86
894.035	29071.98
894.409	31664.94
894.784	30385
895.158	30891.98
895.532	32723.82
895.906	33614.81
896.281	34401.65
896.655	33868.92
897.029	38691.47
897.402	40294.7
897.776	44860.31
898.15	44725.96
898.524	44245.34
898.898	44852.39
899.271	50194.38
899.645	43466.35
900.018	41750.06
900.392	43297.73
900.765	43641.83
901.138	40383.36
901.511	39770.78
901.884	36513.86
902.258	33673.01
902.631	34789.29
903.003	40026.06
903.376	36129.61
903.749	40508
904.122	43367.92
904.495	47745.9
904.867	48344.49
905.24	41972.09
905.612	39066.85
905.985	39945.44
906.357	41755.85
906.729	39846.88
907.102	34030.83
907.474	32731.69
907.846	32944.02
908.218	32525.27
908.59	28750.9
908.962	27801.99
909.334	29943
909.705	31452.09
910.077	30523.15
910.449	31757.53
910.82	32648.01
911.192	35913.37
911.563	37296
911.935	39923.46
912.306	39960.88
912.677	41258.68
913.048	40841.01
913.419	44307.76
913.79	44589.97
914.161	47811.72
914.532	45729.31
914.903	42028.66
915.274	39924.38
915.645	39354.79
916.015	34635.66
916.386	33026.24
916.756	35140.97
917.127	36273.04
917.497	32397.02
917.868	35249.93
918.238	33497.49
918.608	34460.84
918.978	35179.21
919.348	37269.11
919.718	38491.96
920.088	37072.02
920.458	38525.77
920.828	40571.57
921.198	38452.84
921.567	41097.28
921.937	31825.82
922.306	32133.24
922.676	34658.09
923.045	28908.1
923.415	27464.43
923.784	25020.78
924.153	25718.75
924.522	25690.02
924.891	24148.89
925.26	25884.92
925.629	25266.71
925.998	29042.22
926.367	28365.99
926.736	27010.86
927.104	32186.06
927.473	34572.03
927.842	41766.8
928.21	41379.85
928.578	43523.3
928.947	41153.06
929.315	41385.83
929.683	48554.47
930.051	48953.69
930.42	56814.78
930.788	48580.63
931.156	48202.47
931.523	45234.67
931.891	41776.24
932.259	40133.71
932.627	46488.31
932.994	65827.96
933.362	54410.41
933.729	47256.53
934.097	45229.35
934.464	38294.62
934.831	44147.17
935.199	43526.31
935.566	42215.47
935.933	42765.47
936.3	51826.85
936.667	40345.31
937.034	36372.93
937.401	35957.98
937.767	31021.99
938.134	27621.11
938.501	38973.21
938.867	41565.91
939.234	70215.22
939.6	59874.48
939.967	66020.97
940.333	44151.31
940.699	37573.37
941.065	30106.2
941.431	39478.12
941.798	38076.63
942.163	49948.19
942.529	31174.9
942.895	28663.41
943.261	18531.67
943.627	24311.99
943.992	21297.15
944.358	21322.34
944.723	21427.77
945.089	20877.34
945.454	19294.19
945.82	20587.46
946.185	19793.12
946.55	22928.95
946.915	20606.3
947.28	24198.13
947.645	21274.88
948.01	19626.82
948.375	20462.92
948.74	24479.28
949.104	28596.76
949.469	41267.57
949.834	72946.52
950.198	69095.47
950.562	41419.86
950.927	34533.34
951.291	41572.93
951.655	35446.59
952.02	33291.04
952.384	25175.34
952.748	21927.86
953.112	21391.61
953.476	18620.91
953.839	17219.69
954.203	17077.69
954.567	21357.39
954.931	33618.29
955.294	28767.18
955.658	28944.81
956.021	49234.13
956.385	83435.54
956.748	123155.24
957.111	190874.09
957.474	214273.01
957.837	241486.78
958.2	182531.99
958.563	65708.42
958.926	44372.25
959.289	67310.74
959.652	75139.21
960.015	56404.99
960.377	81033.1
960.74	92462.01
961.102	159547.83
961.465	171423.83
961.827	91881.84
962.189	176488.72
962.552	122409.05
962.914	98202.83
963.276	63773.83
963.638	52760.4
964	52201.38
964.362	35288.32
964.724	34142.8
965.085	24368.88
965.447	19971
965.809	22751.68
966.17	22756.47
966.532	24602.57
966.893	22563.8
967.255	20519.83
967.616	24226.54
967.977	19405.69
968.338	21173.68
968.699	17373.36
969.061	17379.32
969.421	17496.2
969.782	19643.17
970.143	16592.26
970.504	17186.53
970.865	19552.95
971.225	20000.53
971.586	19569.67
971.946	27908.06
972.307	24255.31
972.667	31751.73
973.027	32667
973.388	39599.32
973.748	26903.43
974.108	29319.31
974.468	39733.96
974.828	30639.09
975.188	23557.77
975.548	21633.91
975.907	18178.03
976.267	20372.28
976.627	17112.99
976.986	17771.77
977.346	16946.81
977.705	16309.31
978.064	14855.74
978.424	12354.38
978.783	12767.32
979.142	14585.67
979.501	13968.61
979.86	14763.19
980.219	14239.19
980.578	18364.25
980.937	20564.55
981.296	18322.55
981.654	18863.6
982.013	29394.61
982.371	38090.22
982.73	35619.72
983.088	40313.73
983.447	43023.7
983.805	61552.04
984.163	128779.41
984.521	142890.96
984.879	209020.5
985.237	-339939.65
985.595	327806.85
985.953	81404.89
986.311	47085.31
986.669	27346.75
987.026	23570.16
987.384	31693.47
987.741	32718.37
988.099	23363.1
988.456	18637.42
988.814	17462.59
989.171	15190.32
989.528	14966.17
989.885	15807.26
990.242	12521.36
990.599	15578.06
990.956	12770.48
991.313	8936.36
991.67	7338.52
992.027	7783.49
992.383	6918.23
992.74	6077.52
993.096	6380.89
993.453	6620.34
993.809	6858.59
994.165	9137.52
994.522	8391.92
994.878	9256.66
995.234	11618.73
995.59	11454.62
995.946	10823.12
996.302	12364.82
996.658	14275.17
997.013	15748.1
997.369	18688.99
997.725	23916.71
998.08	15489.98
998.436	23864.45
998.791	32946.32
999.147	32853.61
999.502	35839.95
999.857	26042.56
1000.212	42411.06
1000.567	60502.8
1000.922	34845.24
1001.277	22125.31
1001.632	16414.84
1001.987	21166.5
1002.342	15184.59
1002.696	12134.62
1003.051	9691.79
1003.406	11748.21
1003.76	11729.91
1004.114	11544.7
1004.469	9742.7
1004.823	8060
1005.177	8703.89
1005.531	6910.76
1005.885	6112.34
1006.239	6899.34
1006.593	8645.01
1006.947	11580.48
1007.301	8698.92
1007.655	9483.53
1008.008	6963.53
1008.362	7778.27
1008.715	11109.1
1009.069	10087.13
1009.422	15152.2
1009.776	30408.3
1010.129	20141.08
1010.482	16805.58
1010.835	14205.63
1011.188	29461.17
1011.541	27683.84
1011.894	-169515.94
1012.247	498612.3
1012.6	33887.07
1012.952	21384.79
1013.305	11000.17
1013.657	7930.79
1014.01	7514.31
1014.362	6202.55
1014.715	5512.61
1015.067	4805.7
1015.419	4702.73
1015.771	4157.88
1016.123	3716.57
1016.475	3828.33
1016.827	4078.53
1017.179	4400.94
1017.531	4438.47
1017.883	4530.79
1018.234	4379.74
1018.586	5519.44
1018.938	5845.8
1019.289	8051
1019.64	9225.23
1019.992	8544.85
1020.343	7789.75
1020.694	6169.46
1021.045	5452.08
1021.396	6191.86
1021.747	6658.89
1022.098	7974.16
1022.449	5778.63
1022.8	5390.48
1023.151	3772.99
1023.501	3343.75
1023.852	3641.17
1024.202	3797.11
1024.553	4157.5
1024.903	4056.44
1025.253	3490.33
1025.604	3129.55
1025.954	3884.7
1026.304	4742.37
1026.654	5510.17
1027.004	8018.84
1027.354	12957.12
1027.703	12261.92
1028.053	16065.89
1028.403	23239.49
1028.753	33655.97
1029.102	45922.3
1029.452	237426.84
1029.801	10289.9
1030.15	6648.46
1030.499	5629.1
897.758	2851.58
901.051	2820.45
904.343	2857.97
907.636	2853.47
910.928	2920.49
914.22	2824.96
917.511	2834.58
920.803	2905.77
924.094	2932.94
927.384	2902.24
930.675	2869.24
933.965	2818.85
937.255	2820.99
940.544	2787.86
943.834	2704.04
947.123	2650.84
950.411	2753.23
953.7	2723.84
956.988	2680.77
960.276	2627.44
963.563	2722.42
966.851	2711.22
970.138	2775.91
973.424	2763.9
976.711	2710.64
979.997	2881.2
983.283	2909.17
986.568	2801.58
989.853	2830.13
993.138	2860.42
996.423	2939
999.708	2867.81
1002.992	2949.74
1006.275	2752.82
1009.559	2818.17
1012.842	2939.97
1016.125	2864.47
1019.408	2844.01
1022.69	2943.88
1025.972	2954.6
1029.254	2927.06
1032.536	2846.72
1035.817	2881.89
1039.098	2811.48
1042.379	2995.64
1045.659	2976.77
1048.939	2904.64
1052.219	2931.6
1055.498	2952.7
1058.778	2932.05
1062.057	2920.11
1065.335	2941.25
1068.614	2962.88
1071.892	2937.89
1075.17	3023.58
1078.447	3007.42
1081.724	2996.21
1085.001	3037.84
1088.278	3009.44
1091.554	3025.45
1094.83	3022.28
1098.106	3048.51
1101.382	3100.24
1104.657	3103.26
1107.932	3095.16
1111.206	3051.35
1114.481	3011.95
1117.755	3018.26
1121.029	2992.58
1124.302	3040.89
1127.575	2985.04
1130.848	2969.44
1134.121	2927
1137.393	2868.41
1140.665	2940.59
1143.937	2916.1
1147.208	2882.78
1150.48	2913.65
1153.75	2899.93
1157.021	2944.6
1160.291	2910.34
1163.561	2952.47
1166.831	2951.73
1170.101	2986.96
1173.37	2967.93
1176.639	2904.82
1179.907	2973.54
1183.176	2973.75
1186.444	2981.36
1189.711	3010.48
1192.979	3016.61
1196.246	2976.55
1199.513	2995.5
1202.78	2991.89
1206.046	2998.81
1209.312	3026.32
1212.578	3055.44
1215.843	2996.08
1219.108	2975.39
1222.373	2999.58
1225.638	2958.59
1228.902	2938.36
1232.166	2906.5
1235.43	2885.5
1238.693	2907.46
1241.956	2908.41
1245.219	2941.39
1248.482	2937.81
1251.744	2932.66
1255.006	3091.71
1258.268	3048.64
1261.529	2987.21
1264.79	2999.47
1268.051	3106.62
1271.312	3127.97
1274.572	3086.77
1277.832	3075.15
1281.092	3072.48
1284.351	3035.08
1287.61	3011.3
1290.869	2916.8
1294.128	2884.9
1297.386	2994.52
1300.644	2975.82
1303.902	2991.12
1307.159	2845.13
1310.416	2901.05
1313.673	2922.86
1316.93	2901.57
1320.186	2955.05
1323.442	3003.71
1326.697	2986.63
1329.953	2988.6
1333.208	3002.36
1336.463	2990.81
1339.717	2915.35
1342.972	3065.4
1346.226	3046.42
1349.479	2972.16
1352.733	2937.98
1355.986	2968.85
1359.238	2941.29
1362.491	2943.52
1365.743	2948.59
1368.995	2946.49
1372.247	2957.89
1375.498	2986.64
1378.749	2983.74
1382	2941.45
1385.251	3003.3
1388.501	2968.8
1391.751	2944.22
1395	2916.9
1398.25	2951.65
1401.499	2950.27
1404.748	2864.37
1407.996	2860.55
1411.244	2842.33
1414.492	2823.28
1417.74	2797.44
1420.987	2810.35
1424.234	2864.2
1427.481	2852.16
1430.728	2914.52
1433.974	2886.18
1437.22	2907.82
1440.465	2915.07
1443.711	2862.42
1446.956	2902.92
1450.201	2898.68
1453.445	2943.71
1456.689	2916.47
1459.933	2933.59
1463.177	2960.86
1466.42	2932.27
1469.663	2912.68
1472.906	2896.08
1476.148	2993.27
1479.391	2931.14
1482.633	2907.92
1485.874	2913.24
1489.115	2890.52
1492.356	2907.33
1495.597	2876.76
1498.838	2887.97
1502.078	2847.13
1505.318	2788.18
1508.557	2834.61
1511.797	2793.48
1515.036	2894.17
1518.274	2880.97
1521.513	2859.89
1524.751	2888.67
1527.989	2897.02
1531.227	2909.48
1534.464	2891.76
1537.701	2926.4
1540.938	2949.42
1544.174	2903.02
1547.41	2904.96
1550.646	2945.61
1553.882	2977.47
1557.117	3033.51
1560.352	3049.46
1563.587	3001.68
1566.821	2957.64
1570.055	3002.58
1573.289	2968.37
1576.523	3052.77
1579.756	3057.88
1582.989	3075.98
1586.222	3035.67
1589.454	3074.61
1592.686	3042.54
1595.918	3066.17
1599.15	3053.23
1602.381	3142.83
1605.612	3085.74
1608.843	3184.86
1612.073	3091.25
1615.303	3074.74
1618.533	3060.86
1621.762	3067.17
1624.992	3064.14
1628.221	3039.23
1631.449	3025.97
1634.678	3096.47
1637.906	3045.5
1641.134	3093.05
1644.361	3042.49
1647.588	3030.22
1650.815	3044.76
1654.042	3027.18
1657.269	3059.21
1660.495	3003.45
1663.72	3004.39
1666.946	2969.14
1670.171	2895.16
1673.396	2872.09
1676.621	2864.05
1679.845	2898.85
1683.069	2927.28
1686.293	2973.93
1689.517	2940.53
1692.74	2857.85
1695.963	2887.69
1699.185	2926.85
1702.408	2900.49
1705.63	2948.3
1708.852	2956.62
1712.073	2928.5
1715.294	2900.56
1718.515	2965.34
1721.736	2910.28
1724.956	2907.68
1728.176	2936.31
1731.396	2958.06
1734.616	2948.92
1737.835	2969.84
1741.054	2954.85
1744.272	2948.85
1747.491	2971.34
1750.709	3038
1753.927	2924.96
1757.144	2980.35
1760.361	3013.98
1763.578	3016.86
1766.795	2952.96
1770.011	2966.2
1773.227	3018.16
1776.443	3047.65
1779.658	3090.6
1782.874	3038.64
1786.089	3009.57
1789.303	3011.7
1792.518	3019.66
1795.732	3007.25
1798.945	3010.83
1802.159	3069.68
1805.372	2953.02
1808.585	2929.93
1811.797	2933.2
1815.01	2995.07
1818.222	2991.47
1821.434	2935.76
1824.645	3008.94
1827.856	2976.88
1831.067	3015.25
1834.278	2984.87
1837.488	2962.78
1840.698	3125.69
1843.908	3040.72
1847.117	3004.03
1850.326	2866.35
1853.535	2985.43
1856.744	3042.32
1859.952	2944.74
1863.16	2949.57
1866.368	2973.16
1869.575	3069.21
1872.782	2960.15
1875.989	2898.69
1879.196	3000.26
1882.402	2990.96
1885.608	3034.91
1888.814	2923.97
1892.019	2810.4
1895.224	2863.05
1898.429	2850.81
1901.634	2825.95
1904.838	2808.64
1908.042	2849.97
1911.246	2858.98
1914.449	2774.38
1917.652	2779.18
1920.855	2762.93
1924.058	2821.64
1927.26	2856.57
1930.462	2887.7
1933.664	2907.33
1936.865	2844.35
1940.066	2844.61
1943.267	2797.74
1946.467	2811.98
1949.668	2842.89
1952.868	2909.62
1956.067	2882.95
1959.267	2808.93
1962.466	2837.7
1965.665	2822.93
1968.863	2821.44
1972.061	2840.94
1975.259	2840.76
1978.457	2920.72
1981.654	2879.79
1984.852	2879.22
1988.048	2801.11
1991.245	2810.01
1994.441	2895.81
1997.637	2891.86
2000.833	2876.41
2004.028	2914.13
2007.223	2969.31
2010.418	2943.06
2013.613	2905.42
2016.807	2863.93
2020.001	2878.06
2023.194	2931.89
2026.388	2904.65
2029.581	2851.02
2032.774	2894.74
2035.966	2894.62
2039.158	2820.75
2042.35	2848.37
2045.542	2775.08
2048.733	2887.68
2051.924	2928.27
2055.115	2963.49
2058.306	2895.66
2061.496	2958.87
2064.686	3028.84
2067.875	2946.95
2071.065	2967.52
2074.254	3000.01
2077.442	2947.35
2080.631	3043.55
2083.819	2915.67
2087.007	2891.3
2090.195	2851.94
2093.382	2896.83
2096.569	2873.92
2099.756	2822.98
2102.942	2836.49
2106.128	2836.22
2109.314	2829.8
2112.5	2785.44
2115.685	2763.48
2118.87	2774.58
2122.055	2841.23
2125.239	2802.86
2128.424	2770.46
2131.608	2893.03
2134.791	2878.05
2137.974	2944.7
2141.157	2928.56
2144.34	2868.76
2147.523	2899.58
2150.705	2909.19
2153.887	2890.95
2157.068	2829.92
2160.25	2841.67
2163.431	2887.72
2166.611	2823.26
2169.792	2831.43
2172.972	2719.4
2176.152	2812.96
2179.331	2851.69
2182.511	2820.61
2185.69	2850.61
2188.868	2844.4
2192.047	2908.81
2195.225	2884.95
2198.403	2834.94
2201.58	2830.92
2204.758	2834.93
2207.935	2920.08
2211.111	2793.84
2214.288	2776.88
2217.464	2816.98
2220.64	2798.8
2223.815	2855.94
2226.991	2772.64
2230.166	2795.27
2233.34	2818.79
2236.515	2849.92
2239.689	2923.31
2242.863	2864.78
2246.036	2925.54
2249.209	2932.14
2252.382	2974.5
2255.555	2955.04
2258.727	2884.79
2261.9	2929.35
2265.071	2922.67
2268.243	2923.56
2271.414	2847.48
2274.585	2799.46
2277.756	2868.7
2280.926	2824.88
2284.096	2871.69
2287.266	2768.75
2290.436	2826.47
2293.605	2859.28
2296.774	2884.23
2299.942	2914.27
2303.111	2931.58
2306.279	2976.85
2309.447	2966.01
2312.614	2945.9
2315.781	2960.78
2318.948	2929.06
2322.115	2966.82
2325.281	2872.86
2328.447	2899.05
2331.613	2876.54
2334.779	2839.35
2337.944	2849.65
2341.109	2845.01
2344.274	2821.64
2347.438	2786.32
2350.602	2813.87
2353.766	2830.64
2356.929	2815.52
2360.092	2855.98
2363.255	2798.95
2366.418	2716.87
2369.58	2850.86
2372.742	2598.92
2375.904	2622.08
2379.066	2594.43
2382.227	2634.91
2385.388	2598.52
2388.548	2515.33
2391.709	2578.23
2394.869	2549.35
2398.029	2672.75
2401.188	2692.5
2404.347	2612.12
2407.506	2779.77
2410.665	2808.73
2413.823	2823.01
2416.981	2768.43
2420.139	2810.22
2423.296	2861.94
2426.453	2834.92
2429.61	2865.37
2432.767	2777.37
2435.923	2814.99
2439.079	2761.26
2442.235	2818.18
2445.391	2733.79
2448.546	2754.47
2451.701	2813.2
2454.855	2766.83
2458.009	2833.6
2461.163	2842.91
2464.317	2792.46
2467.471	2830.75
2470.624	2878.49
2473.777	2865.35
2476.929	2874.31
2480.082	2903.48
2483.234	2864.19
2486.385	2809.69
2489.537	2802.44
2492.688	2749.77
2495.839	2768.41
2498.989	2776.92
2502.14	2758.3
2505.29	2734.35
2508.439	2762
2511.589	2678.78
2514.738	2695.35
2517.887	2729.34
2521.035	2806.31
2524.183	2800.62
2527.331	2776.69
2530.479	2739.55
2533.627	2754.09
