Data from N_2_DEC_CT_2N_Splice17_12-28-07-604.txt Node
Date: Sat Mar 14 12:28:07 EDT 2020
User: sa697716
Spectrometer: FLMS03696
Trigger mode: 0
Integration Time (sec): 3.180400E-1
Scans to average: 20
Electric dark correction enabled: true
Nonlinearity correction enabled: true
Boxcar width: 5
XAxis mode: Wavelengths
Number of Pixels in Spectrum: 2048
>>>>>Begin Spectral Data<<<<<
187.83	-355567.75
188.298	2539.69
188.766	1295.52
189.233	1191.07
189.701	1608.7
190.169	2180.73
190.636	799.77
191.104	596.57
191.571	122.32
192.039	-60.29
192.506	-126.27
192.974	346.8
193.441	-551.32
193.908	-173.42
194.375	-66.09
194.842	-36.55
195.31	34.08
195.777	126.66
196.244	335.43
196.711	486.27
197.177	665.44
197.644	996.85
198.111	1726.62
198.578	2425.99
199.045	1947.51
199.511	3208.75
199.978	3744.04
200.445	3156.58
200.911	3492.08
201.378	3911.04
201.844	3558.83
202.31	6082.31
202.777	6265.47
203.243	3485.58
203.709	3322.45
204.176	3972.08
204.642	3278.09
205.108	3054.73
205.574	2509.03
206.04	2307.27
206.506	2167.25
206.972	2051.85
207.438	1976.24
207.903	2264.52
208.369	1982.75
208.835	1985.02
209.301	2079
209.766	2143.46
210.232	2137.01
210.697	2652.53
211.163	3273.1
211.628	4990.54
212.094	4183.44
212.559	5158.94
213.024	3204.65
213.49	3942.84
213.955	3876.81
214.42	3833.87
214.885	3567.51
215.35	3433.91
215.815	3289.13
216.28	3516.42
216.745	2887.4
217.21	3166.49
217.675	2952.47
218.14	3377.9
218.604	3831.08
219.069	4448.21
219.534	4730.36
219.998	5604.26
220.463	6911.97
220.927	8667.07
221.392	8249.44
221.856	8404.64
222.32	10703.52
222.785	13304.4
223.249	16829.86
223.713	18884.48
224.177	18937.62
224.642	24400.89
225.106	30138.24
225.57	33030.28
226.034	24600.38
226.497	37505.9
226.961	33888.08
227.425	39546.32
227.889	43996.83
228.353	44111.09
228.816	91202.18
229.28	87362.66
229.744	73745.07
230.207	44812.86
230.671	44108.82
231.134	73126.03
231.597	84356.68
232.061	84554.64
232.524	82492.11
232.987	56785.97
233.45	51103.43
233.914	45876.61
234.377	47047.58
234.84	43057.72
235.303	50831.03
235.766	56711.83
236.229	58565.74
236.691	36887.54
237.154	41446.74
237.617	31156.53
238.08	31926.87
238.542	37377.66
239.005	26703.72
239.468	26479.91
239.93	24972.57
240.393	22693.8
240.855	19928.24
241.317	20411.05
241.78	24859.36
242.242	25694.1
242.704	27715.49
243.166	24138.95
243.629	21901.35
244.091	25242.43
244.553	27668.18
245.015	29718.81
245.477	38451.09
245.939	56358.99
246.4	59887.31
246.862	58194.84
247.324	54917.27
247.786	61537.12
248.247	80700.9
248.709	83437.12
249.17	62426.69
249.632	58841.28
250.093	68185.96
250.555	58912.1
251.016	35958.34
251.477	34127.36
251.939	36879.68
252.4	38704.11
252.861	46109.01
253.322	42905.95
253.783	51134.06
254.244	66431.05
254.705	52426.02
255.166	46725.25
255.627	46083.43
256.088	65018.22
256.549	69068.44
257.009	59543.18
257.47	72287.21
257.931	58893.21
258.391	44159.61
258.852	45490.78
259.312	47692.85
259.773	59018.95
260.233	49865.24
260.694	42023.79
261.154	47689.55
261.614	38262.28
262.074	34235.78
262.534	35600.44
262.994	33527.77
263.455	44743.6
263.915	37759.26
264.374	35614.73
264.834	38882.27
265.294	43153.75
265.754	44725.77
266.214	42375.07
266.673	39759.86
267.133	50201.78
267.593	49849.93
268.052	61033.74
268.512	53057.73
268.971	63953.89
269.431	70140.11
269.89	62842.77
270.349	94211.19
270.809	105160.02
271.268	94590.78
271.727	212272.26
272.186	137533.43
272.645	103146.52
273.104	74518.87
273.563	107976.75
274.022	85010.52
274.481	72335.54
274.94	55757.28
275.399	41483.81
275.857	48286.3
276.316	65336.62
276.775	58146.49
277.233	57284.36
277.692	53655.17
278.15	60736.93
278.609	62463.73
279.067	57843.56
279.525	53743.75
279.984	69466.67
280.442	83499.88
280.9	82375.39
281.358	54231.5
281.816	50572.84
282.274	49550.7
282.732	51204.14
283.19	51477.47
283.648	44433.27
284.106	47339.38
284.564	48148.39
285.021	44615.45
285.479	33239.19
285.937	30252.09
286.394	26505.66
286.852	27285.31
287.309	28645.75
287.767	27639.77
288.224	26240.42
288.682	28819.98
289.139	31604.91
289.596	28887.23
290.053	30030.14
290.511	37906.54
290.968	45954.78
291.425	62461.92
291.882	51937.84
292.339	45234.65
292.796	44966.09
293.252	42442
293.709	33682.97
294.166	30210.24
294.623	33431.53
295.079	32120.8
295.536	32276.73
295.992	29312.49
296.449	29001.78
296.905	30175.85
297.362	28935.06
297.818	30457.02
298.274	31580.89
298.731	32244.26
299.187	31948.81
299.643	34337.9
300.099	41510.15
300.555	45562.42
301.011	38113.61
301.467	36722.67
301.923	43053.99
302.379	42087.87
302.835	41329.12
303.291	41423.24
303.746	47162.6
304.202	59606.76
304.658	59898.25
305.113	40332.35
305.569	39536.26
306.024	42196.85
306.479	40226.34
306.935	33919.62
307.39	37081.67
307.845	34284.91
308.301	34494.54
308.756	33648.96
309.211	32415.03
309.666	33195.43
310.121	41187.1
310.576	41839.23
311.031	41535.05
311.486	47628.9
311.94	47575.24
312.395	63623.48
312.85	119633.4
313.305	588734.79
313.759	3042868.35
314.214	220331.22
314.668	174759.35
315.123	146913.89
315.577	52633.92
316.032	46689.21
316.486	58433.37
316.94	46075.25
317.394	32069.37
317.849	24920.77
318.303	23597.58
318.757	22275.29
319.211	24662.95
319.665	21578.84
320.119	21854.86
320.572	31399.02
321.026	29376.02
321.48	24453.74
321.934	26711.71
322.387	26777.94
322.841	28931.13
323.295	25970.9
323.748	29979.25
324.202	30396.62
324.655	36526.93
325.108	50984.51
325.562	35979.17
326.015	42750.39
326.468	32329.85
326.921	36154.82
327.374	33692.82
327.827	35072.24
328.28	39700.56
328.733	26569.2
329.186	23387.01
329.639	22290.32
330.092	18816.23
330.545	17936.33
330.997	18100.09
331.45	19785.49
331.903	23150.46
332.355	39883.45
332.808	38754.99
333.26	31978.37
333.713	34682.09
334.165	34900.17
334.617	46602.86
335.069	37661.29
335.522	68065
335.974	75244.66
336.426	68648.55
336.878	47537.39
337.33	24073.99
337.782	23497.31
338.234	29393.01
338.686	35130.17
339.137	41605.37
339.589	39131.39
340.041	30643.65
340.493	26312.22
340.944	26985.78
341.396	29049.93
341.847	24431.79
342.299	28806.25
342.75	35146.32
343.201	30760.4
343.653	35453.75
344.104	43644.06
344.555	34378.36
345.006	53676.08
345.457	41082.4
345.908	32681.04
346.359	30763.84
346.81	25043.4
347.261	26413.4
347.712	26024.96
348.163	27911.94
348.613	28200.81
349.064	26305.44
349.515	23034.55
349.965	23590.32
350.416	28418.92
350.866	31175.84
351.317	35287.51
351.767	58522.78
352.217	74019.58
352.668	61503.25
353.118	56391.05
353.568	54492.38
354.018	43068.12
354.468	45375.07
354.918	32511.16
355.368	28456.62
355.818	40238.65
356.268	115699
356.718	483802.14
357.168	120358.64
357.617	60360.4
358.067	67100.26
358.517	62830.04
358.966	73727.41
359.416	82680.3
359.865	89398.65
360.315	106568.6
360.764	49682.03
361.213	27827.73
361.663	26392.91
362.112	32576.05
362.561	52577.9
363.01	39708.52
363.459	33424.81
363.908	36162.15
364.357	30692.99
364.806	51867.34
365.255	35655.26
365.703	32641.62
366.152	32673.07
366.601	26452.31
367.05	21483.7
367.498	19517.66
367.947	20399.46
368.395	21220.13
368.844	18779.8
369.292	22677.86
369.74	15653.55
370.189	23977.07
370.637	28077.49
371.085	24252.54
371.533	29562.78
371.981	28451.75
372.429	27087.11
372.877	28209.6
373.325	23595.29
373.773	24044.16
374.221	21387.86
374.669	26520.91
375.116	22934.88
375.564	23157.81
376.012	25889.11
376.459	21337.06
376.907	25562.61
377.354	30967.5
377.801	28855.05
378.249	33206.41
378.696	42495.52
379.143	51510.4
379.591	55005.94
380.038	93073.49
380.485	67337.24
380.932	72886.34
381.379	66719.99
381.826	49077.33
382.273	34936.46
382.72	30607.02
383.166	29848.79
383.613	19378.86
384.06	17491.67
384.506	20263.5
384.953	14921.72
385.4	15046.93
385.846	13210.99
386.292	12922.07
386.739	12682.07
387.185	12575.7
387.631	12606.92
388.078	12259.41
388.524	13169.57
388.97	12216.77
389.416	10206.95
389.862	10867.53
390.308	10332.9
390.754	10511.52
391.2	11446.05
391.645	11761.64
392.091	11259.22
392.537	10902.49
392.983	10971.1
393.428	10798.97
393.874	11596.37
394.319	11666.74
394.765	11081.36
395.21	11428.28
395.655	10754.83
396.101	10092.63
396.546	9124.06
396.991	9248.05
397.436	8619.96
397.881	8333.5
398.326	7914.47
398.771	7492.36
399.216	6573.31
399.661	5942.54
400.106	5921.65
400.551	6065.84
400.995	5451.15
401.44	5400.81
401.885	5079.84
402.329	5138.46
402.774	4939.4
403.218	4780.62
403.663	4615.51
404.107	4747.3
404.551	4781.28
404.995	4393.95
405.44	4245.49
405.884	4317.03
406.328	4186.8
406.772	4181.07
407.216	3811.98
407.66	3689.07
408.104	3516.17
408.547	3297.51
408.991	3196.91
409.435	3084.78
409.879	3042.34
410.322	3002.55
410.766	2901.15
411.209	2757.09
411.653	2645.91
412.096	2586.53
412.54	2589.96
412.983	2574.37
413.426	2578.4
413.869	2578.64
414.312	2529.33
414.756	2438.76
415.199	2326.63
415.642	2255.67
416.085	2260.17
416.527	2245.19
416.97	2286.91
417.413	2167.56
417.856	2144.13
418.298	2126.54
418.741	2113.29
419.184	2111.11
419.626	2205.84
420.069	2206.41
420.511	2217.68
420.953	2166.25
421.396	2149.57
421.838	2097.32
422.28	2149.02
422.722	2158.86
423.164	2188.76
423.606	2150.15
424.048	2147.34
424.49	2036.91
424.932	2029.32
425.374	2006.02
425.816	2046.79
426.258	2082.52
426.699	2102.28
427.141	2067.47
427.582	2103.14
428.024	2094.55
428.465	2085.84
428.907	2033.74
429.348	2010.61
429.789	2005.95
430.231	1959.83
430.672	1982.18
431.113	1936.27
431.554	1908.28
431.995	1861.39
432.436	1791.12
432.877	1747.93
433.318	1714.18
433.759	1705.06
434.2	1704.54
434.64	1686.69
435.081	1692
435.522	1603.6
435.962	1543.5
436.403	1509.97
436.843	1531.35
437.284	1500.4
437.724	1462.09
438.164	1469.59
438.604	1437.76
439.045	1381.02
439.485	1324.72
439.925	1298.66
440.365	1268.12
440.805	1254.96
441.245	1238.9
441.685	1196.23
442.125	1190.9
442.564	1201.91
443.004	1178.53
443.444	1180.49
443.883	1187.39
444.323	1185.28
444.762	1194.32
445.202	1215.66
445.641	1242.64
446.081	1243.29
446.52	1256.82
446.959	1249.33
447.398	1221.1
447.837	1209.09
448.276	1192.77
448.716	1207.82
449.154	1224.5
449.593	1197.58
450.032	1197.4
450.471	1179.73
450.91	1185.07
451.349	1185.61
451.787	1183.2
452.226	1206.18
452.664	1210.76
453.103	1216.01
453.541	1217.63
453.98	1215.08
454.418	1227.33
454.856	1209.98
455.295	1208.84
455.733	1218.73
456.171	1227.96
456.609	1231.03
457.047	1231.63
457.485	1248.7
457.923	1250.63
458.361	1235.38
458.798	1242.05
459.236	1239.88
459.674	1250.37
460.111	1258.61
460.549	1246.95
460.987	1245.41
461.424	1242.65
461.862	1237.98
462.299	1219.51
462.736	1218.47
463.173	1223.38
463.611	1207.97
464.048	1204.08
464.485	1213.94
464.922	1203.19
465.359	1198.63
465.796	1174.61
466.233	1165.28
466.67	1153.08
467.106	1150.69
467.543	1140.17
467.98	1126.47
468.416	1099.22
468.853	1092.1
469.29	1061.24
469.726	1048.67
470.162	1022.01
470.599	1015.32
471.035	1006.82
471.471	984.9
471.907	980.63
472.344	975.57
472.78	977.14
473.216	991.08
473.652	980.41
474.088	979.02
474.523	977.44
474.959	987.4
475.395	980.65
475.831	976.39
476.266	981.45
476.702	981.14
477.138	971.47
477.573	969.74
478.008	966.5
478.444	970.64
478.879	978.48
479.314	983.68
479.75	983.84
480.185	989.74
480.62	998.58
481.055	1005.65
481.49	1012.6
481.925	1028.45
482.36	1046.25
482.795	1076.89
483.229	1107.99
483.664	1134
484.099	1140.45
484.534	1157.93
484.968	1169.8
485.403	1175.73
485.837	1176.05
486.271	1176.28
486.706	1178.69
487.14	1168.35
487.574	1151.55
488.009	1143.49
488.443	1134.48
488.877	1147.09
489.311	1153.83
489.745	1168.95
490.179	1180.54
490.613	1202.22
491.046	1213.61
491.48	1224.79
491.914	1229.36
492.348	1241.12
492.781	1250.49
493.215	1255.98
493.648	1261.05
494.082	1273.34
494.515	1276.17
494.948	1293.05
495.382	1306.69
495.815	1318.41
496.248	1330.66
496.681	1356.26
497.114	1378.9
497.547	1398.63
497.98	1423.52
498.413	1435.93
498.846	1455.53
499.279	1473.32
499.711	1483.33
500.144	1489.33
500.577	1508.8
501.009	1531.3
501.442	1550.03
501.874	1554.32
502.306	1561.23
502.739	1575.36
503.171	1603.35
503.603	1610.58
504.036	1630.53
504.468	1642.39
504.9	1663.99
505.332	1677.3
505.764	1684.31
506.196	1697.53
506.627	1723.15
507.059	1747.3
507.491	1764.98
507.923	1759.91
508.354	1785.46
508.786	1800.55
509.217	1830.42
509.649	1854.3
510.08	1886.52
510.512	1913.44
510.943	1936.83
511.374	1953.06
511.805	1984.54
512.237	2014.49
512.668	2068.75
513.099	2111.94
513.53	2156.15
513.961	2184.94
514.391	2234.18
514.822	2283.92
515.253	2339.76
515.684	2376.19
516.114	2419.74
516.545	2447.27
516.975	2483.35
517.406	2504.26
517.836	2498.93
518.267	2500.24
518.697	2522.97
519.127	2522.62
519.558	2525.62
519.988	2523.26
520.418	2532.04
520.848	2553.08
521.278	2558.24
521.708	2552
522.138	2564.29
522.567	2608.5
522.997	2642.77
523.427	2660.93
523.857	2678.83
524.286	2688.6
524.716	2703.98
525.145	2725.36
525.575	2733.67
526.004	2749.87
526.433	2755.51
526.863	2748.93
527.292	2724.1
527.721	2724.7
528.15	2726.74
528.579	2722.38
529.008	2733.87
529.437	2765.95
529.866	2784.19
530.295	2808.59
530.724	2823.72
531.152	2862.32
531.581	2881.38
532.01	2905.96
532.438	2916.45
532.867	2936.2
533.295	2961.66
533.723	2968.43
534.152	2962.14
534.58	2958.56
535.008	2929.63
535.436	2930.66
535.865	2941.74
536.293	2963.73
536.721	2987.6
537.149	3027.8
537.576	3030.71
538.004	3049.4
538.432	3061.08
538.86	3057.09
539.287	3068.19
539.715	3089.05
540.143	3093.03
540.57	3084.84
540.998	3076.43
541.425	3038.49
541.852	3003.68
542.28	3000.21
542.707	2974.11
543.134	2949.68
543.561	2942.22
543.988	2929.32
544.415	2928.9
544.842	2919
545.269	2907.96
545.696	2909.91
546.123	2930.69
546.549	2914.25
546.976	2893.49
547.403	2892.05
547.829	2896.2
548.256	2899.78
548.682	2893.47
549.108	2881.12
549.535	2881.29
549.961	2883.59
550.387	2863.76
550.813	2853.47
551.24	2862.32
551.666	2862.48
552.092	2847.41
552.518	2837.33
552.943	2827.32
553.369	2839.1
553.795	2848.26
554.221	2848.38
554.646	2844.66
555.072	2860.87
555.498	2870.77
555.923	2887.65
556.349	2914.03
556.774	2931.12
557.199	2935.13
557.625	2947.84
558.05	2940.56
558.475	2960.13
558.9	2961.79
559.325	2950.86
559.75	2945.55
560.175	2938.23
560.6	2930.62
561.025	2932.75
561.449	2936.93
561.874	2950.38
562.299	2959.53
562.723	2977.2
563.148	2965.35
563.572	2978.45
563.997	2998.99
564.421	3013.26
564.846	3019.92
565.27	3031.07
565.694	3031.86
566.118	3056.09
566.542	3073.32
566.966	3069.91
567.39	3067.87
567.814	3054.91
568.238	3058.52
568.662	3074.82
569.086	3085.48
569.509	3104.96
569.933	3086.38
570.357	3079.23
570.78	3051.56
571.204	3034.19
571.627	3023.05
572.05	3025.57
572.474	3032.06
572.897	3017.14
573.32	3009.5
573.743	2998
574.166	2971.5
574.589	2978.37
575.012	2971.19
575.435	2974.59
575.858	2965.52
576.281	2950.49
576.704	2928.04
577.126	2912.39
577.549	2899.29
577.972	2888.07
578.394	2872.77
578.817	2862.79
579.239	2832.62
579.661	2812.07
580.084	2786.01
580.506	2766
580.928	2763.34
581.35	2748.56
581.772	2744.64
582.194	2723.58
582.616	2704.68
583.038	2684.37
583.46	2671.11
583.882	2669.25
584.303	2682.48
584.725	2680.37
585.147	2683.55
585.568	2704.66
585.99	2728.44
586.411	2742.05
586.833	2770.62
587.254	2776.23
587.675	2805.68
588.096	2831.18
588.518	2824.24
588.939	2796.55
589.36	2794.56
589.781	2783.5
590.202	2733.21
590.623	2719.33
591.043	2717.76
591.464	2698.56
591.885	2693.02
592.305	2685.36
592.726	2662.91
593.147	2666.56
593.567	2659.48
593.987	2648.84
594.408	2641.2
594.828	2641.34
595.248	2632.25
595.669	2599.83
596.089	2588.43
596.509	2578.9
596.929	2555.33
597.349	2558.61
597.769	2541.28
598.189	2530.58
598.608	2533.6
599.028	2539.16
599.448	2542.23
599.867	2521.97
600.287	2515.69
600.706	2509.18
601.126	2492.78
601.545	2491.65
601.965	2489.3
602.384	2482.68
602.803	2489.87
603.222	2482.73
603.641	2471.89
604.061	2465.41
604.48	2461.4
604.898	2478.91
605.317	2491.3
605.736	2496.05
606.155	2493.7
606.574	2479.3
606.992	2490.76
607.411	2484.81
607.829	2472.86
608.248	2469.98
608.666	2469.78
609.085	2469.35
609.503	2455.89
609.921	2445.71
610.339	2453.05
610.758	2453.21
611.176	2447.82
611.594	2432.88
612.012	2427.61
612.43	2434.64
612.847	2449.06
613.265	2451.11
613.683	2460.99
614.101	2466.33
614.518	2462.63
614.936	2446.14
615.353	2421.03
615.771	2416.97
616.188	2420.17
616.606	2416.99
617.023	2407.29
617.44	2382.75
617.857	2374.89
618.274	2363.75
618.691	2353.97
619.108	2338.13
619.525	2328.6
619.942	2343.88
620.359	2351.5
620.776	2343.78
621.192	2337.37
621.609	2336.07
622.026	2350.41
622.442	2361.07
622.859	2368.32
623.275	2355.8
623.691	2367.83
624.108	2390.79
624.524	2419.57
624.94	2420.54
625.356	2441.24
625.772	2467.57
626.188	2489.65
626.604	2492.71
627.02	2486.17
627.436	2482.14
627.852	2494.78
628.268	2517.63
628.683	2501.71
629.099	2484.71
629.514	2475.83
629.93	2481.94
630.345	2490.68
630.761	2484.4
631.176	2490.93
631.591	2477.04
632.007	2465.68
632.422	2465.3
632.837	2445.19
633.252	2441.65
633.667	2425.3
634.082	2410.28
634.497	2388.62
634.911	2353.38
635.326	2348.05
635.741	2319.42
636.155	2306.05
636.57	2311.05
636.984	2313.11
637.399	2318.25
637.813	2321.17
638.228	2322.71
638.642	2335.26
639.056	2319.42
639.47	2323.58
639.884	2311.74
640.298	2302.58
640.712	2304.83
641.126	2284.59
641.54	2272.81
641.954	2268.92
642.368	2249.45
642.781	2234.26
643.195	2204.15
643.609	2208.6
644.022	2200.78
644.436	2197.17
644.849	2177.14
645.262	2157.42
645.676	2162.99
646.089	2154.04
646.502	2123.19
646.915	2114.22
647.328	2082.27
647.741	2077.83
648.154	2052.76
648.567	2043.81
648.98	2015.52
649.393	2015.25
649.805	2007.1
650.218	1990.94
650.631	1959.47
651.043	1947.66
651.456	1935.49
651.868	1938.88
652.28	1971.23
652.693	1998.85
653.105	2012.9
653.517	2032.95
653.929	2033.63
654.341	2043.59
654.753	2019.19
655.165	2031.97
655.577	2025.89
655.989	2015.69
656.401	1999.17
656.813	1926.65
657.224	1884.93
657.636	1828.67
658.047	1788.95
658.459	1749.57
658.87	1731.05
659.282	1707.66
659.693	1663.5
660.104	1632.44
660.515	1602.65
660.926	1597.27
661.338	1589.4
661.749	1573.71
662.159	1552.22
662.57	1541.34
662.981	1528.85
663.392	1510.16
663.803	1512.13
664.213	1503.73
664.624	1492.55
665.035	1494.73
665.445	1464.43
665.855	1445.6
666.266	1425.54
666.676	1416.95
667.086	1397.57
667.497	1389.51
667.907	1373.66
668.317	1353.31
668.727	1339.91
669.137	1336.47
669.547	1327.3
669.956	1327.23
670.366	1326.97
670.776	1326.41
671.186	1329.79
671.595	1331.58
672.005	1335.75
672.414	1331.65
672.824	1324.82
673.233	1332.01
673.642	1333.48
674.052	1334.82
674.461	1333.77
674.87	1339.45
675.279	1331.52
675.688	1332.47
676.097	1331.13
676.506	1322.77
676.915	1344.24
677.323	1347.07
677.732	1341.5
678.141	1339.97
678.549	1322.54
678.958	1322.67
679.366	1321.46
679.775	1331.75
680.183	1348.27
680.592	1360.85
681	1374.22
681.408	1365.79
681.816	1385.28
682.224	1406.63
682.632	1426.63
683.04	1483.63
683.448	1532.36
683.856	1593.17
684.264	1662.33
684.671	1730.12
685.079	1810.83
685.487	1897.33
685.894	2018.25
686.302	2117.71
686.709	2200.4
687.116	2298.22
687.524	2376.06
687.931	2442.25
688.338	2496.36
688.745	2542.36
689.152	2591.47
689.559	2657.06
689.966	2720.37
690.373	2741.32
690.78	2796.37
691.187	2888.38
691.593	2949.75
692	2999.71
692.407	3083.78
692.813	3190.74
693.22	3265.23
693.626	3344.82
694.032	3400.83
694.439	3500.08
694.845	3569.53
695.251	3662.66
695.657	3743.44
696.063	3879.14
696.469	3969.46
696.875	4049.18
697.281	4078.58
697.687	4125.47
698.093	4154.73
698.498	4243.65
698.904	4307.4
699.31	4415.8
699.715	4482.84
700.12	4594.71
700.526	4589.36
700.931	4665.5
701.337	4715.34
701.742	4736.54
702.147	4836.17
702.552	4856.01
702.957	4920.74
703.362	4923.65
703.767	4941.49
704.172	4975.87
704.577	4883.56
704.981	4931.07
705.386	4931.5
705.791	4898.14
706.195	4985.31
706.6	4975.37
707.004	5071.04
707.408	5007.87
707.813	5023.1
708.217	4986.12
708.621	4972.42
709.025	5088.06
709.43	5070.01
709.834	5138.39
710.237	5214.84
710.641	5176.71
711.045	5191.22
711.449	5165.41
711.853	5183.03
712.256	5226.46
712.66	5262.44
713.064	5347.93
713.467	5389.53
713.87	5527.11
714.274	5572.97
714.677	5706.79
715.08	5907.43
715.484	6116.24
715.887	6368.03
716.29	6622.26
716.693	6881.21
717.096	7179.64
717.499	7335.95
717.901	7354.65
718.304	7370.93
718.707	7388.75
719.109	7240.11
719.512	7187.24
719.915	6996.03
720.317	6910.84
720.719	6955.93
721.122	6906.69
721.524	6834.03
721.926	6767.23
722.328	6886.63
722.731	6866.1
723.133	6893.57
723.535	7132.93
723.937	7148.87
724.338	7207.22
724.74	7246.14
725.142	7133.2
725.544	7124.75
725.945	7144.97
726.347	7131.2
726.748	7114.01
727.15	7123.69
727.551	7063.89
727.952	7024.63
728.354	6980.55
728.755	6974.77
729.156	6920.31
729.557	6918.65
729.958	6759.7
730.359	6687.37
730.76	6660.98
731.161	6580.34
731.562	6545.39
731.962	6545.3
732.363	6456.02
732.763	6370.18
733.164	6409.3
733.564	6319.27
733.965	6194.5
734.365	6144.05
734.766	6175.76
735.166	6122.23
735.566	6050.06
735.966	6013.73
736.366	6003.48
736.766	5924.97
737.166	5960.25
737.566	5906.13
737.966	5871.24
738.365	5916.97
738.765	5906.35
739.165	5811.46
739.564	5775.69
739.964	5827.94
740.363	5768.86
740.763	5763.89
741.162	5744.71
741.561	5704.12
741.96	5645.81
742.36	5669.56
742.759	5673.55
743.158	5720.71
743.557	5736.32
743.955	5784.76
744.354	5726.69
744.753	5793.74
745.152	5742.03
745.55	5808.33
745.949	5800.05
746.348	5802.64
746.746	5821.8
747.144	5771.89
747.543	5743.85
747.941	5804.64
748.339	5718.65
748.737	5710.75
749.136	5699.58
749.534	5778.8
749.932	5744.76
750.33	5771.48
750.727	5837.5
751.125	5808.09
751.523	5790.1
751.921	5841.69
752.318	5798.95
752.716	5869.88
753.113	5885.53
753.511	5917.08
753.908	5916.83
754.305	5897.91
754.703	5976.07
755.1	6051.12
755.497	6124.71
755.894	6357.34
756.291	6576.64
756.688	6979.03
757.085	7516.88
757.482	8272.39
757.878	9097.96
758.275	9846.68
758.672	10873.55
759.068	11710.74
759.465	12902.03
759.861	14439.6
760.258	16221.92
760.654	17145.63
761.05	17003.52
761.447	16223.03
761.843	15105.73
762.239	13950.47
762.635	13423.84
763.031	12925.12
763.427	12197.87
763.822	11439.94
764.218	10687.85
764.614	9711.97
765.01	9058.17
765.405	8636.48
765.801	8317.63
766.196	7904.33
766.592	7673.92
766.987	7287.05
767.382	7020.76
767.778	6909.27
768.173	6746.89
768.568	6657.83
768.963	6506.28
769.358	6527.35
769.753	6471.15
770.148	6370.21
770.542	6368.98
770.937	6329.76
771.332	6440.53
771.726	6465.66
772.121	6389.32
772.515	6457.28
772.91	6441.42
773.304	6527.24
773.699	6449.9
774.093	6517
774.487	6581.52
774.881	6634.55
775.275	6630.13
775.669	6583.11
776.063	6639.5
776.457	6688.6
776.851	6598.23
777.245	6591.39
777.638	6631.39
778.032	6769.03
778.425	6725.53
778.819	6779.05
779.212	6728.57
779.606	6680.44
779.999	6705.35
780.392	6686.92
780.786	6785.15
781.179	6816.1
781.572	6863.2
781.965	6880.63
782.358	6813.72
782.751	6882.39
783.143	6823.38
783.536	6915
783.929	6968.39
784.322	7109
784.714	7144.68
785.107	7140.8
785.499	7222.45
785.891	7202.3
786.284	7180.53
786.676	7355
787.068	7331.87
787.46	7398.13
787.852	7421.89
788.245	7527.71
788.636	7562.04
789.028	7646.35
789.42	7692.25
789.812	7708
790.204	7819.92
790.595	7939.33
790.987	7699.41
791.378	7725.48
791.77	7881.51
792.161	8045.43
792.553	8114.02
792.944	7977.24
793.335	7893.43
793.726	7980.74
794.117	8087.01
794.508	8252.87
794.899	8219.66
795.29	8388.16
795.681	8458.99
796.072	8284.39
796.463	8056.1
796.853	8063.46
797.244	8253.57
797.634	8296.67
798.025	8292.44
798.415	8307.48
798.806	8417.03
799.196	8516.06
799.586	8577.43
799.976	8527.09
800.366	8808.2
800.756	9106.7
801.146	9061.75
801.536	9098.76
801.926	9183.39
802.316	9218.13
802.706	9303.18
803.095	9156.5
803.485	9281.25
803.874	9332.79
804.264	9650.7
804.653	9620.97
805.043	9793.33
805.432	9922.93
805.821	9922.09
806.21	9947.47
806.599	10096.17
806.988	10152.9
807.377	10280.49
807.766	10441.04
808.155	10786.84
808.544	10469.62
808.933	10486.73
809.321	10458.39
809.71	10825.59
810.098	11020.41
810.487	11588.86
810.875	12170.61
811.264	12193.71
811.652	12541.72
812.04	12715.66
812.428	12918.74
812.816	13852.78
813.204	14363.1
813.592	15047.66
813.98	15455.94
814.368	15346.06
814.756	15926.47
815.144	15836.9
815.531	16420.77
815.919	16341.93
816.306	16722.53
816.694	16338.32
817.081	16404.3
817.469	16831.45
817.856	16824.78
818.243	17156.17
818.63	17635.65
819.017	17127.18
819.404	17199.76
819.791	17663.54
820.178	18411.18
820.565	18714.63
820.952	19849.76
821.339	19244.14
821.725	19468.29
822.112	18561.98
822.498	18518.78
822.885	18682.2
823.271	18564.92
823.657	19074.07
824.044	19070.57
824.43	19163.98
824.816	19126.36
825.202	18597.31
825.588	19846.36
825.974	19867.63
826.36	20492.88
826.746	20520.24
827.132	20955.18
827.517	20918.41
827.903	19960.35
828.289	20006.1
828.674	19062.24
829.06	18934.29
829.445	19413.23
829.83	19842.11
830.216	20417.1
830.601	20862.75
830.986	20364.86
831.371	20192.24
831.756	20858.66
832.141	20330.52
832.526	20331.23
832.911	20663.52
833.295	20516.05
833.68	21086.83
834.065	20328.03
834.449	19218.09
834.834	19130.8
835.218	19125.86
835.603	19539.1
835.987	19294.17
836.371	20311.45
836.755	20174.7
837.139	20663.51
837.524	20963.44
837.908	20753.54
838.291	20825.69
838.675	20912.52
839.059	21161.33
839.443	21153.66
839.827	20875.2
840.21	21464.44
840.594	21276.54
840.977	21539.25
841.361	21511.52
841.744	21965.58
842.127	21772.71
842.511	22073.26
842.894	22802.56
843.277	23271.04
843.66	23923.33
844.043	24019.6
844.426	23034.89
844.809	22671.89
845.191	22700.65
845.574	22139.29
845.957	21699
846.339	21565.83
846.722	20922.29
847.104	21002.82
847.487	20797.86
847.869	20817.87
848.252	21160.46
848.634	21563.12
849.016	21879.5
849.398	22039.25
849.78	23086.18
850.162	23096.11
850.544	23602.71
850.926	24381.52
851.307	24271.35
851.689	24614.39
852.071	25170.73
852.452	25568.38
852.834	25550.18
853.215	26036.74
853.597	26224.72
853.978	26579.59
854.359	27128.69
854.741	25924.34
855.122	25800.83
855.503	25449.94
855.884	25614.75
856.265	25534.87
856.646	25676.98
857.026	25198.96
857.407	25114.93
857.788	25303.89
858.169	25652.92
858.549	24624.18
858.93	25383.6
859.31	25455.13
859.69	25708.25
860.071	25209.94
860.451	24951.46
860.831	24043.54
861.211	25445.98
861.591	26130
861.971	26103.71
862.351	26352.36
862.731	26827.64
863.111	27152.44
863.491	27540.72
863.87	28605
864.25	29042.34
864.629	28539.81
865.009	29168.53
865.388	30213.6
865.768	32358.49
866.147	32224.42
866.526	30407.62
866.905	30758.26
867.284	32480.4
867.663	30840.57
868.042	29560.48
868.421	29441.61
868.8	29941.09
869.179	30221.37
869.558	28450.73
869.936	26218.45
870.315	26681.84
870.693	27340.67
871.072	29478.71
871.45	28076.53
871.828	28428.27
872.207	29885.86
872.585	29439.69
872.963	30228.57
873.341	29199.29
873.719	28848.62
874.097	28488.02
874.475	29031.39
874.853	29701.2
875.23	28462.82
875.608	29638.93
875.986	32062.54
876.363	30657.03
876.741	31590.02
877.118	30792.34
877.495	32300.69
877.873	32834.87
878.25	34560.65
878.627	33138.06
879.004	33581.6
879.381	33434.05
879.758	32561.05
880.135	30301.9
880.512	32044.66
880.889	31196.29
881.265	30871.65
881.642	30604.03
882.019	31130.11
882.395	30499.64
882.772	31708.1
883.148	30333.33
883.524	30204.5
883.901	30033.94
884.277	30488.98
884.653	30284
885.029	31147.24
885.405	34490.63
885.781	34239.02
886.157	32827.59
886.532	33229.66
886.908	33220.7
887.284	36948.09
887.659	38156.6
888.035	39329.32
888.411	40348.92
888.786	40891.29
889.161	42311.34
889.537	41558.61
889.912	42887.79
890.287	42839.74
890.662	43951.07
891.037	43157.56
891.412	40243.49
891.787	39842.43
892.162	38464.19
892.536	39360.7
892.911	37890.25
893.286	37093.98
893.66	35593.28
894.035	36492.46
894.409	39741.3
894.784	38150.17
895.158	38792.62
895.532	41111.53
895.906	42235.18
896.281	43240.99
896.655	42549.66
897.029	48616.7
897.402	50637.58
897.776	56359.18
898.15	56177.15
898.524	55580.57
898.898	56306.94
899.271	63028.81
899.645	54559.46
900.018	52393.06
900.392	54322.78
900.765	54787.01
901.138	50711.72
901.511	49932.4
901.884	45848.22
902.258	42284.34
902.631	43689.21
903.003	50288.69
903.376	45380.18
903.749	50902.48
904.122	54508.85
904.495	59997.63
904.867	60749.82
905.24	52707.58
905.612	49082.01
905.985	50209.88
906.357	52499.18
906.729	50110.18
907.102	42793.3
907.474	41145.56
907.846	41399.16
908.218	40848.12
908.59	36105.77
908.962	34918.73
909.334	37621.28
909.705	39503.97
910.077	38333.26
910.449	39903.18
910.82	41021.89
911.192	45148.45
911.563	46913.62
911.935	50210.67
912.306	50275.28
912.677	51904.85
913.048	51376.79
913.419	55708.49
913.79	56023.98
914.161	60067.32
914.532	57371.4
914.903	52707.05
915.274	50038.29
915.645	49284.47
916.015	43354.32
916.386	41311.07
916.756	43964.8
917.127	45314.91
917.497	40490.9
917.868	44040.01
918.238	41819.75
918.608	43028.56
918.978	43922.61
919.348	46507.34
919.718	48042.89
920.088	46261.31
920.458	48045.45
920.828	50567.87
921.198	47945.25
921.567	51210.69
921.937	39672.46
922.306	40068.99
922.676	43207.84
923.045	36037.52
923.415	34215.9
923.784	31171.5
924.153	32065.75
924.522	32048.11
924.891	30116.44
925.26	32265.05
925.629	31495.31
925.998	36217.07
926.367	35355.76
926.736	33669.4
927.104	40116.4
927.473	43150.84
927.842	52087.67
928.21	51566.45
928.578	54196.84
928.947	51249.93
929.315	51562.71
929.683	60513.67
930.051	61005.24
930.42	70857.65
930.788	60595.32
931.156	60119
931.523	56316.71
931.891	52065.42
932.259	50001.3
932.627	57959.67
932.994	82018.02
933.362	67802.21
933.729	58866.05
934.097	56322.45
934.464	47649.65
934.831	54958.61
935.199	54188.09
935.566	52571.05
935.933	53225.07
936.3	64519.43
936.667	50260.98
937.034	45303.45
937.401	44815.26
937.767	38677.8
938.134	34431.61
938.501	48592.27
938.867	51819.08
939.234	87667.41
939.6	74818.07
939.967	82545
940.333	55232.1
940.699	47001.98
941.065	37750.01
941.431	49454.97
941.798	47665.3
942.163	62634.91
942.529	39131.87
942.895	36038.47
943.261	23293.68
943.627	30578.08
943.992	26770.08
944.358	26832.87
944.723	26914.3
945.089	26246.25
945.454	24241.74
945.82	25892.58
946.185	24866.99
946.55	28815.07
946.915	25839.2
947.28	30319.87
947.645	26701.31
948.01	24656.54
948.375	25701.88
948.74	30842.98
949.104	35951.64
949.469	51959.55
949.834	91779.93
950.198	87030.71
950.562	52128.47
950.927	43378.28
951.291	52141.64
951.655	44392.06
952.02	41727
952.384	31529.14
952.748	27400.74
953.112	26708.25
953.476	23230.62
953.839	21494.06
954.203	21259.81
954.567	26579.24
954.931	41918.65
955.294	35891.19
955.658	36116.18
956.021	61308.59
956.385	103988.91
956.748	153521.14
957.111	238460.99
957.474	267533.07
957.837	301244.25
958.2	228112.41
958.563	82127.38
958.926	55475.54
959.289	84162.21
959.652	93970.8
960.015	70522.77
960.377	101195.91
960.74	115573.41
961.102	199452.87
961.465	214046.27
961.827	114431.21
962.189	219512.08
962.552	152058.14
962.914	121848.88
963.276	79027.87
963.638	65342.94
964	64705.15
964.362	43759.74
964.724	42271.76
965.085	30134.57
965.447	24719.3
965.809	28214.86
966.17	28230.21
966.532	30560.42
966.893	28062.38
967.255	25563.27
967.616	30155.41
967.977	24123.57
968.338	26318.02
968.699	21610.61
969.061	21606.73
969.421	21745.78
969.782	24397.55
970.143	20610.18
970.504	21324.44
970.865	24230.6
971.225	24723.7
971.586	24211.07
971.946	34575.67
972.307	30018.97
972.667	39270.93
973.027	40430.15
973.388	49020.18
973.748	33329.79
974.108	36306.3
974.468	49145.88
974.828	37867.17
975.188	29173.12
975.548	26776.35
975.907	22442.67
976.267	25172.33
976.627	21151.22
976.986	21915.49
977.346	20880.46
977.705	20103.85
978.064	18303.72
978.424	15232.75
978.783	15756.58
979.142	17991.89
979.501	17195.9
979.86	18191.97
980.219	17549.89
980.578	22633.13
980.937	25366.61
981.296	22623.59
981.654	23254.98
982.013	36194.58
982.371	46911.9
982.73	43826.02
983.088	49549.47
983.447	52906.07
983.805	75566.31
984.163	157674.28
984.521	174981.7
984.879	256449.3
985.237	-417119.94
985.595	401999.37
985.953	99912.98
986.311	57792.37
986.669	33516.59
987.026	28964.17
987.384	39021.38
987.741	40408.16
988.099	28873.83
988.456	23003.8
988.814	21529.52
989.171	18715.2
989.528	18492.73
989.885	19510.45
990.242	15445.15
990.599	19260.72
990.956	15733.85
991.313	10985.85
991.67	8999.74
992.027	9525.87
992.383	8465.38
992.74	7427.41
993.096	7784.3
993.453	8063.75
993.809	8373.77
994.165	11152.83
994.522	10212.37
994.878	11270.47
995.234	14156.69
995.59	13976.86
995.946	13272.74
996.302	15149.43
996.658	17500.54
997.013	19283.81
997.369	22884.16
997.725	29233.6
998.08	18950.18
998.436	29250.14
998.791	40291.76
999.147	40226.24
999.502	43915.19
999.857	31913.84
1000.212	52049.83
1000.567	74216.65
1000.922	42889.18
1001.277	27217.9
1001.632	20217.2
1001.987	26036.76
1002.342	18705.78
1002.696	14991.45
1003.051	11962.76
1003.406	14492.03
1003.76	14409.73
1004.114	14201.8
1004.469	11932.34
1004.823	9877.75
1005.177	10657.23
1005.531	8453.71
1005.885	7479.64
1006.239	8420.76
1006.593	10544.33
1006.947	14111.47
1007.301	10581.92
1007.655	11533.06
1008.008	8450.06
1008.362	9494.27
1008.715	13547.69
1009.069	12319.75
1009.422	18506.25
1009.776	37214.28
1010.129	24719.88
1010.482	20654.99
1010.835	17451.42
1011.188	36343.36
1011.541	34241.45
1011.894	-209811.29
1012.247	617337.96
1012.6	42027.45
1012.952	26529.89
1013.305	13685.94
1013.657	9843.59
1014.01	9322.33
1014.362	7698.77
1014.715	6849.7
1015.067	5958.67
1015.419	5842.59
1015.771	5165.17
1016.123	4579.89
1016.475	4688.27
1016.827	5000.18
1017.179	5350.76
1017.531	5400.67
1017.883	5526.76
1018.234	5327.06
1018.586	6699.47
1018.938	7075.09
1019.289	9737.1
1019.64	11180.86
1019.992	10464.65
1020.343	9626.15
1020.694	7568.11
1021.045	6722.99
1021.396	7698.04
1021.747	8229.01
1022.098	9884.02
1022.449	7179.89
1022.8	6680.6
1023.151	4637.09
1023.501	4106.51
1023.852	4464.56
1024.202	4623.01
1024.553	5092.82
1024.903	4975.84
1025.253	4242.6
1025.604	3819.81
1025.954	4734.15
1026.304	5795.2
1026.654	6768.01
1027.004	9925.19
1027.354	16068.47
1027.703	15053.8
1028.053	19812.53
1028.403	28964.02
1028.753	41923.36
1029.102	56962.08
1029.452	292297.24
1029.801	12612.93
1030.15	8119.08
1030.499	6865.04
897.758	2661.75
901.051	2618.88
904.343	2658.58
907.636	2657.43
910.928	2723.84
914.22	2630
917.511	2639.15
920.803	2702.87
924.094	2723.43
927.384	2704.05
930.675	2669.85
933.965	2622.71
937.255	2634.67
940.544	2599.43
943.834	2541.92
947.123	2484.13
950.411	2583.32
953.7	2553.38
956.988	2522.61
960.276	2463.82
963.563	2545.78
966.851	2542.54
970.138	2599.3
973.424	2591.45
976.711	2540.32
979.997	2672.99
983.283	2709.09
986.568	2614.34
989.853	2634.15
993.138	2658.88
996.423	2740.71
999.708	2677.71
1002.992	2742.69
1006.275	2580.1
1009.559	2624.89
1012.842	2742.14
1016.125	2673.09
1019.408	2653.12
1022.69	2739.71
1025.972	2756.42
1029.254	2734.75
1032.536	2665.71
1035.817	2692.33
1039.098	2634.61
1042.379	2781.41
1045.659	2779.31
1048.939	2713.08
1052.219	2733.63
1055.498	2747.08
1058.778	2732.11
1062.057	2718.31
1065.335	2739.31
1068.614	2758.29
1071.892	2743.28
1075.17	2818.46
1078.447	2806.82
1081.724	2797.85
1085.001	2834.44
1088.278	2812.36
1091.554	2820.33
1094.83	2819.3
1098.106	2845.41
1101.382	2891.78
1104.657	2894.27
1107.932	2887.74
1111.206	2850.77
1114.481	2810.03
1117.755	2815.88
1121.029	2794.72
1124.302	2846.24
1127.575	2800.56
1130.848	2787.3
1134.121	2747.49
1137.393	2696.12
1140.665	2764.96
1143.937	2737.72
1147.208	2703.4
1150.48	2740.57
1153.75	2724.11
1157.021	2758.34
1160.291	2727.93
1163.561	2771.94
1166.831	2763.81
1170.101	2797.85
1173.37	2773.87
1176.639	2715.78
1179.907	2776.92
1183.176	2779.31
1186.444	2789.46
1189.711	2819.84
1192.979	2829.92
1196.246	2785.4
1199.513	2804.81
1202.78	2799.24
1206.046	2808.77
1209.312	2831.79
1212.578	2857.34
1215.843	2810.1
1219.108	2785.05
1222.373	2805.9
1225.638	2767.04
1228.902	2751.25
1232.166	2714.81
1235.43	2697.87
1238.693	2722.19
1241.956	2717.48
1245.219	2756.52
1248.482	2748.62
1251.744	2744.77
1255.006	2894.45
1258.268	2848.64
1261.529	2793.09
1264.79	2800.45
1268.051	2910.78
1271.312	2925.85
1274.572	2886.44
1277.832	2877.06
1281.092	2871.16
1284.351	2844.33
1287.61	2821.34
1290.869	2735.49
1294.128	2713.82
1297.386	2805.87
1300.644	2791.93
1303.902	2801.61
1307.159	2660.85
1310.416	2718.29
1313.673	2741.48
1316.93	2724.29
1320.186	2770.77
1323.442	2816.38
1326.697	2804.09
1329.953	2795.95
1333.208	2813.84
1336.463	2796.43
1339.717	2734.29
1342.972	2870.82
1346.226	2845.66
1349.479	2778.09
1352.733	2746.95
1355.986	2770.56
1359.238	2743.88
1362.491	2747.29
1365.743	2750.12
1368.995	2746.15
1372.247	2758.63
1375.498	2781.37
1378.749	2792.44
1382	2749.18
1385.251	2804.34
1388.501	2767.01
1391.751	2748.05
1395	2719.94
1398.25	2753.21
1401.499	2757.55
1404.748	2684.16
1407.996	2676.75
1411.244	2662.8
1414.492	2643.69
1417.74	2619.56
1420.987	2630.22
1424.234	2684.99
1427.481	2666.52
1430.728	2723.76
1433.974	2699.08
1437.22	2716.02
1440.465	2717
1443.711	2677.23
1446.956	2713.82
1450.201	2702.41
1453.445	2748.85
1456.689	2726.31
1459.933	2741.05
1463.177	2772.86
1466.42	2746.99
1469.663	2725.17
1472.906	2718.65
1476.148	2798.55
1479.391	2759.24
1482.633	2729.88
1485.874	2736.81
1489.115	2724.25
1492.356	2731.75
1495.597	2705.43
1498.838	2712.53
1502.078	2679.34
1505.318	2629.9
1508.557	2672.6
1511.797	2648.08
1515.036	2719.68
1518.274	2709.46
1521.513	2684.7
1524.751	2708.35
1527.989	2721.34
1531.227	2734.79
1534.464	2727.11
1537.701	2748.11
1540.938	2767.89
1544.174	2721.23
1547.41	2718.04
1550.646	2760.37
1553.882	2796.65
1557.117	2852.9
1560.352	2866.56
1563.587	2821.92
1566.821	2782.35
1570.055	2817.17
1573.289	2788.99
1576.523	2865.71
1579.756	2871.37
1582.989	2892.55
1586.222	2851.96
1589.454	2887.64
1592.686	2860.96
1595.918	2888
1599.15	2878.35
1602.381	2953.12
1605.612	2907.73
1608.843	3007.13
1612.073	2917.83
1615.303	2904.55
1618.533	2895.15
1621.762	2893.66
1624.992	2886.86
1628.221	2871.49
1631.449	2855.28
1634.678	2913.04
1637.906	2867.28
1641.134	2908.1
1644.361	2863.8
1647.588	2852.68
1650.815	2867.09
1654.042	2844.71
1657.269	2880.42
1660.495	2829.4
1663.72	2850.48
1666.946	2813.63
1670.171	2754.63
1673.396	2730.52
1676.621	2718.77
1679.845	2738.03
1683.069	2759.48
1686.293	2802.89
1689.517	2774.76
1692.74	2701.01
1695.963	2732.29
1699.185	2748.55
1702.408	2725.82
1705.63	2766.39
1708.852	2778.13
1712.073	2748.07
1715.294	2731.69
1718.515	2792.04
1721.736	2738.8
1724.956	2732.71
1728.176	2758.66
1731.396	2779.43
1734.616	2768.04
1737.835	2792.83
1741.054	2777.53
1744.272	2771.04
1747.491	2802.03
1750.709	2857.7
1753.927	2761.24
1757.144	2806.37
1760.361	2847.84
1763.578	2841.11
1766.795	2782.44
1770.011	2788.38
1773.227	2828.93
1776.443	2860.83
1779.658	2905.5
1782.874	2849.62
1786.089	2826.38
1789.303	2829.13
1792.518	2837.33
1795.732	2821.47
1798.945	2830.77
1802.159	2881.28
1805.372	2781.27
1808.585	2765.8
1811.797	2768.02
1815.01	2816.16
1818.222	2816.17
1821.434	2788.42
1824.645	2848.15
1827.856	2828.28
1831.067	2869.07
1834.278	2826.69
1837.488	2808.27
1840.698	2959.65
1843.908	2883.72
1847.117	2846.72
1850.326	2727.65
1853.535	2833.08
1856.744	2857.62
1859.952	2770.42
1863.16	2774.45
1866.368	2794.18
1869.575	2897.29
1872.782	2785.74
1875.989	2722.16
1879.196	2808.28
1882.402	2798.79
1885.608	2838.74
1888.814	2741.98
1892.019	2634.73
1895.224	2687.37
1898.429	2667.58
1901.634	2645.49
1904.838	2621.9
1908.042	2667.68
1911.246	2676.83
1914.449	2605.04
1917.652	2600.83
1920.855	2588.04
1924.058	2634.75
1927.26	2671.33
1930.462	2699.77
1933.664	2726.5
1936.865	2663.55
1940.066	2669.06
1943.267	2616.72
1946.467	2632.97
1949.668	2660.2
1952.868	2728.97
1956.067	2704
1959.267	2637.74
1962.466	2665.95
1965.665	2647.42
1968.863	2643.11
1972.061	2660.38
1975.259	2659.17
1978.457	2740.77
1981.654	2696.89
1984.852	2696.58
1988.048	2629.31
1991.245	2632.43
1994.441	2718.4
1997.637	2704.82
2000.833	2691.45
2004.028	2729.33
2007.223	2784.36
2010.418	2759
2013.613	2720.55
2016.807	2689.79
2020.001	2701.89
2023.194	2742.74
2026.388	2719.69
2029.581	2665.13
2032.774	2711.83
2035.966	2713.62
2039.158	2643.83
2042.35	2671.46
2045.542	2601.51
2048.733	2699.56
2051.924	2726.19
2055.115	2749.87
2058.306	2695.22
2061.496	2755.2
2064.686	2815.07
2067.875	2732.38
2071.065	2748.76
2074.254	2776.99
2077.442	2725.82
2080.631	2817.27
2083.819	2706.55
2087.007	2687.57
2090.195	2660.49
2093.382	2695.14
2096.569	2673.58
2099.756	2628.69
2102.942	2651.91
2106.128	2655.51
2109.314	2648.41
2112.5	2611.14
2115.685	2586.55
2118.87	2597.92
2122.055	2664.13
2125.239	2626.89
2128.424	2602.92
2131.608	2706.96
2134.791	2689.16
2137.974	2747.41
2141.157	2734.15
2144.34	2681.88
2147.523	2701.29
2150.705	2714.81
2153.887	2695.12
2157.068	2642.46
2160.25	2647.15
2163.431	2683.34
2166.611	2628.93
2169.792	2645.91
2172.972	2536.95
2176.152	2617.66
2179.331	2654.18
2182.511	2632.2
2185.69	2661.18
2188.868	2654.08
2192.047	2710.45
2195.225	2698.34
2198.403	2650.56
2201.58	2644.09
2204.758	2639.16
2207.935	2725.05
2211.111	2608.06
2214.288	2591.64
2217.464	2629.97
2220.64	2604.78
2223.815	2661.64
2226.991	2579.58
2230.166	2602.07
2233.34	2629.65
2236.515	2653.27
2239.689	2725.32
2242.863	2669.34
2246.036	2727.17
2249.209	2728
2252.382	2764.75
2255.555	2750.02
2258.727	2684.29
2261.9	2728.3
2265.071	2718.23
2268.243	2720.75
2271.414	2651.27
2274.585	2612.19
2277.756	2679.35
2280.926	2636.73
2284.096	2678.99
2287.266	2582.12
2290.436	2638.19
2293.605	2669.11
2296.774	2697.78
2299.942	2718.54
2303.111	2736.33
2306.279	2783.54
2309.447	2772.45
2312.614	2748.38
2315.781	2766.38
2318.948	2734.56
2322.115	2777.01
2325.281	2677.74
2328.447	2697.48
2331.613	2674.03
2334.779	2647.31
2337.944	2648.4
2341.109	2647.82
2344.274	2627.71
2347.438	2592.08
2350.602	2619.62
2353.766	2637.47
2356.929	2622.57
2360.092	2664.19
2363.255	2617.13
2366.418	2547.61
2369.58	2661.17
2372.742	2447.63
2375.904	2461.93
2379.066	2437.83
2382.227	2472.78
2385.388	2436.55
2388.548	2360.68
2391.709	2416.42
2394.869	2394.05
2398.029	2494.05
2401.188	2509.2
2404.347	2443.15
2407.506	2585.96
2410.665	2614.32
2413.823	2621.86
2416.981	2579.44
2420.139	2608.48
2423.296	2658.95
2426.453	2630.42
2429.61	2655.94
2432.767	2587.14
2435.923	2622.3
2439.079	2590.12
2442.235	2638.09
2445.391	2563.73
2448.546	2590.89
2451.701	2641.16
2454.855	2613.72
2458.009	2667.97
2461.163	2668.71
2464.317	2627.14
2467.471	2662.03
2470.624	2704.33
2473.777	2667.61
2476.929	2680.58
2480.082	2710.07
2483.234	2673.98
2486.385	2629.24
2489.537	2619.69
2492.688	2579.31
2495.839	2599.64
2498.989	2610.03
2502.14	2590.91
2505.29	2573.7
2508.439	2597.47
2511.589	2522.11
2514.738	2534.8
2517.887	2564.79
2521.035	2628.14
2524.183	2612.13
2527.331	2591.23
2530.479	2563.97
2533.627	2575.12
