Data from N_2_DIV_OH_2N_Splice17_12-21-57-599.txt Node
Date: Sat Mar 14 12:21:57 EDT 2020
User: sa697716
Spectrometer: FLMS03696
Trigger mode: 0
Integration Time (sec): 3.180400E-1
Scans to average: 20
Electric dark correction enabled: true
Nonlinearity correction enabled: true
Boxcar width: 5
XAxis mode: Wavelengths
Number of Pixels in Spectrum: 2048
>>>>>Begin Spectral Data<<<<<
187.83	-328591.56
188.298	2377.18
188.766	1233.99
189.233	1079.7
189.701	1493
190.169	2129.83
190.636	804.79
191.104	600.89
191.571	44.92
192.039	-97.6
192.506	-103.77
192.974	467.3
193.441	-843.01
193.908	-345.22
194.375	-154.4
194.842	-89.44
195.31	-56.23
195.777	121.94
196.244	330.16
196.711	458.01
197.177	615.4
197.644	912.08
198.111	1617.83
198.578	2308.7
199.045	1840.87
199.511	3035.06
199.978	3570.7
200.445	3061.99
200.911	3394.06
201.378	3850.12
201.844	3502.44
202.31	5983.97
202.777	6271.35
203.243	3444.69
203.709	3273.27
204.176	3924.69
204.642	3241.79
205.108	3024.46
205.574	2430.16
206.04	2212.51
206.506	2065.65
206.972	1956.94
207.438	1881.98
207.903	2121.12
208.369	1864.21
208.835	1851.58
209.301	1941
209.766	1981.59
210.232	1953.35
210.697	2462.29
211.163	3028.71
211.628	4557.6
212.094	3801.1
212.559	4665.88
213.024	2902.01
213.49	3556.63
213.955	3471.52
214.42	3373.5
214.885	3129.09
215.35	2984.96
215.815	2832.28
216.28	2997.16
216.745	2415.48
217.21	2584.84
217.675	2342.29
218.14	2603.26
218.604	2853.59
219.069	3212.96
219.534	3324.53
219.998	3801.37
220.463	4561.84
220.927	5563.4
221.392	5183.55
221.856	5214.79
222.32	6529.67
222.785	8015.96
223.249	10070.77
223.713	11232.28
224.177	11196.94
224.642	14366.71
225.106	17657.72
225.57	19244.32
226.034	14284.44
226.497	21718.66
226.961	19618.57
227.425	22806.17
227.889	25291.19
228.353	25225.68
228.816	51870.07
229.28	49511.4
229.744	41607.33
230.207	25317.28
230.671	24885.91
231.134	41142.98
231.597	47435.6
232.061	47302.13
232.524	46051.01
232.987	31679.73
233.45	28482.01
233.914	25539.71
234.377	26154.28
234.84	23924.88
235.303	28174.21
235.766	31381.2
236.229	32324.55
236.691	20340.31
237.154	22858.43
237.617	17186.87
238.08	17622.38
238.542	20620.9
239.005	14746.19
239.468	14644.56
239.93	13801.74
240.393	12540.46
240.855	11004.26
241.317	11288.55
241.78	13734.43
242.242	14178.14
242.704	15313.74
243.166	13313.63
243.629	12091.22
244.091	13916.08
244.553	15230.17
245.015	16380.66
245.477	21175.97
245.939	31011.69
246.4	32847.21
246.862	31844.89
247.324	30043.71
247.786	33618.63
248.247	44022.44
248.709	45345.54
249.17	33906.87
249.632	31930.08
250.093	36945.8
250.555	31835.57
251.016	19426.77
251.477	18422.16
251.939	19857.82
252.4	20797.21
252.861	24637.82
253.322	22892.25
253.783	27233.61
254.244	35266.32
254.705	27757.2
255.166	24660.74
255.627	24258.26
256.088	34167.63
256.549	36268.98
257.009	31222.35
257.47	37786.67
257.931	30772.98
258.391	23056.93
258.852	23739.41
259.312	24862.47
259.773	30684.86
260.233	25912.58
260.694	21850.95
261.154	24729.42
261.614	19828.47
262.074	17723.55
262.534	18423.32
262.994	17344.16
263.455	23071.4
263.915	19384.35
264.374	18233.6
264.834	19888.59
265.294	21998.05
265.754	22757.19
266.214	21537.52
266.673	20137.12
267.133	25374.63
267.593	25115.33
268.052	30700.11
268.512	26638.11
268.971	32157.24
269.431	35215.78
269.89	31492.14
270.349	47144.03
270.809	52508.41
271.268	47179.59
271.727	105766.09
272.186	68449.77
272.645	51331.73
273.104	37019.95
273.563	53577.38
274.022	42143.48
274.481	35870.83
274.94	27651.97
275.399	20547.48
275.857	23931.81
276.316	32358.21
276.775	28817.37
277.233	28398.83
277.692	26626.23
278.15	30134.83
278.609	31045.33
279.067	28698.76
279.525	26656.5
279.984	34405.56
280.442	41367.01
280.9	40785
281.358	26821.85
281.816	25002.69
282.274	24501.21
282.732	25310.26
283.19	25450.94
283.648	21988.46
284.106	23428.67
284.564	23854.02
285.021	22145.41
285.479	16527.49
285.937	15039.81
286.394	13218.65
286.852	13620.84
287.309	14299.31
287.767	13822.72
288.224	13164.06
288.682	14438.36
289.139	15849.15
289.596	14516.73
290.053	15077.08
290.511	19020.63
290.968	23059.63
291.425	31268.83
291.882	25986.05
292.339	22631.15
292.796	22423.69
293.252	21077.01
293.709	16750.62
294.166	15002.88
294.623	16545.74
295.079	15882.02
295.536	15960.48
295.992	14498.75
296.449	14334.29
296.905	14887.47
297.362	14267.49
297.818	15010.94
298.274	15564.4
298.731	15855.08
299.187	15682.9
299.643	16836.85
300.099	20356.93
300.555	22314.46
301.011	18635.68
301.467	17954.58
301.923	21019.94
302.379	20545.28
302.835	20195.37
303.291	20252.24
303.746	23018.64
304.202	29071.71
304.658	29182.95
305.113	19631.23
305.569	19243.4
306.024	20518.93
306.479	19554.66
306.935	16506.68
307.39	18035.34
307.845	16662.78
308.301	16778.17
308.756	16361.23
309.211	15771.34
309.666	16185.97
310.121	20103.36
310.576	20424.05
311.031	20278.41
311.486	23241.97
311.94	23231.92
312.395	31067.81
312.85	58337.21
313.305	286448.51
313.759	1484961.83
314.214	107805.84
314.668	85490.32
315.123	71990.55
315.577	25812.48
316.032	22970.98
316.486	28769.36
316.94	22717.64
317.394	15838.11
317.849	12319.27
318.303	11665.07
318.757	11001.99
319.211	12156.89
319.665	10628.47
320.119	10752.69
320.572	15413.61
321.026	14387.21
321.48	11982.32
321.934	13060.01
322.387	13066.71
322.841	14127.87
323.295	12717.07
323.748	14644.72
324.202	14882.91
324.655	17908.12
325.108	25038.76
325.562	17682.88
326.015	21021.67
326.468	15886.58
326.921	17760.24
327.374	16581.11
327.827	17232.67
328.28	19481.94
328.733	13087.01
329.186	11502.46
329.639	10967.58
330.092	9246.9
330.545	8817.05
330.997	8903.66
331.45	9760.73
331.903	11441.37
332.355	19691.03
332.808	19194.4
333.26	15862.26
333.713	17227.27
334.165	17368.11
334.617	23117.47
335.069	18673.92
335.522	33710.88
335.974	37369.85
336.426	34055.04
336.878	23582.43
337.33	11956.09
337.782	11675.61
338.234	14672.38
338.686	17533.81
339.137	20768.38
339.589	19613.27
340.041	15365.96
340.493	13226.51
340.944	13524.44
341.396	14589.8
341.847	12268.06
342.299	14475.67
342.75	17647.59
343.201	15362.19
343.653	17669.84
344.104	21695.94
344.555	17056.76
345.006	26541.5
345.457	20360.93
345.908	16172.13
346.359	15196.95
346.81	12381.79
347.261	13050.5
347.712	12844.77
348.163	13763.33
348.613	13939.67
349.064	13004.55
349.515	11400.46
349.965	11701.43
350.416	14059.31
350.866	15460.89
351.317	17465.17
351.767	28971.64
352.217	36538.17
352.668	30329.45
353.118	27809.59
353.568	26773.84
354.018	21220.06
354.468	22349.59
354.918	16071.19
355.368	14071.17
355.818	19847.13
356.268	57178.05
356.718	239313.72
357.168	59826.16
357.617	29995.81
358.067	33325.07
358.517	31311.68
358.966	36745.3
359.416	41314.47
359.865	44594.32
360.315	53193.12
360.764	24894.23
361.213	13932.83
361.663	13205.97
362.112	16257.5
362.561	26302.7
363.01	19912.7
363.459	16715.62
363.908	18059.74
364.357	15323.41
364.806	25832.97
365.255	17754.53
365.703	16272.39
366.152	16354.36
366.601	13277.22
367.05	10812.02
367.498	9862.58
367.947	10284.34
368.395	10747.26
368.844	9563.08
369.292	11541.43
369.74	7995.16
370.189	12262.19
370.637	14374.59
371.085	12424.53
371.533	15163.87
371.981	14636.48
372.429	13963.25
372.877	14590.99
373.325	12223.48
373.773	12462.74
374.221	11132.54
374.669	13840.33
375.116	12016.95
375.564	12192.46
376.012	13671.81
376.459	11333.61
376.907	13636.32
377.354	16587.26
377.801	15593.36
378.249	18026.2
378.696	23147.16
379.143	28203.52
379.591	30279.29
380.038	51543.44
380.485	37386.13
380.932	40569.79
381.379	37292.04
381.826	27560.02
382.273	19647.61
382.72	17248.56
383.166	16896.95
383.613	11012.35
384.06	9985.56
384.506	11600.3
384.953	8542.24
385.4	8639.68
385.846	7610.15
386.292	7440.81
386.739	7305.04
387.185	7270.66
387.631	7302.83
388.078	7108.37
388.524	7645.14
388.97	7088.29
389.416	5942.1
389.862	6353.23
390.308	6045.74
390.754	6167.95
391.2	6718.78
391.645	6916.78
392.091	6643.42
392.537	6443.71
392.983	6475.33
393.428	6403.78
393.874	6890.53
394.319	6941.29
394.765	6603.13
395.21	6805.45
395.655	6395.7
396.101	6008.87
396.546	5426.13
396.991	5477.38
397.436	5093.34
397.881	4934.13
398.326	4671.4
398.771	4418.49
399.216	3868.63
399.661	3489.46
400.106	3482.29
400.551	3565.04
400.995	3193.31
401.44	3160.87
401.885	2965.81
402.329	2989.83
402.774	2861.64
403.218	2767.68
403.663	2666.19
404.107	2730.86
404.551	2747.59
404.995	2513.15
405.44	2415.57
405.884	2453.14
406.328	2368.76
406.772	2358.82
407.216	2147.66
407.66	2072.22
408.104	1964.07
408.547	1831.53
408.991	1771.65
409.435	1698.94
409.879	1673.12
410.322	1650.93
410.766	1589.92
411.209	1510.63
411.653	1448.65
412.096	1419.19
412.54	1419.17
412.983	1408.32
413.426	1412.86
413.869	1413.47
414.312	1386.97
414.756	1338.19
415.199	1275.78
415.642	1239.62
416.085	1239.06
416.527	1230.83
416.97	1249.05
417.413	1184.31
417.856	1172.38
418.298	1158.28
418.741	1147.71
419.184	1142.76
419.626	1185.88
420.069	1186.56
420.511	1190.76
420.953	1165.28
421.396	1155.86
421.838	1125.61
422.28	1151.76
422.722	1157.84
423.164	1175.09
423.606	1155.25
424.048	1154.45
424.49	1096.07
424.932	1086.54
425.374	1071.53
425.816	1089.32
426.258	1105.04
426.699	1116.11
427.141	1098.68
427.582	1113.32
428.024	1104.49
428.465	1097.36
428.907	1069.03
429.348	1059.1
429.789	1061.21
430.231	1040.38
430.672	1053.2
431.113	1031.47
431.554	1017.13
431.995	993.06
432.436	957.95
432.877	939.74
433.318	924.62
433.759	921.9
434.2	923.12
434.64	912.29
435.081	912.95
435.522	865.83
435.962	833.7
436.403	816.72
436.843	829.35
437.284	813.02
437.724	792.21
438.164	795.67
438.604	779.03
439.045	751.89
439.485	724.93
439.925	712.2
440.365	696.57
440.805	687.06
441.245	678.22
441.685	652.37
442.125	647.99
442.564	652.32
443.004	637.55
443.444	637.06
443.883	638.6
444.323	632.07
444.762	632.33
445.202	640.85
445.641	654.97
446.081	652.01
446.52	660.01
446.959	654.73
447.398	640.46
447.837	635.14
448.276	624.79
448.716	628.89
449.154	636.55
449.593	624.24
450.032	624.07
450.471	612.12
450.91	615.22
451.349	615.05
451.787	613.31
452.226	623.39
452.664	623.45
453.103	625.27
453.541	625.55
453.98	625.25
454.418	629.61
454.856	620.82
455.295	620.23
455.733	626.5
456.171	629.8
456.609	632.46
457.047	631.33
457.485	641.87
457.923	643.2
458.361	635.38
458.798	637.25
459.236	636.25
459.674	638.98
460.111	643.51
460.549	635.33
460.987	631.6
461.424	627.54
461.862	626.79
462.299	615.7
462.736	614.87
463.173	617.45
463.611	610.87
464.048	609.56
464.485	615.53
464.922	609.59
465.359	606.87
465.796	601.57
466.233	598
466.67	591.93
467.106	591.81
467.543	585.91
467.98	577.31
468.416	562.69
468.853	558.34
469.29	541.14
469.726	534.95
470.162	521.5
470.599	513.11
471.035	507.33
471.471	494.8
471.907	490.38
472.344	487.8
472.78	489.71
473.216	496.13
473.652	489.52
474.088	488.67
474.523	486.91
474.959	490.15
475.395	486.13
475.831	483.3
476.266	484.94
476.702	483.87
477.138	477.68
477.573	475.14
478.008	472.79
478.444	474.65
478.879	479
479.314	481.39
479.75	480.94
480.185	482.05
480.62	486.01
481.055	488.27
481.49	492.59
481.925	500.56
482.36	511.03
482.795	525.07
483.229	539.35
483.664	549.81
484.099	551.96
484.534	560.2
484.968	566.61
485.403	569.04
485.837	568.86
486.271	567.17
486.706	567.97
487.14	561.32
487.574	553.24
488.009	549.82
488.443	546.91
488.877	553.28
489.311	556.65
489.745	564.45
490.179	570.75
490.613	582.61
491.046	588.92
491.48	594.89
491.914	597.23
492.348	603.34
492.781	607.72
493.215	610.76
493.648	614.2
494.082	621.14
494.515	623.82
494.948	633.43
495.382	640.39
495.815	647.6
496.248	655.91
496.681	670.44
497.114	684.78
497.547	698.17
497.98	713.88
498.413	723.45
498.846	737.01
499.279	749.19
499.711	758.48
500.144	765.46
500.577	780.86
501.009	795.47
501.442	809.95
501.874	816.2
502.306	822.5
502.739	835.24
503.171	855.08
503.603	863.65
504.036	878.62
504.468	888.46
504.9	906.55
505.332	918.4
505.764	928.06
506.196	941.22
506.627	961.51
507.059	982.5
507.491	997.3
507.923	1001.75
508.354	1023.47
508.786	1041.72
509.217	1068.57
509.649	1091
510.08	1118.99
510.512	1143.99
510.943	1166.52
511.374	1185.79
511.805	1213.88
512.237	1242.57
512.668	1285.13
513.099	1321.49
513.53	1358.01
513.961	1387.65
514.391	1429.27
514.822	1471.73
515.253	1519.56
515.684	1555.58
516.114	1595.81
516.545	1627.15
516.975	1662.95
517.406	1688.93
517.836	1697.47
518.267	1709.86
518.697	1734.99
519.127	1744.28
519.558	1757.95
519.988	1765.66
520.418	1780.84
520.848	1804.48
521.278	1817.49
521.708	1834.35
522.138	1852.04
522.567	1893.53
522.997	1928.3
523.427	1950.57
523.857	1973.9
524.286	1989.06
524.716	2010.37
525.145	2037.41
525.575	2054.09
526.004	2074.88
526.433	2077.33
526.863	2080.44
527.292	2068.96
527.721	2076.12
528.15	2085.18
528.579	2088.45
529.008	2103.34
529.437	2134.89
529.866	2152.17
530.295	2175.16
530.724	2192.16
531.152	2226.94
531.581	2246.48
532.01	2270.69
532.438	2283.78
532.867	2303.84
533.295	2328.42
533.723	2338.28
534.152	2336.78
534.58	2338.49
535.008	2318.54
535.436	2321.57
535.865	2332.93
536.293	2352.59
536.721	2374.69
537.149	2407.91
537.576	2412.2
538.004	2429.7
538.432	2440.91
538.86	2439.42
539.287	2449.42
539.715	2469.02
540.143	2474.73
540.57	2471.46
540.998	2467.8
541.425	2437.79
541.852	2411.16
542.28	2409.86
542.707	2389.14
543.134	2371.94
543.561	2366.1
543.988	2356.69
544.415	2356.97
544.842	2350
545.269	2340.61
545.696	2342.69
546.123	2360.19
546.549	2347.17
546.976	2331.22
547.403	2331.25
547.829	2333.47
548.256	2336.48
548.682	2332.17
549.108	2322.11
549.535	2321.87
549.961	2326.06
550.387	2308.89
550.813	2300.61
551.24	2307.78
551.666	2308.6
552.092	2295.49
552.518	2286.69
552.943	2278.05
553.369	2288.03
553.795	2295.03
554.221	2295.64
554.646	2290.28
555.072	2304.13
555.498	2311.41
555.923	2324.5
556.349	2343.1
556.774	2354.55
557.199	2356.89
557.625	2365.4
558.05	2356.13
558.475	2369.92
558.9	2367.96
559.325	2356.38
559.75	2347.86
560.175	2338.79
560.6	2329.48
561.025	2325.79
561.449	2326.83
561.874	2333.93
562.299	2339.19
562.723	2349.15
563.148	2335.78
563.572	2340.92
563.997	2354.45
564.421	2361.78
564.846	2362.66
565.27	2367.49
565.694	2364.29
566.118	2378.65
566.542	2387.06
566.966	2378.63
567.39	2372.69
567.814	2359.24
568.238	2359.16
568.662	2365.93
569.086	2369.69
569.509	2378.98
569.933	2359.37
570.357	2349.72
570.78	2322.12
571.204	2304.95
571.627	2291.77
572.05	2288.65
572.474	2286.8
572.897	2269.22
573.32	2257.53
573.743	2242.83
574.166	2218.45
574.589	2217.77
575.012	2207.35
575.435	2205.87
575.858	2193.7
576.281	2177.64
576.704	2156.38
577.126	2141.33
577.549	2126.41
577.972	2114.35
578.394	2101.08
578.817	2090.95
579.239	2066.64
579.661	2049.34
580.084	2027.19
580.506	2009.37
580.928	2004.53
581.35	1990.75
581.772	1983.32
582.194	1966.77
582.616	1948.79
583.038	1930.29
583.46	1916.57
583.882	1912.03
584.303	1918.42
584.725	1914.07
585.147	1914.92
585.568	1927.34
585.99	1942.32
586.411	1949.53
586.833	1967.53
587.254	1970.65
587.675	1987.7
588.096	2003.72
588.518	1995.47
588.939	1971.77
589.36	1967.81
589.781	1955.45
590.202	1918.6
590.623	1905.98
591.043	1903.42
591.464	1885.49
591.885	1879.3
592.305	1871.25
592.726	1852.97
593.147	1853.95
593.567	1846.96
593.987	1837.44
594.408	1829.9
594.828	1827.18
595.248	1818.46
595.669	1794.25
596.089	1786.32
596.509	1778.14
596.929	1761.01
597.349	1761.64
597.769	1748.46
598.189	1740.89
598.608	1742.54
599.028	1745.17
599.448	1744.19
599.867	1728.56
600.287	1722.49
600.706	1716.13
601.126	1703.01
601.545	1700.17
601.965	1697.77
602.384	1691.99
602.803	1694.82
603.222	1687.78
603.641	1679.05
604.061	1674.58
604.48	1670.32
604.898	1680.58
605.317	1686.48
605.736	1687.5
606.155	1684.09
606.574	1672.51
606.992	1677.61
607.411	1669.88
607.829	1658.75
608.248	1653.49
608.666	1650.6
609.085	1648.58
609.503	1636.87
609.921	1627.9
610.339	1630.77
610.758	1629.55
611.176	1622.95
611.594	1611.6
612.012	1607.17
612.43	1610.56
612.847	1616.98
613.265	1617.04
613.683	1621.47
614.101	1622.89
614.518	1618.31
614.936	1605.44
615.353	1586.61
615.771	1582.19
616.188	1581.1
616.606	1576.99
617.023	1568.22
617.44	1550.05
617.857	1541.09
618.274	1530.15
618.691	1521.51
619.108	1508.93
619.525	1500.61
619.942	1507.85
620.359	1510.39
620.776	1504.22
621.192	1497.1
621.609	1492.93
622.026	1501.7
622.442	1506.67
622.859	1510.96
623.275	1502.67
623.691	1508.73
624.108	1521.62
624.524	1538.59
624.94	1539.23
625.356	1551.14
625.772	1567.95
626.188	1583.18
626.604	1585.13
627.02	1580.64
627.436	1576.55
627.852	1584.3
628.268	1599.62
628.683	1589.77
629.099	1579.43
629.514	1572.85
629.93	1576.32
630.345	1581.86
630.761	1576.86
631.176	1581.13
631.591	1573.25
632.007	1565.23
632.422	1560.94
632.837	1545.78
633.252	1540.6
633.667	1526.36
634.082	1513.15
634.497	1495.93
634.911	1469.56
635.326	1462.81
635.741	1439.04
636.155	1424.55
636.57	1423.23
636.984	1419.25
637.399	1417.71
637.813	1414.65
638.228	1409.34
638.642	1409.27
639.056	1393.96
639.47	1390.64
639.884	1375.63
640.298	1362.69
640.712	1355.99
641.126	1335.64
641.54	1321.32
641.954	1309.22
642.368	1289.8
642.781	1276.28
643.195	1252.14
643.609	1246.79
644.022	1234.56
644.436	1224.55
644.849	1207.28
645.262	1190.31
645.676	1187.9
646.089	1178.32
646.502	1159.31
646.915	1148.53
647.328	1125.32
647.741	1119.21
648.154	1101.65
648.567	1095.2
648.98	1077.82
649.393	1075.53
649.805	1068.42
650.218	1058.26
650.631	1039.76
651.043	1030.15
651.456	1022.66
651.868	1021.56
652.28	1037.25
652.693	1049.17
653.105	1053.67
653.517	1062.83
653.929	1060.91
654.341	1065.77
654.753	1051.64
655.165	1056.07
655.577	1051.74
655.989	1045.5
656.401	1036.06
656.813	997.09
657.224	973.62
657.636	941.91
658.047	919.71
658.459	897.26
658.87	884.98
659.282	869.6
659.693	845.5
660.104	828.63
660.515	811.79
660.926	807.01
661.338	801.24
661.749	792.35
662.159	779.85
662.57	773.03
662.981	765.56
663.392	754.51
663.803	754.77
664.213	749.13
664.624	740.21
665.035	738.93
665.445	721.77
665.855	712.05
666.266	701.41
666.676	696.87
667.086	684.76
667.497	680.82
667.907	672.47
668.317	662.23
668.727	657.4
669.137	656.08
669.547	652.49
669.956	653.32
670.366	653.08
670.776	654.2
671.186	656.87
671.595	659.48
672.005	662.17
672.414	662.07
672.824	660.79
673.233	663.88
673.642	665.63
674.052	668.13
674.461	670.87
674.87	676.21
675.279	673.65
675.688	674.81
676.097	677.41
676.506	675.16
676.915	688.09
677.323	691.5
677.732	691.75
678.141	694.33
678.549	687.55
678.958	688.76
679.366	689.5
679.775	696.71
680.183	709.39
680.592	717.94
681	728.14
681.408	727.03
681.816	739.67
682.224	752.88
682.632	767.53
683.04	801.54
683.448	830.43
683.856	867.52
684.264	909.98
684.671	951.53
685.079	1002.57
685.487	1057.16
685.894	1131.76
686.302	1196.61
686.709	1253.89
687.116	1321.93
687.524	1379.22
687.931	1434.29
688.338	1483.24
688.745	1528.31
689.152	1576.86
689.559	1638.04
689.966	1698.97
690.373	1736.44
690.78	1795.93
691.187	1883.06
691.593	1949.98
692	2009.9
692.407	2093.89
692.813	2195.71
693.22	2278.14
693.626	2363.63
694.032	2431.93
694.439	2533.1
694.845	2613.86
695.251	2713.23
695.657	2801.58
696.063	2932.86
696.469	3032.54
696.875	3123.43
697.281	3177.51
697.687	3240.93
698.093	3293
698.498	3389.67
698.904	3468.07
699.31	3582.89
699.715	3663.47
700.12	3782.15
700.526	3807.29
700.931	3899.96
701.337	3969.66
701.742	4012.69
702.147	4122.15
702.552	4163.08
702.957	4244.02
703.362	4271.33
703.767	4309.26
704.172	4363
704.577	4301.58
704.981	4361.89
705.386	4382.41
705.791	4370.96
706.195	4469.33
706.6	4481.14
707.004	4584
707.408	4543.25
707.813	4574.87
708.217	4557.49
708.621	4558.9
709.025	4685.02
709.43	4683.91
709.834	4758.96
710.237	4849.99
710.641	4827.28
711.045	4854.73
711.449	4845.21
711.853	4881.12
712.256	4934.58
712.66	4981.04
713.064	5076.94
713.467	5127.88
713.87	5271.26
714.274	5328.3
714.677	5463.98
715.08	5669.17
715.484	5881.28
715.887	6137.52
716.29	6393.64
716.693	6657.76
717.096	6964.19
717.499	7130.87
717.901	7160.4
718.304	7192.58
718.707	7221.85
719.109	7089.01
719.512	7045.52
719.915	6868.86
720.317	6796.91
720.719	6847.45
721.122	6808.58
721.524	6742.82
721.926	6685.14
722.328	6811.89
722.731	6799.41
723.133	6834.28
723.535	7078.96
723.937	7104.03
724.338	7168.66
724.74	7218.03
725.142	7115.52
725.544	7111.2
725.945	7133.83
726.347	7128.65
726.748	7118.22
727.15	7134.07
727.551	7084.18
727.952	7047.35
728.354	7009.71
728.755	7010.59
729.156	6955.27
729.557	6959.12
729.958	6802.83
730.359	6741.41
730.76	6715.21
731.161	6638.7
731.562	6603.39
731.962	6604.88
732.363	6522.79
732.763	6437.08
733.164	6482.04
733.564	6396.85
733.965	6274.67
734.365	6228.61
734.766	6258.54
735.166	6212.39
735.566	6140.11
735.966	6106.88
736.366	6099.21
736.766	6019.49
737.166	6060.6
737.566	6007.26
737.966	5975.31
738.365	6021.56
738.765	6016.5
739.165	5925.53
739.564	5889.87
739.964	5948.06
740.363	5889.31
740.763	5886.24
741.162	5871.21
741.561	5830.26
741.96	5769.09
742.36	5795.21
742.759	5804.67
743.158	5853.29
743.557	5872.18
743.955	5922.31
744.354	5864.49
744.753	5938.38
745.152	5887.24
745.55	5957.76
745.949	5951.39
746.348	5955.71
746.746	5972.69
747.144	5920.55
747.543	5893.27
747.941	5952.09
748.339	5862.72
748.737	5850.26
749.136	5837.37
749.534	5917.1
749.932	5877.94
750.33	5906.15
750.727	5975.72
751.125	5948.74
751.523	5927.95
751.921	5978.2
752.318	5935.85
752.716	6009.22
753.113	6028.52
753.511	6059.79
753.908	6059.5
754.305	6039.47
754.703	6117.55
755.1	6192.92
755.497	6261.82
755.894	6499.25
756.291	6721.98
756.688	7132.9
757.085	7683.01
757.482	8455.85
757.878	9297.02
758.275	10059.21
758.672	11112.8
759.068	11969.45
759.465	13189.19
759.861	14773.75
760.258	16601.67
760.654	17544.38
761.05	17402.62
761.447	16599.71
761.843	15447.81
762.239	14270.76
762.635	13738.43
763.031	13222.1
763.427	12472.94
763.822	11698.73
764.218	10931.77
764.614	9934.68
765.01	9269.63
765.405	8840.97
765.801	8514.56
766.196	8095.93
766.592	7861.89
766.987	7466.6
767.382	7198.81
767.778	7088.3
768.173	6922.09
768.568	6830.05
768.963	6675.69
769.358	6697.11
769.753	6635.17
770.148	6532.62
770.542	6530.91
770.937	6490.82
771.332	6606.25
771.726	6632.42
772.121	6551.92
772.515	6620.71
772.91	6602.39
773.304	6691.62
773.699	6610.97
774.093	6683
774.487	6752.25
774.881	6808.2
775.275	6803.44
775.669	6750.2
776.063	6806.87
776.457	6856.61
776.851	6765.77
777.245	6755.52
777.638	6795.27
778.032	6942.66
778.425	6896.19
778.819	6948.64
779.212	6896.88
779.606	6847.31
779.999	6874.9
780.392	6851.96
780.786	6956.81
781.179	6984.27
781.572	7041.09
781.965	7056.74
782.358	6982.95
782.751	7049.54
783.143	6989.46
783.536	7081.63
783.929	7133.17
784.322	7274.92
784.714	7314.03
785.107	7307.39
785.499	7396.59
785.891	7365.03
786.284	7342.92
786.676	7520.22
787.068	7497.49
787.46	7559.61
787.852	7582.66
788.245	7690.52
788.636	7727.51
789.028	7811.38
789.42	7859.18
789.812	7867.67
790.204	7989.81
790.595	8112.56
790.987	7863.17
791.378	7893.85
791.77	8055.76
792.161	8225.08
792.553	8294.01
792.944	8153.57
793.335	8071.9
793.726	8161.93
794.117	8275.25
794.508	8445.92
794.899	8407.53
795.29	8579.89
795.681	8652.36
796.072	8475.04
796.463	8237.83
796.853	8244.84
797.244	8440.15
797.634	8477.49
798.025	8475.63
798.415	8489.03
798.806	8600.58
799.196	8704.8
799.586	8772.41
799.976	8724.27
800.366	9010.69
800.756	9316.06
801.146	9270.96
801.536	9307.76
801.926	9401.39
802.316	9431.99
802.706	9524.83
803.095	9371.83
803.485	9500.45
803.874	9554.14
804.264	9877.63
804.653	9846.17
805.043	10027.27
805.432	10160.68
805.821	10162.43
806.21	10190.17
806.599	10343.11
806.988	10396.53
807.377	10530.45
807.766	10692.63
808.155	11046.86
808.544	10719.67
808.933	10740.63
809.321	10716.46
809.71	11092.93
810.098	11290.58
810.487	11861.13
810.875	12458.8
811.264	12481.65
811.652	12833.83
812.04	13016.62
812.428	13216.85
812.816	14166.04
813.204	14685.93
813.592	15375.65
813.98	15792.23
814.368	15671.56
814.756	16277.24
815.144	16178.39
815.531	16769.71
815.919	16684.41
816.306	17061.93
816.694	16674.63
817.081	16738.42
817.469	17168.11
817.856	17162.63
818.243	17493.01
818.63	17983.39
819.017	17451.51
819.404	17525.52
819.791	18001.27
820.178	18771.08
820.565	19082.22
820.952	20241.71
821.339	19629.06
821.725	19855.84
822.112	18922.22
822.498	18869.35
822.885	19038.93
823.271	18918.59
823.657	19445.89
824.044	19445.51
824.43	19535.81
824.816	19486.93
825.202	18953.16
825.588	20218.37
825.974	20239.53
826.36	20884.27
826.746	20933.61
827.132	21366.3
827.517	21339.4
827.903	20351.02
828.289	20398.45
828.674	19421.5
829.06	19292.2
829.445	19780.6
829.83	20222.69
830.216	20810.59
830.601	21270.38
830.986	20762.03
831.371	20597.75
831.756	21289.6
832.141	20751.97
832.526	20744.84
832.911	21101.15
833.295	20967.68
833.68	21551.65
834.065	20787.81
834.449	19655.78
834.834	19564.8
835.218	19554.41
835.603	19975.67
835.987	19711.76
836.371	20758.48
836.755	20632.91
837.139	21134.95
837.524	21436.76
837.908	21216.54
838.291	21280.89
838.675	21361.09
839.059	21613.05
839.443	21600.8
839.827	21314.2
840.21	21914.05
840.594	21725.4
840.977	21978.23
841.361	21953.38
841.744	22416.34
842.127	22221.62
842.511	22527.59
842.894	23274.77
843.277	23753.66
843.66	24430.66
844.043	24543.61
844.426	23537.58
844.809	23154.39
845.191	23198.87
845.574	22626.21
845.957	22182.61
846.339	22055.83
846.722	21403.58
847.104	21485.71
847.487	21264.43
847.869	21282.44
848.252	21622.36
848.634	22036.89
849.016	22373.6
849.398	22539.25
849.78	23600.89
850.162	23594.37
850.544	24105.35
850.926	24887.96
851.307	24783.02
851.689	25143.58
852.071	25707.69
852.452	26106.25
852.834	26094.19
853.215	26577.79
853.597	26751.3
853.978	27113.76
854.359	27693.79
854.741	26453.75
855.122	26341.56
855.503	25982.63
855.884	26137.93
856.265	26062.18
856.646	26213.88
857.026	25720.66
857.407	25643.28
857.788	25839.09
858.169	26199.2
858.549	25130.18
858.93	25905.46
859.31	25957.85
859.69	26214.01
860.071	25709.77
860.451	25435.16
860.831	24512.79
861.211	25939.03
861.591	26621.47
861.971	26589.79
862.351	26822.84
862.731	27304.34
863.111	27640.36
863.491	28049.23
863.87	29143.55
864.25	29595.36
864.629	29104.33
865.009	29737.5
865.388	30804.16
865.768	32999.46
866.147	32870.88
866.526	31054.87
866.905	31432.12
867.284	33186.67
867.663	31514.59
868.042	30205.39
868.421	30094.96
868.8	30592.04
869.179	30902.69
869.558	29096.04
869.936	26819.41
870.315	27307.89
870.693	27971.28
871.072	30155.46
871.45	28716.95
871.828	29080.21
872.207	30564.25
872.585	30104.5
872.963	30900.93
873.341	29824.42
873.719	29476.56
874.097	29114.32
874.475	29650.72
874.853	30333.68
875.23	29072.55
875.608	30283.2
875.986	32761.58
876.363	31325.38
876.741	32270.01
877.118	31470.42
877.495	33013.83
877.873	33543.19
878.25	35307.19
878.627	33864.83
879.004	34332.85
879.381	34160.73
879.758	33267.15
880.135	30971.66
880.512	32773.43
880.889	31908.94
881.265	31584.78
881.642	31327.09
882.019	31886.77
882.395	31225.96
882.772	32461.34
883.148	31064.26
883.524	30958.06
883.901	30787.28
884.277	31243.3
884.653	31032.12
885.029	31916.05
885.405	35353.12
885.781	35086.49
886.157	33640.36
886.532	34068.33
886.908	34055.14
887.284	37853.23
887.659	39097.77
888.035	40313.64
888.411	41367.78
888.786	41928.07
889.161	43400.42
889.537	42598.5
889.912	43964.38
890.287	43906.81
890.662	45043.13
891.037	44250.46
891.412	41256.19
891.787	40830.14
892.162	39396.08
892.536	40305.34
892.911	38778.36
893.286	37953.76
893.66	36421.6
894.035	37339.94
894.409	40667.14
894.784	39026.97
895.158	39668.18
895.532	42023.73
895.906	43167.39
896.281	44191.56
896.655	43479.63
897.029	49686.6
897.402	51729.61
897.776	57567.11
898.15	57383.94
898.524	56761.72
898.898	57518.9
899.271	64377.71
899.645	55751.12
900.018	53562.11
900.392	55541.56
900.765	55993.27
901.138	51831.7
901.511	51078.51
901.884	46913.65
902.258	43285.53
902.631	44724.76
903.003	51457.28
903.376	46436.31
903.749	52083.35
904.122	55761.4
904.495	61406.52
904.867	62194.36
905.24	53994.15
905.612	50255.01
905.985	51400.08
906.357	53698.01
906.729	51252.77
907.102	43806.14
907.474	42120.75
907.846	42391.78
908.218	41833.73
908.59	36962.75
908.962	35755.82
909.334	38498.76
909.705	40441.66
910.077	39249.84
910.449	40867.7
910.82	42009.86
911.192	46204.57
911.563	48028.61
911.935	51369
912.306	51431.79
912.677	53137.11
913.048	52606.69
913.419	57091.32
913.79	57431.75
914.161	61634.99
914.532	58912.59
914.903	54145.52
915.274	51419.09
915.645	50658.4
916.015	44596.75
916.386	42501.09
916.756	45216.38
917.127	46627.55
917.497	41637.52
917.868	45295.76
918.238	42987.98
918.608	44225.2
918.978	45126.13
919.348	47796.76
919.718	49361.18
920.088	47530.74
920.458	49372.04
920.828	51958.55
921.198	49276.52
921.567	52630.92
921.937	40764.84
922.306	41195.76
922.676	44438.33
923.045	37051.47
923.415	35182.11
923.784	32051.43
924.153	32964.17
924.522	32932.88
924.891	30960.91
925.26	33152.65
925.629	32365.4
925.998	37216.4
926.367	36305.17
926.736	34550.01
927.104	41188.82
927.473	44292.44
927.842	53462.2
928.21	52966.03
928.578	55695.75
928.947	52658.61
929.315	52964.65
929.683	62128.17
930.051	62608.69
930.42	72746.36
930.788	62197.79
931.156	61727.58
931.523	57846.06
931.891	53472.26
932.259	51351.53
932.627	59488.87
932.994	84151.03
933.362	69535.05
933.729	60376.61
934.097	57787.13
934.464	48891.38
934.831	56403.4
935.199	55572.62
935.566	53912.9
935.933	54703.1
936.3	66265.94
936.667	51613.85
937.034	46528.6
937.401	46026.5
937.767	39722.53
938.134	35345.33
938.501	49817.07
938.867	53098.6
939.234	89823.25
939.6	76636.17
939.967	84348.86
940.333	56370.52
940.699	47961.04
941.065	38526.77
941.431	50520.46
941.798	48673.1
942.163	63897.2
942.529	39903.21
942.895	36729.41
943.261	23734.08
943.627	31123.25
943.992	27213.66
944.358	27284.36
944.723	27386.97
945.089	26687.23
945.454	24638.03
945.82	26319.66
946.185	25332.9
946.55	29353.72
946.915	26327.78
947.28	30903.94
947.645	27201.75
948.01	25102.65
948.375	26180.15
948.74	31361.87
949.104	36562.13
949.469	52851.66
949.834	93369.38
950.198	88405.16
950.562	52940.77
950.927	44113.62
951.291	53107.96
951.655	45250.94
952.02	42563.56
952.384	32207.97
952.748	28033.09
953.112	27342.33
953.476	23783.26
953.839	22004.16
954.203	21775.43
954.567	27292.41
954.931	42984.71
955.294	36752.74
955.658	36979.05
956.021	62819.35
956.385	106592.38
956.748	157395.71
957.111	244309.22
957.474	274471.4
957.837	309295.19
958.2	234151.53
958.563	84234.97
958.926	56902.42
959.289	86383.34
959.652	96456.84
960.015	72429.96
960.377	103899.42
960.74	118584
961.102	204782.92
961.465	219770.73
961.827	117503.58
962.189	225514.73
962.552	156254.34
962.914	125444.28
963.276	81471.8
963.638	67399.98
964	66703.31
964.362	45070.7
964.724	43583.84
965.085	31068.24
965.447	25483.45
965.809	29087.06
966.17	29140.14
966.532	31542.64
966.893	28963.27
967.255	26326.01
967.616	31093.22
967.977	24921.03
968.338	27229.93
968.699	22376.2
969.061	22408
969.421	22545.3
969.782	25309.41
970.143	21370.11
970.504	22107.86
970.865	25114.87
971.225	25696.37
971.586	25126.16
971.946	35797.99
972.307	31094.04
972.667	40688.61
973.027	41884.29
973.388	50817.72
973.748	34531.37
974.108	37654.22
974.468	50970.24
974.828	39291.82
975.188	30233.74
975.548	27767.95
975.907	23335.65
976.267	26156.57
976.627	21964.25
976.986	22769.35
977.346	21687.41
977.705	20861.16
978.064	18981.2
978.424	15812.14
978.783	16362.02
979.142	18678.77
979.501	17879.97
979.86	18891.46
980.219	18210.95
980.578	23492.67
980.937	26312.7
981.296	23465.11
981.654	24167.87
982.013	37605.6
982.371	48786.3
982.73	45542.76
983.088	51564.92
983.447	55033.77
983.805	78688.14
984.163	164356.63
984.521	182403.79
984.879	267260.19
985.237	-434874.32
985.595	418910.77
985.953	104201.14
986.311	60242.32
986.669	35013.11
987.026	30228.37
987.384	40669.94
987.741	42037.68
988.099	30022.41
988.456	23925.2
988.814	22380.8
989.171	19462.4
989.528	19220.33
989.885	20268.43
990.242	16042.01
990.599	19957.41
990.956	16326.33
991.313	11428.12
991.67	9391.55
992.027	9938.25
992.383	8825.99
992.74	7744.19
993.096	8112.67
993.453	8406.82
993.809	8720.63
994.165	11612.65
994.522	10618.28
994.878	11693.95
995.234	14651.52
995.59	14428.16
995.946	13700.37
996.302	15644.15
996.658	18090.48
997.013	19965.87
997.369	23668.95
997.725	30249.79
998.08	19581.6
998.436	30297.32
998.791	41808.76
999.147	41786.23
999.502	45565.75
999.857	33176.42
1000.212	53982.42
1000.567	76814.86
1000.922	44210.47
1001.277	28074.3
1001.632	20868.08
1001.987	26955.36
1002.342	19329.56
1002.696	15462.46
1003.051	12314.77
1003.406	14937.3
1003.76	14882.34
1004.114	14700.87
1004.469	12370.52
1004.823	10251.75
1005.177	11084.17
1005.531	8786.12
1005.885	7769.16
1006.239	8760.44
1006.593	10980.21
1006.947	14698.45
1007.301	11030.3
1007.655	11999.9
1008.008	8796.63
1008.362	9889.7
1008.715	14117.02
1009.069	12816.06
1009.422	19245.04
1009.776	38686.25
1010.129	25741.76
1010.482	21507.44
1010.835	18239.99
1011.188	37976.32
1011.541	35711.2
1011.894	-218517.74
1012.247	642999
1012.6	43774.86
1012.952	27644.6
1013.305	14292.09
1013.657	10279.06
1014.01	9720.3
1014.362	8035
1014.715	7111.71
1015.067	6182.03
1015.419	6053.57
1015.771	5375.51
1016.123	4770.33
1016.475	4906.38
1016.827	5230.32
1017.179	5619.96
1017.531	5671.11
1017.883	5799.25
1018.234	5576.22
1018.586	7028.07
1018.938	7434.48
1019.289	10218.29
1019.64	11685.98
1019.992	10910.19
1020.343	9997.25
1020.694	7873.72
1021.045	6939.38
1021.396	7917.36
1021.747	8464.89
1022.098	10192.44
1022.449	7429.78
1022.8	6897.45
1023.151	4796.98
1023.501	4247.73
1023.852	4618.28
1024.202	4777.24
1024.553	5272.56
1024.903	5155.11
1025.253	4405.13
1025.604	3968.02
1025.954	4923.67
1026.304	6019.17
1026.654	7030.28
1027.004	10359.83
1027.354	16803.56
1027.703	15793.36
1028.053	20825.26
1028.403	30242.68
1028.753	43820.93
1029.102	59854.33
1029.452	308549.51
1029.801	13331.08
1030.15	8588.05
1030.499	7292.75
897.758	2540.56
901.051	2491.13
904.343	2527.12
907.636	2529.06
910.928	2594.13
914.22	2505.35
917.511	2513.52
920.803	2572.9
924.094	2586.49
927.384	2573.39
930.675	2538.72
933.965	2494.16
937.255	2510.01
940.544	2475.45
943.834	2434.58
947.123	2374.54
950.411	2468.92
953.7	2442.13
956.988	2415.91
960.276	2355.6
963.563	2429.81
966.851	2425.93
970.138	2482.28
973.424	2476.74
976.711	2427.93
979.997	2535.53
983.283	2576.15
986.568	2488.41
989.853	2499.83
993.138	2527.43
996.423	2611.66
999.708	2552.27
1002.992	2609.5
1006.275	2464.63
1009.559	2499.02
1012.842	2608.78
1016.125	2546.51
1019.408	2526.66
1022.69	2608.16
1025.972	2629.74
1029.254	2604.76
1032.536	2544.07
1035.817	2568.03
1039.098	2520.32
1042.379	2640.39
1045.659	2648.02
1048.939	2587.13
1052.219	2604.84
1055.498	2610.92
1058.778	2598.06
1062.057	2582.46
1065.335	2604.52
1068.614	2621.61
1071.892	2607.89
1075.17	2678.46
1078.447	2670.04
1081.724	2663.89
1085.001	2698.68
1088.278	2673.29
1091.554	2687.91
1094.83	2682.61
1098.106	2711.77
1101.382	2752.63
1104.657	2755.94
1107.932	2750.85
1111.206	2718.01
1114.481	2676.1
1117.755	2679.02
1121.029	2662.13
1124.302	2718.8
1127.575	2671.09
1130.848	2663.69
1134.121	2627.76
1137.393	2580.72
1140.665	2644.24
1143.937	2621.93
1147.208	2579.92
1150.48	2625.13
1153.75	2608.95
1157.021	2634.8
1160.291	2606.26
1163.561	2654.85
1166.831	2637.21
1170.101	2667.49
1173.37	2639.68
1176.639	2586.62
1179.907	2643.43
1183.176	2652.03
1186.444	2658.86
1189.711	2688.34
1192.979	2702.96
1196.246	2656.5
1199.513	2673.75
1202.78	2673.3
1206.046	2682.45
1209.312	2706.14
1212.578	2730.79
1215.843	2686.16
1219.108	2659.03
1222.373	2682.76
1225.638	2647.03
1228.902	2632.86
1232.166	2596.59
1235.43	2579.26
1238.693	2604.03
1241.956	2598.16
1245.219	2643.8
1248.482	2630.96
1251.744	2625.23
1255.006	2768.4
1258.268	2719.53
1261.529	2665.46
1264.79	2670.08
1268.051	2775.88
1271.312	2789.04
1274.572	2754.8
1277.832	2745.58
1281.092	2733
1284.351	2710.68
1287.61	2691.5
1290.869	2611.31
1294.128	2593.98
1297.386	2674.47
1300.644	2663.06
1303.902	2675.62
1307.159	2534.38
1310.416	2588.93
1313.673	2614.43
1316.93	2600.94
1320.186	2644.15
1323.442	2685.47
1326.697	2678.35
1329.953	2664.16
1333.208	2688.66
1336.463	2668.04
1339.717	2610.11
1342.972	2739.76
1346.226	2714.13
1349.479	2650.52
1352.733	2624.36
1355.986	2641.79
1359.238	2620.18
1362.491	2621.78
1365.743	2621.68
1368.995	2618.21
1372.247	2630.96
1375.498	2653.62
1378.749	2675.77
1382	2626.97
1385.251	2677.41
1388.501	2634.53
1391.751	2621.54
1395	2588.27
1398.25	2621.49
1401.499	2633.63
1404.748	2565.38
1407.996	2549.9
1411.244	2535.76
1414.492	2517.54
1417.74	2496.15
1420.987	2504.64
1424.234	2561.4
1427.481	2536.95
1430.728	2596.46
1433.974	2568.56
1437.22	2578.97
1440.465	2579.44
1443.711	2553.79
1446.956	2585.96
1450.201	2568.62
1453.445	2616.03
1456.689	2594.2
1459.933	2608.56
1463.177	2644.17
1466.42	2616.66
1469.663	2596.26
1472.906	2596.24
1476.148	2657.16
1479.391	2635.07
1482.633	2602.19
1485.874	2616.87
1489.115	2605.42
1492.356	2610.32
1495.597	2584.95
1498.838	2585.77
1502.078	2558.04
1505.318	2514.88
1508.557	2557.6
1511.797	2544.34
1515.036	2596.35
1518.274	2588.47
1521.513	2558.66
1524.751	2579.17
1527.989	2594.6
1531.227	2609.86
1534.464	2610.13
1537.701	2625.09
1540.938	2642.96
1544.174	2595.3
1547.41	2592.73
1550.646	2632.62
1553.882	2674.36
1557.117	2728.11
1560.352	2742.85
1563.587	2699.27
1566.821	2662.29
1570.055	2692.54
1573.289	2666.52
1576.523	2739
1579.756	2746.48
1582.989	2765.78
1586.222	2726.72
1589.454	2761.99
1592.686	2738.52
1595.918	2765.25
1599.15	2757.44
1602.381	2825.28
1605.612	2787.18
1608.843	2884.02
1612.073	2797.53
1615.303	2783.56
1618.533	2779.15
1621.762	2775.94
1624.992	2760.49
1628.221	2750.24
1631.449	2736.93
1634.678	2786.75
1637.906	2741.13
1641.134	2779.14
1644.361	2737.29
1647.588	2726.07
1650.815	2742.91
1654.042	2716.9
1657.269	2751.48
1660.495	2707.61
1663.72	2721.67
1666.946	2686.18
1670.171	2635.78
1673.396	2613.9
1676.621	2599.92
1679.845	2613.05
1683.069	2628.96
1686.293	2667.54
1689.517	2644.8
1692.74	2578.15
1695.963	2607.02
1699.185	2632.27
1702.408	2603.48
1705.63	2643.57
1708.852	2654.82
1712.073	2627.25
1715.294	2618.12
1718.515	2677.63
1721.736	2629.54
1724.956	2615.41
1728.176	2639.49
1731.396	2662.13
1734.616	2646.36
1737.835	2677.54
1741.054	2656.58
1744.272	2649.08
1747.491	2680.09
1750.709	2724.94
1753.927	2639.7
1757.144	2678.95
1760.361	2727.72
1763.578	2715.25
1766.795	2659.12
1770.011	2659.26
1773.227	2696.89
1776.443	2732.1
1779.658	2777.34
1782.874	2716.71
1786.089	2699.6
1789.303	2701.01
1792.518	2705.83
1795.732	2692.35
1798.945	2703.16
1802.159	2751.2
1805.372	2662.14
1808.585	2649.36
1811.797	2649.79
1815.01	2690.05
1818.222	2699.24
1821.434	2676.28
1824.645	2732.71
1827.856	2721.76
1831.067	2756.16
1834.278	2708.76
1837.488	2689.13
1840.698	2834.8
1843.908	2761.51
1847.117	2725.18
1850.326	2621.34
1853.535	2713.52
1856.744	2733.02
1859.952	2644.24
1863.16	2646
1866.368	2665.42
1869.575	2770.26
1872.782	2654.89
1875.989	2589.52
1879.196	2663.61
1882.402	2652.66
1885.608	2690.36
1888.814	2601.57
1892.019	2496.74
1895.224	2550.03
1898.429	2527.31
1901.634	2504.16
1904.838	2481.11
1908.042	2529.75
1911.246	2539.77
1914.449	2479.6
1917.652	2472.38
1920.855	2454.06
1924.058	2496.51
1927.26	2536.98
1930.462	2562.34
1933.664	2589.58
1936.865	2530.96
1940.066	2538.83
1943.267	2487.37
1946.467	2497.17
1949.668	2523.17
1952.868	2590.57
1956.067	2572.13
1959.267	2507.05
1962.466	2533.24
1965.665	2519.16
1968.863	2515.16
1972.061	2525
1975.259	2523.91
1978.457	2600.68
1981.654	2562.67
1984.852	2562.27
1988.048	2501.81
1991.245	2501.34
1994.441	2585.51
1997.637	2564.6
2000.833	2542.52
2004.028	2581.19
2007.223	2640.59
2010.418	2618.95
2013.613	2577.36
2016.807	2553.36
2020.001	2560.75
2023.194	2596.16
2026.388	2575.75
2029.581	2521.96
2032.774	2574.03
2035.966	2585.72
2039.158	2521.61
2042.35	2544.61
2045.542	2471.57
2048.733	2570.21
2051.924	2586.83
2055.115	2609.33
2058.306	2559.36
2061.496	2617.75
2064.686	2678.74
2067.875	2590.81
2071.065	2600.37
2074.254	2624.51
2077.442	2577.75
2080.631	2667.66
2083.819	2567.44
2087.007	2550.77
2090.195	2524.88
2093.382	2558.17
2096.569	2537.77
2099.756	2493.65
2102.942	2524.32
2106.128	2532.94
2109.314	2523.58
2112.5	2491.99
2115.685	2465.12
2118.87	2475.26
2122.055	2540.58
2125.239	2510.31
2128.424	2488.3
2131.608	2578.7
2134.791	2562.84
2137.974	2615.9
2141.157	2600.94
2144.34	2557.2
2147.523	2568.03
2150.705	2584.85
2153.887	2561.1
2157.068	2515.17
2160.25	2513.53
2163.431	2542.98
2166.611	2496.93
2169.792	2513.8
2172.972	2411.66
2176.152	2484.62
2179.331	2518.12
2182.511	2502.22
2185.69	2532.1
2188.868	2528.47
2192.047	2577.03
2195.225	2572.41
2198.403	2525.23
2201.58	2515.06
2204.758	2507.87
2207.935	2589.47
2211.111	2483.67
2214.288	2469.7
2217.464	2508.79
2220.64	2473.5
2223.815	2526.41
2226.991	2450.92
2230.166	2471.41
2233.34	2501.76
2236.515	2523.4
2239.689	2591.78
2242.863	2538.8
2246.036	2593.86
2249.209	2590.21
2252.382	2618.47
2255.555	2613.33
2258.727	2555.14
2261.9	2593.38
2265.071	2583.89
2268.243	2586.1
2271.414	2522.66
2274.585	2489.66
2277.756	2554.78
2280.926	2510.9
2284.096	2547.03
2287.266	2462.01
2290.436	2513.17
2293.605	2542.73
2296.774	2570.93
2299.942	2588.05
2303.111	2605.36
2306.279	2653.63
2309.447	2640.66
2312.614	2613.75
2315.781	2635
2318.948	2605.74
2322.115	2644.9
2325.281	2546.55
2328.447	2561.3
2331.613	2537.87
2334.779	2514.8
2337.944	2513.93
2341.109	2513.8
2344.274	2499.17
2347.438	2465.29
2350.602	2490.01
2353.766	2506.29
2356.929	2492.45
2360.092	2535.89
2363.255	2489.55
2366.418	2432.26
2369.58	2534.37
2372.742	2345.37
2375.904	2354.81
2379.066	2332.94
2382.227	2362.78
2385.388	2324.21
2388.548	2257.37
2391.709	2307.95
2394.869	2286.99
2398.029	2378.3
2401.188	2386.07
2404.347	2326.1
2407.506	2451.1
2410.665	2481.94
2413.823	2483.15
2416.981	2447.98
2420.139	2476.88
2423.296	2524.16
2426.453	2496.81
2429.61	2519.77
2432.767	2460.79
2435.923	2499.29
2439.079	2459.81
2442.235	2505.25
2445.391	2437.59
2448.546	2468.83
2451.701	2515.23
2454.855	2493.39
2458.009	2538.42
2461.163	2536.51
2464.317	2499.47
2467.471	2531.56
2470.624	2567.58
2473.777	2543.3
2476.929	2557.7
2480.082	2582.71
2483.234	2549.15
2486.385	2498.51
2489.537	2490.6
2492.688	2458.53
2495.839	2479.22
2498.989	2489.67
2502.14	2475.06
2505.29	2461.9
2508.439	2483.45
2511.589	2411.23
2514.738	2417.94
2517.887	2448.28
2521.035	2515.78
2524.183	2494.11
2527.331	2476.58
2530.479	2454.38
2533.627	2463.29
