Data from N_2_DIV_IL_4N_Splice17_12-35-38-107.txt Node
Date: Sat Mar 14 12:35:38 EDT 2020
User: sa697716
Spectrometer: FLMS03696
Trigger mode: 0
Integration Time (sec): 3.180400E-1
Scans to average: 20
Electric dark correction enabled: true
Nonlinearity correction enabled: true
Boxcar width: 5
XAxis mode: Wavelengths
Number of Pixels in Spectrum: 2048
>>>>>Begin Spectral Data<<<<<
187.83	-319012.04
188.298	2344.99
188.766	1302.04
189.233	1160.16
189.701	1635.52
190.169	2285.21
190.636	875.97
191.104	695.3
191.571	78.59
192.039	-77.33
192.506	-36.78
192.974	669.44
193.441	-917.96
193.908	-211.08
194.375	-78.68
194.842	0.22
195.31	98.23
195.777	192.19
196.244	395.71
196.711	449.69
197.177	582.12
197.644	835.93
198.111	1465.3
198.578	2016.69
199.045	1607.27
199.511	2657.61
199.978	3111.35
200.445	2666.41
200.911	2933.94
201.378	3305.35
201.844	3008.36
202.31	5133.38
202.777	5352.88
203.243	2954.89
203.709	2827.91
204.176	3393.32
204.642	2795.93
205.108	2622.75
205.574	2121.26
206.04	1944.37
206.506	1830.69
206.972	1736.75
207.438	1677.76
207.903	1907.96
208.369	1678.95
208.835	1669.96
209.301	1752.01
209.766	1778.87
210.232	1759.43
210.697	2186.95
211.163	2690.55
211.628	4048.06
212.094	3432.06
212.559	4253.73
213.024	2648.46
213.49	3260.99
213.955	3202.05
214.42	3147.03
214.885	2960.16
215.35	2848.32
215.815	2768.84
216.28	2963.64
216.745	2434.61
217.21	2639.08
217.675	2448.92
218.14	2816.72
218.604	3197.38
219.069	3726.99
219.534	3970.85
219.998	4676.08
220.463	5747.24
220.927	7183.24
221.392	6851.33
221.856	7018.95
222.32	8938.37
222.785	11136.66
223.249	14091.5
223.713	15830.09
224.177	15892.04
224.642	20493.82
225.106	25342.37
225.57	27857.01
226.034	20761.86
226.497	31688.66
226.961	28657.85
227.425	33488
227.889	37252.93
228.353	37380.15
228.816	77334.8
229.28	74181.47
229.744	62751.33
230.207	38270.91
230.671	37685.33
231.134	62545.54
231.597	72266.85
232.061	72501.1
232.524	70820.47
232.987	48870.87
233.45	44040.58
233.914	39599.52
234.377	40657.92
234.84	37281.94
235.303	44001.55
235.766	49165.07
236.229	50852.01
236.691	32071.36
237.154	36077.37
237.617	27174.13
238.08	27863.66
238.542	32680.81
239.005	23382.07
239.468	23225.43
239.93	21899.42
240.393	19928.75
240.855	17512.18
241.317	17962.69
241.78	21884.26
242.242	22609.79
242.704	24420.01
243.166	21262.69
243.629	19303.5
244.091	22265.75
244.553	24421.16
245.015	26238.77
245.477	33948.3
245.939	49805.04
246.4	52858.41
246.862	51429.37
247.324	48544.74
247.786	54405.58
248.247	71403.15
248.709	73823.62
249.17	55230.5
249.632	52040.48
250.093	60373.11
250.555	52194.86
251.016	31828.44
251.477	30205.72
251.939	32579.44
252.4	34217.95
252.861	40702.06
253.322	37859.98
253.783	45072.9
254.244	58481.09
254.705	46119.42
255.166	41027.83
255.627	40395.6
256.088	56981.01
256.549	60499.96
257.009	52106.31
257.47	63144.1
257.931	51390.28
258.391	38498.38
258.852	39700.79
259.312	41586.04
259.773	51373.92
260.233	43411.13
260.694	36612.12
261.154	41482.77
261.614	33279.18
262.074	29771.47
262.534	30953.84
262.994	29149.53
263.455	38861.89
263.915	32705.67
264.374	30817.19
264.834	33655.99
265.294	37268.02
265.754	38584.06
266.214	36550.62
266.673	34243.99
267.133	43209.48
267.593	42877.15
268.052	52507.22
268.512	45664.28
268.971	54994.38
269.431	60282.16
269.89	53968.32
270.349	80916.37
270.809	90160.06
271.268	81057.19
271.727	181769.87
272.186	117690
272.645	88183.12
273.104	63607.04
273.563	92063.75
274.022	72490.42
274.481	61600.11
274.94	47399.21
275.399	35243.55
275.857	41057.87
276.316	55541.15
276.775	49434.12
277.233	48654.34
277.692	45514
278.15	51441.07
278.609	52879.93
279.067	48890.44
279.525	45445.62
279.984	58689.55
280.442	70472.9
280.9	69417.62
281.358	45655.27
281.816	42541.73
282.274	41675.15
282.732	43113.79
283.19	43321.48
283.648	37394.1
284.106	39864.6
284.564	40537.28
285.021	37600.4
285.479	28018.13
285.937	25489.19
286.394	22345.35
286.852	23006.98
287.309	24176.7
287.767	23334.68
288.224	22227.13
288.682	24400.96
289.139	26785.41
289.596	24518.25
290.053	25508.99
290.511	32238.91
290.968	39103.78
291.425	53158.02
291.882	44244.9
292.339	38527.22
292.796	38275.91
293.252	36056.16
293.709	28641.08
294.166	25687.79
294.623	28412.22
295.079	27291.33
295.536	27402.8
295.992	24911.21
296.449	24657.16
296.905	25653.48
297.362	24613.09
297.818	25922.97
298.274	26897.71
298.731	27453.78
299.187	27180.56
299.643	29200.58
300.099	35323.21
300.555	38801.91
301.011	32449.38
301.467	31249.91
301.923	36605.03
302.379	35778.76
302.835	35173.68
303.291	35226.13
303.746	40109.07
304.202	50656.18
304.658	50898.92
305.113	34261.85
305.569	33623.09
306.024	35834.33
306.479	34142.66
306.935	28797.98
307.39	31484.18
307.845	29072.35
308.301	29298.5
308.756	28583.94
309.211	27585.65
309.666	28285.84
310.121	35112.58
310.576	35642.46
311.031	35421.96
311.486	40628.79
311.94	40625.11
312.395	54289.71
312.85	102076.37
313.305	501621.3
313.759	2592954.69
314.214	187761.16
314.668	148743.61
315.123	125025.61
315.577	44808.19
316.032	39877.79
316.486	50021.99
316.94	39420.2
317.394	27443.88
317.849	21323.07
318.303	20199.34
318.757	19049.64
319.211	21078.08
319.665	18460.44
320.119	18709
320.572	26849.21
321.026	25103.28
321.48	20882.87
321.934	22804.62
322.387	22882.74
322.841	24702.37
323.295	22185.23
323.748	25601.21
324.202	25988.31
324.655	31212.37
325.108	43572.98
325.562	30799.48
326.015	36556
326.468	27631.25
326.921	30889.98
327.374	28806.68
327.827	30012.34
328.28	34010.23
328.733	22770.44
329.186	20036.26
329.639	19108.31
330.092	16137.75
330.545	15354.05
330.997	15491.76
331.45	16924.04
331.903	19837.12
332.355	34185.07
332.808	33274.01
333.26	27475.22
333.713	29844.4
334.165	30051.39
334.617	40116.02
335.069	32424.52
335.522	58712.3
335.974	65115.92
336.426	59613.87
336.878	41351.95
337.33	20951.34
337.782	20440.71
338.234	25584.44
338.686	30643.72
339.137	36331.98
339.589	34242.59
340.041	26815.67
340.493	23043.31
340.944	23575.81
341.396	25367.55
341.847	21312.77
342.299	25139.91
342.75	30691.94
343.201	26839.51
343.653	30847.52
344.104	37940.69
344.555	29857
345.006	46504.2
345.457	35567.49
345.908	28288.51
346.359	26662.08
346.81	21741.14
347.261	22898.76
347.712	22547.71
348.163	24235.28
348.613	24521.82
349.064	22887.18
349.515	20052.33
349.965	20571.95
350.416	24793.11
350.866	27226.91
351.317	30736.69
351.767	50892.83
352.217	64372.38
352.668	53464.3
353.118	48901.09
353.568	47255.82
354.018	37369.96
354.468	39356.03
354.918	28219.83
355.368	24713.35
355.818	34896.25
356.268	100482.08
356.718	420358.86
357.168	104698.32
357.617	52575.2
358.067	58520.64
358.517	54771.11
358.966	64172.14
359.416	72052.99
359.865	77961.32
360.315	92803.77
360.764	43329.98
361.213	24266.39
361.663	23013.16
362.112	28407.17
362.561	45871.07
363.01	34639.83
363.459	29215.34
363.908	31647.22
364.357	26848.98
364.806	45342.15
365.255	31197.97
365.703	28545.64
366.152	28586.59
366.601	23191.77
367.05	18804.16
367.498	17070.48
367.947	17799.54
368.395	18470.92
368.844	16367.05
369.292	19776.17
369.74	13662.2
370.189	20923.52
370.637	24560.76
371.085	21165.18
371.533	25753.38
371.981	24829.14
372.429	23682.29
372.877	24703.87
373.325	20687.27
373.773	21063.48
374.221	18728.03
374.669	23260.61
375.116	20114.78
375.564	20280.74
376.012	22724.92
376.459	18725.66
376.907	22373.62
377.354	27055.46
377.801	25206.91
378.249	28963.98
378.696	37044.91
379.143	44896.33
379.591	47794.2
380.038	80758.32
380.485	58287.77
380.932	62852.19
381.379	57447.3
381.826	42269.69
382.273	30035.56
382.72	26270.16
383.166	25592.48
383.613	16600.67
384.06	14961.78
384.506	17305.18
384.953	12721.52
385.4	12817.34
385.846	11234.13
386.292	10964.7
386.739	10754.86
387.185	10636.61
387.631	10632.64
388.078	10304.72
388.524	11013.3
388.97	10159.44
389.416	8466.72
389.862	8997.65
390.308	8506.58
390.754	8636.09
391.2	9355.7
391.645	9567.47
392.091	9145.46
392.537	8831.15
392.983	8851.71
393.428	8693.71
393.874	9327.89
394.319	9350.71
394.765	8846.01
395.21	9106.72
395.655	8523.85
396.101	7974.15
396.546	7178.3
396.991	7240.41
397.436	6719.73
397.881	6497.03
398.326	6148.12
398.771	5789.88
399.216	5056.35
399.661	4552.35
400.106	4522.43
400.551	4625.32
400.995	4149.38
401.44	4101.49
401.885	3846.22
402.329	3882.11
402.774	3714.23
403.218	3585.86
403.663	3458.88
404.107	3553.03
404.551	3572.71
404.995	3270.93
405.44	3147.72
405.884	3189.14
406.328	3078.83
406.772	3063.69
407.216	2785.29
407.66	2692.3
408.104	2557.63
408.547	2387.55
408.991	2309.18
409.435	2220.03
409.879	2187.18
410.322	2158.02
410.766	2083.03
411.209	1982.62
411.653	1902.06
412.096	1864.08
412.54	1857.95
412.983	1847.17
413.426	1853.3
413.869	1850.27
414.312	1810.09
414.756	1746.91
415.199	1664.06
415.642	1616
416.085	1614.01
416.527	1602.63
416.97	1621.9
417.413	1539.65
417.856	1519.15
418.298	1501.42
418.741	1487.96
419.184	1489.79
419.626	1549.32
420.069	1546.57
420.511	1550.67
420.953	1516.36
421.396	1499.32
421.838	1462.82
422.28	1494.8
422.722	1501.64
423.164	1523.26
423.606	1496.71
424.048	1489.37
424.49	1411.88
424.932	1405.67
425.374	1386.05
425.816	1410.48
426.258	1437.41
426.699	1451.16
427.141	1427.93
427.582	1449.99
428.024	1442.66
428.465	1436.38
428.907	1403.18
429.348	1388.94
429.789	1390.26
430.231	1363.95
430.672	1384.58
431.113	1352.7
431.554	1331.86
431.995	1300.58
432.436	1254.72
432.877	1227.27
433.318	1204.63
433.759	1200
434.2	1199.35
434.64	1186.08
435.081	1186.43
435.522	1123.2
435.962	1081.59
436.403	1059.6
436.843	1072.81
437.284	1048.26
437.724	1020.58
438.164	1024.1
438.604	1000.15
439.045	962.6
439.485	922.41
439.925	904.58
440.365	881.61
440.805	869.55
441.245	858
441.685	827.11
442.125	820.74
442.564	824.4
443.004	805.47
443.444	804.62
443.883	806.25
444.323	800.28
444.762	799.79
445.202	809.57
445.641	825.99
446.081	822.05
446.52	829.48
446.959	823.15
447.398	803.92
447.837	794.96
448.276	779.41
448.716	785.26
449.154	791.76
449.593	773.84
450.032	773.46
450.471	757.94
450.91	759.11
451.349	757.96
451.787	754.44
452.226	767.18
452.664	766.22
453.103	767.88
453.541	767.04
453.98	766.74
454.418	772.57
454.856	759.81
455.295	759.64
455.733	765.83
456.171	768.82
456.609	770.58
457.047	769.43
457.485	782.93
457.923	784.82
458.361	774.01
458.798	776.48
459.236	774.43
459.674	779.82
460.111	782.67
460.549	774.7
460.987	772.63
461.424	770.71
461.862	766.79
462.299	752.8
462.736	750.53
463.173	753.45
463.611	745.93
464.048	744.21
464.485	749.85
464.922	743.11
465.359	738.89
465.796	729.58
466.233	722.79
466.67	715.31
467.106	714.1
467.543	707.45
467.98	699.13
468.416	680.72
468.853	675.43
469.29	654.73
469.726	646.73
470.162	629.9
470.599	621.06
471.035	614.69
471.471	599.82
471.907	596.25
472.344	593.22
472.78	593.8
473.216	600.86
473.652	592.98
474.088	591.53
474.523	590.09
474.959	594.93
475.395	589.6
475.831	586.01
476.266	588.99
476.702	587.4
477.138	580.45
477.573	578.53
478.008	575.93
478.444	578.79
478.879	584.3
479.314	586.16
479.75	585.31
480.185	587.72
480.62	592.87
481.055	595.41
481.49	599.47
481.925	608.29
482.36	619.23
482.795	635.49
483.229	652.45
483.664	665.67
484.099	668.79
484.534	679.98
484.968	686.55
485.403	688.99
485.837	689.26
486.271	687.8
486.706	688.29
487.14	679.96
487.574	670.34
488.009	663.96
488.443	658.14
488.877	664.77
489.311	666.24
489.745	673.63
490.179	679.63
490.613	691.53
491.046	695.96
491.48	700.2
491.914	700.56
492.348	705.32
492.781	709.18
493.215	710.37
493.648	710.82
494.082	715.82
494.515	715.16
494.948	722.11
495.382	725.45
495.815	731.13
496.248	736.7
496.681	749.73
497.114	760.22
497.547	769.42
497.98	782.56
498.413	788.56
498.846	797.81
499.279	806.22
499.711	810.41
500.144	812.58
500.577	821.94
501.009	832.21
501.442	840.96
501.874	840.73
502.306	842.88
502.739	849.77
503.171	863.21
503.603	865.44
504.036	875.13
504.468	880.11
504.9	890.35
505.332	896.39
505.764	899.94
506.196	906.62
506.627	920.99
507.059	932.36
507.491	939.28
507.923	936.94
508.354	951.05
508.786	959.67
509.217	976.4
509.649	990.24
510.08	1008.23
510.512	1024.43
510.943	1037.21
511.374	1047.61
511.805	1067.16
512.237	1085.53
512.668	1116.41
513.099	1142.34
513.53	1169.39
513.961	1188.34
514.391	1219.71
514.822	1251.93
515.253	1285.71
515.684	1310.45
516.114	1339.52
516.545	1359.67
516.975	1383.86
517.406	1399.77
517.836	1400.68
518.267	1406.3
518.697	1423.92
519.127	1427.88
519.558	1433.03
519.988	1434.98
520.418	1444.1
520.848	1459.44
521.278	1466.58
521.708	1475.92
522.138	1487.44
522.567	1517.65
522.997	1540.91
523.427	1554.32
523.857	1569.37
524.286	1578.25
524.716	1592.75
525.145	1610.59
525.575	1621.53
526.004	1635.38
526.433	1635.73
526.863	1635.61
527.292	1625.29
527.721	1630.31
528.15	1635.78
528.579	1635.38
529.008	1646.83
529.437	1669.27
529.866	1682.14
530.295	1696.88
530.724	1708.08
531.152	1733.93
531.581	1747.68
532.01	1764.01
532.438	1771.99
532.867	1785.77
533.295	1804.58
533.723	1809.06
534.152	1806.17
534.58	1806.19
535.008	1791.55
535.436	1793.66
535.865	1800.94
536.293	1813.9
536.721	1829.5
537.149	1855.19
537.576	1857.05
538.004	1869.06
538.432	1877.79
538.86	1875.71
539.287	1882.66
539.715	1896.19
540.143	1898.3
540.57	1894.43
540.998	1891.04
541.425	1868.77
541.852	1845.82
542.28	1845.15
542.707	1828.89
543.134	1813.67
543.561	1809.85
543.988	1801.28
544.415	1799.24
544.842	1794.49
545.269	1787.34
545.696	1789.78
546.123	1801.96
546.549	1791.46
546.976	1778.49
547.403	1777.24
547.829	1779.04
548.256	1780.16
548.682	1777.86
549.108	1771.3
549.535	1770.3
549.961	1771.57
550.387	1758.47
550.813	1753.32
551.24	1760.61
551.666	1760.81
552.092	1751.53
552.518	1745.25
552.943	1739.36
553.369	1745.6
553.795	1750.62
554.221	1751.08
554.646	1748
555.072	1759.38
555.498	1764.2
555.923	1773.44
556.349	1788.43
556.774	1798.12
557.199	1800.42
557.625	1807.42
558.05	1801.89
558.475	1813.1
558.9	1813
559.325	1804.84
559.75	1798.46
560.175	1791.39
560.6	1784.27
561.025	1782.31
561.449	1783.22
561.874	1788.66
562.299	1793.02
562.723	1800.17
563.148	1789.47
563.572	1794.25
563.997	1805.4
564.421	1810.68
564.846	1811.81
565.27	1815.2
565.694	1813.01
566.118	1824
566.542	1831.08
566.966	1824.57
567.39	1820.35
567.814	1809.48
568.238	1808.27
568.662	1813.13
569.086	1815.44
569.509	1822.32
569.933	1807.18
570.357	1799.81
570.78	1778.42
571.204	1765.7
571.627	1755.81
572.05	1753.15
572.474	1753.33
572.897	1740.46
573.32	1732.65
573.743	1722.05
574.166	1704.47
574.589	1705.12
575.012	1697.2
575.435	1695.46
575.858	1686.05
576.281	1673.95
576.704	1658.29
577.126	1646.67
577.549	1635.68
577.972	1625.12
578.394	1615.1
578.817	1607.65
579.239	1589
579.661	1576.41
580.084	1562.5
580.506	1548.94
580.928	1545.25
581.35	1535.62
581.772	1531.16
582.194	1517.8
582.616	1506.8
583.038	1493.44
583.46	1482.2
583.882	1478.71
584.303	1482.53
584.725	1477.94
585.147	1481.09
585.568	1491.4
585.99	1502.07
586.411	1508.92
586.833	1524.12
587.254	1525.15
587.675	1538.82
588.096	1551.89
588.518	1547.54
588.939	1531.92
589.36	1529.95
589.781	1518.5
590.202	1492.05
590.623	1484.41
591.043	1481.94
591.464	1469.85
591.885	1466.45
592.305	1460.69
592.726	1448.59
593.147	1449.91
593.567	1443.59
593.987	1436.17
594.408	1430.98
594.828	1428.05
595.248	1421.01
595.669	1402.92
596.089	1396.26
596.509	1389.75
596.929	1376.65
597.349	1377.61
597.769	1367.55
598.189	1362.3
598.608	1363.57
599.028	1365.94
599.448	1365.75
599.867	1355.1
600.287	1350.58
600.706	1347.05
601.126	1337.66
601.545	1337.42
601.965	1335.18
602.384	1330.37
602.803	1332.99
603.222	1328.19
603.641	1322.23
604.061	1318.28
604.48	1313.57
604.898	1322.12
605.317	1326.29
605.736	1329.31
606.155	1326.44
606.574	1317.72
606.992	1323.08
607.411	1318.94
607.829	1311.09
608.248	1307.98
608.666	1305.71
609.085	1304.84
609.503	1296.16
609.921	1290
610.339	1290.64
610.758	1289.09
611.176	1283.67
611.594	1274.2
612.012	1269.08
612.43	1272.34
612.847	1277.24
613.265	1278.4
613.683	1282.09
614.101	1282.62
614.518	1277.87
614.936	1267.68
615.353	1252.77
615.771	1249.82
616.188	1250.1
616.606	1247.99
617.023	1239.57
617.44	1225.69
617.857	1218.9
618.274	1210.25
618.691	1203.14
619.108	1194.95
619.525	1188.98
619.942	1195.52
620.359	1198.18
620.776	1192.79
621.192	1189.2
621.609	1187.73
622.026	1194.99
622.442	1199.92
622.859	1203.5
623.275	1197.03
623.691	1201.41
624.108	1211.55
624.524	1225.42
624.94	1225.53
625.356	1234.4
625.772	1246.47
626.188	1258.52
626.604	1258.88
627.02	1254.21
627.436	1253.6
627.852	1260.83
628.268	1272.93
628.683	1264.29
629.099	1255.95
629.514	1249.73
629.93	1254.44
630.345	1257.62
630.761	1252.62
631.176	1256.65
631.591	1252.71
632.007	1246.88
632.422	1244.99
632.837	1233.4
633.252	1232.04
633.667	1221.8
634.082	1215.05
634.497	1201.75
634.911	1184.3
635.326	1181.67
635.741	1165.61
636.155	1155.54
636.57	1156.76
636.984	1156.03
637.399	1159.31
637.813	1159.48
638.228	1160.28
638.642	1165.09
639.056	1157.52
639.47	1159.1
639.884	1152.86
640.298	1147.91
640.712	1149.31
641.126	1138.85
641.54	1133.38
641.954	1129.53
642.368	1120.39
642.781	1114.7
643.195	1099.08
643.609	1102.19
644.022	1098.39
644.436	1094.99
644.849	1085.09
645.262	1074.91
645.676	1078.08
646.089	1074.61
646.502	1061.37
646.915	1055.71
647.328	1039.68
647.741	1038.7
648.154	1024.46
648.567	1021.35
648.98	1008.53
649.393	1009.08
649.805	1005.98
650.218	998.43
650.631	983.55
651.043	977.92
651.456	972.69
651.868	972.83
652.28	989.49
652.693	1002.54
653.105	1008.36
653.517	1017.07
653.929	1017.14
654.341	1022.23
654.753	1009.68
655.165	1015.23
655.577	1011.1
655.989	1006.86
656.401	999.39
656.813	965.09
657.224	945.44
657.636	918.52
658.047	902.64
658.459	883.8
658.87	874.59
659.282	864.15
659.693	843.51
660.104	830.69
660.515	817.46
660.926	816.91
661.338	813.64
661.749	809.31
662.159	801.14
662.57	796.79
662.981	793.55
663.392	786.61
663.803	790.29
664.213	788.87
664.624	784.86
665.035	787.94
665.445	774.34
665.855	767.45
666.266	760.55
666.676	758.14
667.086	749.49
667.497	749.81
667.907	745.04
668.317	736.88
668.727	734.41
669.137	735.72
669.547	734.07
669.956	736.19
670.366	738.99
670.776	739.77
671.186	743.34
671.595	747.59
672.005	749.25
672.414	748.72
672.824	747.38
673.233	750.98
673.642	752.47
674.052	755.4
674.461	758.46
674.87	761.32
675.279	759.52
675.688	760.09
676.097	761.09
676.506	757.38
676.915	770.16
677.323	770.78
677.732	767.55
678.141	766.8
678.549	754.71
678.958	751.65
679.366	750.59
679.775	754.21
680.183	763.93
680.592	767.97
681	772.48
681.408	765.06
681.816	771.39
682.224	778.61
682.632	785.69
683.04	812.42
683.448	835.22
683.856	861.19
684.264	891.42
684.671	917.79
685.079	952.49
685.487	991.85
685.894	1045.18
686.302	1090.05
686.709	1126.11
687.116	1167.62
687.524	1201.4
687.931	1229.52
688.338	1252.83
688.745	1271.49
689.152	1294.1
689.559	1326.44
689.966	1358.96
690.373	1372.5
690.78	1402.17
691.187	1452.28
691.593	1490.47
692	1523.08
692.407	1571.18
692.813	1637.19
693.22	1686.6
693.626	1737.76
694.032	1779.51
694.439	1843.87
694.845	1895.16
695.251	1961.1
695.657	2022.48
696.063	2111.05
696.469	2176.46
696.875	2241.62
697.281	2274.86
697.687	2319.13
698.093	2358.04
698.498	2429.21
698.904	2484.21
699.31	2565.86
699.715	2626.54
700.12	2710.07
700.526	2728.89
700.931	2797.64
701.337	2847.34
701.742	2881.99
702.147	2962.61
702.552	2996.37
702.957	3055.03
703.362	3077.81
703.767	3109.34
704.172	3148.79
704.577	3108.87
704.981	3156.29
705.386	3173.85
705.791	3169.02
706.195	3242.61
706.6	3254.87
707.004	3330.38
707.408	3303.77
707.813	3332.86
708.217	3324.54
708.621	3330.24
709.025	3427.27
709.43	3432.54
709.834	3492.19
710.237	3562.6
710.641	3550.92
711.045	3576.49
711.449	3574.76
711.853	3605.53
712.256	3647.16
712.66	3684.04
713.064	3759.81
713.467	3800.41
713.87	3909.37
714.274	3957.44
714.677	4065.53
715.08	4224.56
715.484	4387.33
715.887	4586.01
716.29	4777.95
716.693	4980.86
717.096	5216.71
717.499	5346.47
717.901	5374.79
718.304	5405.56
718.707	5434.79
719.109	5339.22
719.512	5310.9
719.915	5185.65
720.317	5134.75
720.719	5184.24
721.122	5161.39
721.524	5115.39
721.926	5076.74
722.328	5176.68
722.731	5169
723.133	5196.37
723.535	5385.86
723.937	5407.62
724.338	5460.51
724.74	5500.91
725.142	5445.47
725.544	5445.59
725.945	5477.19
726.347	5473.38
726.748	5468.58
727.15	5485.13
727.551	5451.51
727.952	5427.01
728.354	5398.13
728.755	5398.53
729.156	5359.82
729.557	5342.7
729.958	5223.53
730.359	5168.26
730.76	5153.22
731.161	5095.48
731.562	5070.58
731.962	5074.79
732.363	5011.06
732.763	4951.01
733.164	4987.33
733.564	4921.62
733.965	4831.78
734.365	4799.82
734.766	4828.32
735.166	4790.6
735.566	4737.68
735.966	4715.54
736.366	4709.54
736.766	4649.28
737.166	4681.97
737.566	4640.15
737.966	4615.57
738.365	4653.44
738.765	4649.48
739.165	4577.49
739.564	4551.48
739.964	4594.81
740.363	4550.22
740.763	4548.37
741.162	4540.64
741.561	4509.78
741.96	4467.04
742.36	4486.23
742.759	4491.81
743.158	4527.88
743.557	4540.98
743.955	4582.43
744.354	4541.76
744.753	4597.13
745.152	4557.44
745.55	4608.58
745.949	4603
746.348	4605.87
746.746	4622.95
747.144	4585.76
747.543	4564.55
747.941	4611.69
748.339	4541.97
748.737	4533.38
749.136	4523.53
749.534	4585.28
749.932	4556.13
750.33	4576.26
750.727	4628.96
751.125	4606.25
751.523	4589.45
751.921	4631.62
752.318	4600.42
752.716	4659.41
753.113	4673.01
753.511	4697.79
753.908	4698.55
754.305	4685.8
754.703	4746.92
755.1	4806.16
755.497	4864.01
755.894	5049.19
756.291	5223.33
756.688	5543.75
757.085	5969.24
757.482	6568.98
757.878	7231.87
758.275	7829.44
758.672	8643.85
759.068	9313.1
759.465	10261.58
759.861	11490.42
760.258	12913.75
760.654	13652.95
761.05	13548.64
761.447	12929.19
761.843	12039.07
762.239	11111.04
762.635	10694.03
763.031	10299.78
763.427	9728.14
763.822	9126.29
764.218	8531.02
764.614	7752.48
765.01	7229.96
765.405	6892.05
765.801	6638.09
766.196	6311.51
766.592	6128.3
766.987	5818.49
767.382	5609.27
767.778	5518.82
768.173	5389.95
768.568	5314.92
768.963	5194.05
769.358	5210.31
769.753	5163.36
770.148	5081.57
770.542	5081.65
770.937	5049.58
771.332	5138.83
771.726	5157.14
772.121	5098.02
772.515	5152.19
772.91	5138.46
773.304	5206.46
773.699	5142.8
774.093	5194.65
774.487	5248.8
774.881	5289.3
775.275	5285.42
775.669	5243.85
776.063	5287.25
776.457	5321.73
776.851	5251.64
777.245	5243.33
777.638	5274.37
778.032	5387.78
778.425	5355.24
778.819	5396.53
779.212	5354.54
779.606	5317.14
779.999	5336.83
780.392	5319.16
780.786	5396.42
781.179	5413.49
781.572	5456.82
781.965	5470.69
782.358	5411.24
782.751	5463.26
783.143	5415.65
783.536	5485.69
783.929	5526.93
784.322	5640.81
784.714	5675.49
785.107	5672.35
785.499	5741.91
785.891	5718.33
786.284	5700.84
786.676	5841.82
787.068	5825.42
787.46	5875.75
787.852	5896.02
788.245	5980.83
788.636	6006.93
789.028	6070.47
789.42	6111.65
789.812	6122.69
790.204	6222.16
790.595	6315.37
790.987	6125.09
791.378	6148.62
791.77	6274.05
792.161	6407.34
792.553	6461.3
792.944	6355.52
793.335	6288.6
793.726	6356.2
794.117	6439.06
794.508	6565.04
794.899	6537.56
795.29	6673.16
795.681	6726.83
796.072	6590.81
796.463	6414.72
796.853	6422.68
797.244	6572.23
797.634	6602.77
798.025	6603.87
798.415	6616.96
798.806	6704.86
799.196	6789.31
799.586	6840.99
799.976	6805.13
800.366	7025.67
800.756	7253.69
801.146	7215.34
801.536	7246.45
801.926	7316.71
802.316	7342.64
802.706	7408.85
803.095	7293.23
803.485	7393.03
803.874	7431.71
804.264	7682.1
804.653	7655.68
805.043	7797.93
805.432	7906.5
805.821	7906.21
806.21	7928.27
806.599	8039.6
806.988	8089.83
807.377	8193.53
807.766	8317.73
808.155	8585.01
808.544	8327.93
808.933	8345.85
809.321	8320.79
809.71	8605.51
810.098	8759.89
810.487	9210.06
810.875	9674.62
811.264	9691.82
811.652	9970.76
812.04	10108.83
812.428	10266.1
812.816	11002.67
813.204	11406.87
813.592	11943.3
813.98	12264.49
814.368	12167.38
814.756	12626.67
815.144	12550.31
815.531	13000.18
815.919	12923.06
816.306	13217.63
816.694	12923.94
817.081	12984.62
817.469	13318.57
817.856	13318.32
818.243	13588.44
818.63	13973.96
819.017	13569.74
819.404	13633.9
819.791	14004.49
820.178	14608
820.565	14859.84
820.952	15770.88
821.339	15287.58
821.725	15472.74
822.112	14752.55
822.498	14700.01
822.885	14827.42
823.271	14736.98
823.657	15141.01
824.044	15151.17
824.43	15222.87
824.816	15193.62
825.202	14775.26
825.588	15762.34
825.974	15772.76
826.36	16271
826.746	16314.92
827.132	16659.18
827.517	16635.22
827.903	15875.56
828.289	15912.16
828.674	15149.79
829.06	15038.66
829.445	15419.33
829.83	15765.86
830.216	16227.96
830.601	16589.69
830.986	16195.75
831.371	16067.62
831.756	16598.03
832.141	16182.11
832.526	16176.42
832.911	16455.22
833.295	16348.49
833.68	16801.98
834.065	16202.46
834.449	15314.79
834.834	15233.9
835.218	15223.22
835.603	15550.37
835.987	15351.17
836.371	16154.42
836.755	16054.74
837.139	16440.96
837.524	16678.1
837.908	16508.33
838.291	16565.72
838.675	16626.79
839.059	16833.26
839.443	16826.42
839.827	16608.51
840.21	17074.13
840.594	16936.05
840.977	17135.56
841.361	17120.63
841.744	17483.17
842.127	17329.84
842.511	17563.7
842.894	18144.44
843.277	18512.55
843.66	19036.99
844.043	19105.47
844.426	18326.26
844.809	18019.52
845.191	18044.85
845.574	17594.03
845.957	17236.67
846.339	17134.64
846.722	16622.31
847.104	16688.12
847.487	16522.54
847.869	16538.76
848.252	16811.43
848.634	17126.49
849.016	17380.85
849.398	17501.84
849.78	18318.04
850.162	18319.26
850.544	18710.66
850.926	19316.5
851.307	19239.31
851.689	19510.32
852.071	19939.02
852.452	20254.54
852.834	20244.9
853.215	20629.83
853.597	20784.62
853.978	21069.07
854.359	21515.68
854.741	20557.69
855.122	20478.38
855.503	20196.34
855.884	20325.36
856.265	20264.93
856.646	20373.94
857.026	19989.27
857.407	19916.7
857.788	20063.75
858.169	20344.64
858.549	19516.34
858.93	20111.97
859.31	20148.88
859.69	20345.72
860.071	19953.26
860.451	19743.72
860.831	19023.01
861.211	20133.21
861.591	20672.26
861.971	20647.53
862.351	20836.25
862.731	21218.62
863.111	21479.69
863.491	21801.96
863.87	22646.35
864.25	22980.11
864.629	22589.61
865.009	23096.26
865.388	23926.77
865.768	25646.96
866.147	25549.76
866.526	24131.68
866.905	24422.95
867.284	25792.55
867.663	24495.54
868.042	23493.54
868.421	23421.3
868.8	23812.81
869.179	24042.48
869.558	22639.94
869.936	20861.12
870.315	21233.93
870.693	21755.27
871.072	23452.65
871.45	22336.36
871.828	22616.59
872.207	23773.87
872.585	23417.53
872.963	24071.68
873.341	23252.9
873.719	22980.86
874.097	22697.14
874.475	23129.52
874.853	23657.41
875.23	22679.31
875.608	23639.19
875.986	25570.53
876.363	24438.93
876.741	25185.61
877.118	24535.73
877.495	25730.43
877.873	26155.83
878.25	27521.97
878.627	26394.9
879.004	26767.96
879.381	26635.83
879.758	25922.12
880.135	24124.05
880.512	25516.57
880.889	24842.87
881.265	24583.14
881.642	24379.01
882.019	24787.26
882.395	24294.88
882.772	25266.48
883.148	24167.69
883.524	24069.45
883.901	23942.19
884.277	24299.87
884.653	24140.06
885.029	24828.18
885.405	27509.07
885.781	27287.17
886.157	26168.56
886.532	26484
886.908	26470.63
887.284	29436.9
887.659	30416.27
888.035	31362.61
888.411	32189.05
888.786	32619.2
889.161	33745.36
889.537	33122.35
889.912	34199.77
890.287	34170.71
890.662	35048.71
891.037	34403.34
891.412	32069.91
891.787	31730.92
892.162	30609.78
892.536	31322.66
892.911	30137.92
893.286	29500.27
893.66	28299.68
894.035	29008.07
894.409	31586.76
894.784	30325.9
895.158	30820.77
895.532	32655.88
895.906	33545.66
896.281	34355.38
896.655	33802.6
897.029	38629.76
897.402	40230.61
897.776	44797.24
898.15	44644.28
898.524	44174.35
898.898	44754.73
899.271	50128.24
899.645	43418.22
900.018	41706.27
900.392	43257.97
900.765	43593.87
901.138	40359.65
901.511	39758.91
901.884	36503.82
902.258	33671.08
902.631	34766.97
903.003	40007.12
903.376	36092.85
903.749	40470.03
904.122	43334.01
904.495	47679.92
904.867	48289.18
905.24	41907.4
905.612	39009.28
905.985	39883.39
906.357	41714.27
906.729	39824.4
907.102	34011.72
907.474	32692.72
907.846	32912.53
908.218	32473.02
908.59	28694.61
908.962	27757.71
909.334	29899.12
909.705	31413.8
910.077	30496.64
910.449	31745.44
910.82	32641
911.192	35925.37
911.563	37343.45
911.935	39947.83
912.306	39998.11
912.677	41310.88
913.048	40913.31
913.419	44372.9
913.79	44604.49
914.161	47839.16
914.532	45704.41
914.903	41977.63
915.274	39856.76
915.645	39282.33
916.015	34546.77
916.386	32937.74
916.756	35046.54
917.127	36136.83
917.497	32295.73
917.868	35168.17
918.238	33411.19
918.608	34373.48
918.978	35099.02
919.348	37184.41
919.718	38424.36
920.088	37046.59
920.458	38480.78
920.828	40517.69
921.198	38411.49
921.567	41027.15
921.937	31757.94
922.306	32080.26
922.676	34623.23
923.045	28900.78
923.415	27450.32
923.784	25003.36
924.153	25722.03
924.522	25707.07
924.891	24164.72
925.26	25884.32
925.629	25273.84
925.998	29074.53
926.367	28358.62
926.736	26995.35
927.104	32146.79
927.473	34551.1
927.842	41720.32
928.21	41283.15
928.578	43365.98
928.947	41030.45
929.315	41281.2
929.683	48440.89
930.051	48783.62
930.42	56698.69
930.788	48467.55
931.156	48063.08
931.523	45044.57
931.891	41640.32
932.259	40021.09
932.627	46429
932.994	65689.48
933.362	54326.9
933.729	47149.01
934.097	45146.09
934.464	38186.74
934.831	44064.43
935.199	43466.91
935.566	42211.3
935.933	42720.65
936.3	51739.01
936.667	40279.68
937.034	36329.61
937.401	35912.87
937.767	31005.24
938.134	27608.45
938.501	38951.96
938.867	41514.83
939.234	70247.59
939.6	59909.04
939.967	66133.59
940.333	44255.65
940.699	37693.18
941.065	30213.36
941.431	39599.35
941.798	38194.93
942.163	50127.55
942.529	31284.16
942.895	28770.15
943.261	18588.83
943.627	24374.8
943.992	21325.14
944.358	21339.8
944.723	21368.97
945.089	20838.42
945.454	19267.24
945.82	20551.99
946.185	19765.28
946.55	22922.38
946.915	20591.35
947.28	24158.22
947.645	21262.56
948.01	19617.49
948.375	20471.37
948.74	24546.01
949.104	28632.15
949.469	41359.62
949.834	73067.93
950.198	69278.89
950.562	41486.89
950.927	34539.71
951.291	41561.29
951.655	35432.72
952.02	33310.17
952.384	25195.74
952.748	21932.71
953.112	21398.36
953.476	18606.78
953.839	17225.83
954.203	17049.26
954.567	21347.23
954.931	33607.07
955.294	28755.23
955.658	28895.84
956.021	49135.21
956.385	83261.96
956.748	122787.52
957.111	190365.73
957.474	213568.27
957.837	240564.97
958.2	182106.52
958.563	65511.5
958.926	44318.92
959.289	67241.43
959.652	75227.79
960.015	56437.6
960.377	80982.81
960.74	92481.63
961.102	159734.76
961.465	171657.58
961.827	91995.94
962.189	176493.73
962.552	122421.03
962.914	98123.59
963.276	63672.39
963.638	52604.17
964	52091.64
964.362	35249.54
964.724	34117.47
965.085	24310.71
965.447	19933.02
965.809	22688.09
966.17	22724.01
966.532	24592.22
966.893	22590.34
967.255	20575.48
967.616	24287.98
967.977	19459.92
968.338	21250.68
968.699	17454.41
969.061	17457.81
969.421	17565.03
969.782	19728.16
970.143	16650.36
970.504	17265.55
970.865	19625.77
971.225	20051.8
971.586	19610.6
971.946	27941.16
972.307	24256.91
972.667	31692
973.027	32668.43
973.388	39613.26
973.748	26932.92
974.108	29338.51
974.468	39653.46
974.828	30581.94
975.188	23563.48
975.548	21652.55
975.907	18177.16
976.267	20365.82
976.627	17144.17
976.986	17759.84
977.346	16931.36
977.705	16294.4
978.064	14848.22
978.424	12366.58
978.783	12796.04
979.142	14593.96
979.501	13963.86
979.86	14780.14
980.219	14255.44
980.578	18377.62
980.937	20606.43
981.296	18367.63
981.654	18910.58
982.013	29469.95
982.371	38204.38
982.73	35631.31
983.088	40325.24
983.447	43077.04
983.805	61489.49
984.163	128754.79
984.521	142878.1
984.879	209315.67
985.237	-341017.95
985.595	328809.82
985.953	81646.61
986.311	47170.24
986.669	27404.46
987.026	23671.93
987.384	31891.38
987.741	32976.61
988.099	23561.62
988.456	18789.88
988.814	17608.75
989.171	15318.7
989.528	15110.23
989.885	15948.18
990.242	12618.83
990.599	15743.98
990.956	12884.08
991.313	9014.27
991.67	7411.98
992.027	7862.54
992.383	6987.72
992.74	6129.5
993.096	6411.17
993.453	6639.89
993.809	6892.5
994.165	9195.7
994.522	8417.44
994.878	9274.62
995.234	11623.29
995.59	11447.08
995.946	10822.75
996.302	12355.28
996.658	14272.35
997.013	15765.22
997.369	18730.09
997.725	23951.39
998.08	15488.93
998.436	23848.98
998.791	32913.41
999.147	32872.11
999.502	35889.9
999.857	26101.62
1000.212	42534.76
1000.567	60613.78
1000.922	34929.28
1001.277	22145.31
1001.632	16444.63
1001.987	21256.86
1002.342	15257.52
1002.696	12198.48
1003.051	9723.25
1003.406	11794.02
1003.76	11736.89
1004.114	11583.02
1004.469	9736.37
1004.823	8081.87
1005.177	8736.41
1005.531	6918.74
1005.885	6124.01
1006.239	6925.52
1006.593	8707.35
1006.947	11684.57
1007.301	8760.75
1007.655	9547.52
1008.008	6989.28
1008.362	7867.28
1008.715	11196.8
1009.069	10155.71
1009.422	15279.92
1009.776	30610.25
1010.129	20304.04
1010.482	16926.23
1010.835	14304.24
1011.188	29736.2
1011.541	27949.47
1011.894	-171135.85
1012.247	502589.99
1012.6	34200.94
1012.952	21669.26
1013.305	11186.3
1013.657	8104.91
1014.01	7669.88
1014.362	6340.62
1014.715	5626.8
1015.067	4908.05
1015.419	4812.07
1015.771	4272.2
1016.123	3794.66
1016.475	3915.15
1016.827	4166.01
1017.179	4478.29
1017.531	4509.5
1017.883	4604.8
1018.234	4429.86
1018.586	5607.1
1018.938	5964.75
1019.289	8214.49
1019.64	9364.35
1019.992	8754.04
1020.343	7989.42
1020.694	6333.83
1021.045	5605
1021.396	6392.61
1021.747	6861.91
1022.098	8272.53
1022.449	6011.12
1022.8	5566.99
1023.151	3883.43
1023.501	3460.39
1023.852	3760.49
1024.202	3903.48
1024.553	4280.8
1024.903	4192.12
1025.253	3587.33
1025.604	3239.6
1025.954	4024.54
1026.304	4881.63
1026.654	5668.96
1027.004	8324.66
1027.354	13427.6
1027.703	12642.88
1028.053	16645.98
1028.403	24246.04
1028.753	34902.2
1029.102	47135.1
1029.452	240477.25
1029.801	10300.82
1030.15	6650.07
1030.499	5633.64
897.758	2854.06
901.051	2828.24
904.343	2864.8
907.636	2859.6
910.928	2926.01
914.22	2831.5
917.511	2841.35
920.803	2915.13
924.094	2942.04
927.384	2911.16
930.675	2877.44
933.965	2827.61
937.255	2825.6
940.544	2793.44
943.834	2709.24
947.123	2658.07
950.411	2759.3
953.7	2729.55
956.988	2687.56
960.276	2632.49
963.563	2728.86
966.851	2719.43
970.138	2784.21
973.424	2772.88
976.711	2719.48
979.997	2891.55
983.283	2919.26
986.568	2811.76
989.853	2840.06
993.138	2868.87
996.423	2947.76
999.708	2875.59
1002.992	2959.66
1006.275	2761.11
1009.559	2827.43
1012.842	2950.68
1016.125	2873.2
1019.408	2851.5
1022.69	2951.58
1025.972	2961.02
1029.254	2933.97
1032.536	2855
1035.817	2889.06
1039.098	2815.96
1042.379	3001.75
1045.659	2982.92
1048.939	2911.2
1052.219	2938.06
1055.498	2959.36
1058.778	2939.07
1062.057	2928.9
1065.335	2948.67
1068.614	2971.11
1071.892	2945.64
1075.17	3032.61
1078.447	3016.86
1081.724	3004.75
1085.001	3044.7
1088.278	3017.48
1091.554	3033.87
1094.83	3029.6
1098.106	3055.85
1101.382	3108.8
1104.657	3110.46
1107.932	3104.03
1111.206	3060.09
1114.481	3019.89
1117.755	3027.91
1121.029	3001.57
1124.302	3050.76
1127.575	2993.75
1130.848	2979.07
1134.121	2935.59
1137.393	2876.06
1140.665	2948.9
1143.937	2923.28
1147.208	2890.7
1150.48	2922.13
1153.75	2907.36
1157.021	2950.95
1160.291	2917.77
1163.561	2959.23
1166.831	2957.87
1170.101	2993.58
1173.37	2976.24
1176.639	2911.82
1179.907	2979.38
1183.176	2979.46
1186.444	2985.82
1189.711	3015.24
1192.979	3021.46
1196.246	2980.58
1199.513	3003.75
1202.78	3000.95
1206.046	3005.24
1209.312	3033.25
1212.578	3062.48
1215.843	3006.76
1219.108	2984.08
1222.373	3010.1
1225.638	2967.34
1228.902	2948.28
1232.166	2916.41
1235.43	2892.6
1238.693	2915.72
1241.956	2916.73
1245.219	2949.33
1248.482	2946.8
1251.744	2939.84
1255.006	3100.71
1258.268	3057.72
1261.529	2996.79
1264.79	3008.27
1268.051	3116.77
1271.312	3137.95
1274.572	3094.46
1277.832	3085.23
1281.092	3082.9
1284.351	3045.82
1287.61	3022.27
1290.869	2924.48
1294.128	2891.92
1297.386	3002.89
1300.644	2985.91
1303.902	2998.87
1307.159	2852.26
1310.416	2909.65
1313.673	2932.09
1316.93	2910.17
1320.186	2963.16
1323.442	3011.48
1326.697	2998
1329.953	2998.89
1333.208	3012.67
1336.463	3000.79
1339.717	2926.53
1342.972	3076.1
1346.226	3056.67
1349.479	2981.41
1352.733	2946.05
1355.986	2978.85
1359.238	2951.61
1362.491	2948.94
1365.743	2956.41
1368.995	2954.44
1372.247	2965.12
1375.498	2993.58
1378.749	2991.58
1382	2948.62
1385.251	3013.28
1388.501	2976.41
1391.751	2951.24
1395	2924.61
1398.25	2963.66
1401.499	2960.53
1404.748	2874.63
1407.996	2869.5
1411.244	2851.64
1414.492	2832.8
1417.74	2805.08
1420.987	2816.63
1424.234	2872.95
1427.481	2861.33
1430.728	2922.69
1433.974	2892.96
1437.22	2915.11
1440.465	2921.28
1443.711	2869.68
1446.956	2908.92
1450.201	2906.11
1453.445	2954.22
1456.689	2925.19
1459.933	2941.7
1463.177	2968.18
1466.42	2937.44
1469.663	2918.77
1472.906	2899.69
1476.148	3001.9
1479.391	2938.47
1482.633	2916.83
1485.874	2919.41
1489.115	2895.96
1492.356	2914.88
1495.597	2886.18
1498.838	2896.04
1502.078	2856.99
1505.318	2797.3
1508.557	2844.57
1511.797	2797.89
1515.036	2900.6
1518.274	2888.03
1521.513	2869.68
1524.751	2897.19
1527.989	2904.86
1531.227	2917.72
1534.464	2899.87
1537.701	2932.28
1540.938	2956.58
1544.174	2912.72
1547.41	2913.79
1550.646	2954.8
1553.882	2985.8
1557.117	3038.81
1560.352	3056.74
1563.587	3009.44
1566.821	2963.67
1570.055	3011.49
1573.289	2978.79
1576.523	3062.49
1579.756	3065.68
1582.989	3088.17
1586.222	3046.4
1589.454	3089.06
1592.686	3057.23
1595.918	3082.15
1599.15	3067.74
1602.381	3155.41
1605.612	3095.99
1608.843	3198.13
1612.073	3104.78
1615.303	3087.11
1618.533	3071.01
1621.762	3077.01
1624.992	3072.15
1628.221	3048.77
1631.449	3030.53
1634.678	3104.35
1637.906	3054.37
1641.134	3102.35
1644.361	3050.22
1647.588	3037.41
1650.815	3052.41
1654.042	3037.4
1657.269	3070
1660.495	3011.29
1663.72	3010.86
1666.946	2979.96
1670.171	2903.9
1673.396	2882.41
1676.621	2874.36
1679.845	2909.52
1683.069	2935.68
1686.293	2984.95
1689.517	2948.17
1692.74	2865.7
1695.963	2897.05
1699.185	2938.35
1702.408	2910.73
1705.63	2958.24
1708.852	2965.07
1712.073	2937.26
1715.294	2908.01
1718.515	2977.72
1721.736	2919.08
1724.956	2917.75
1728.176	2945.9
1731.396	2967.06
1734.616	2957.67
1737.835	2977.68
1741.054	2963.98
1744.272	2959.84
1747.491	2982.73
1750.709	3049.93
1753.927	2934.19
1757.144	2991.05
1760.361	3023.56
1763.578	3028.7
1766.795	2963.18
1770.011	2974.29
1773.227	3027.94
1776.443	3055.13
1779.658	3099.1
1782.874	3045.5
1786.089	3015.87
1789.303	3018.12
1792.518	3026.31
1795.732	3016.23
1798.945	3017.33
1802.159	3076.85
1805.372	2961.7
1808.585	2936.24
1811.797	2941.71
1815.01	3002.12
1818.222	2999.54
1821.434	2943.12
1824.645	3017.71
1827.856	2984.73
1831.067	3020.56
1834.278	2993.32
1837.488	2973.22
1840.698	3135.59
1843.908	3051.07
1847.117	3013.1
1850.326	2875.13
1853.535	2993.67
1856.744	3051.57
1859.952	2952.21
1863.16	2956.94
1866.368	2983.29
1869.575	3076.72
1872.782	2965.62
1875.989	2906.36
1879.196	3008.54
1882.402	2999.82
1885.608	3043.78
1888.814	2931.78
1892.019	2818.31
1895.224	2871.94
1898.429	2858.52
1901.634	2833.13
1904.838	2817.38
1908.042	2858.8
1911.246	2865.77
1914.449	2780.12
1917.652	2785.9
1920.855	2770.01
1924.058	2829.72
1927.26	2864.67
1930.462	2894.38
1933.664	2915.78
1936.865	2853.21
1940.066	2849.1
1943.267	2803.47
1946.467	2819.92
1949.668	2850.62
1952.868	2915.18
1956.067	2887.1
1959.267	2814.87
1962.466	2843.8
1965.665	2829.88
1968.863	2827.96
1972.061	2849.53
1975.259	2851.75
1978.457	2930.4
1981.654	2888.11
1984.852	2886.96
1988.048	2810.38
1991.245	2821.72
1994.441	2905.77
1997.637	2902.25
2000.833	2888.23
2004.028	2927.93
2007.223	2978.33
2010.418	2950.89
2013.613	2915.71
2016.807	2874.33
2020.001	2890.65
2023.194	2945.37
2026.388	2915.61
2029.581	2861.75
2032.774	2906.35
2035.966	2904.32
2039.158	2828.8
2042.35	2857.12
2045.542	2785.7
2048.733	2898.42
2051.924	2939.64
2055.115	2972.99
2058.306	2903.73
2061.496	2966.08
2064.686	3037.13
2067.875	2953.03
2071.065	2976.55
2074.254	3007.1
2077.442	2956.31
2080.631	3053.12
2083.819	2921.92
2087.007	2896.49
2090.195	2860.66
2093.382	2905.38
2096.569	2883.53
2099.756	2830.52
2102.942	2844.98
2106.128	2844.76
2109.314	2838.56
2112.5	2793.65
2115.685	2769.05
2118.87	2782.36
2122.055	2850.14
2125.239	2809
2128.424	2776.02
2131.608	2899.05
2134.791	2884.89
2137.974	2952.52
2141.157	2935.97
2144.34	2877.54
2147.523	2906.21
2150.705	2916.54
2153.887	2901.05
2157.068	2838.72
2160.25	2851.33
2163.431	2896.98
2166.611	2833.4
2169.792	2842.77
2172.972	2730.64
2176.152	2822.8
2179.331	2862.39
2182.511	2832.37
2185.69	2862.43
2188.868	2852.15
2192.047	2918.9
2195.225	2895.03
2198.403	2843.99
2201.58	2838.33
2204.758	2844.22
2207.935	2928.24
2211.111	2800.1
2214.288	2783.22
2217.464	2824.23
2220.64	2806.12
2223.815	2864.81
2226.991	2778.29
2230.166	2801.52
2233.34	2824.63
2236.515	2858.33
2239.689	2928.92
2242.863	2870.42
2246.036	2932.54
2249.209	2938.67
2252.382	2982.18
2255.555	2963.33
2258.727	2891.99
2261.9	2936.89
2265.071	2928.09
2268.243	2933.26
2271.414	2854.83
2274.585	2807.01
2277.756	2876.19
2280.926	2833.85
2284.096	2881.71
2287.266	2775.87
2290.436	2831.91
2293.605	2865.15
2296.774	2891.09
2299.942	2923.31
2303.111	2937.46
2306.279	2983.34
2309.447	2973.3
2312.614	2952.3
2315.781	2966.9
2318.948	2936.03
2322.115	2975.29
2325.281	2879.29
2328.447	2905.65
2331.613	2883.84
2334.779	2844.76
2337.944	2856.37
2341.109	2850.1
2344.274	2828.54
2347.438	2792.4
2350.602	2819.73
2353.766	2835.45
2356.929	2820.93
2360.092	2865.46
2363.255	2807.49
2366.418	2724.16
2369.58	2859.03
2372.742	2605.88
2375.904	2629.53
2379.066	2599.23
2382.227	2643.38
2385.388	2605.87
2388.548	2520.83
2391.709	2583.87
2394.869	2552.61
2398.029	2677.6
2401.188	2698.69
2404.347	2617.34
2407.506	2786.77
2410.665	2815.99
2413.823	2829.38
2416.981	2773.52
2420.139	2815.96
2423.296	2869.02
2426.453	2841.26
2429.61	2873.02
2432.767	2784.98
2435.923	2821.56
2439.079	2767.5
2442.235	2823.99
2445.391	2741.95
2448.546	2763.76
2451.701	2821.93
2454.855	2774.06
2458.009	2842.95
2461.163	2851.43
2464.317	2802.05
2467.471	2839.62
2470.624	2885.53
2473.777	2874.72
2476.929	2884.59
2480.082	2912.17
2483.234	2873.56
2486.385	2817.71
2489.537	2812.37
2492.688	2757.41
2495.839	2778.87
2498.989	2785.18
2502.14	2767.18
2505.29	2745.25
2508.439	2771.94
2511.589	2686.91
2514.738	2705.22
2517.887	2738.73
2521.035	2817.32
2524.183	2811.14
2527.331	2786.52
2530.479	2747.81
2533.627	2763.63
