Data from N_2_DIV_PA_2N_Splice17_12-39-36-197.txt Node
Date: Sat Mar 14 12:39:36 EDT 2020
User: sa697716
Spectrometer: FLMS03696
Trigger mode: 0
Integration Time (sec): 3.180400E-1
Scans to average: 20
Electric dark correction enabled: true
Nonlinearity correction enabled: true
Boxcar width: 5
XAxis mode: Wavelengths
Number of Pixels in Spectrum: 2048
>>>>>Begin Spectral Data<<<<<
187.83	-362604.55
188.298	2604.8
188.766	1371.35
189.233	1284.38
189.701	1834.61
190.169	2453.38
190.636	895.2
191.104	756.89
191.571	105.03
192.039	-88.77
192.506	-55.79
192.974	476.85
193.441	-843.88
193.908	-168.82
194.375	-36.96
194.842	93.49
195.31	197.29
195.777	188.71
196.244	437.91
196.711	497.42
197.177	637.99
197.644	913.18
198.111	1580.74
198.578	2205.46
199.045	1756.09
199.511	2908.24
199.978	3355.08
200.445	2835.69
200.911	3142.99
201.378	3548.05
201.844	3244.04
202.31	5567.23
202.777	5778.92
203.243	3219.28
203.709	3058.86
204.176	3654.58
204.642	3022.79
205.108	2825.67
205.574	2319.43
206.04	2119.49
206.506	1987.15
206.972	1859.15
207.438	1789.76
207.903	2027.94
208.369	1773.96
208.835	1790.21
209.301	1874.71
209.766	1900.75
210.232	1882.15
210.697	2311.85
211.163	2851.99
211.628	4257.92
212.094	3565.98
212.559	4406.76
213.024	2752.93
213.49	3359.13
213.955	3246.61
214.42	3172.89
214.885	2966.69
215.35	2845.33
215.815	2736.96
216.28	2891.17
216.745	2344.4
217.21	2539.24
217.675	2311.23
218.14	2580.76
218.604	2855.57
219.069	3233.01
219.534	3349.43
219.998	3860.36
220.463	4611.9
220.927	5620.83
221.392	5259.2
221.856	5306.64
222.32	6635.22
222.785	8157.34
223.249	10228.6
223.713	11359.57
224.177	11348.51
224.642	14537.71
225.106	17821.41
225.57	19511.31
226.034	14497.79
226.497	22016.99
226.961	19850.19
227.425	23108.61
227.889	25589.64
228.353	25549.67
228.816	52707.14
229.28	50308.72
229.744	42378.54
230.207	25761.47
230.671	25278.26
231.134	41779.96
231.597	48179.08
232.061	48115.39
232.524	46818.68
232.987	32187.75
233.45	29001.39
233.914	26029.81
234.377	26650.7
234.84	24371.55
235.303	28714.93
235.766	32073.04
236.229	33089.47
236.691	20841.56
237.154	23404.93
237.617	17605.8
238.08	18032.95
238.542	21068.63
239.005	15047.59
239.468	14942.25
239.93	14097.71
240.393	12806.93
240.855	11255.18
241.317	11534.69
241.78	14026.48
242.242	14505.14
242.704	15679.64
243.166	13651.19
243.629	12420.42
244.091	14312.03
244.553	15692.91
245.015	16846.21
245.477	21772.39
245.939	31809.14
246.4	33756.01
246.862	32773.97
247.324	30844.01
247.786	34499.59
248.247	45178.22
248.709	46536.01
249.17	34764.74
249.632	32734.98
250.093	37935.66
250.555	32768.97
251.016	20013.63
251.477	18965.62
251.939	20473.22
252.4	21487.91
252.861	25533.23
253.322	23777.18
253.783	28286.26
254.244	36724
254.705	28937.17
255.166	25724.7
255.627	25323.82
256.088	35678.23
256.549	37925.27
257.009	32637.49
257.47	39621.57
257.931	32258.38
258.391	24158.49
258.852	24900.57
259.312	26073.48
259.773	32169.88
260.233	27177.64
260.694	22929.16
261.154	26006.78
261.614	20882.03
262.074	18659.36
262.534	19396.57
262.994	18285.35
263.455	24357.4
263.915	20510.43
264.374	19327.83
264.834	21114.02
265.294	23387.39
265.754	24216.24
266.214	22924.81
266.673	21453.98
267.133	27076.55
267.593	26841.8
268.052	32817.6
268.512	28544.25
268.971	34495.83
269.431	37787.64
269.89	33820.8
270.349	50738.4
270.809	56608.36
271.268	50887.11
271.727	114049.83
272.186	73884.91
272.645	55404.26
273.104	39988.44
273.563	57866.98
274.022	45446.33
274.481	38716.79
274.94	29838.03
275.399	22171.19
275.857	25800.38
276.316	34871.88
276.775	31074.91
277.233	30617.04
277.692	28655.89
278.15	32439.17
278.609	33406.68
279.067	30916.95
279.525	28737.19
279.984	37151.36
280.442	44657.24
280.9	44065.39
281.358	29030.18
281.816	27049.92
282.274	26518.32
282.732	27432.66
283.19	27597.06
283.648	23830.16
284.106	25422.64
284.564	25852.38
285.021	23988.5
285.479	17888.57
285.937	16290.37
286.394	14328.75
286.852	14765.01
287.309	15526.63
287.767	15028.16
288.224	14290.68
288.682	15698.4
289.139	17232.84
289.596	15770.28
290.053	16379.68
290.511	20670.35
290.968	25021.55
291.425	33908.38
291.882	28249.13
292.339	24574.29
292.796	24362.72
293.252	22955.5
293.709	18262.68
294.166	16352.44
294.623	18087.58
295.079	17346.96
295.536	17451.75
295.992	15877.84
296.449	15718.37
296.905	16324.02
297.362	15668.26
297.818	16481.67
298.274	17118.34
298.731	17416.52
299.187	17247.51
299.643	18527.93
300.099	22462.94
300.555	24619.1
301.011	20561.37
301.467	19833.29
301.923	23229.16
302.379	22697.89
302.835	22306.21
303.291	22309.78
303.746	25403.47
304.202	32126.63
304.658	32269.05
305.113	21673.19
305.569	21263.18
306.024	22684.8
306.479	21594.99
306.935	18209.43
307.39	19887.11
307.845	18392.86
308.301	18554.17
308.756	18097.82
309.211	17428.62
309.666	17881.54
310.121	22229.84
310.576	22577.73
311.031	22418.73
311.486	25655.31
311.94	25684.28
312.395	34381.81
312.85	64551.52
313.305	316807.35
313.759	1644068.48
314.214	119372.74
314.668	94653.05
315.123	79799.09
315.577	28657.59
316.032	25508.16
316.486	32068.86
316.94	25292.2
317.394	17595.28
317.849	13698.2
318.303	12968.36
318.757	12210.76
319.211	13495.49
319.665	11801.58
320.119	11946.53
320.572	17118.02
321.026	15998.67
321.48	13296.04
321.934	14503.36
322.387	14567.55
322.841	15730.03
323.295	14180.35
323.748	16346.06
324.202	16587.74
324.655	19931.97
325.108	27878.68
325.562	19697.62
326.015	23414.23
326.468	17720.32
326.921	19824.66
327.374	18466.92
327.827	19267.97
328.28	21795.6
328.733	14610.82
329.186	12865.85
329.639	12264.45
330.092	10329.16
330.545	9855.96
330.997	9956.57
331.45	10899.95
331.903	12781.08
332.355	21942.52
332.808	21281.45
333.26	17557.11
333.713	19079.26
334.165	19220.63
334.617	25679.34
335.069	20756.63
335.522	37520.6
335.974	41505.21
336.426	37813.28
336.878	26209.34
337.33	13369.44
337.782	13091.05
338.234	16419.79
338.686	19683.37
339.137	23344.62
339.589	21996.68
340.041	17262.74
340.493	14840.56
340.944	15204.62
341.396	16418.16
341.847	13805.65
342.299	16296.02
342.75	19874.31
343.201	17361.72
343.653	19940.69
344.104	24445.95
344.555	19228.75
345.006	29867.97
345.457	22896.52
345.908	18191.74
346.359	17103.26
346.81	13933.72
347.261	14656.68
347.712	14412.24
348.163	15438.33
348.613	15640.92
349.064	14621.68
349.515	12818.18
349.965	13150.84
350.416	15821.82
350.866	17379.23
351.317	19648.76
351.767	32546.76
352.217	41187.8
352.668	34287.13
353.118	31451.95
353.568	30327.5
354.018	24040.14
354.468	25422.96
354.918	18277.88
355.368	16020.64
355.818	22615.61
356.268	65256.38
356.718	273684.08
357.168	68114.46
357.617	34144.66
358.067	38020.07
358.517	35643.35
358.966	41833.74
359.416	46879.5
359.865	50696.99
360.315	60409.89
360.764	28338.13
361.213	15875.39
361.663	15026.87
362.112	18535.63
362.561	29904.2
363.01	22587.27
363.459	19052.26
363.908	20619.73
364.357	17544.14
364.806	29647.44
365.255	20401.66
365.703	18710.82
366.152	18740.64
366.601	15240.67
367.05	12402.56
367.498	11332.32
367.947	11858.47
368.395	12352.01
368.844	10955.98
369.292	13190.92
369.74	9132.54
370.189	13984.02
370.637	16360.16
371.085	14158.75
371.533	17227.86
371.981	16630.74
372.429	15889.55
372.877	16559.53
373.325	13859.2
373.773	14121.48
374.221	12586.11
374.669	15610.48
375.116	13515.83
375.564	13646.91
376.012	15279.39
376.459	12645.85
376.907	15167.07
377.354	18355.02
377.801	17187.41
378.249	19821.37
378.696	25401.85
379.143	30900.29
379.591	33089.49
380.038	56274.27
380.485	40908.28
380.932	44384.98
381.379	40775.18
381.826	30090.39
382.273	21425.29
382.72	18765.15
383.166	18337.85
383.613	11956.19
384.06	10818.79
384.506	12544.13
384.953	9251.37
385.4	9346.01
385.846	8215.23
386.292	8045.92
386.739	7919.02
387.185	7863.55
387.631	7912.23
388.078	7726.39
388.524	8294.89
388.97	7697.72
389.416	6458.96
389.862	6888.73
390.308	6553.65
390.754	6682.28
391.2	7285.89
391.645	7485.51
392.091	7207.66
392.537	6992.46
392.983	7020.1
393.428	6934.32
393.874	7454.1
394.319	7521.71
394.765	7164.28
395.21	7396.09
395.655	6966.94
396.101	6528.85
396.546	5910.48
396.991	5984.51
397.436	5567.03
397.881	5403.52
398.326	5134.19
398.771	4875.16
399.216	4268.29
399.661	3855.77
400.106	3850.07
400.551	3943.3
400.995	3551.62
401.44	3519.46
401.885	3312.17
402.329	3355.01
402.774	3222.63
403.218	3130.12
403.663	3024.61
404.107	3120.8
404.551	3154.08
404.995	2900.67
405.44	2803.68
405.884	2854.55
406.328	2769.57
406.772	2771.11
407.216	2533.61
407.66	2459.71
408.104	2339.64
408.547	2192.75
408.991	2125.92
409.435	2049.87
409.879	2029.41
410.322	2008.62
410.766	1946.18
411.209	1855.92
411.653	1785.29
412.096	1751.85
412.54	1754.25
412.983	1750.17
413.426	1761.35
413.869	1763.7
414.312	1736.72
414.756	1672.36
415.199	1598.63
415.642	1553.41
416.085	1558.23
416.527	1548.27
416.97	1575.56
417.413	1495.81
417.856	1479.19
418.298	1462.97
418.741	1452.84
419.184	1450.04
419.626	1513.86
420.069	1514.77
420.511	1525
420.953	1492.26
421.396	1481.32
421.838	1445.92
422.28	1481.36
422.722	1491.1
423.164	1516.46
423.606	1492.3
424.048	1487.45
424.49	1413.18
424.932	1406.51
425.374	1387.15
425.816	1412.39
426.258	1440.29
426.699	1454.1
427.141	1432.58
427.582	1456.67
428.024	1448.19
428.465	1443.39
428.907	1410.05
429.348	1396.67
429.789	1399.3
430.231	1372.4
430.672	1390.94
431.113	1356.32
431.554	1339.49
431.995	1307.2
432.436	1260.53
432.877	1235.1
433.318	1214.09
433.759	1210.11
434.2	1211.88
434.64	1199.88
435.081	1202.32
435.522	1140.26
435.962	1098.7
436.403	1075.69
436.843	1091.68
437.284	1067.07
437.724	1037.66
438.164	1039.34
438.604	1016.06
439.045	974.17
439.485	933.06
439.925	913.48
440.365	890.81
440.805	878.44
441.245	866.4
441.685	834.31
442.125	829.33
442.564	834.28
443.004	814.84
443.444	812.61
443.883	814.17
444.323	807.74
444.762	807.59
445.202	818.07
445.641	834.42
446.081	828.01
446.52	833.54
446.959	823.68
447.398	802.61
447.837	791.58
448.276	775.99
448.716	782.05
449.154	786.27
449.593	765.57
450.032	761.06
450.471	745.49
450.91	744.26
451.349	740.86
451.787	735.95
452.226	746.13
452.664	744.97
453.103	745.36
453.541	742.4
453.98	741.33
454.418	746.76
454.856	735.3
455.295	732.69
455.733	738.5
456.171	741.47
456.609	742.46
457.047	741.24
457.485	751.85
457.923	752.81
458.361	743.12
458.798	744.63
459.236	742.99
459.674	747.95
460.111	751.49
460.549	744.48
460.987	742.54
461.424	739.59
461.862	735.12
462.299	724.76
462.736	724.03
463.173	727.13
463.611	721.64
464.048	718.94
464.485	723.83
464.922	716.34
465.359	711.97
465.796	703.99
466.233	698.72
466.67	693.88
467.106	691.48
467.543	685.04
467.98	675.86
468.416	656.4
468.853	651.6
469.29	632.27
469.726	625.94
470.162	610.39
470.599	599.74
471.035	593.88
471.471	579.77
471.907	575.18
472.344	571.47
472.78	571.25
473.216	578.11
473.652	570.7
474.088	568.78
474.523	567.06
474.959	570.44
475.395	564.67
475.831	560.77
476.266	562.16
476.702	561.25
477.138	553.75
477.573	551.31
478.008	548.79
478.444	550.61
478.879	555.27
479.314	556.21
479.75	555.3
480.185	558.17
480.62	562.23
481.055	564.58
481.49	567.6
481.925	575.1
482.36	585.84
482.795	601.13
483.229	615.85
483.664	628.34
484.099	630.04
484.534	639.79
484.968	644.28
485.403	644.92
485.837	642.42
486.271	640.15
486.706	640.12
487.14	630.55
487.574	618.97
488.009	612.67
488.443	604.68
488.877	608.99
489.311	607.94
489.745	613.09
490.179	617.2
490.613	627.26
491.046	629.75
491.48	631.62
491.914	628.7
492.348	630.62
492.781	631.23
493.215	629.71
493.648	627.19
494.082	629.4
494.515	626.9
494.948	630.24
495.382	630.66
495.815	630.55
496.248	631.37
496.681	639.71
497.114	644.58
497.547	648.43
497.98	655.04
498.413	656.34
498.846	659.29
499.279	661.11
499.711	658.42
500.144	653.68
500.577	656.95
501.009	659.11
501.442	661.36
501.874	656.84
502.306	651.53
502.739	652.7
503.171	657.15
503.603	652.69
504.036	652.97
504.468	650.87
504.9	652.76
505.332	650.44
505.764	647.53
506.196	644.96
506.627	648.16
507.059	651.07
507.491	647.52
507.923	639.87
508.354	643.14
508.786	643.26
509.217	648.34
509.649	651.57
510.08	656.92
510.512	660.81
510.943	663.54
511.374	664.21
511.805	670.44
512.237	676.97
512.668	689.53
513.099	699.33
513.53	709.66
513.961	717.31
514.391	730.22
514.822	745.92
515.253	761.91
515.684	772.03
516.114	784.28
516.545	792.73
516.975	802.88
517.406	809.89
517.836	807.8
518.267	808.76
518.697	816.72
519.127	817.12
519.558	817.68
519.988	817.46
520.418	821.18
520.848	829.67
521.278	833.31
521.708	866.54
522.138	873.04
522.567	891.01
522.997	904.9
523.427	912.27
523.857	922.04
524.286	928.61
524.716	938.82
525.145	951.67
525.575	958.63
526.004	967.98
526.433	941.91
526.863	942.99
527.292	938.58
527.721	943.07
528.15	947.97
528.579	949.98
529.008	957.33
529.437	970.9
529.866	978.81
530.295	989.77
530.724	998.47
531.152	1015.65
531.581	1026.17
532.01	1038.3
532.438	1044.37
532.867	1053.7
533.295	1065.22
533.723	1070.46
534.152	1071.13
534.58	1072.69
535.008	1064.84
535.436	1067.68
535.865	1073.01
536.293	1081.1
536.721	1091.32
537.149	1108.1
537.576	1111.33
538.004	1120.33
538.432	1125.27
538.86	1124.74
539.287	1129.37
539.715	1139.14
540.143	1141.51
540.57	1139.93
540.998	1138.25
541.425	1125.4
541.852	1112.44
542.28	1111.83
542.707	1101.84
543.134	1094.83
543.561	1093.02
543.988	1089.35
544.415	1089.33
544.842	1085.48
545.269	1082.48
545.696	1085.5
546.123	1093.92
546.549	1088.93
546.976	1082.57
547.403	1083.38
547.829	1084.07
548.256	1085.45
548.682	1084.57
549.108	1080.89
549.535	1081.14
549.961	1081.58
550.387	1073.17
550.813	1070.97
551.24	1074.86
551.666	1073.76
552.092	1068.53
552.518	1065.2
552.943	1062.45
553.369	1066.06
553.795	1068.02
554.221	1068.42
554.646	1066.97
555.072	1073.77
555.498	1074.23
555.923	1078.87
556.349	1088.67
556.774	1092.21
557.199	1092.22
557.625	1093.43
558.05	1088.79
558.475	1093.87
558.9	1092.25
559.325	1086.83
559.75	1081.09
560.175	1076.02
560.6	1070.35
561.025	1066.7
561.449	1066.69
561.874	1068.63
562.299	1070.35
562.723	1072.82
563.148	1065.76
563.572	1065.46
563.997	1068.92
564.421	1070.08
564.846	1068.8
565.27	1069.49
565.694	1066.1
566.118	1070.84
566.542	1073.12
566.966	1067.91
567.39	1063.4
567.814	1054.61
568.238	1053.43
568.662	1054.11
569.086	1053.52
569.509	1055.28
569.933	1044.99
570.357	1039.17
570.78	1025.27
571.204	1017.66
571.627	1009.09
572.05	1006.63
572.474	1006.61
572.897	998.27
573.32	994.1
573.743	987.51
574.166	977.44
574.589	976
575.012	970.68
575.435	969.03
575.858	962.3
576.281	955.69
576.704	945.66
577.126	937.74
577.549	931.42
577.972	924.51
578.394	919
578.817	915.72
579.239	905.77
579.661	898.95
580.084	891.98
580.506	884.72
580.928	882.42
581.35	877.37
581.772	875.4
582.194	868.15
582.616	860.71
583.038	852.57
583.46	845.45
583.882	843.84
584.303	845.81
584.725	842.11
585.147	847.02
585.568	853.27
585.99	860.11
586.411	864.67
586.833	873.8
587.254	875.38
587.675	884.22
588.096	892.21
588.518	889.78
588.939	881.51
589.36	881.37
589.781	871.03
590.202	858.21
590.623	854.3
591.043	852.77
591.464	846.77
591.885	845.46
592.305	842.8
592.726	834.72
593.147	835.85
593.567	832.66
593.987	827.09
594.408	823.9
594.828	820.63
595.248	817.46
595.669	807.23
596.089	802.08
596.509	797.3
596.929	788.8
597.349	789.53
597.769	784.15
598.189	780.21
598.608	782.14
599.028	784.15
599.448	783.24
599.867	775.13
600.287	771.98
600.706	769.57
601.126	765.34
601.545	765.14
601.965	764.33
602.384	760.51
602.803	762.16
603.222	759.16
603.641	754.81
604.061	754.29
604.48	752.84
604.898	757.88
605.317	760.56
605.736	761.81
606.155	761.43
606.574	756.76
606.992	760.49
607.411	758.93
607.829	754.43
608.248	753.36
608.666	751.65
609.085	752.34
609.503	748.63
609.921	746.88
610.339	748.76
610.758	748.44
611.176	746.54
611.594	742.87
612.012	741.67
612.43	745.97
612.847	750.49
613.265	753.67
613.683	756.93
614.101	758.07
614.518	755.67
614.936	750.98
615.353	744.11
615.771	743.8
616.188	744.62
616.606	743.2
617.023	739.99
617.44	733.14
617.857	728.64
618.274	723.74
618.691	722.7
619.108	718.72
619.525	716.05
619.942	720.74
620.359	722.93
620.776	720.63
621.192	720.45
621.609	719.72
622.026	724.64
622.442	729.32
622.859	732.49
623.275	727.88
623.691	731.97
624.108	739.68
624.524	747.82
624.94	748.64
625.356	755.72
625.772	762.3
626.188	769.41
626.604	770.51
627.02	766.68
627.436	765.84
627.852	770.91
628.268	778.97
628.683	773.49
629.099	769.03
629.514	766.05
629.93	768.08
630.345	772.26
630.761	770.06
631.176	773.27
631.591	773.07
632.007	771.18
632.422	769.64
632.837	762.8
633.252	763.48
633.667	758.9
634.082	754.42
634.497	748.76
634.911	738.96
635.326	738.47
635.741	730.31
636.155	725.78
636.57	728.7
636.984	731.77
637.399	737.18
637.813	738.64
638.228	741.16
638.642	747.89
639.056	745.14
639.47	749.36
639.884	749.12
640.298	748.61
640.712	753.52
641.126	750.84
641.54	749.62
641.954	749.68
642.368	747.67
642.781	749.36
643.195	743.38
643.609	749.39
644.022	750.04
644.436	751.45
644.849	747.65
645.262	742.78
645.676	747.06
646.089	749.19
646.502	744.09
646.915	745.01
647.328	736.37
647.741	738.85
648.154	733.64
648.567	737.39
648.98	732.31
649.393	735.8
649.805	736.96
650.218	735.56
650.631	725.11
651.043	722.85
651.456	721.1
651.868	723.02
652.28	736.73
652.693	747.61
653.105	752.48
653.517	761.54
653.929	765.68
654.341	772.44
654.753	766.45
655.165	774.13
655.577	774.16
655.989	773.33
656.401	771.01
656.813	749.03
657.224	738.05
657.636	720.04
658.047	710.61
658.459	699.08
658.87	696.63
659.282	691.16
659.693	681.55
660.104	675.78
660.515	669.59
660.926	675.04
661.338	677.08
661.749	676.76
662.159	675.55
662.57	677.33
662.981	679.24
663.392	677.3
663.803	685.97
664.213	688.4
664.624	689.08
665.035	696.26
665.445	686.66
665.855	685.26
666.266	683.91
666.676	685.52
667.086	680.01
667.497	682.88
667.907	681.27
668.317	676.68
668.727	677.7
669.137	681.43
669.547	681.73
669.956	686.5
670.366	690.39
670.776	692.93
671.186	698.28
671.595	704.53
672.005	708.72
672.414	709.85
672.824	708.63
673.233	712.48
673.642	714.87
674.052	718.98
674.461	722.64
674.87	726.46
675.279	724.09
675.688	724.82
676.097	725.05
676.506	721.66
676.915	733.93
677.323	734.84
677.732	731.61
678.141	730.13
678.549	718.63
678.958	714.92
679.366	711.12
679.775	713.7
680.183	721.64
680.592	723.58
681	726.18
681.408	716.51
681.816	719.97
682.224	722.74
682.632	726.79
683.04	747.61
683.448	762.69
683.856	783.01
684.264	803.18
684.671	819.01
685.079	839.78
685.487	862.44
685.894	896.77
686.302	919.8
686.709	934.35
687.116	951.2
687.524	959.09
687.931	963.07
688.338	962.1
688.745	957.36
689.152	953.53
689.559	960.82
689.966	966.44
690.373	957.8
690.78	962.66
691.187	980.95
691.593	991.71
692	996.83
692.407	1016.21
692.813	1045.35
693.22	1066.91
693.626	1090.16
694.032	1106.54
694.439	1139.42
694.845	1162.54
695.251	1197.93
695.657	1230.94
696.063	1282.61
696.469	1324.7
696.875	1365.83
697.281	1390.33
697.687	1422.06
698.093	1450.48
698.498	1503.67
698.904	1546.11
699.31	1612.84
699.715	1665.94
700.12	1735.87
700.526	1764.32
700.931	1824.39
701.337	1874.52
701.742	1914.76
702.147	1988.66
702.552	2030.7
702.957	2089.73
703.362	2125.43
703.767	2166.73
704.172	2214.63
704.577	2206.76
704.981	2262.78
705.386	2297.34
705.791	2314.89
706.195	2391.06
706.6	2420.79
707.004	2501.98
707.408	2504.72
707.813	2551.18
708.217	2568.31
708.621	2596.13
709.025	2696.71
709.43	2723.85
709.834	2798.19
710.237	2879.35
710.641	2894.81
711.045	2940.45
711.449	2965.39
711.853	3017.15
712.256	3075.78
712.66	3133.4
713.064	3223.41
713.467	3283.7
713.87	3404.69
714.274	3471.2
714.677	3592.32
715.08	3761.52
715.484	3933.64
715.887	4140.01
716.29	4343.97
716.693	4563.9
717.096	4807.39
717.499	4955.8
717.901	5015.19
718.304	5071.67
718.707	5126.42
719.109	5065.6
719.512	5067.28
719.915	4976.28
720.317	4955.18
720.719	5028.68
721.122	5029.82
721.524	5017.09
721.926	5007.85
722.328	5130.19
722.731	5153.45
723.133	5211.6
723.535	5430.57
723.937	5477.25
724.338	5556.55
724.74	5624.91
725.142	5593.4
725.544	5618.81
725.945	5668.74
726.347	5693.5
726.748	5715.79
727.15	5750.61
727.551	5737
727.952	5730.1
728.354	5722.67
728.755	5746.24
729.156	5724.82
729.557	5728.54
729.958	5619.06
730.359	5579.48
730.76	5574.94
731.161	5525.47
731.562	5518.51
731.962	5536.07
732.363	5482.08
732.763	5432.43
733.164	5485.39
733.564	5424.7
733.965	5337.72
734.365	5313.75
734.766	5356.63
735.166	5327.75
735.566	5280.36
735.966	5263.04
736.366	5267.35
736.766	5214.4
737.166	5257.53
737.566	5222.68
737.966	5206.97
738.365	5259.79
738.765	5264.55
739.165	5192.85
739.564	5173.14
739.964	5231.86
740.363	5188.92
740.763	5194.98
741.162	5186.96
741.561	5157.28
741.96	5112.89
742.36	5141.67
742.759	5156.31
743.158	5206.44
743.557	5230.35
743.955	5283.61
744.354	5239.65
744.753	5310.99
745.152	5270.78
745.55	5339.89
745.949	5339.87
746.348	5346.46
746.746	5368.3
747.144	5323.2
747.543	5298.76
747.941	5356.07
748.339	5277.74
748.737	5273.52
749.136	5264.39
749.534	5340.86
749.932	5309.07
750.33	5337.77
750.727	5403.06
751.125	5378.32
751.523	5364.2
751.921	5417.68
752.318	5381.76
752.716	5450.74
753.113	5466.64
753.511	5498.43
753.908	5501.26
754.305	5486.45
754.703	5560.62
755.1	5632.5
755.497	5700.79
755.894	5921.27
756.291	6128.28
756.688	6508.11
757.085	7011.91
757.482	7719.23
757.878	8492.99
758.275	9192.13
758.672	10157.46
759.068	10941.51
759.465	12058.47
759.861	13511.09
760.258	15189.39
760.654	16062.85
761.05	15939.59
761.447	15219.7
761.843	14170.9
762.239	13091.61
762.635	12601.73
763.031	12134.45
763.427	11457.5
763.822	10747.32
764.218	10043.01
764.614	9124.37
765.01	8507.69
765.405	8112.98
765.801	7812.42
766.196	7436.48
766.592	7224.46
766.987	6864.73
767.382	6618.48
767.778	6515.57
768.173	6370.05
768.568	6285.92
768.963	6144.64
769.358	6167.93
769.753	6115.97
770.148	6020.36
770.542	6018.94
770.937	5979.96
771.332	6087.67
771.726	6112.74
772.121	6044.91
772.515	6108.83
772.91	6094.81
773.304	6175.82
773.699	6102.37
774.093	6163.9
774.487	6231.98
774.881	6277.86
775.275	6276.47
775.669	6225.29
776.063	6273.68
776.457	6313.75
776.851	6228.03
777.245	6219.78
777.638	6260.66
778.032	6390.42
778.425	6348.96
778.819	6392.03
779.212	6348.37
779.606	6301.6
779.999	6327.57
780.392	6310.39
780.786	6407.09
781.179	6429.49
781.572	6476.77
781.965	6490.04
782.358	6426.25
782.751	6490.35
783.143	6436.4
783.536	6518.39
783.929	6567.21
784.322	6697.78
784.714	6736.37
785.107	6727.57
785.499	6810.46
785.891	6784.96
786.284	6764.41
786.676	6930.15
787.068	6907.91
787.46	6971.37
787.852	6992.83
788.245	7094.39
788.636	7127.69
789.028	7205.74
789.42	7254.09
789.812	7263.38
790.204	7374.4
790.595	7490.9
790.987	7261.75
791.378	7288.51
791.77	7434.21
792.161	7591.96
792.553	7655.5
792.944	7530
793.335	7449.84
793.726	7533.99
794.117	7640.7
794.508	7799.24
794.899	7760.68
795.29	7921.29
795.681	7986.58
796.072	7821.64
796.463	7612.68
796.853	7623.59
797.244	7806.27
797.634	7846.75
798.025	7842.82
798.415	7853.32
798.806	7958.57
799.196	8058.41
799.586	8119.1
799.976	8078.47
800.366	8347.73
800.756	8623.79
801.146	8576.69
801.536	8609.51
801.926	8692.49
802.316	8725.1
802.706	8810.44
803.095	8670.89
803.485	8790.24
803.874	8836.47
804.264	9136.14
804.653	9104.23
805.043	9271.33
805.432	9398.6
805.821	9401.04
806.21	9432.38
806.599	9570.47
806.988	9624.06
807.377	9750
807.766	9905.39
808.155	10236.82
808.544	9930.94
808.933	9952.78
809.321	9929.9
809.71	10277.11
810.098	10456.55
810.487	10984.95
810.875	11539.14
811.264	11567.2
811.652	11895.25
812.04	12054.9
812.428	12245.51
812.816	13128.39
813.204	13607.11
813.592	14242.01
813.98	14625.35
814.368	14524.3
814.756	15073.1
815.144	14984.86
815.531	15519.39
815.919	15441.24
816.306	15801.21
816.694	15441.81
817.081	15503.39
817.469	15904.39
817.856	15902.13
818.243	16214.83
818.63	16668.23
819.017	16190.35
819.404	16259.12
819.791	16699.49
820.178	17411.56
820.565	17702.91
820.952	18780.22
821.339	18209.77
821.725	18421.18
822.112	17564.55
822.498	17522.54
822.885	17670.04
823.271	17560.8
823.657	18051.16
824.044	18055.74
824.43	18139.65
824.816	18101.18
825.202	17594.69
825.588	18778.24
825.974	18797.43
826.36	19392.61
826.746	19427.49
827.132	19839.04
827.517	19801.57
827.903	18889.98
828.289	18939.27
828.674	18041.91
829.06	17918.46
829.445	18375.05
829.83	18778.68
830.216	19326.41
830.601	19747.37
830.986	19274.26
831.371	19116.8
831.756	19764.71
832.141	19270.53
832.526	19259.41
832.911	19577.78
833.295	19445.85
833.68	19986.93
834.065	19271.45
834.449	18222.39
834.834	18134.11
835.218	18129.13
835.603	18523.83
835.987	18279.68
836.371	19236.22
836.755	19122.14
837.139	19587.23
837.524	19858.67
837.908	19654.89
838.291	19729.37
838.675	19805.37
839.059	20053.64
839.443	20033.67
839.827	19762.37
840.21	20309.55
840.594	20141.95
840.977	20377.48
841.361	20349.26
841.744	20790.79
842.127	20614.89
842.511	20896.56
842.894	21587.27
843.277	22017.93
843.66	22658.71
844.043	22763.96
844.426	21844.55
844.809	21476.56
845.191	21515.41
845.574	20984.82
845.957	20558.92
846.339	20429.02
846.722	19817.96
847.104	19894.45
847.487	19692.97
847.869	19694.65
848.252	20001.62
848.634	20371.84
849.016	20683.14
849.398	20822.2
849.78	21804.31
850.162	21809.12
850.544	22288.9
850.926	23026.47
851.307	22919.46
851.689	23249.84
852.071	23774.75
852.452	24155.33
852.834	24139.68
853.215	24593.56
853.597	24768.15
853.978	25104.13
854.359	25622.13
854.741	24477.63
855.122	24360.8
855.503	24037.02
855.884	24193.46
856.265	24121.57
856.646	24259.57
857.026	23804.64
857.407	23724.22
857.788	23918.34
858.169	24251.09
858.549	23277.01
858.93	23996.17
859.31	24044.76
859.69	24280.28
860.071	23811.84
860.451	23565.8
860.831	22713.14
861.211	24052.71
861.591	24692.3
861.971	24655.33
862.351	24875.36
862.731	25332.83
863.111	25636.18
863.491	26015.03
863.87	27027.96
864.25	27424.97
864.629	26963.19
865.009	27551.07
865.388	28529.07
865.768	30580.33
866.147	30461.09
866.526	28784.74
866.905	29121.98
867.284	30753.72
867.663	29204.48
868.042	27995.83
868.421	27911.02
868.8	28380.64
869.179	28654.87
869.558	26980.59
869.936	24862.4
870.315	25295.23
870.693	25898.12
871.072	27937.97
871.45	26619.44
871.828	26965.37
872.207	28347.31
872.585	27933.09
872.963	28686.76
873.341	27702.96
873.719	27374.19
874.097	27046.61
874.475	27578.75
874.853	28222.77
875.23	27038.96
875.608	28180.29
875.986	30487.07
876.363	29137.06
876.741	30009.11
877.118	29278.36
877.495	30725.8
877.873	31243.09
878.25	32886
878.627	31544.2
879.004	31984.51
879.381	31843.93
879.758	31006.26
880.135	28873.92
880.512	30563.03
880.889	29756.81
881.265	29430.19
881.642	29189.69
882.019	29690.67
882.395	29079.44
882.772	30231.63
883.148	28925.77
883.524	28794.55
883.901	28623.61
884.277	29024.66
884.653	28831.05
885.029	29666.43
885.405	32845.88
885.781	32584.93
886.157	31236.3
886.532	31622.54
886.908	31609.34
887.284	35142.86
887.659	36287.45
888.035	37407.85
888.411	38378.91
888.786	38877.16
889.161	40208.16
889.537	39475.46
889.912	40742.15
890.287	40704.24
890.662	41751.3
891.037	40980.8
891.412	38217.24
891.787	37840.51
892.162	36521.73
892.536	37387.71
892.911	35996.38
893.286	35249.72
893.66	33821.87
894.035	34687.58
894.409	37773.47
894.784	36255.98
895.158	36859.57
895.532	39042.17
895.906	40113.73
896.281	41053.32
896.655	40399.59
897.029	46146.37
897.402	48030.53
897.776	53489.35
898.15	53285.29
898.524	52707.38
898.898	53414.4
899.271	59826.23
899.645	51823.17
900.018	49777.71
900.392	51627.08
900.765	52060.37
901.138	48187.88
901.511	47473.1
901.884	43579.36
902.258	40215.58
902.631	41573.26
903.003	47833.33
903.376	43154.12
903.749	48364.28
904.122	51799.77
904.495	57044.58
904.867	57719.53
905.24	50127.87
905.612	46699.6
905.985	47768.36
906.357	49928.6
906.729	47654.56
907.102	40722.29
907.474	39162.07
907.846	39429.99
908.218	38899.57
908.59	34375.41
908.962	33278.05
909.334	35831.82
909.705	37614.64
910.077	36519.64
910.449	38029.07
910.82	39095.12
911.192	43025.54
911.563	44696.02
911.935	47843.68
912.306	47901.27
912.677	49481.22
913.048	48961.31
913.419	53136.82
913.79	53425.72
914.161	57284.27
914.532	54713.43
914.903	50288.04
915.274	47742.56
915.645	47056.51
916.015	41396.19
916.386	39463.97
916.756	42011.11
917.127	43335.3
917.497	38695.02
917.868	42144.8
918.238	40046.95
918.608	41223.92
918.978	42041.85
919.348	44519.84
919.718	46021.83
920.088	44329.8
920.458	46072.78
920.828	48477.09
921.198	45952.05
921.567	49108.31
921.937	38033.25
922.306	38397.72
922.676	41414.33
923.045	34576.63
923.415	32844.66
923.784	29907.89
924.153	30765.39
924.522	30710.61
924.891	28858.55
925.26	30938.17
925.629	30196.94
925.998	34718.14
926.367	33892.26
926.736	32273.67
927.104	38434.97
927.473	41342.14
927.842	49903.78
928.21	49418.71
928.578	51984.3
928.947	49178.5
929.315	49467.3
929.683	58031.67
930.051	58464.97
930.42	67908.95
930.788	58029.07
931.156	57587.11
931.523	53972.98
931.891	49879.39
932.259	47929.51
932.627	55576
932.994	78669.55
933.362	65003.7
933.729	56477.82
934.097	54098.01
934.464	45781.73
934.831	52879.1
935.199	52153.22
935.566	50579.89
935.933	51382.48
936.3	62252.82
936.667	48467.68
937.034	43705.65
937.401	43241.01
937.767	37304.18
938.134	33222.71
938.501	46891.09
938.867	49958.4
939.234	84468.37
939.6	72138.88
939.967	79278.45
940.333	53035.05
940.699	45116.34
941.065	36200.64
941.431	47439.87
941.798	45720.84
942.163	59999.47
942.529	37426.83
942.895	34457.15
943.261	22283.9
943.627	29194.24
943.992	25550.29
944.358	25578.32
944.723	25641.32
945.089	24972.32
945.454	23071.81
945.82	24642.78
946.185	23676.45
946.55	27470.23
946.915	24643.17
947.28	28899.71
947.645	25415.29
948.01	23453.63
948.375	24449.6
948.74	29346.25
949.104	34223.25
949.469	49429.59
949.834	87389.39
950.198	82770.26
950.562	49564.43
950.927	41291.32
951.291	49699.73
951.655	42393.49
952.02	39829.67
952.384	30112.98
952.748	26191.41
953.112	25548.33
953.476	22217.53
953.839	20545.06
954.203	20333.82
954.567	25428
954.931	40046.86
955.294	34267.54
955.658	34470.25
956.021	58571.53
956.385	99319.61
956.748	146668.98
957.111	227421
957.474	255463.53
957.837	287750.95
958.2	217909.64
958.563	78362.1
958.926	52957.03
959.289	80302.74
959.652	89692.06
960.015	67347.37
960.377	96742.87
960.74	110455.58
961.102	190751.37
961.465	204818.62
961.827	109650.51
962.189	210434.7
962.552	145920.69
962.914	116953.81
963.276	75934.75
963.638	62820.32
964	62135.78
964.362	41971.01
964.724	40535.95
965.085	28918.55
965.447	23713.57
965.809	27031.59
966.17	27082.94
966.532	29313.35
966.893	26923.78
967.255	24514.02
967.616	28916.19
967.977	23185.14
968.338	25345.85
968.699	20820.22
969.061	20804.47
969.421	20938.5
969.782	23496.55
970.143	19832.12
970.504	20539
970.865	23358.86
971.225	23851.94
971.586	23353.12
971.946	33275.78
972.307	28876.59
972.667	37814.45
973.027	38937.81
973.388	47208.56
973.748	32131.7
974.108	34993.8
974.468	47338.87
974.828	36467.19
975.188	28088.85
975.548	25774.88
975.907	21645.77
976.267	24260.89
976.627	20371.47
976.986	21124.47
977.346	20126.59
977.705	19364.4
978.064	17615.26
978.424	14667.32
978.783	15182.11
979.142	17343.1
979.501	16591.5
979.86	17558.49
980.219	16933.01
980.578	21825.63
980.937	24474.11
981.296	21835.61
981.654	22452.33
982.013	35019.44
982.371	45415.31
982.73	42407.85
983.088	47987.46
983.447	51311.72
983.805	73348.26
984.163	153329.93
984.521	170290.49
984.879	249639.99
985.237	-406306.65
985.595	391998
985.953	97356.19
986.311	56251.5
986.669	32632.96
987.026	28141.98
987.384	37849.15
987.741	39098.32
988.099	27927.55
988.456	22272.91
988.814	20856.69
989.171	18117.81
989.528	17877.64
989.885	18893.63
990.242	14978.9
990.599	18687.89
990.956	15309.67
991.313	10706.99
991.67	8797.71
992.027	9324.26
992.383	8282.98
992.74	7259.61
993.096	7615.64
993.453	7886.05
993.809	8176.98
994.165	10885.87
994.522	9966.73
994.878	10980.77
995.234	13766.92
995.59	13567.43
995.946	12845.11
996.302	14653.34
996.658	16943.53
997.013	18653.06
997.369	22130.82
997.725	28308.17
998.08	18372.08
998.436	28360.03
998.791	39125.47
999.147	39153.54
999.502	42811.65
999.857	31145.23
1000.212	50905.45
1000.567	72564.28
1000.922	41915.15
1001.277	26590.86
1001.632	19757.42
1001.987	25441.97
1002.342	18202.51
1002.696	14592.25
1003.051	11636.51
1003.406	14081.97
1003.76	14050.34
1004.114	13821.3
1004.469	11616.86
1004.823	9619.92
1005.177	10424.78
1005.531	8250.21
1005.885	7299.39
1006.239	8245.12
1006.593	10304.16
1006.947	13773.26
1007.301	10331.37
1007.655	11246.32
1008.008	8262.45
1008.362	9290.88
1008.715	13264.64
1009.069	12031.55
1009.422	18115.95
1009.776	36453.8
1010.129	24220.93
1010.482	20291.56
1010.835	17168.61
1011.188	35681.32
1011.541	33542.79
1011.894	-205168.8
1012.247	603142.02
1012.6	40998.4
1012.952	25855.3
1013.305	13306.81
1013.657	9586.46
1014.01	9080.49
1014.362	7492.42
1014.715	6652.76
1015.067	5797.9
1015.419	5682.82
1015.771	5012.3
1016.123	4448.91
1016.475	4576.65
1016.827	4884.97
1017.179	5255.79
1017.531	5290.3
1017.883	5412.92
1018.234	5221.76
1018.586	6599.11
1018.938	7026.13
1019.289	9696.19
1019.64	11168.39
1019.992	10400.65
1020.343	9515.52
1020.694	7519.11
1021.045	6642.86
1021.396	7600.51
1021.747	8150.28
1022.098	9754.09
1022.449	7094.13
1022.8	6527.14
1023.151	4536.92
1023.501	4012.93
1023.852	4367.08
1024.202	4545.06
1024.553	4974.7
1024.903	4887.86
1025.253	4178.41
1025.604	3755.63
1025.954	4675.97
1026.304	5703.71
1026.654	6635.46
1027.004	9740.85
1027.354	15728.15
1027.703	14903.81
1028.053	19591
1028.403	28407.92
1028.753	40854.81
1029.102	55434.82
1029.452	284104.91
1029.801	12218.2
1030.15	7838.63
1030.499	6683.26
897.758	3055.94
901.051	3035.27
904.343	3077.42
907.636	3067.8
910.928	3137.86
914.22	3039.38
917.511	3047.24
920.803	3130.83
924.094	3169.16
927.384	3125.62
930.675	3095.8
933.965	3041.7
937.255	3037.96
940.544	3001.78
943.834	2889.56
947.123	2841.52
950.411	2946.09
953.7	2913.83
956.988	2860.81
960.276	2810.99
963.563	2922.2
966.851	2904.1
970.138	2975.97
973.424	2956.37
976.711	2906.05
979.997	3117.07
983.283	3138.53
986.568	3020.37
989.853	3061.9
993.138	3093.07
996.423	3165.22
999.708	3084.45
1002.992	3189.23
1006.275	2954.47
1009.559	3043.38
1012.842	3170.05
1016.125	3088.81
1019.408	3065.45
1022.69	3179.05
1025.972	3183.21
1029.254	3155.71
1032.536	3064.63
1035.817	3107.03
1039.098	3019.31
1042.379	3246.9
1045.659	3212.7
1048.939	3134.91
1052.219	3167.2
1055.498	3197.92
1058.778	3173.79
1062.057	3164.4
1065.335	3181.57
1068.614	3210.5
1071.892	3179.63
1075.17	3276.43
1078.447	3254.88
1081.724	3242.18
1085.001	3286.8
1088.278	3258
1091.554	3276.55
1094.83	3273.84
1098.106	3298.96
1101.382	3355.43
1104.657	3357.95
1107.932	3350.78
1111.206	3302.33
1114.481	3264.13
1117.755	3271.56
1121.029	3239.73
1124.302	3284.46
1127.575	3219.72
1130.848	3197.93
1134.121	3150.99
1137.393	3090.89
1140.665	3166.68
1143.937	3137.27
1147.208	3077.68
1150.48	3096.73
1153.75	3078.63
1157.021	3141
1160.291	3105.12
1163.561	3142.85
1166.831	3157.76
1170.101	3192.33
1173.37	3183.02
1176.639	3110.41
1179.907	3187.68
1183.176	3208.66
1186.444	3223.57
1189.711	3256.12
1192.979	3255.15
1196.246	3212.97
1199.513	3238.89
1202.78	3229.85
1206.046	3236.69
1209.312	3263.91
1212.578	3295.79
1215.843	3232.18
1219.108	3214.48
1222.373	3235.64
1225.638	3187.54
1228.902	3164.71
1232.166	3136.25
1235.43	3108.23
1238.693	3132.79
1241.956	3135.97
1245.219	3163.17
1248.482	3164.98
1251.744	3154.72
1255.006	3330.59
1258.268	3294
1261.529	3227.81
1264.79	3243.15
1268.051	3357.01
1271.312	3380.87
1274.572	3330.71
1277.832	3323.68
1281.092	3325.52
1284.351	3281.29
1287.61	3256.26
1290.869	3148
1294.128	3103.65
1297.386	3234.46
1300.644	3216.19
1303.902	3226.68
1307.159	3078.61
1310.416	3137.43
1313.673	3153.55
1316.93	3127.3
1320.186	3189.18
1323.442	3239.99
1326.697	3220.19
1329.953	3226.36
1333.208	3235.4
1336.463	3222.29
1339.717	3143.31
1342.972	3260.21
1346.226	3251.42
1349.479	3168.46
1352.733	3125.16
1355.986	3165.79
1359.238	3136.36
1362.491	3133.51
1365.743	3141.11
1368.995	3140.71
1372.247	3152.84
1375.498	3176.72
1378.749	3201.74
1382	3156.55
1385.251	3228.52
1388.501	3198.6
1391.751	3163.92
1395	3140.02
1398.25	3176.88
1401.499	3168.85
1404.748	3073.93
1407.996	3031.35
1411.244	3017.06
1414.492	2993.45
1417.74	2964.05
1420.987	2980.73
1424.234	3028.72
1427.481	3028.6
1430.728	3088.14
1433.974	3059.4
1437.22	3089.52
1440.465	3099.34
1443.711	3070.57
1446.956	3111.54
1450.201	3118.27
1453.445	3162.61
1456.689	3128.55
1459.933	3146.81
1463.177	3173
1466.42	3142.76
1469.663	3121.08
1472.906	3094.56
1476.148	3217.84
1479.391	3130.01
1482.633	3112.18
1485.874	3112.69
1489.115	3082.92
1492.356	3108.69
1495.597	3077.75
1498.838	3087.37
1502.078	3039.31
1505.318	2971.07
1508.557	3020.3
1511.797	2952.9
1515.036	3091.08
1518.274	3080.21
1521.513	3063.04
1524.751	3095.75
1527.989	3096.89
1531.227	3108.12
1534.464	3081.71
1537.701	3128.78
1540.938	3155.45
1544.174	3116.8
1547.41	3123.65
1550.646	3162.91
1553.882	3184.96
1557.117	3239.91
1560.352	3260.84
1563.587	3214
1566.821	3165.49
1570.055	3222.7
1573.289	3186.51
1576.523	3279.39
1579.756	3275.94
1582.989	3291.09
1586.222	3251.72
1589.454	3301.51
1592.686	3265.93
1595.918	3287.35
1599.15	3270.76
1602.381	3373.36
1605.612	3301.08
1608.843	3399.92
1612.073	3306.97
1615.303	3288.61
1618.533	3274.72
1621.762	3281.32
1624.992	3282.26
1628.221	3250.12
1631.449	3233.36
1634.678	3321.4
1637.906	3263.85
1641.134	3319.33
1644.361	3264.54
1647.588	3245.06
1650.815	3259.43
1654.042	3253.02
1657.269	3286.36
1660.495	3229.2
1663.72	3202.23
1666.946	3183.97
1670.171	3091.32
1673.396	3069.7
1676.621	3066.5
1679.845	3110.4
1683.069	3147.41
1686.293	3201.52
1689.517	3155.89
1692.74	3061.46
1695.963	3082.21
1699.185	3153.82
1702.408	3109.98
1705.63	3162.87
1708.852	3168.67
1712.073	3140.08
1715.294	3102.4
1718.515	3163.66
1721.736	3099.14
1724.956	3095.29
1728.176	3125.25
1731.396	3147.58
1734.616	3137.4
1737.835	3152.08
1741.054	3146.92
1744.272	3141.43
1747.491	3157.29
1750.709	3240.15
1753.927	3115.94
1757.144	3180.9
1760.361	3213.11
1763.578	3228.68
1766.795	3159.66
1770.011	3181.63
1773.227	3240.65
1776.443	3262.08
1779.658	3305.03
1782.874	3257.05
1786.089	3221.01
1789.303	3224.53
1792.518	3235.79
1795.732	3227.08
1798.945	3226.63
1802.159	3290.94
1805.372	3155.47
1808.585	3125.06
1811.797	3130.58
1815.01	3208.07
1818.222	3203.1
1821.434	3111.41
1824.645	3204.86
1827.856	3162.77
1831.067	3202.12
1834.278	3160.96
1837.488	3137.84
1840.698	3311.51
1843.908	3221.09
1847.117	3183.21
1850.326	3022.87
1853.535	3154.42
1856.744	3246.68
1859.952	3136.45
1863.16	3138.58
1866.368	3167.54
1869.575	3279.08
1872.782	3168.2
1875.989	3111.66
1879.196	3230.63
1882.402	3221.05
1885.608	3268.08
1888.814	3137.27
1892.019	3020.55
1895.224	3070.01
1898.429	3066.47
1901.634	3036.44
1904.838	3020.27
1908.042	3064.71
1911.246	3069.12
1914.449	2968.37
1917.652	2982.37
1920.855	2968.26
1924.058	3039.24
1927.26	3066.73
1930.462	3102.93
1933.664	3116.57
1936.865	3050.06
1940.066	3045.88
1943.267	2997.68
1946.467	3019.53
1949.668	3053.92
1952.868	3115.61
1956.067	3079.93
1959.267	3004.87
1962.466	3037.37
1965.665	3021.86
1968.863	3022.91
1972.061	3050.74
1975.259	3056.15
1978.457	3134.92
1981.654	3090.26
1984.852	3087.77
1988.048	3003.22
1991.245	3018.45
1994.441	3100.45
1997.637	3110.8
2000.833	3094.1
2004.028	3133.67
2007.223	3178.48
2010.418	3143.43
2013.613	3116.92
2016.807	3062.87
2020.001	3085.74
2023.194	3149.86
2026.388	3115.28
2029.581	3065.94
2032.774	3098.38
2035.966	3095
2039.158	3013.25
2042.35	3049.57
2045.542	2976.69
2048.733	3096.6
2051.924	3151.13
2055.115	3190.8
2058.306	3112.44
2061.496	3179.21
2064.686	3254.92
2067.875	3178.88
2071.065	3209.14
2074.254	3244.16
2077.442	3192.11
2080.631	3293.32
2083.819	3142.83
2087.007	3113.35
2090.195	3069.13
2093.382	3125.97
2096.569	3103.1
2099.756	3045.44
2102.942	3049.17
2106.128	3041.02
2109.314	3035.83
2112.5	2978.76
2115.685	2963.35
2118.87	2977.65
2122.055	3046.38
2125.239	2998.7
2128.424	2956.13
2131.608	3102.85
2134.791	3087.01
2137.974	3164.79
2141.157	3146.41
2144.34	3078.77
2147.523	3118.29
2150.705	3118.37
2153.887	3109.19
2157.068	3037.25
2160.25	3061.96
2163.431	3118.03
2166.611	3036.1
2169.792	3045.94
2172.972	2924.3
2176.152	3033.35
2179.331	3077.05
2182.511	3038.12
2185.69	3069.91
2188.868	3055.96
2192.047	3133.41
2195.225	3097.48
2198.403	3044.66
2201.58	3046
2204.758	3049.99
2207.935	3140.91
2211.111	2999.48
2214.288	2977.71
2217.464	3022.56
2220.64	3015.29
2223.815	3074.74
2226.991	2984.35
2230.166	3007.33
2233.34	3022.02
2236.515	3059.06
2239.689	3138.06
2242.863	3075.27
2246.036	3137.32
2249.209	3156.31
2252.382	3207.94
2255.555	3174.27
2258.727	3097.79
2261.9	3146.14
2265.071	3138.55
2268.243	3148.08
2271.414	3064.45
2274.585	3005.04
2277.756	3081.5
2280.926	3039.38
2284.096	3091.28
2287.266	2975.84
2290.436	3038.19
2293.605	3075.27
2296.774	3098.53
2299.942	3133.36
2303.111	3149.87
2306.279	3193.64
2309.447	3186.79
2312.614	3160.14
2315.781	3172.29
2318.948	3135.58
2322.115	3172.69
2325.281	3078.98
2328.447	3112.88
2331.613	3093.73
2334.779	3051.9
2337.944	3061.57
2341.109	3052.88
2344.274	3027.27
2347.438	2994.81
2350.602	3024.6
2353.766	3047.32
2356.929	3032.19
2360.092	3077.54
2363.255	3008.23
2366.418	2909.95
2369.58	3063.53
2372.742	2774.39
2375.904	2806.92
2379.066	2772.81
2382.227	2819.48
2385.388	2783.17
2388.548	2682.74
2391.709	2749.28
2394.869	2719.39
2398.029	2864.67
2401.188	2894.84
2404.347	2802.36
2407.506	2996.89
2410.665	3021.21
2413.823	3045.87
2416.981	2979.57
2420.139	3025.47
2423.296	3084.8
2426.453	3059.42
2429.61	3089.27
2432.767	2983.62
2435.923	3027.33
2439.079	2939.94
2442.235	3014.24
2445.391	2925.86
2448.546	2937.63
2451.701	3005.74
2454.855	2949.98
2458.009	3027.26
2461.163	3042.98
2464.317	2985.41
2467.471	3031.09
2470.624	3069.94
2473.777	3093.85
2476.929	3093.59
2480.082	3120.24
2483.234	3084.46
2486.385	2990.38
2489.537	2987.17
2492.688	2917.51
2495.839	2940.9
2498.989	2944.45
2502.14	2922.68
2505.29	2898.46
2508.439	2925.9
2511.589	2832.53
2514.738	2859.24
2517.887	2889.53
2521.035	3007.6
2524.183	3008.82
2527.331	2982.33
2530.479	2933.09
2533.627	2953.45
