Data from N_2_HIR_IL_4N_Splice17_12-10-43-381.txt Node
Date: Sat Mar 14 12:10:43 EDT 2020
User: sa697716
Spectrometer: FLMS03696
Trigger mode: 0
Integration Time (sec): 3.180400E-1
Scans to average: 20
Electric dark correction enabled: true
Nonlinearity correction enabled: true
Boxcar width: 5
XAxis mode: Wavelengths
Number of Pixels in Spectrum: 2048
>>>>>Begin Spectral Data<<<<<
187.83	-321437.02
188.298	2309.79
188.766	1247.81
189.233	1143.25
189.701	1556.43
190.169	2130.96
190.636	792.21
191.104	668.11
191.571	119.4
192.039	-2.31
192.506	-12.74
192.974	472.59
193.441	-943.61
193.908	-147.85
194.375	-26.32
194.842	20.2
195.31	76.6
195.777	103.14
196.244	339.15
196.711	440.18
197.177	574.44
197.644	804.38
198.111	1394.92
198.578	2004.82
199.045	1601.49
199.511	2647.78
199.978	3053.45
200.445	2626.85
200.911	2954.45
201.378	3291.53
201.844	3004.28
202.31	5178.95
202.777	5438.22
203.243	3028.28
203.709	2885.12
204.176	3428.72
204.642	2812.39
205.108	2656.57
205.574	2159.26
206.04	1967.44
206.506	1860.47
206.972	1750.38
207.438	1695.69
207.903	1916.25
208.369	1667.68
208.835	1651.08
209.301	1732.27
209.766	1775.56
210.232	1751.63
210.697	2161.8
211.163	2648.21
211.628	3988.44
212.094	3341.56
212.559	4080.03
213.024	2553.63
213.49	3139.2
213.955	3065.68
214.42	2991.44
214.885	2789.36
215.35	2659.24
215.815	2550.87
216.28	2704.03
216.745	2174.16
217.21	2328.18
217.675	2112.16
218.14	2335.59
218.604	2571.81
219.069	2903.8
219.534	3010.02
219.998	3445.37
220.463	4151.67
220.927	5055.55
221.392	4734.9
221.856	4777.04
222.32	5984.83
222.785	7354.16
223.249	9250.45
223.713	10292.07
224.177	10268.34
224.642	13144.02
225.106	16142.47
225.57	17618.92
226.034	13088.27
226.497	19859.01
226.961	17937.63
227.425	20912.36
227.889	23212.13
228.353	23138.2
228.816	47582.82
229.28	45432.2
229.744	38238.86
230.207	23261.27
230.671	22845.31
231.134	37674.11
231.597	43397.17
232.061	43259.81
232.524	42026.89
232.987	28895.88
233.45	25985.31
233.914	23322.47
234.377	23859.56
234.84	21825.22
235.303	25692.78
235.766	28631.91
236.229	29626.81
236.691	18676.71
237.154	20971.41
237.617	15780.15
238.08	16156.42
238.542	18896.31
239.005	13503.85
239.468	13409.45
239.93	12639.89
240.393	11496.39
240.855	10079.46
241.317	10305.29
241.78	12512.58
242.242	12947.32
242.704	13993.02
243.166	12177.52
243.629	11053.99
244.091	12729.29
244.553	13940.32
245.015	14961.5
245.477	19312.62
245.939	28307.75
246.4	30023.99
246.862	29148.23
247.324	27428.86
247.786	30652.28
248.247	40182.59
248.709	41438.45
249.17	30959.82
249.632	29193.06
250.093	33862.88
250.555	29227.74
251.016	17841.69
251.477	16941.64
251.939	18292.06
252.4	19187.29
252.861	22818.08
253.322	21215.44
253.783	25246.67
254.244	32785.64
254.705	25813.06
255.166	22935.61
255.627	22606.63
256.088	31836.6
256.549	33798.75
257.009	29129.09
257.47	35374.43
257.931	28777.16
258.391	21566.2
258.852	22256.26
259.312	23315.8
259.773	28828.67
260.233	24382.68
260.694	20574.87
261.154	23316.44
261.614	18723.11
262.074	16710.36
262.534	17352.13
262.994	16347.36
263.455	21771.02
263.915	18350.85
264.374	17292.1
264.834	18860.96
265.294	20910.2
265.754	21642.14
266.214	20519.35
266.673	19215.18
267.133	24279.85
267.593	24091.38
268.052	29507.78
268.512	25666.64
268.971	30949.61
269.431	33929.88
269.89	30396.85
270.349	45552.54
270.809	50814.3
271.268	45709.92
271.727	102554.91
272.186	66486.75
272.645	49858.75
273.104	35996.54
273.563	52110.5
274.022	40975.96
274.481	34891.02
274.94	26918.79
275.399	20029.1
275.857	23325.03
276.316	31538.76
276.775	28060.72
277.233	27644.86
277.692	25906.18
278.15	29281.65
278.609	30142.04
279.067	27903.34
279.525	25923.5
279.984	33475.03
280.442	40213.34
280.9	39694.17
281.358	26130.38
281.816	24383.09
282.274	23870.22
282.732	24653.44
283.19	24834.15
283.648	21462.81
284.106	22843.64
284.564	23234.21
285.021	21561.68
285.479	16068.02
285.937	14621.9
286.394	12836.84
286.852	13221.46
287.309	13906.39
287.767	13456.16
288.224	12774.04
288.682	14022.06
289.139	15422.66
289.596	14126.99
290.053	14665.23
290.511	18478.07
290.968	22373.49
291.425	30362.55
291.882	25260.23
292.339	21966.17
292.796	21764.92
293.252	20543.94
293.709	16309.4
294.166	14614.84
294.623	16147.01
295.079	15512.09
295.536	15612.74
295.992	14188.77
296.449	14032.19
296.905	14579.45
297.362	13981.47
297.818	14704.57
298.274	15246.87
298.731	15524.57
299.187	15353.54
299.643	16462.85
300.099	19886.25
300.555	21779.07
301.011	18197.59
301.467	17552.56
301.923	20545.35
302.379	20063.69
302.835	19733.64
303.291	19770.29
303.746	22510.57
304.202	28453.66
304.658	28581.29
305.113	19245.24
305.569	18892.69
306.024	20145.19
306.479	19167.39
306.935	16166.1
307.39	17681.82
307.845	16346.46
308.301	16450.63
308.756	16046.88
309.211	15476.47
309.666	15876.13
310.121	19729.41
310.576	20026.53
311.031	19849.08
311.486	22753.14
311.94	22732.46
312.395	30371.08
312.85	57108.9
313.305	280597.54
313.759	1454351.08
314.214	105384.64
314.668	83532.02
315.123	70144.68
315.577	25161.98
316.032	22415.75
316.486	28068.27
316.94	22173.31
317.394	15467.04
317.849	12016.67
318.303	11362.78
318.757	10703.82
319.211	11844.14
319.665	10357.83
320.119	10491.28
320.572	15038.13
321.026	14054.46
321.48	11702.68
321.934	12730.75
322.387	12737.27
322.841	13736.44
323.295	12364.07
323.748	14237.89
324.202	14423.03
324.655	17340.67
325.108	24220.02
325.562	17114.59
326.015	20329.54
326.468	15356.43
326.921	17215.53
327.374	16048.24
327.827	16729.11
328.28	18947.92
328.733	12709.73
329.186	11187.96
329.639	10669.85
330.092	8990.44
330.545	8575.26
330.997	8655.78
331.45	9475.14
331.903	11099.54
332.355	19096.16
332.808	18571.28
333.26	15296.03
333.713	16630
334.165	16742.91
334.617	22346.93
335.069	18038.89
335.522	32531.41
335.974	36006.93
336.426	32909.79
336.878	22763.07
337.33	11558.91
337.782	11299.56
338.234	14167.85
338.686	16905.76
339.137	20018.4
339.589	18850.69
340.041	14801.15
340.493	12718.87
340.944	13018.72
341.396	13985.83
341.847	11787.5
342.299	13920.26
342.75	16960.29
343.201	14799.07
343.653	17003.16
344.104	20886.1
344.555	16464.55
345.006	25588.1
345.457	19620.18
345.908	15584.61
346.359	14666.22
346.81	11915.5
347.261	12530.31
347.712	12335.01
348.163	13212.21
348.613	13403.83
349.064	12510.87
349.515	10940.04
349.965	11218.69
350.416	13494.14
350.866	14781.4
351.317	16699.81
351.767	27701.14
352.217	34995.1
352.668	29030.66
353.118	26618.29
353.568	25662.49
354.018	20318.16
354.468	21410.82
354.918	15386.84
355.368	13463
355.818	19073.43
356.268	54872.05
356.718	229423.81
357.168	57166.16
357.617	28676.77
358.067	31853.44
358.517	29810.48
358.966	34964.29
359.416	39219.54
359.865	42317.08
360.315	50513.15
360.764	23526.58
361.213	13213.73
361.663	12523.08
362.112	15448.95
362.561	24963.78
363.01	18836.28
363.459	15836.6
363.908	17136.95
364.357	14594.38
364.806	24707.13
365.255	16982.98
365.703	15537.29
366.152	15548.39
366.601	12620.81
367.05	10277
367.498	9337.52
367.947	9774.44
368.395	10172.65
368.844	9009.3
369.292	10818.79
369.74	7477.96
370.189	11468.34
370.637	13497.23
371.085	11626.69
371.533	14162.99
371.981	13629.23
372.429	12990.23
372.877	13536.8
373.325	11345.67
373.773	11569.67
374.221	10316.39
374.669	12808.27
375.116	11054.54
375.564	11127.76
376.012	12460.79
376.459	10281.3
376.907	12289.03
377.354	14893.62
377.801	13879.23
378.249	15955.89
378.696	20400.75
379.143	24727.88
379.591	26369.9
380.038	44727.55
380.485	32459.73
380.932	35125.5
381.379	32244.62
381.826	23846.24
382.273	16978.6
382.72	14885.01
383.166	14547.19
383.613	9464.85
384.06	8576.24
384.506	9956.8
384.953	7340.53
385.4	7420.06
385.846	6521.16
386.292	6366.71
386.739	6240.15
387.185	6183.2
387.631	6214.05
388.078	6066.55
388.524	6512.86
388.97	6033.97
389.416	5047.19
389.862	5387.51
390.308	5119.98
390.754	5225.62
391.2	5701.67
391.645	5865.16
392.091	5658.74
392.537	5498.91
392.983	5538.74
393.428	5481.89
393.874	5903.55
394.319	5964.62
394.765	5676.22
395.21	5869.42
395.655	5538.38
396.101	5207.94
396.546	4719.82
396.991	4774.84
397.436	4457.3
397.881	4320.48
398.326	4114.64
398.771	3909.28
399.216	3433.1
399.661	3111.24
400.106	3116.9
400.551	3207.98
400.995	2893.21
401.44	2879.88
401.885	2716.18
402.329	2758.26
402.774	2660.79
403.218	2582.58
403.663	2500.95
404.107	2581.17
404.551	2609.05
404.995	2401.37
405.44	2319.93
405.884	2361.2
406.328	2290.24
406.772	2293.6
407.216	2097.54
407.66	2033.86
408.104	1937.89
408.547	1822.21
408.991	1771.16
409.435	1711.16
409.879	1692.68
410.322	1677.12
410.766	1626.16
411.209	1553.47
411.653	1496.17
412.096	1469.9
412.54	1472.17
412.983	1470.55
413.426	1477.17
413.869	1480.42
414.312	1457.77
414.756	1407.27
415.199	1344.64
415.642	1309.24
416.085	1312.81
416.527	1303.76
416.97	1323.42
417.413	1258.83
417.856	1243.69
418.298	1233.5
418.741	1222.78
419.184	1218.51
419.626	1271.75
420.069	1276.84
420.511	1283.22
420.953	1256.21
421.396	1249.82
421.838	1222.3
422.28	1251.19
422.722	1258.99
423.164	1276.99
423.606	1260.43
424.048	1259.25
424.49	1196.39
424.932	1188.46
425.374	1174.68
425.816	1197.25
426.258	1216.35
426.699	1229.1
427.141	1214.55
427.582	1235.19
428.024	1230.6
428.465	1224.02
428.907	1195.82
429.348	1181.14
429.789	1181.03
430.231	1155.96
430.672	1170.06
431.113	1144.98
431.554	1129.14
431.995	1100.17
432.436	1060.24
432.877	1034.64
433.318	1014.46
433.759	1011.41
434.2	1014.25
434.64	1004.13
435.081	1006.78
435.522	955.2
435.962	921.57
436.403	901.23
436.843	913.98
437.284	896.05
437.724	872.72
438.164	876.73
438.604	858
439.045	824.85
439.485	789.76
439.925	773.11
440.365	754
440.805	744.39
441.245	734.71
441.685	706.52
442.125	700.08
442.564	706.13
443.004	690.31
443.444	686.47
443.883	686.73
444.323	682.57
444.762	683.47
445.202	692.66
445.641	704.4
446.081	699.34
446.52	704.95
446.959	696.64
447.398	676.92
447.837	666.07
448.276	652.47
448.716	658.96
449.154	662.74
449.593	645.51
450.032	640.84
450.471	627.3
450.91	626.77
451.349	624.44
451.787	621.93
452.226	631.09
452.664	631.93
453.103	633.47
453.541	630.44
453.98	629.4
454.418	634.06
454.856	624.04
455.295	623.11
455.733	627.79
456.171	631.13
456.609	632.86
457.047	631.95
457.485	640.58
457.923	641.46
458.361	632.71
458.798	634.74
459.236	633.3
459.674	636.8
460.111	639.4
460.549	634.08
460.987	630.84
461.424	627.7
461.862	626.12
462.299	617.14
462.736	616.73
463.173	618.94
463.611	612.37
464.048	610.43
464.485	616.17
464.922	611.26
465.359	607.05
465.796	599.25
466.233	594.54
466.67	588.15
467.106	585.31
467.543	579.13
467.98	572.07
468.416	558.07
468.853	552.82
469.29	536.06
469.726	529.92
470.162	515.46
470.599	508.48
471.035	503.67
471.471	491.15
471.907	487.5
472.344	484.51
472.78	485.35
473.216	489.46
473.652	483.94
474.088	482.03
474.523	479.26
474.959	483.54
475.395	478.14
475.831	474.57
476.266	476.54
476.702	475.07
477.138	469.26
477.573	466.64
478.008	464.6
478.444	466.11
478.879	471
479.314	472.65
479.75	472.27
480.185	474.15
480.62	478.66
481.055	480.34
481.49	483.52
481.925	490.35
482.36	499.31
482.795	512.58
483.229	525.71
483.664	535.26
484.099	536.87
484.534	543.95
484.968	548.91
485.403	549.58
485.837	547.82
486.271	547.14
486.706	547.16
487.14	540.34
487.574	530.86
488.009	526.13
488.443	520.62
488.877	525.16
489.311	526.48
489.745	531.67
490.179	535.79
490.613	545.71
491.046	548.78
491.48	551.3
491.914	550.6
492.348	554.17
492.781	556.17
493.215	556.7
493.648	556.76
494.082	560.19
494.515	560.08
494.948	565.72
495.382	568.5
495.815	571.34
496.248	575.25
496.681	584.09
497.114	592.81
497.547	599.65
497.98	609.26
498.413	614.18
498.846	620.44
499.279	626.68
499.711	628.47
500.144	629.22
500.577	636.66
501.009	644.25
501.442	652.65
501.874	652.5
502.306	653.45
502.739	660.11
503.171	671.45
503.603	674.91
504.036	682.08
504.468	686.67
504.9	696.36
505.332	702.29
505.764	706.56
506.196	711.5
506.627	723.76
507.059	735.32
507.491	741.84
507.923	740.35
508.354	751.85
508.786	761.53
509.217	776.81
509.649	789.89
510.08	805.74
510.512	820.02
510.943	833.37
511.374	843.62
511.805	861.31
512.237	878.41
512.668	905.45
513.099	929.72
513.53	953.33
513.961	972.08
514.391	998.55
514.822	1027.01
515.253	1058.4
515.684	1081.09
516.114	1107.64
516.545	1127.59
516.975	1151.91
517.406	1169
517.836	1173.21
518.267	1181.39
518.697	1198.65
519.127	1206.44
519.558	1215.5
519.988	1221.35
520.418	1233.83
520.848	1251.58
521.278	1260.82
521.708	1283.25
522.138	1297.51
522.567	1326.75
522.997	1350.46
523.427	1366.66
523.857	1383.77
524.286	1395.89
524.716	1411.74
525.145	1430.5
525.575	1442.59
526.004	1458.55
526.433	1451.47
526.863	1454.32
527.292	1448.54
527.721	1455.48
528.15	1462.57
528.579	1465.09
529.008	1476.09
529.437	1497.1
529.866	1509.68
530.295	1526.54
530.724	1539.13
531.152	1564.74
531.581	1577.9
532.01	1595.51
532.438	1605.21
532.867	1619.67
533.295	1637.11
533.723	1644.79
534.152	1643.94
534.58	1646.59
535.008	1634.16
535.436	1636.94
535.865	1645.65
536.293	1660.3
536.721	1675.45
537.149	1699.21
537.576	1702.98
538.004	1715.52
538.432	1723.47
538.86	1725.29
539.287	1731.68
539.715	1745.07
540.143	1748.75
540.57	1746.14
540.998	1743.4
541.425	1723.06
541.852	1704.91
542.28	1704.19
542.707	1690.65
543.134	1677.91
543.561	1673.8
543.988	1667.79
544.415	1667.12
544.842	1662.41
545.269	1655.45
545.696	1657.61
546.123	1669.73
546.549	1659.98
546.976	1648.69
547.403	1648.25
547.829	1650.17
548.256	1651.18
548.682	1647.94
549.108	1641.31
549.535	1641.02
549.961	1642.9
550.387	1631.12
550.813	1626.07
551.24	1631.26
551.666	1632.11
552.092	1622.63
552.518	1616.23
552.943	1610.99
553.369	1616.92
553.795	1620.78
554.221	1620.86
554.646	1615.91
555.072	1624.4
555.498	1627.34
555.923	1634.74
556.349	1646.62
556.774	1653.12
557.199	1653.64
557.625	1658.44
558.05	1653.06
558.475	1661.72
558.9	1659.39
559.325	1652.15
559.75	1645.85
560.175	1638.67
560.6	1631.64
561.025	1628.51
561.449	1629.46
561.874	1632.46
562.299	1634.35
562.723	1637.77
563.148	1627.37
563.572	1629.18
563.997	1635.87
564.421	1638.4
564.846	1636.29
565.27	1637.76
565.694	1633.1
566.118	1639.47
566.542	1644.16
566.966	1635.62
567.39	1629.42
567.814	1617.24
568.238	1614.08
568.662	1615.79
569.086	1615.82
569.509	1620.19
569.933	1604.25
570.357	1594.97
570.78	1574.83
571.204	1561.07
571.627	1549.1
572.05	1545.51
572.474	1542.82
572.897	1529.99
573.32	1521.7
573.743	1510.47
574.166	1492.55
574.589	1490.54
575.012	1482.9
575.435	1479.98
575.858	1469.97
576.281	1458.77
576.704	1443.56
577.126	1431.2
577.549	1419.74
577.972	1409.03
578.394	1398.22
578.817	1390.59
579.239	1372.88
579.661	1359.67
580.084	1345.64
580.506	1333.81
580.928	1330.07
581.35	1319.88
581.772	1314.85
582.194	1301.91
582.616	1290.26
583.038	1277.02
583.46	1267.32
583.882	1263.95
584.303	1265.53
584.725	1260.31
585.147	1261.42
585.568	1269.41
585.99	1277.82
586.411	1282.88
586.833	1295.05
587.254	1294.89
587.675	1306.36
588.096	1315.37
588.518	1310.16
588.939	1295.73
589.36	1291.62
589.781	1280.19
590.202	1255.45
590.623	1247.19
591.043	1242.76
591.464	1231.17
591.885	1227.9
592.305	1221.54
592.726	1209.53
593.147	1209.08
593.567	1203.84
593.987	1197.08
594.408	1191.26
594.828	1187.92
595.248	1181.53
595.669	1165.45
596.089	1158.13
596.509	1151.64
596.929	1139.46
597.349	1139.51
597.769	1130.38
598.189	1125.34
598.608	1126.53
599.028	1127.8
599.448	1126.31
599.867	1116.29
600.287	1112.88
600.706	1110.34
601.126	1101.68
601.545	1101.67
601.965	1100.2
602.384	1095.95
602.803	1096.62
603.222	1091.99
603.641	1086.04
604.061	1083.62
604.48	1080.03
604.898	1086.07
605.317	1088.73
605.736	1090.65
606.155	1087.72
606.574	1079.69
606.992	1083.32
607.411	1079.52
607.829	1071.95
608.248	1069.42
608.666	1066.86
609.085	1065.4
609.503	1058.46
609.921	1053.78
610.339	1054.07
610.758	1052.41
611.176	1047.46
611.594	1039.65
612.012	1035.86
612.43	1038.17
612.847	1042.67
613.265	1042.26
613.683	1045.03
614.101	1045.52
614.518	1041.27
614.936	1032.61
615.353	1020.37
615.771	1018.07
616.188	1016.63
616.606	1014.11
617.023	1008.34
617.44	996.29
617.857	990.22
618.274	983.2
618.691	977.64
619.108	969.07
619.525	964.81
619.942	969.96
620.359	971.33
620.776	967.91
621.192	965.12
621.609	963.68
622.026	969.42
622.442	974.44
622.859	976.87
623.275	971.37
623.691	976.27
624.108	985.13
624.524	996.41
624.94	996.23
625.356	1004.56
625.772	1014.15
626.188	1022.61
626.604	1023.32
627.02	1020.3
627.436	1018.97
627.852	1024.19
628.268	1033.78
628.683	1025.82
629.099	1017.77
629.514	1015.13
629.93	1017.03
630.345	1020.19
630.761	1016.39
631.176	1018.97
631.591	1014.97
632.007	1010.75
632.422	1008.79
632.837	998.64
633.252	995.59
633.667	988.5
634.082	979.56
634.497	968.66
634.911	952.77
635.326	948.38
635.741	934.16
636.155	923.66
636.57	922.98
636.984	920.31
637.399	920.53
637.813	918.58
638.228	915.21
638.642	916.34
639.056	906.74
639.47	904.81
639.884	897.06
640.298	889.9
640.712	887.34
641.126	874.4
641.54	865.94
641.954	859.15
642.368	849.03
642.781	840.96
643.195	826.64
643.609	825.16
644.022	818.98
644.436	814.57
644.849	803.71
645.262	793.59
645.676	794.06
646.089	790.54
646.502	780.43
646.915	775.88
647.328	763.59
647.741	761.41
648.154	752.31
648.567	749.73
648.98	740.5
649.393	741.35
649.805	740.15
650.218	734.96
650.631	723.8
651.043	718.23
651.456	713.97
651.868	714.54
652.28	726.47
652.693	736.26
653.105	740.48
653.517	747.89
653.929	749.17
654.341	753.23
654.753	744.43
655.165	749.52
655.577	749.13
655.989	747.66
656.401	742.41
656.813	718.05
657.224	703.8
657.636	685.18
658.047	672.61
658.459	659.21
658.87	653.11
659.282	646.53
659.693	632.88
660.104	623.85
660.515	615.12
660.926	615.69
661.338	615.57
661.749	613.15
662.159	608.51
662.57	606.96
662.981	605.3
663.392	601.87
663.803	606.27
664.213	606.41
664.624	605.12
665.035	608.95
665.445	600
665.855	596.97
666.266	592.59
666.676	592
667.086	586.31
667.497	586.89
667.907	583.76
668.317	578.82
668.727	579
669.137	581.37
669.547	580.71
669.956	584.69
670.366	587.15
670.776	590.03
671.186	594.73
671.595	598.88
672.005	603.14
672.414	604.66
672.824	604.59
673.233	608.52
673.642	611.5
674.052	615.9
674.461	619.02
674.87	623.39
675.279	622.95
675.688	625.43
676.097	628.88
676.506	627.53
676.915	640.18
677.323	643.71
677.732	643.29
678.141	644.23
678.549	636.67
678.958	636.87
679.366	637.98
679.775	643.07
680.183	652.36
680.592	657.39
681	662.27
681.408	656.17
681.816	661.75
682.224	668.19
682.632	675.59
683.04	698.04
683.448	716.83
683.856	738.51
684.264	764.03
684.671	786.53
685.079	815.1
685.487	847.36
685.894	892.65
686.302	928.69
686.709	957.4
687.116	990.29
687.524	1017.6
687.931	1039.33
688.338	1060.27
688.745	1075.6
689.152	1097.17
689.559	1127.67
689.966	1157.38
690.373	1172.16
690.78	1204.3
691.187	1253.58
691.593	1291.04
692	1325.19
692.407	1377.95
692.813	1440.86
693.22	1493.74
693.626	1548.3
694.032	1593.22
694.439	1663.29
694.845	1720.04
695.251	1789.22
695.657	1853.18
696.063	1946.69
696.469	2020.14
696.875	2087.99
697.281	2134.1
697.687	2187.65
698.093	2234.6
698.498	2314.49
698.904	2377.7
699.31	2469.27
699.715	2538.96
700.12	2632.02
700.526	2663.8
700.931	2738.65
701.337	2801.15
701.742	2846.14
702.147	2937
702.552	2979.62
702.957	3049.7
703.362	3082.44
703.767	3122.93
704.172	3174.55
704.577	3144.81
704.981	3202.58
705.386	3232.74
705.791	3240.68
706.195	3323.43
706.6	3346.97
707.004	3435.09
707.408	3417.48
707.813	3456.89
708.217	3456.7
708.621	3471.21
709.025	3578.88
709.43	3591.2
709.834	3664.35
710.237	3743.74
710.641	3742.76
711.045	3774.87
711.449	3783.94
711.853	3823.87
712.256	3879.07
712.66	3930.31
713.064	4018.97
713.467	4074.06
713.87	4201.43
714.274	4259.43
714.677	4384.48
715.08	4561.55
715.484	4746.94
715.887	4964.83
716.29	5183.52
716.693	5411.26
717.096	5670.74
717.499	5818.04
717.901	5855.79
718.304	5891.71
718.707	5928.57
719.109	5830.46
719.512	5808.74
719.915	5678.4
720.317	5630.42
720.719	5687.44
721.122	5666.12
721.524	5624.66
721.926	5589.4
722.328	5707.97
722.731	5711.03
723.133	5751.35
723.535	5967.15
723.937	5997.97
724.338	6063.33
724.74	6116.13
725.142	6043.28
725.544	6047.99
725.945	6081.03
726.347	6085.89
726.748	6084.05
727.15	6105.8
727.551	6070.21
727.952	6045.29
728.354	6019.33
728.755	6023.97
729.156	5984.76
729.557	5991.52
729.958	5865.37
730.359	5815.24
730.76	5797.85
731.161	5736.06
731.562	5712.41
731.962	5719.84
732.363	5655.07
732.763	5590.11
733.164	5635.14
733.564	5565.27
733.965	5462.18
734.365	5426.69
734.766	5461.27
735.166	5423.36
735.566	5368.07
735.966	5341.96
736.366	5341.07
736.766	5274.4
737.166	5313.27
737.566	5269.43
737.966	5245.02
738.365	5289.72
738.765	5286.7
739.165	5203.07
739.564	5177.93
739.964	5228.02
740.363	5180.55
740.763	5178.45
741.162	5168.56
741.561	5133.73
741.96	5084.09
742.36	5106.23
742.759	5114.21
743.158	5156.76
743.557	5174.42
743.955	5215.4
744.354	5165.52
744.753	5227.16
745.152	5181.22
745.55	5242.83
745.949	5236.27
746.348	5238.47
746.746	5259.3
747.144	5215.55
747.543	5193.15
747.941	5250.26
748.339	5176.29
748.737	5170.78
749.136	5165.09
749.534	5238.84
749.932	5209.28
750.33	5234.21
750.727	5299.25
751.125	5270.56
751.523	5256
751.921	5301.4
752.318	5260.89
752.716	5324.56
753.113	5337.67
753.511	5364.39
753.908	5364.98
754.305	5342.47
754.703	5414.31
755.1	5478
755.497	5547.5
755.894	5756.87
756.291	5955.23
756.688	6321.38
757.085	6809.58
757.482	7496.92
757.878	8243.49
758.275	8920.86
758.672	9864.06
759.068	10622.47
759.465	11710.51
759.861	13103.45
760.258	14725.55
760.654	15574.14
761.05	15446.32
761.447	14736.47
761.843	13717.84
762.239	12666.98
762.635	12192.62
763.031	11726.49
763.427	11066.24
763.822	10373.16
764.218	9691.64
764.614	8805.83
765.01	8210.81
765.405	7834.3
765.801	7547.21
766.196	7177.28
766.592	6972.4
766.987	6619.97
767.382	6386.89
767.778	6288.11
768.173	6144.88
768.568	6063.68
768.963	5926.62
769.358	5945.54
769.753	5891.13
770.148	5798.16
770.542	5797.08
770.937	5760.47
771.332	5865.24
771.726	5886.61
772.121	5816.75
772.515	5877.86
772.91	5861.51
773.304	5938.28
773.699	5864.18
774.093	5923.59
774.487	5982.34
774.881	6029.58
775.275	6029.41
775.669	5982.2
776.063	6031.08
776.457	6072.23
776.851	5989.71
777.245	5984
777.638	6021.67
778.032	6154.46
778.425	6114.7
778.819	6160.76
779.212	6115.07
779.606	6066.32
779.999	6088.67
780.392	6070.73
780.786	6161.44
781.179	6183.71
781.572	6227.49
781.965	6242.51
782.358	6178.48
782.751	6242.33
783.143	6193.36
783.536	6277.34
783.929	6329.77
784.322	6453.18
784.714	6486.8
785.107	6480.94
785.499	6561.78
785.891	6541.6
786.284	6520.58
786.676	6679.01
787.068	6654.29
787.46	6708.85
787.852	6727.24
788.245	6820.52
788.636	6856.86
789.028	6929.09
789.42	6971.74
789.812	6982.18
790.204	7087.85
790.595	7198.86
790.987	6980.53
791.378	7006.51
791.77	7151.9
792.161	7300.9
792.553	7359.77
792.944	7232.14
793.335	7156.71
793.726	7239.6
794.117	7339.57
794.508	7486.81
794.899	7449.09
795.29	7603.59
795.681	7668.29
796.072	7508.7
796.463	7300.31
796.853	7310.57
797.244	7487.25
797.634	7523.8
798.025	7519.83
798.415	7528.73
798.806	7628
799.196	7722.61
799.586	7774.27
799.976	7731.3
800.366	7986.59
800.756	8256.89
801.146	8211.65
801.536	8238.99
801.926	8320.44
802.316	8351.01
802.706	8430.09
803.095	8295.68
803.485	8405.5
803.874	8451.61
804.264	8738.32
804.653	8709.77
805.043	8865.72
805.432	8986.36
805.821	8993.97
806.21	9016.15
806.599	9140.67
806.988	9190.42
807.377	9310.35
807.766	9454.75
808.155	9769.82
808.544	9478.44
808.933	9489.91
809.321	9467.37
809.71	9790.19
810.098	9965.53
810.487	10475.72
810.875	11007.14
811.264	11038.7
811.652	11350.25
812.04	11511.22
812.428	11690.38
812.816	12534.65
813.204	12992.08
813.592	13603.98
813.98	13983.39
814.368	13874.01
814.756	14403.96
815.144	14316.15
815.531	14821.6
815.919	14744.14
816.306	15079.25
816.694	14734.85
817.081	14786.07
817.469	15175.24
817.856	15171.35
818.243	15457.93
818.63	15889.04
819.017	15419.39
819.404	15490.69
819.791	15906.54
820.178	16581.16
820.565	16855.56
820.952	17878.91
821.339	17330.56
821.725	17533.54
822.112	16713.93
822.498	16680
822.885	16828.4
823.271	16725.73
823.657	17194.02
824.044	17205.16
824.43	17285.99
824.816	17256.14
825.202	16783.71
825.588	17915.52
825.974	17924.19
826.36	18496.63
826.746	18529.7
827.132	18913.59
827.517	18888.41
827.903	18012.66
828.289	18051.22
828.674	17200.24
829.06	17086.02
829.445	17513.54
829.83	17907.49
830.216	18438.86
830.601	18833.48
830.986	18387.86
831.371	18244.68
831.756	18854.76
832.141	18392.17
832.526	18390.92
832.911	18704.94
833.295	18573.86
833.68	19094.93
834.065	18413.24
834.449	17411.34
834.834	17335.83
835.218	17325.11
835.603	17698.86
835.987	17468.56
836.371	18386.1
836.755	18263.31
837.139	18699.17
837.524	18971.22
837.908	18771.79
838.291	18835.12
838.675	18909.32
839.059	19140.28
839.443	19127.28
839.827	18873.76
840.21	19397.91
840.594	19232.69
840.977	19464.85
841.361	19445.52
841.744	19851.26
842.127	19681.37
842.511	19956.31
842.894	20614.48
843.277	21032.65
843.66	21640.91
844.043	21732.45
844.426	20849.14
844.809	20502.83
845.191	20545.25
845.574	20038.85
845.957	19640.41
846.339	19523.03
846.722	18945.69
847.104	19016.73
847.487	18832.36
847.869	18844.15
848.252	19152.46
848.634	19520.84
849.016	19811.33
849.398	19949.42
849.78	20887.45
850.162	20894.13
850.544	21348.79
850.926	22037.2
851.307	21937.76
851.689	22243.37
852.071	22737.95
852.452	23087.95
852.834	23058.3
853.215	23500.41
853.597	23660.47
853.978	23979.84
854.359	24478.81
854.741	23394.18
855.122	23284.39
855.503	22975.62
855.884	23122.55
856.265	23054.1
856.646	23184.06
857.026	22764.63
857.407	22686.6
857.788	22867.73
858.169	23184.9
858.549	22252.68
858.93	22936.94
859.31	23001.94
859.69	23228.98
860.071	22783.99
860.451	22548.19
860.831	21733.18
861.211	23008.76
861.591	23613.06
861.971	23584.82
862.351	23802.41
862.731	24230.88
863.111	24521.19
863.491	24874.18
863.87	25839.95
864.25	26226.52
864.629	25790.83
865.009	26363.27
865.388	27299.59
865.768	29259.35
866.147	29139.61
866.526	27507.72
866.905	27825.29
867.284	29395.7
867.663	27915.39
868.042	26750.07
868.421	26663.73
868.8	27098.13
869.179	27353.18
869.558	25750.78
869.936	23744.34
870.315	24172.07
870.693	24761.99
871.072	26716.06
871.45	25447.18
871.828	25768.43
872.207	27091.97
872.585	26671.94
872.963	27408.8
873.341	26467.19
873.719	26160.11
874.097	25832.2
874.475	26317.42
874.853	26927.6
875.23	25791.8
875.608	26861.06
875.986	29052.08
876.363	27780.5
876.741	28626.03
877.118	27892.82
877.495	29265.28
877.873	29735.81
878.25	31288.74
878.627	30004.4
879.004	30422.4
879.381	30290.19
879.758	29483.75
880.135	27451.79
880.512	29015.12
880.889	28252.64
881.265	27955.77
881.642	27715.27
882.019	28192.38
882.395	27624.61
882.772	28725.14
883.148	27481.63
883.524	27369.58
883.901	27214.35
884.277	27628.42
884.653	27473.51
885.029	28258.71
885.405	31293.64
885.781	31058.75
886.157	29787.7
886.532	30156.73
886.908	30152.3
887.284	33536.18
887.659	34629.09
888.035	35712.86
888.411	36610.93
888.786	37078.03
889.161	38358.74
889.537	37674.58
889.912	38877.83
890.287	38832.53
890.662	39843.38
891.037	39121.13
891.412	36486.58
891.787	36129.85
892.162	34882.49
892.536	35704.39
892.911	34381.97
893.286	33653.08
893.66	32281.49
894.035	33116.13
894.409	36078.89
894.784	34615.89
895.158	35184.65
895.532	37253.37
895.906	38254.73
896.281	39133.15
896.655	38518.07
897.029	44010.92
897.402	45850.48
897.776	51043.77
898.15	50860.38
898.524	50297.32
898.898	50963.37
899.271	57039.85
899.645	49395.66
900.018	47461.84
900.392	49221.31
900.765	49615.66
901.138	45906.03
901.511	45229.02
901.884	41528.56
902.258	38306.68
902.631	39584.05
903.003	45566.91
903.376	41146.4
903.749	46162.17
904.122	49437.39
904.495	54468.98
904.867	55185.76
905.24	47911.19
905.612	44592.06
905.985	45603.58
906.357	47678.2
906.729	45501.96
907.102	38854.08
907.474	37349.65
907.846	37570
908.218	37055.52
908.59	32734.68
908.962	31644.49
909.334	34087.65
909.705	35788.45
910.077	34745.49
910.449	36165.22
910.82	37185.81
911.192	40928.95
911.563	42533.63
911.935	45515.31
912.306	45562.27
912.677	47017.08
913.048	46532.1
913.419	50455.01
913.79	50733.11
914.161	54414.72
914.532	51992.06
914.903	47742.22
915.274	45294.7
915.645	44614.97
916.015	39253.44
916.386	37429.99
916.756	39842.48
917.127	41090.83
917.497	36699.3
917.868	39939.39
918.238	37940.39
918.608	39030.62
918.978	39851.23
919.348	42235.5
919.718	43619.51
920.088	42013.13
920.458	43638.92
920.828	45909.32
921.198	43518.72
921.567	46505.08
921.937	36035.18
922.306	36352.91
922.676	39213.68
923.045	32706.3
923.415	31069.74
923.784	28296.19
924.153	29090.34
924.522	29051.69
924.891	27315.32
925.26	29267.7
925.629	28565.18
925.998	32818.13
926.367	32055.06
926.736	30508.66
927.104	36341.78
927.473	39038.5
927.842	47174.36
928.21	46723.31
928.578	49137.13
928.947	46486.35
929.315	46749.32
929.683	54827.74
930.051	55286.99
930.42	64196.16
930.788	54907.11
931.156	54504.33
931.523	51124
931.891	47236.21
932.259	45391.94
932.627	52614.73
932.994	74481.67
933.362	61575.27
933.729	53536.44
934.097	51248.66
934.464	43349.75
934.831	50038.12
935.199	49329.65
935.566	47834.59
935.933	48402.82
936.3	58655.3
936.667	45674.49
937.034	41116.13
937.401	40655.62
937.767	35046.95
938.134	31194.45
938.501	44024.13
938.867	46891.43
939.234	79323.85
939.6	67710.64
939.967	74766.97
940.333	50033.54
940.699	42620.21
941.065	34299.19
941.431	44986.66
941.798	43386.35
942.163	56933.62
942.529	35579.09
942.895	32728.25
943.261	21158.73
943.627	27750.28
943.992	24292.89
944.358	24330.32
944.723	24401.99
945.089	23771.52
945.454	21959.76
945.82	23452.05
946.185	22586.62
946.55	26174.52
946.915	23494.18
947.28	27552.09
947.645	24254.77
948.01	22369.37
948.375	23322.38
948.74	27936.25
949.104	32561.76
949.469	47079.52
949.834	83193.5
950.198	78764.01
950.562	47178.93
950.927	39264.95
951.291	47225.34
951.655	40234.95
952.02	37834.57
952.384	28612.96
952.748	24917.55
953.112	24319.34
953.476	21153.47
953.839	19570.54
954.203	19379.38
954.567	24251.01
954.931	38229.75
955.294	32711.27
955.658	32927.01
956.021	55975.79
956.385	94956.54
956.748	140087.03
957.111	217143.78
957.474	243616.02
957.837	274292.15
958.2	207413.92
958.563	74565.99
958.926	50452.33
959.289	76493.59
959.652	85337.56
960.015	64015.16
960.377	91830.14
960.74	104767.38
961.102	181061.66
961.465	194248.46
961.827	103871.78
962.189	199422.62
962.552	138301.61
962.914	110777.05
963.276	71957.01
963.638	59496.38
964	58911.81
964.362	39836.44
964.724	38517.91
965.085	27449.07
965.447	22520.54
965.809	25691.31
966.17	25722.96
966.532	27856.38
966.893	25571.18
967.255	23282.15
967.616	27483.51
967.977	22004.55
968.338	24016.98
968.699	19727.4
969.061	19735.29
969.421	19853.05
969.782	22306.72
970.143	18836.89
970.504	19465.58
970.865	22140.9
971.225	22626.66
971.586	22133.74
971.946	31547.19
972.307	27413.46
972.667	35868.99
973.027	36916.13
973.388	44785.84
973.748	30422.15
974.108	33123.54
974.468	44874.78
974.828	34547.45
975.188	26584.59
975.548	24421.25
975.907	20515.31
976.267	22979.58
976.627	19325.22
976.986	20035.42
977.346	19115.19
977.705	18384.61
978.064	16746.21
978.424	13942.54
978.783	14415.86
979.142	16448.92
979.501	15745.66
979.86	16630.94
980.219	16022.79
980.578	20669.09
980.937	23157.39
981.296	20657.02
981.654	21243.93
982.013	33032.07
982.371	42796.31
982.73	40013.23
983.088	45325.27
983.447	48369.87
983.805	69156.08
984.163	144757.56
984.521	160489.53
984.879	235183.31
985.237	-382201.48
985.595	368629.68
985.953	91734.42
986.311	53046.96
986.669	30829.79
987.026	26598.85
987.384	35786.94
987.741	37068.88
988.099	26472.31
988.456	21098.75
988.814	19751.92
989.171	17167.78
989.528	16979.17
989.885	17931.55
990.242	14199.57
990.599	17683.22
990.956	14463.17
991.313	10099.82
991.67	8276.04
992.027	8761.51
992.383	7780.53
992.74	6813.67
993.096	7141.16
993.453	7390.27
993.809	7662.78
994.165	10212.25
994.522	9342.07
994.878	10301.69
995.234	12937.6
995.59	12762.12
995.946	12091.71
996.302	13784.83
996.658	15980.63
997.013	17612.78
997.369	20894.6
997.725	26749.82
998.08	17323.74
998.436	26734.66
998.791	36919.67
999.147	36913.17
999.502	40271.59
999.857	29318.8
1000.212	47851.82
1000.567	67922.21
1000.922	39159.94
1001.277	24834.5
1001.632	18409.59
1001.987	23679.33
1002.342	16999.43
1002.696	13575.18
1003.051	10817.36
1003.406	13132.94
1003.76	13072.72
1004.114	12865.59
1004.469	10828.65
1004.823	8969.64
1005.177	9698.49
1005.531	7693.34
1005.885	6835.63
1006.239	7718.38
1006.593	9667.17
1006.947	12970.28
1007.301	9692.77
1007.655	10552.76
1008.008	7754.42
1008.362	8723.68
1008.715	12484.34
1009.069	11331.61
1009.422	17025.74
1009.776	34083.12
1010.129	22525.61
1010.482	18849.75
1010.835	15909.74
1011.188	33238.9
1011.541	31308.31
1011.894	-191661.77
1012.247	563240.25
1012.6	38225.81
1012.952	24103.49
1013.305	12440.72
1013.657	8993.75
1014.01	8552.06
1014.362	7053.78
1014.715	6256.09
1015.067	5430.69
1015.419	5305.59
1015.771	4691.28
1016.123	4171.58
1016.475	4281.1
1016.827	4568.32
1017.179	4892.49
1017.531	4925.63
1017.883	5024.64
1018.234	4834.63
1018.586	6084.72
1018.938	6435.66
1019.289	8880.55
1019.64	10185.95
1019.992	9514.19
1020.343	8749.02
1020.694	6892.57
1021.045	6110.53
1021.396	6969.17
1021.747	7461.18
1022.098	8961.35
1022.449	6535.87
1022.8	6062.32
1023.151	4220.01
1023.501	3727.85
1023.852	4033.96
1024.202	4173.3
1024.553	4587.67
1024.903	4470.81
1025.253	3821.13
1025.604	3434.32
1025.954	4266.31
1026.304	5219.56
1026.654	6086.78
1027.004	8934.55
1027.354	14525.29
1027.703	13701.5
1028.053	17994.11
1028.403	26149.22
1028.753	38054.85
1029.102	52036.27
1029.452	269151.31
1029.801	11684.46
1030.15	7519.61
1030.499	6408.15
897.758	2319.64
901.051	2260.78
904.343	2294.34
907.636	2302.88
910.928	2362.8
914.22	2278.27
917.511	2282.12
920.803	2336.15
924.094	2339.01
927.384	2334.43
930.675	2297.66
933.965	2259.62
937.255	2284.57
940.544	2248.05
943.834	2236.47
947.123	2174.41
950.411	2266.22
953.7	2243.73
956.988	2224.98
960.276	2163.2
963.563	2221.15
966.851	2229.7
970.138	2276.49
973.424	2272.52
976.711	2230.68
979.997	2294.13
983.283	2341.58
986.568	2266.09
989.853	2264.16
993.138	2290.94
996.423	2374.66
999.708	2327.64
1002.992	2361.95
1006.275	2257.81
1009.559	2272.34
1012.842	2372.38
1016.125	2321.69
1019.408	2300.91
1022.69	2364.5
1025.972	2394.44
1029.254	2371.12
1032.536	2325.64
1035.817	2340.85
1039.098	2307.59
1042.379	2380.03
1045.659	2405.34
1048.939	2350.4
1052.219	2359.94
1055.498	2360.59
1058.778	2354.16
1062.057	2333.69
1065.335	2355.79
1068.614	2370.37
1071.892	2362.68
1075.17	2423.36
1078.447	2424.05
1081.724	2414.5
1085.001	2445.92
1088.278	2424.68
1091.554	2430.66
1094.83	2426.83
1098.106	2462.17
1101.382	2494.82
1104.657	2496
1107.932	2493.75
1111.206	2468.96
1114.481	2423.25
1117.755	2427.71
1121.029	2415.21
1124.302	2472.26
1127.575	2434.8
1130.848	2430.34
1134.121	2394.09
1137.393	2354.57
1140.665	2415.13
1143.937	2393.28
1147.208	2344.36
1150.48	2397.98
1153.75	2384.72
1157.021	2396.76
1160.291	2372.1
1163.561	2424.14
1166.831	2397.38
1170.101	2425.77
1173.37	2389.91
1176.639	2342.22
1179.907	2391.67
1183.176	2411.37
1186.444	2412.57
1189.711	2440.65
1192.979	2459.25
1196.246	2413.87
1199.513	2425.97
1202.78	2430.09
1206.046	2441.53
1209.312	2466.11
1212.578	2486.04
1215.843	2447.48
1219.108	2414.77
1222.373	2440.4
1225.638	2408.38
1228.902	2400.3
1232.166	2358.81
1235.43	2348.52
1238.693	2370.79
1241.956	2364.03
1245.219	2409.58
1248.482	2395.71
1251.744	2393.84
1255.006	2524.19
1258.268	2474.12
1261.529	2425.54
1264.79	2426.19
1268.051	2527.52
1271.312	2537.83
1274.572	2507.47
1277.832	2493.43
1281.092	2481.58
1284.351	2465.14
1287.61	2447.81
1290.869	2380.75
1294.128	2371.16
1297.386	2431.5
1300.644	2423.99
1303.902	2434.12
1307.159	2299.98
1310.416	2352.74
1313.673	2381.16
1316.93	2374.14
1320.186	2410.28
1323.442	2445.82
1326.697	2437.75
1329.953	2416.6
1333.208	2446.9
1336.463	2422.71
1339.717	2378.01
1342.972	2489.12
1346.226	2464.1
1349.479	2407.04
1352.733	2382.8
1355.986	2392.27
1359.238	2372.66
1362.491	2378.44
1365.743	2380.29
1368.995	2371.05
1372.247	2386.6
1375.498	2406.92
1378.749	2441.73
1382	2392.77
1385.251	2435.37
1388.501	2388.87
1391.751	2385.84
1395	2352.38
1398.25	2379.66
1401.499	2396.82
1404.748	2342.46
1407.996	2319.64
1411.244	2307.35
1414.492	2289.22
1417.74	2271.11
1420.987	2275.73
1424.234	2334.79
1427.481	2303.45
1430.728	2359.64
1433.974	2334.85
1437.22	2335.92
1440.465	2334.76
1443.711	2322.37
1446.956	2349.4
1450.201	2328.18
1453.445	2369.66
1456.689	2354.27
1459.933	2368.24
1463.177	2402.92
1466.42	2376.67
1469.663	2359.04
1472.906	2369.61
1476.148	2421.52
1479.391	2407.2
1482.633	2379.7
1485.874	2399.8
1489.115	2401.3
1492.356	2393.71
1495.597	2369.46
1498.838	2367.42
1502.078	2347.61
1505.318	2314.84
1508.557	2349.66
1511.797	2343.77
1515.036	2379.19
1518.274	2360.27
1521.513	2320.18
1524.751	2334.66
1527.989	2354.8
1531.227	2372.44
1534.464	2381.18
1537.701	2381.21
1540.938	2395.42
1544.174	2345.97
1547.41	2340.48
1550.646	2379.36
1553.882	2423.99
1557.117	2481.01
1560.352	2490.5
1563.587	2454.92
1566.821	2420.49
1570.055	2438.71
1573.289	2420.38
1576.523	2482.83
1579.756	2495.84
1582.989	2515.71
1586.222	2475.8
1589.454	2510.06
1592.686	2490.92
1595.918	2520.22
1599.15	2511.38
1602.381	2564.62
1605.612	2540.09
1608.843	2635.57
1612.073	2555.08
1615.303	2541.69
1618.533	2537.39
1621.762	2540.35
1624.992	2515.44
1628.221	2514.75
1631.449	2499.85
1634.678	2536.16
1637.906	2502.34
1641.134	2534.33
1644.361	2496.6
1647.588	2484.41
1650.815	2505.79
1654.042	2474.95
1657.269	2500.48
1660.495	2472.81
1663.72	2468.99
1666.946	2435.86
1670.171	2401.1
1673.396	2374.87
1676.621	2356.73
1679.845	2360.59
1683.069	2372.6
1686.293	2404.08
1689.517	2389.74
1692.74	2335.69
1695.963	2359.74
1699.185	2391.71
1702.408	2367.5
1705.63	2400.23
1708.852	2414.74
1712.073	2386.93
1715.294	2389.37
1718.515	2438.91
1721.736	2396.46
1724.956	2378.18
1728.176	2400.9
1731.396	2423.09
1734.616	2407.41
1737.835	2440.39
1741.054	2415.47
1744.272	2405.42
1747.491	2441.96
1750.709	2474.53
1753.927	2409.68
1757.144	2440.13
1760.361	2492.63
1763.578	2472.87
1766.795	2420.7
1770.011	2415.55
1773.227	2444.66
1776.443	2482.22
1779.658	2528.01
1782.874	2466.8
1786.089	2456.22
1789.303	2459.11
1792.518	2458.47
1795.732	2443.44
1798.945	2458
1802.159	2500.34
1805.372	2431.21
1808.585	2422.72
1811.797	2424.21
1815.01	2452.24
1818.222	2471.77
1821.434	2436.16
1824.645	2480.95
1827.856	2483.14
1831.067	2519.24
1834.278	2461.01
1837.488	2445.98
1840.698	2575.8
1843.908	2513.51
1847.117	2479.42
1850.326	2394.47
1853.535	2466.07
1856.744	2495.92
1859.952	2414.71
1863.16	2415.65
1866.368	2429.13
1869.575	2538.63
1872.782	2420.74
1875.989	2356.72
1879.196	2412.04
1882.402	2402.17
1885.608	2438.36
1888.814	2367.66
1892.019	2271.6
1895.224	2324.85
1898.429	2296.3
1901.634	2277.68
1904.838	2252.48
1908.042	2306.2
1911.246	2315.73
1914.449	2272.26
1917.652	2257.79
1920.855	2236.07
1924.058	2269.7
1927.26	2311.12
1930.462	2334.84
1933.664	2367.25
1936.865	2312.04
1940.066	2324.66
1943.267	2268.41
1946.467	2280.88
1949.668	2300.2
1952.868	2371.92
1956.067	2359.75
1959.267	2295.86
1962.466	2320.2
1965.665	2303.74
1968.863	2298.05
1972.061	2302.11
1975.259	2299.9
1978.457	2377.59
1981.654	2334.97
1984.852	2339.22
1988.048	2284.93
1991.245	2279.29
1994.441	2364.59
1997.637	2331.86
2000.833	2313.8
2004.028	2351.58
2007.223	2411.43
2010.418	2394.6
2013.613	2350.71
2016.807	2338.93
2020.001	2337.18
2023.194	2364.64
2026.388	2346.17
2029.581	2290.5
2032.774	2348.17
2035.966	2356.43
2039.158	2297.5
2042.35	2320.64
2045.542	2247.83
2048.733	2335.72
2051.924	2336.39
2055.115	2355.08
2058.306	2313.7
2061.496	2368.76
2064.686	2424.4
2067.875	2335.26
2071.065	2342.81
2074.254	2363.13
2077.442	2314.89
2080.631	2400.91
2083.819	2318.13
2087.007	2310.76
2090.195	2290.42
2093.382	2312.51
2096.569	2295.8
2099.756	2256.12
2102.942	2295.71
2106.128	2306.35
2109.314	2298.61
2112.5	2277.98
2115.685	2248.36
2118.87	2257.79
2122.055	2316.21
2125.239	2294.82
2128.424	2278.75
2131.608	2349.63
2134.791	2333.47
2137.974	2377.35
2141.157	2365.21
2144.34	2329.79
2147.523	2329.53
2150.705	2350.52
2153.887	2321.17
2157.068	2289.28
2160.25	2278.63
2163.431	2302.81
2166.611	2266.43
2169.792	2285.23
2172.972	2191.72
2176.152	2251.22
2179.331	2279.29
2182.511	2275.2
2185.69	2299.31
2188.868	2301.1
2192.047	2341.42
2195.225	2346.38
2198.403	2300.17
2201.58	2288.05
2204.758	2277.75
2207.935	2354.88
2211.111	2262.4
2214.288	2251.97
2217.464	2284.98
2220.64	2246.89
2223.815	2298.24
2226.991	2227.64
2230.166	2245.12
2233.34	2282.29
2236.515	2295.54
2239.689	2362.47
2242.863	2310.95
2246.036	2364.77
2249.209	2354.1
2252.382	2378.59
2255.555	2380.9
2258.727	2327.26
2261.9	2357.98
2265.071	2350.49
2268.243	2348.5
2271.414	2296.62
2274.585	2272.31
2277.756	2334.6
2280.926	2289.59
2284.096	2319.32
2287.266	2245.1
2290.436	2292.08
2293.605	2315.2
2296.774	2351.32
2299.942	2360.21
2303.111	2377.65
2306.279	2426.69
2309.447	2413.44
2312.614	2383.39
2315.781	2406.26
2318.948	2385.09
2322.115	2419.89
2325.281	2320.48
2328.447	2332.03
2331.613	2304.06
2334.779	2290.11
2337.944	2285.9
2341.109	2286.07
2344.274	2273.43
2347.438	2244.5
2350.602	2268.24
2353.766	2277.59
2356.929	2265.81
2360.092	2305.8
2363.255	2269.83
2366.418	2227.48
2369.58	2306.13
2372.742	2158.92
2375.904	2160.03
2379.066	2143
2382.227	2168.96
2385.388	2130.03
2388.548	2071.75
2391.709	2119.82
2394.869	2103.65
2398.029	2169.76
2401.188	2170.62
2404.347	2126.62
2407.506	2222.33
2410.665	2257.76
2413.823	2249.08
2416.981	2222.6
2420.139	2244.94
2423.296	2290.27
2426.453	2260.24
2429.61	2281.69
2432.767	2243.5
2435.923	2282.55
2439.079	2234.09
2442.235	2273.2
2445.391	2211.63
2448.546	2248.32
2451.701	2286.85
2454.855	2274.7
2458.009	2308.94
2461.163	2302.55
2464.317	2274.98
2467.471	2302.44
2470.624	2334.23
2473.777	2317.86
2476.929	2331.97
2480.082	2356.27
2483.234	2328.67
2486.385	2272.81
2489.537	2267.86
2492.688	2249.3
2495.839	2265.38
2498.989	2277.55
2502.14	2263.91
2505.29	2253.46
2508.439	2275.83
2511.589	2211.48
2514.738	2213.53
2517.887	2238.3
2521.035	2308.84
2524.183	2277.18
2527.331	2264.03
2530.479	2253.04
2533.627	2257.53
