Data from N_2_DEC_ON_6N_Splice17_12-14-34-317.txt Node
Date: Sat Mar 14 12:14:34 EDT 2020
User: sa697716
Spectrometer: FLMS03696
Trigger mode: 0
Integration Time (sec): 3.180400E-1
Scans to average: 20
Electric dark correction enabled: true
Nonlinearity correction enabled: true
Boxcar width: 5
XAxis mode: Wavelengths
Number of Pixels in Spectrum: 2048
>>>>>Begin Spectral Data<<<<<
187.83	-230283.25
188.298	1838.33
188.766	1000.78
189.233	881.48
189.701	1217.34
190.169	1634.45
190.636	638.64
191.104	534.67
191.571	72.39
192.039	-30.92
192.506	14.47
192.974	614.63
193.441	-992.15
193.908	-270.34
194.375	-39.17
194.842	40.78
195.31	146.88
195.777	209.95
196.244	400.96
196.711	452.2
197.177	557.22
197.644	760.04
198.111	1295.84
198.578	1803.41
199.045	1433.33
199.511	2296.84
199.978	2660.47
200.445	2223.41
200.911	2452.77
201.378	2744.19
201.844	2491.06
202.31	4230.92
202.777	4435.1
203.243	2461
203.709	2339.06
204.176	2743.42
204.642	2249.8
205.108	2084.1
205.574	1700.45
206.04	1537
206.506	1435.95
206.972	1343.53
207.438	1295.89
207.903	1434.43
208.369	1265.85
208.835	1266.93
209.301	1322.33
209.766	1346.08
210.232	1320.83
210.697	1615.63
211.163	1969.89
211.628	2913.42
212.094	2426.78
212.559	3015.63
213.024	1914.64
213.49	2320.5
213.955	2237.03
214.42	2185.35
214.885	2036.85
215.35	1956.57
215.815	1894.11
216.28	1996.24
216.745	1601.39
217.21	1708.04
217.675	1501.44
218.14	1631.25
218.604	1755
219.069	1937.03
219.534	1966.44
219.998	2193
220.463	2564.95
220.927	3019.87
221.392	2760.27
221.856	2756.44
222.32	3380.18
222.785	4121.77
223.249	5078.71
223.713	5605.75
224.177	5542.16
224.642	7003.85
225.106	8556.19
225.57	9259.14
226.034	6879.62
226.497	10417.04
226.961	9383.63
227.425	10875.16
227.889	11949.23
228.353	11909.42
228.816	24428.76
229.28	23320.97
229.744	19576.86
230.207	11872.61
230.671	11660.97
231.134	19085.68
231.597	21946.92
232.061	21721.65
232.524	21085.86
232.987	14491.13
233.45	13008.51
233.914	11621.72
234.377	11841.08
234.84	10849.42
235.303	12746.3
235.766	14186.27
236.229	14669.45
236.691	9216.52
237.154	10336.87
237.617	7789.96
238.08	7973.2
238.542	9337.09
239.005	6686.51
239.468	6634.78
239.93	6234.62
240.393	5668.46
240.855	4979.75
241.317	5077.99
241.78	6158.31
242.242	6390.17
242.704	6902.68
243.166	6024.23
243.629	5496.56
244.091	6315.64
244.553	6913.56
245.015	7445.04
245.477	9615.79
245.939	14035.54
246.4	14911.76
246.862	14478.22
247.324	13635.4
247.786	15214.56
248.247	19838.34
248.709	20325.89
249.17	15205.86
249.632	14409.04
250.093	16688.58
250.555	14368.35
251.016	8790.27
251.477	8344.45
251.939	9006.94
252.4	9409.07
252.861	11168.26
253.322	10419.17
253.783	12360.13
254.244	16001.64
254.705	12537.91
255.166	11117.26
255.627	10948
256.088	15434.23
256.549	16351.97
257.009	14037.1
257.47	16982.47
257.931	13777.93
258.391	10300.97
258.852	10633.39
259.312	11115.87
259.773	13706.68
260.233	11591.13
260.694	9777.93
261.154	11031.1
261.614	8881.79
262.074	7941.33
262.534	8253.07
262.994	7773.5
263.455	10334.56
263.915	8678.65
264.374	8159.72
264.834	8881.4
265.294	9791.7
265.754	10105.92
266.214	9551.36
266.673	8902.35
267.133	11174.01
267.593	11052.18
268.052	13507.6
268.512	11704.03
268.971	14115.45
269.431	15474.05
269.89	13826.25
270.349	20727.37
270.809	23101.13
271.268	20769.67
271.727	46437.36
272.186	30103.74
272.645	22598.3
273.104	16225.78
273.563	23475.17
274.022	18387.61
274.481	15643.45
274.94	12067.22
275.399	8967.64
275.857	10422.57
276.316	14064.12
276.775	12534.49
277.233	12355.27
277.692	11568.73
278.15	13135.88
278.609	13551.37
279.067	12562.75
279.525	11683.18
279.984	15077.45
280.442	18140.2
280.9	17995.69
281.358	11882.51
281.816	11106.82
282.274	10901.24
282.732	11266.57
283.19	11310.14
283.648	9752.06
284.106	10423.81
284.564	10611.12
285.021	9862.67
285.479	7335.38
285.937	6643.4
286.394	5850.09
286.852	6010.28
287.309	6323.3
287.767	6137.55
288.224	5856.03
288.682	6446.21
289.139	7067.3
289.596	6466.67
290.053	6708.04
290.511	8461.19
290.968	10257.22
291.425	13861.84
291.882	11560.05
292.339	10052.93
292.796	9937.14
293.252	9372.74
293.709	7450.67
294.166	6677.55
294.623	7379.92
295.079	7082.41
295.536	7140.43
295.992	6495.73
296.449	6411.84
296.905	6684.35
297.362	6419.9
297.818	6742.32
298.274	7002.7
298.731	7124.53
299.187	7046.67
299.643	7577.74
300.099	9179.79
300.555	10054.96
301.011	8418.19
301.467	8180.79
301.923	9504.52
302.379	9279.76
302.835	9151.87
303.291	9156.75
303.746	10394.71
304.202	13141.97
304.658	13178.79
305.113	8874.65
305.569	8727.13
306.024	9294.49
306.479	8802.51
306.935	7468.18
307.39	8171.57
307.845	7560.17
308.301	7643.26
308.756	7464.8
309.211	7224.69
309.666	7410.87
310.121	9266
310.576	9381.02
311.031	9304.12
311.486	10668.29
311.94	10644.55
312.395	14237.34
312.85	26683.76
313.305	130764.34
313.759	682438.69
314.214	49588.91
314.668	39505.9
315.123	33206.03
315.577	11970.98
316.032	10681.62
316.486	13397.43
316.94	10624.46
317.394	7425.81
317.849	5783.71
318.303	5470.24
318.757	5167.48
319.211	5698.87
319.665	4976.12
320.119	5023.31
320.572	7173.93
321.026	6721.15
321.48	5593.43
321.934	6093.03
322.387	6105.87
322.841	6609.64
323.295	5990.5
323.748	6856.75
324.202	6969.65
324.655	8373.29
325.108	11767.61
325.562	8336.54
326.015	9886.6
326.468	7477.94
326.921	8353.45
327.374	7808.25
327.827	8147.2
328.28	9200.03
328.733	6207.87
329.186	5457.84
329.639	5231.06
330.092	4400.73
330.545	4194.27
330.997	4240.45
331.45	4656.27
331.903	5485.45
332.355	9400.62
332.808	9125.82
333.26	7525.8
333.713	8162.97
334.165	8221.93
334.617	10941.78
335.069	8805.56
335.522	15908.34
335.974	17664.9
336.426	16102.53
336.878	11090.07
337.33	5648.81
337.782	5536.97
338.234	6976.27
338.686	8335.83
339.137	9924.19
339.589	9340.3
340.041	7359.95
340.493	6357.93
340.944	6489.52
341.396	7015.83
341.847	5922.25
342.299	6990.8
342.75	8541.48
343.201	7432.29
343.653	8537.64
344.104	10444.61
344.555	8223.9
345.006	12698.64
345.457	9747.83
345.908	7749.45
346.359	7304.9
346.81	5953.06
347.261	6255.6
347.712	6133.4
348.163	6563.94
348.613	6699.98
349.064	6264.54
349.515	5482.93
349.965	5643.54
350.416	6794.81
350.866	7444.47
351.317	8391.65
351.767	13901.41
352.217	17531.52
352.668	14616.38
353.118	13390.21
353.568	12828.99
354.018	10161.71
354.468	10717.72
354.918	7728.94
355.368	6729.71
355.818	9551.13
356.268	27339.73
356.718	114934.16
357.168	28822.75
357.617	14506.33
358.067	16169.09
358.517	15190.89
358.966	17946.6
359.416	20258.43
359.865	21879.06
360.315	26245.51
360.764	12266
361.213	6914.6
361.663	6523.55
362.112	8046.7
362.561	12964.82
363.01	9810.64
363.459	8278.85
363.908	8940.4
364.357	7620.72
364.806	12852.21
365.255	8812.46
365.703	8104.42
366.152	8165.19
366.601	6661.9
367.05	5417.87
367.498	4934.17
367.947	5127.89
368.395	5294.4
368.844	4700.63
369.292	5624.87
369.74	3903.55
370.189	5958.13
370.637	6983.77
371.085	5993.7
371.533	7287.13
371.981	7006.67
372.429	6732.33
372.877	7032.79
373.325	5959.64
373.773	6046.89
374.221	5399.3
374.669	6698.78
375.116	5806.3
375.564	5876.57
376.012	6590.05
376.459	5420.26
376.907	6479.46
377.354	7780.11
377.801	7298.73
378.249	8356.84
378.696	10688.58
379.143	12962.59
379.591	13869.01
380.038	23694.96
380.485	17143.84
380.932	18477.96
381.379	17137.55
381.826	12714.91
382.273	9110.01
382.72	7945.88
383.166	7771.62
383.613	5072.1
384.06	4586.18
384.506	5307.85
384.953	3878.29
385.4	3901.52
385.846	3445.11
386.292	3339.39
386.739	3260.06
387.185	3211.34
387.631	3238.12
388.078	3176.19
388.524	3409.08
388.97	3163.53
389.416	2662.6
389.862	2853.19
390.308	2720.86
390.754	2776.08
391.2	3019.31
391.645	3117.54
392.091	3024.61
392.537	2940.9
392.983	2940.66
393.428	2929.44
393.874	3145.89
394.319	3192.58
394.765	3055.05
395.21	3139.1
395.655	2960.33
396.101	2793.58
396.546	2531.63
396.991	2555.41
397.436	2376.06
397.881	2307.99
398.326	2180.86
398.771	2083.62
399.216	1812.58
399.661	1631.47
400.106	1644.39
400.551	1692.18
400.995	1526.64
401.44	1513.38
401.885	1424.03
402.329	1442.58
402.774	1388.66
403.218	1355.76
403.663	1306.73
404.107	1346.02
404.551	1364.41
404.995	1248.68
405.44	1200.79
405.884	1217.35
406.328	1175.77
406.772	1173.7
407.216	1073.44
407.66	1037.88
408.104	979.5
408.547	917.06
408.991	892.39
409.435	857.02
409.879	850.76
410.322	840.68
410.766	815.92
411.209	780.66
411.653	751.23
412.096	739.46
412.54	740.14
412.983	738.53
413.426	745.4
413.869	742.36
414.312	731.78
414.756	705.52
415.199	676.04
415.642	657.85
416.085	660.14
416.527	656.4
416.97	666.62
417.413	633.2
417.856	627.21
418.298	619.01
418.741	612.97
419.184	608.78
419.626	628.2
420.069	627.58
420.511	631.38
420.953	620.23
421.396	613.08
421.838	594.15
422.28	609.49
422.722	612.51
423.164	620.9
423.606	616.17
424.048	615.56
424.49	588.26
424.932	583.66
425.374	573.42
425.816	580.05
426.258	593.1
426.699	600.76
427.141	593.1
427.582	598.67
428.024	594.77
428.465	588.08
428.907	572
429.348	565.99
429.789	570.39
430.231	560.91
430.672	568.67
431.113	554.63
431.554	547.09
431.995	533.52
432.436	517.32
432.877	506.51
433.318	500.85
433.759	503.27
434.2	502.63
434.64	495.76
435.081	497.4
435.522	473.08
435.962	457.05
436.403	449.66
436.843	455.35
437.284	445.51
437.724	435.03
438.164	434.17
438.604	423.15
439.045	408.56
439.485	394.6
439.925	386.61
440.365	378.53
440.805	372.8
441.245	367.84
441.685	353.61
442.125	351.13
442.564	352.15
443.004	346.45
443.444	347.17
443.883	348.42
444.323	344.73
444.762	345.05
445.202	348
445.641	357.73
446.081	357.57
446.52	361.44
446.959	359.09
447.398	352.86
447.837	349.47
448.276	342
448.716	347.7
449.154	349.42
449.593	343.49
450.032	344.49
450.471	338.42
450.91	338.19
451.349	340.58
451.787	340.27
452.226	344.65
452.664	344.07
453.103	346.43
453.541	343.31
453.98	346.13
454.418	346.75
454.856	342.03
455.295	340.52
455.733	343.41
456.171	343.15
456.609	345.25
457.047	344.91
457.485	351.3
457.923	352.64
458.361	348.95
458.798	348.76
459.236	348.36
459.674	349.56
460.111	351.74
460.549	349.21
460.987	348
461.424	344.18
461.862	343.6
462.299	337.76
462.736	337.3
463.173	338.72
463.611	337.74
464.048	338.58
464.485	342.92
464.922	339.64
465.359	336.9
465.796	338.44
466.233	337.95
466.67	335.82
467.106	336.87
467.543	332.07
467.98	327.35
468.416	317.14
468.853	312.77
469.29	302.63
469.726	298.58
470.162	291.24
470.599	283.25
471.035	280.43
471.471	273.54
471.907	270.1
472.344	270.05
472.78	271.52
473.216	273.89
473.652	271.69
474.088	270.02
474.523	270.09
474.959	273.02
475.395	270.31
475.831	268.3
476.266	270.12
476.702	269.51
477.138	266.66
477.573	265.17
478.008	265.24
478.444	265.86
478.879	269.9
479.314	270.61
479.75	269.33
480.185	270.3
480.62	272.24
481.055	272.47
481.49	274.3
481.925	278.31
482.36	284.58
482.795	291.36
483.229	298.72
483.664	304.22
484.099	305.32
484.534	310.98
484.968	313.9
485.403	314.74
485.837	314.69
486.271	314.59
486.706	314.58
487.14	310.08
487.574	307.23
488.009	305.82
488.443	304.03
488.877	308.29
489.311	309.6
489.745	314.45
490.179	319.15
490.613	327.57
491.046	330.83
491.48	334.48
491.914	337.59
492.348	339.5
492.781	342.5
493.215	344.03
493.648	345.97
494.082	350.31
494.515	352.39
494.948	358.35
495.382	361.06
495.815	366.08
496.248	371.73
496.681	379.48
497.114	388.44
497.547	396.51
497.98	407.44
498.413	414.3
498.846	422.44
499.279	429.53
499.711	434.86
500.144	440.58
500.577	450.43
501.009	459.6
501.442	469.51
501.874	475.16
502.306	480.49
502.739	490.1
503.171	502.29
503.603	508.35
504.036	518.56
504.468	527.27
504.9	538.63
505.332	547.02
505.764	554.61
506.196	563.43
506.627	577
507.059	590.48
507.491	600.26
507.923	604.72
508.354	619.96
508.786	633
509.217	649
509.649	664.43
510.08	682.12
510.512	699.32
510.943	715.37
511.374	728.99
511.805	748.28
512.237	766.98
512.668	794.94
513.099	819.9
513.53	844.39
513.961	864.75
514.391	892.66
514.822	922.82
515.253	954.13
515.684	977.55
516.114	1004.94
516.545	1026.75
516.975	1051.25
517.406	1070.09
517.836	1077.71
518.267	1088.38
518.697	1107.51
519.127	1116.25
519.558	1126.61
519.988	1133.53
520.418	1146.36
520.848	1163.91
521.278	1174.84
521.708	1200.35
522.138	1214.11
522.567	1241.49
522.997	1264
523.427	1279.52
523.857	1295.99
524.286	1307.28
524.716	1322.72
525.145	1341.1
525.575	1353.61
526.004	1368.66
526.433	1359.21
526.863	1361.92
527.292	1356.43
527.721	1364.46
528.15	1372.03
528.579	1374.66
529.008	1386.36
529.437	1406.37
529.866	1418.07
530.295	1432.02
530.724	1443.48
531.152	1467.32
531.581	1481.22
532.01	1497.8
532.438	1505.29
532.867	1518.43
533.295	1535.77
533.723	1540.78
534.152	1540.19
534.58	1542.39
535.008	1531.38
535.436	1533.48
535.865	1541.42
536.293	1553.17
536.721	1567.09
537.149	1588.84
537.576	1592.12
538.004	1602.6
538.432	1610.37
538.86	1610.83
539.287	1616.62
539.715	1628.54
540.143	1631.09
540.57	1627.91
540.998	1624.98
541.425	1605.62
541.852	1589.03
542.28	1587.13
542.707	1573.38
543.134	1561.49
543.561	1556.83
543.988	1550.91
544.415	1550.37
544.842	1546.3
545.269	1539.91
545.696	1542.21
546.123	1552.65
546.549	1543.23
546.976	1533.68
547.403	1532.89
547.829	1533.8
548.256	1536.34
548.682	1533.68
549.108	1527.3
549.535	1524.95
549.961	1526.39
550.387	1513.86
550.813	1509.9
551.24	1515.44
551.666	1515.49
552.092	1507.62
552.518	1502.4
552.943	1497.17
553.369	1503.13
553.795	1506.88
554.221	1509.06
554.646	1505.73
555.072	1515.96
555.498	1517.95
555.923	1525.18
556.349	1536.46
556.774	1543.42
557.199	1543.68
557.625	1547.46
558.05	1541.43
558.475	1550.09
558.9	1548.65
559.325	1541.19
559.75	1533.92
560.175	1528.76
560.6	1522.2
561.025	1519.67
561.449	1518.37
561.874	1522.21
562.299	1525.17
562.723	1530.17
563.148	1519.66
563.572	1521.51
563.997	1528.55
564.421	1532.23
564.846	1531.44
565.27	1533.13
565.694	1529.17
566.118	1537.81
566.542	1542.48
566.966	1535.75
567.39	1529.87
567.814	1520.5
568.238	1518.23
568.662	1520.02
569.086	1520.91
569.509	1525.63
569.933	1511.48
570.357	1504.16
570.78	1485.33
571.204	1472.99
571.627	1462.91
572.05	1459.71
572.474	1457.37
572.897	1445.57
573.32	1439.4
573.743	1429.03
574.166	1412.03
574.589	1409.76
575.012	1401.02
575.435	1398.44
575.858	1388.61
576.281	1377.19
576.704	1362.41
577.126	1349.26
577.549	1338.45
577.972	1326.49
578.394	1315.76
578.817	1308.31
579.239	1292.08
579.661	1280.12
580.084	1265.69
580.506	1253.55
580.928	1248.53
581.35	1238.49
581.772	1234.54
582.194	1222.29
582.616	1212.07
583.038	1198.82
583.46	1187.8
583.882	1183.22
584.303	1185.02
584.725	1180.38
585.147	1181.72
585.568	1188.87
585.99	1197.48
586.411	1201.57
586.833	1211.6
587.254	1211.12
587.675	1222.95
588.096	1233.05
588.518	1229.02
588.939	1215.15
589.36	1212.32
589.781	1202.07
590.202	1179.73
590.623	1171.49
591.043	1168.18
591.464	1157.84
591.885	1155.2
592.305	1148.9
592.726	1136.95
593.147	1136.77
593.567	1133.36
593.987	1126.68
594.408	1121.69
594.828	1119.05
595.248	1114.83
595.669	1101.01
596.089	1095.09
596.509	1088.44
596.929	1077.83
597.349	1076.96
597.769	1068.82
598.189	1061.88
598.608	1062.49
599.028	1064.32
599.448	1063.26
599.867	1052.57
600.287	1048.28
600.706	1045.06
601.126	1037.79
601.545	1036.25
601.965	1035.66
602.384	1030.33
602.803	1031.81
603.222	1027.8
603.641	1021.56
604.061	1017.88
604.48	1013.37
604.898	1018.2
605.317	1020.22
605.736	1021.02
606.155	1018.31
606.574	1010.63
606.992	1013.58
607.411	1008.97
607.829	1001.43
608.248	997.65
608.666	995.26
609.085	993.22
609.503	985.99
609.921	979.34
610.339	979.34
610.758	976.06
611.176	970.71
611.594	962.27
612.012	958.32
612.43	959.44
612.847	962.56
613.265	961.1
613.683	963.1
614.101	962.67
614.518	958.22
614.936	948.83
615.353	937.4
615.771	933.1
616.188	931.72
616.606	926.73
617.023	919.92
617.44	908.25
617.857	900.75
618.274	893.52
618.691	888.28
619.108	880.74
619.525	875.41
619.942	878.7
620.359	880.08
620.776	875.6
621.192	872.91
621.609	870.43
622.026	874.8
622.442	879.05
622.859	879.9
623.275	872.81
623.691	876.42
624.108	883.45
624.524	893.21
624.94	893.16
625.356	900.56
625.772	909.31
626.188	917.07
626.604	917.03
627.02	912.98
627.436	912.2
627.852	917.77
628.268	926.41
628.683	919.61
629.099	913.93
629.514	909.55
629.93	911.46
630.345	914.5
630.761	910.64
631.176	913.01
631.591	910.87
632.007	905.52
632.422	902.4
632.837	893.3
633.252	890.58
633.667	881.65
634.082	874.14
634.497	863.68
634.911	848.93
635.326	844.69
635.741	830.92
636.155	821.15
636.57	820.26
636.984	818.48
637.399	818.3
637.813	815.54
638.228	812.37
638.642	811.93
639.056	802.41
639.47	799.71
639.884	792.75
640.298	786.28
640.712	783.21
641.126	772.26
641.54	763.39
641.954	755.6
642.368	745.66
642.781	737.77
643.195	724.82
643.609	722.19
644.022	714.49
644.436	707.89
644.849	697.19
645.262	685.92
645.676	683.17
646.089	677.3
646.502	665.9
646.915	659.3
647.328	647.14
647.741	642.83
648.154	631.88
648.567	629.59
648.98	619.69
649.393	617.84
649.805	613.09
650.218	607.04
650.631	596.66
651.043	591.44
651.456	586.47
651.868	583.46
652.28	591.63
652.693	598.55
653.105	599.22
653.517	603.06
653.929	601.08
654.341	602.4
654.753	594.1
655.165	594.72
655.577	590.9
655.989	585.39
656.401	577.93
656.813	554.95
657.224	541.1
657.636	521.69
658.047	509.61
658.459	496.33
658.87	488.25
659.282	478.6
659.693	465.72
660.104	455.09
660.515	444.91
660.926	441.24
661.338	436.76
661.749	429.94
662.159	423.06
662.57	417.07
662.981	412.1
663.392	406.31
663.803	405.53
664.213	400.82
664.624	394.84
665.035	394.2
665.445	385.59
665.855	380.53
666.266	375.57
666.676	372.22
667.086	365.81
667.497	363.49
667.907	359.35
668.317	353.47
668.727	353.03
669.137	351.47
669.547	349.21
669.956	349.3
670.366	349.38
670.776	350.01
671.186	351.71
671.595	353.5
672.005	354.06
672.414	353.58
672.824	353.7
673.233	352.31
673.642	355.95
674.052	357.94
674.461	360.41
674.87	362.01
675.279	360.85
675.688	361.05
676.097	362.48
676.506	362.14
676.915	369.32
677.323	371.42
677.732	371.98
678.141	371.6
678.549	367.15
678.958	367.23
679.366	367.91
679.775	370.49
680.183	378.59
680.592	383.32
681	388.35
681.408	387.05
681.816	392.13
682.224	399.39
682.632	408.04
683.04	427.27
683.448	442.58
683.856	463.13
684.264	486.79
684.671	507.66
685.079	533.1
685.487	562.74
685.894	602.25
686.302	636.9
686.709	668.06
687.116	704.24
687.524	736.18
687.931	767.66
688.338	796.83
688.745	822.42
689.152	850.74
689.559	886.77
689.966	922.62
690.373	947.6
690.78	984.49
691.187	1035.05
691.593	1076.31
692	1114.32
692.407	1165.5
692.813	1227.77
693.22	1279.86
693.626	1332.22
694.032	1378.41
694.439	1442.32
694.845	1494.54
695.251	1559.06
695.657	1617.79
696.063	1700.67
696.469	1764.18
696.875	1824.52
697.281	1861.64
697.687	1906.83
698.093	1947.89
698.498	2015.98
698.904	2070.05
699.31	2149.15
699.715	2207.25
700.12	2286.56
700.526	2310.47
700.931	2373.79
701.337	2425.78
701.742	2463.24
702.147	2538.74
702.552	2573.15
702.957	2628.55
703.362	2655.14
703.767	2686.39
704.172	2726.43
704.577	2697.64
704.981	2745.71
705.386	2768.1
705.791	2770.33
706.195	2838.92
706.6	2855.14
707.004	2928.83
707.408	2910.7
707.813	2938.96
708.217	2934.26
708.621	2943.5
709.025	3032.95
709.43	3039.39
709.834	3096.16
710.237	3160.97
710.641	3153.71
711.045	3177.66
711.449	3178.28
711.853	3209.7
712.256	3251.69
712.66	3292.24
713.064	3362.75
713.467	3403.05
713.87	3503.62
714.274	3549.62
714.677	3649.4
715.08	3795.58
715.484	3947.31
715.887	4128.01
716.29	4306.94
716.693	4491.11
717.096	4699.42
717.499	4817.98
717.901	4846.6
718.304	4875.41
718.707	4900.33
719.109	4813.24
719.512	4787.8
719.915	4671.27
720.317	4626.74
720.719	4668.52
721.122	4648.89
721.524	4612.15
721.926	4578.81
722.328	4670.3
722.731	4664.66
723.133	4693.82
723.535	4867.57
723.937	4888.78
724.338	4939.38
724.74	4978.76
725.142	4929.37
725.544	4932.35
725.945	4959.54
726.347	4959.28
726.748	4954.21
727.15	4968.85
727.551	4937.8
727.952	4916.66
728.354	4895.76
728.755	4898.03
729.156	4862.08
729.557	4848.98
729.958	4739.92
730.359	4689.82
730.76	4676.35
731.161	4625.99
731.562	4605.21
731.962	4607.31
732.363	4550.51
732.763	4495.33
733.164	4529.43
733.564	4470.71
733.965	4387.56
734.365	4360.33
734.766	4386.88
735.166	4352.29
735.566	4303.1
735.966	4282.38
736.366	4281.38
736.766	4227.9
737.166	4256.03
737.566	4219.71
737.966	4199.38
738.365	4236.03
738.765	4232.1
739.165	4168.92
739.564	4147.54
739.964	4190.81
740.363	4149.26
740.763	4146.3
741.162	4137.49
741.561	4110.65
741.96	4070.03
742.36	4089.5
742.759	4093.28
743.158	4125.7
743.557	4136.97
743.955	4171.6
744.354	4128.38
744.753	4180.62
745.152	4146.19
745.55	4195.05
745.949	4189.3
746.348	4191.55
746.746	4202.94
747.144	4167.44
747.543	4149.11
747.941	4192.33
748.339	4130.69
748.737	4124.84
749.136	4116.18
749.534	4170.99
749.932	4146.18
750.33	4164.47
750.727	4212.96
751.125	4193.65
751.523	4179.54
751.921	4217.31
752.318	4187.33
752.716	4239.41
753.113	4251.81
753.511	4273.92
753.908	4274.78
754.305	4259.33
754.703	4315.25
755.1	4370.8
755.497	4423.43
755.894	4592.61
756.291	4749.72
756.688	5041.41
757.085	5427.84
757.482	5971.46
757.878	6568.7
758.275	7109.01
758.672	7853.27
759.068	8456.09
759.465	9313.29
759.861	10422.89
760.258	11710.97
760.654	12377.67
761.05	12280.09
761.447	11720.17
761.843	10917.24
762.239	10081.59
762.635	9706.71
763.031	9342.67
763.427	8820.63
763.822	8276.6
764.218	7733.99
764.614	7029.93
765.01	6560.64
765.405	6257.72
765.801	6028.89
766.196	5733.48
766.592	5568.68
766.987	5288.9
767.382	5099.76
767.778	5021.63
768.173	4905.07
768.568	4840.06
768.963	4730.9
769.358	4745.94
769.753	4703.71
770.148	4629.09
770.542	4627.29
770.937	4600.11
771.332	4679.75
771.726	4697.94
772.121	4643.06
772.515	4692.25
772.91	4680.52
773.304	4739.55
773.699	4683.06
774.093	4730.43
774.487	4778.17
774.881	4817.71
775.275	4816.02
775.669	4779
776.063	4817.09
776.457	4845.05
776.851	4778.26
777.245	4773.14
777.638	4805.83
778.032	4905.71
778.425	4871.78
778.819	4912.36
779.212	4873.45
779.606	4835.24
779.999	4853.4
780.392	4841.21
780.786	4915.76
781.179	4932.92
781.572	4969.58
781.965	4980.38
782.358	4930.59
782.751	4979.8
783.143	4932.28
783.536	4996.71
783.929	5035.84
784.322	5138.01
784.714	5161.21
785.107	5158.97
785.499	5221.93
785.891	5200.08
786.284	5178.63
786.676	5302.32
787.068	5285.84
787.46	5332.98
787.852	5348.06
788.245	5422.1
788.636	5443.08
789.028	5504.04
789.42	5536.16
789.812	5543.37
790.204	5628.7
790.595	5717.1
790.987	5546.22
791.378	5567.02
791.77	5680.82
792.161	5798.86
792.553	5844.92
792.944	5752.29
793.335	5690.86
793.726	5757.56
794.117	5838.74
794.508	5959.15
794.899	5935.68
795.29	6057.91
795.681	6107.26
796.072	5983.72
796.463	5825.34
796.853	5837.37
797.244	5975.06
797.634	6006.14
798.025	6004.08
798.415	6013.59
798.806	6092.78
799.196	6167.39
799.586	6211.42
799.976	6180.25
800.366	6381.73
800.756	6592.56
801.146	6558.71
801.536	6585.18
801.926	6648.79
802.316	6669.22
802.706	6731.54
803.095	6622.5
803.485	6709.57
803.874	6745.54
804.264	6971.14
804.653	6953.57
805.043	7080.82
805.432	7175.95
805.821	7174.11
806.21	7193.75
806.599	7300.96
806.988	7343.85
807.377	7435.73
807.766	7551.25
808.155	7799.02
808.544	7569.07
808.933	7577.8
809.321	7558.25
809.71	7815.39
810.098	7956.52
810.487	8362.91
810.875	8788.52
811.264	8806.28
811.652	9070.04
812.04	9201.4
812.428	9348.57
812.816	10015.88
813.204	10378.34
813.592	10865.96
813.98	11164.26
814.368	11082.56
814.756	11499.96
815.144	11426.15
815.531	11831.78
815.919	11754.65
816.306	12019.34
816.694	11745.51
817.081	11792.13
817.469	12094.01
817.856	12089.75
818.243	12323.73
818.63	12660.92
819.017	12293.25
819.404	12345.36
819.791	12677.87
820.178	13219.46
820.565	13439.61
820.952	14259.71
821.339	13828.13
821.725	13995.94
822.112	13342.79
822.498	13310.95
822.885	13430.22
823.271	13356.15
823.657	13724.57
824.044	13731.1
824.43	13797.84
824.816	13759.28
825.202	13374.45
825.588	14273.21
825.974	14288.16
826.36	14741.89
826.746	14763.57
827.132	15080.3
827.517	15048.23
827.903	14351.93
828.289	14396.46
828.674	13712.36
829.06	13634.66
829.445	13985.07
829.83	14297.62
830.216	14717.39
830.601	15047.22
830.986	14696.15
831.371	14574.64
831.756	15071.77
832.141	14701.53
832.526	14689.24
832.911	14939.22
833.295	14833.65
833.68	15241.55
834.065	14701.19
834.449	13901.84
834.834	13836.49
835.218	13831.95
835.603	14135.69
835.987	13944.73
836.371	14680.41
836.755	14599.87
837.139	14956.31
837.524	15176.68
837.908	15024.76
838.291	15078.97
838.675	15145.47
839.059	15327.84
839.443	15322.39
839.827	15116.08
840.21	15548.64
840.594	15422.61
840.977	15605.82
841.361	15587.85
841.744	15914.87
842.127	15783.95
842.511	15999.25
842.894	16523.51
843.277	16863.35
843.66	17352.27
844.043	17437.22
844.426	16730.11
844.809	16449.85
845.191	16474.58
845.574	16072.42
845.957	15751.72
846.339	15649.83
846.722	15188.83
847.104	15250.73
847.487	15095.58
847.869	15089.7
848.252	15330.84
848.634	15614.51
849.016	15852.32
849.398	15961.09
849.78	16707.24
850.162	16714.21
850.544	17087.36
850.926	17637.34
851.307	17546.74
851.689	17792.26
852.071	18199.35
852.452	18479.62
852.834	18459.3
853.215	18805.59
853.597	18936.41
853.978	19192.27
854.359	19588.93
854.741	18711.05
855.122	18627.79
855.503	18386.13
855.884	18512.92
856.265	18459.02
856.646	18556.5
857.026	18211.36
857.407	18154.74
857.788	18292.51
858.169	18548.7
858.549	17801.54
858.93	18337.87
859.31	18374.79
859.69	18547.5
860.071	18187.19
860.451	17995.34
860.831	17345.12
861.211	18362.17
861.591	18851.34
861.971	18825.32
862.351	18992.59
862.731	19326.2
863.111	19570.69
863.491	19856.14
863.87	20623.76
864.25	20927.14
864.629	20575.98
865.009	21027.25
865.388	21774.64
865.768	23316.43
866.147	23210.06
866.526	21921.74
866.905	22190.38
867.284	23429.06
867.663	22250.22
868.042	21331.24
868.421	21262.75
868.8	21615.25
869.179	21819.63
869.558	20544.57
869.936	18941.74
870.315	19290.34
870.693	19759.05
871.072	21307.23
871.45	20296.54
871.828	20563.61
872.207	21621.49
872.585	21285.5
872.963	21857.51
873.341	21105.79
873.719	20861.74
874.097	20609.67
874.475	21006.16
874.853	21490.79
875.23	20599.26
875.608	21458.28
875.986	23213.38
876.363	22196.41
876.741	22890.16
877.118	22316.36
877.495	23415.27
877.873	23795.96
878.25	25049.53
878.627	24033.57
879.004	24375.07
879.381	24258.83
879.758	23631.63
880.135	21999.77
880.512	23262.94
880.889	22644.66
881.265	22419.01
881.642	22252.26
882.019	22641.64
882.395	22179.43
882.772	23063.77
883.148	22066.71
883.524	21978.94
883.901	21846.37
884.277	22175.01
884.653	22048.31
885.029	22678.76
885.405	25114.68
885.781	24922.84
886.157	23904.9
886.532	24201.63
886.908	24188.02
887.284	26892
887.659	27768.34
888.035	28644.66
888.411	29381.68
888.786	29763.34
889.161	30799.96
889.537	30241.31
889.912	31209.59
890.287	31186.96
890.662	31987.16
891.037	31420.23
891.412	29300.51
891.787	29016.81
892.162	28014.33
892.536	28669.99
892.911	27589.09
893.286	27002.87
893.66	25914.56
894.035	26559.53
894.409	28910.21
894.784	27757.46
895.158	28219.38
895.532	29872.43
895.906	30672.16
896.281	31378.85
896.655	30879.89
897.029	35282.72
897.402	36742.47
897.776	40889.21
898.15	40752.75
898.524	40324.77
898.898	40848.25
899.271	45701.45
899.645	39606.42
900.018	38064.51
900.392	39481.19
900.765	39780.96
901.138	36821.85
901.511	36260.24
901.884	33303.11
902.258	30739.32
902.631	31748.82
903.003	36518.51
903.376	32952.04
903.749	36961.38
904.122	39554.07
904.495	43548.41
904.867	44103.62
905.24	38275.38
905.612	35653.18
905.985	36443.4
906.357	38090.69
906.729	36358.12
907.102	31066.8
907.474	29883.53
907.846	30072.5
908.218	29672.66
908.59	26216.3
908.962	25351.66
909.334	27301.59
909.705	28659.45
910.077	27819.93
910.449	28947.84
910.82	29749.98
911.192	32723.47
911.563	34002.14
911.935	36365.86
912.306	36399.06
912.677	37578.78
913.048	37211.72
913.419	40386.24
913.79	40632.67
914.161	43573.33
914.532	41640.02
914.903	38276.26
915.274	36353.29
915.645	35840.23
916.015	31552.91
916.386	30090.45
916.756	32009.52
917.127	33021.26
917.497	29492.12
917.868	32082.74
918.238	30491.54
918.608	31381.65
918.978	32021.81
919.348	33927.79
919.718	35011.66
920.088	33727.03
920.458	35042.48
920.828	36891.75
921.198	34988.75
921.567	37393.98
921.937	28973.03
922.306	29250.02
922.676	31549.47
923.045	26321.17
923.415	25016.14
923.784	22799.18
924.153	23439.86
924.522	23425.99
924.891	22026.43
925.26	23583.59
925.629	23023.14
925.998	26463.82
926.367	25832.51
926.736	24594.02
927.104	29309.32
927.473	31495.41
927.842	38043.7
928.21	37695.54
928.578	39631.74
928.947	37500.73
929.315	37753.92
929.683	44301.05
930.051	44664.86
930.42	51888.63
930.788	44361.38
931.156	44010.51
931.523	41270.04
931.891	38122.35
932.259	36617.83
932.627	42421.28
932.994	59993.21
933.362	49579.48
933.729	43028.11
934.097	41170.45
934.464	34847.35
934.831	40179.05
935.199	39605.39
935.566	38393.7
935.933	38882.17
936.3	47070.84
936.667	36659.78
937.034	33119.36
937.401	32764.73
937.767	28292.22
938.134	25212.91
938.501	35565.36
938.867	37944.66
939.234	64180
939.6	54734.22
939.967	60409.38
940.333	40464.22
940.699	34413.17
941.065	27569.83
941.431	36116.53
941.798	34813.49
942.163	45666.63
942.529	28546.21
942.895	26276.54
943.261	17004.78
943.627	22316.94
943.992	19522.98
944.358	19549
944.723	19619.78
945.089	19114.58
945.454	17657.04
945.82	18869.92
946.185	18121.36
946.55	20970.72
946.915	18819.2
947.28	22064.15
947.645	19442.01
948.01	17954.04
948.375	18719.14
948.74	22471.85
949.104	26218.43
949.469	37853.81
949.834	66796.87
950.198	63374.45
950.562	37956.23
950.927	31633.88
951.291	38085.28
951.655	32415.16
952.02	30436.28
952.384	23017.46
952.748	20033.52
953.112	19538
953.476	16996.31
953.839	15747.61
954.203	15597.42
954.567	19517.64
954.931	30694.44
955.294	26270.29
955.658	26437.11
956.021	44997.65
956.385	76355.33
956.748	112725.66
957.111	174980.65
957.474	196514.15
957.837	221179.77
958.2	167499
958.563	60276.07
958.926	40823.43
959.289	61890.69
959.652	69148.13
960.015	51844.37
960.377	74295.98
960.74	84794.21
961.102	146248.31
961.465	157029.38
961.827	84132.51
962.189	161249.92
962.552	111831.37
962.914	89477.85
963.276	58092.85
963.638	48006.16
964	47517.35
964.362	32156.41
964.724	31067.55
965.085	22166
965.447	18179.33
965.809	20699.15
966.17	20710.91
966.532	22390.98
966.893	20564.7
967.255	18732.76
967.616	22088.79
967.977	17692.37
968.338	19302.1
968.699	15868.25
969.061	15877.06
969.421	15980.33
969.782	17938.19
970.143	15163.69
970.504	15722.8
970.865	17885.31
971.225	18267.75
971.586	17909.73
971.946	25529.81
972.307	22169.13
972.667	28990.45
973.027	29832.07
973.388	36164.36
973.748	24580.9
974.108	26788.54
974.468	36210.96
974.828	27900.05
975.188	21462.86
975.548	19716.43
975.907	16576.51
976.267	18602.68
976.627	15613.63
976.986	16184.41
977.346	15444.24
977.705	14871.74
978.064	13536.87
978.424	11276.44
978.783	11671.76
979.142	13317.55
979.501	12736.06
979.86	13444.68
980.219	12957.11
980.578	16727.61
980.937	18742.14
981.296	16666.36
981.654	17176.16
982.013	26747.47
982.371	34697.58
982.73	32408.2
983.088	36713.9
983.447	39212.84
983.805	56125.94
984.163	117468.1
984.521	130391.82
984.879	191090.62
985.237	-311328.72
985.595	299514.9
985.953	74377.62
986.311	42946.66
986.669	24921.43
987.026	21522.29
987.384	28926.8
987.741	29940.81
988.099	21371.55
988.456	17038.22
988.814	15959.6
989.171	13888.04
989.528	13700.06
989.885	14468.91
990.242	11466.93
990.599	14286.51
990.956	11682.44
991.313	8184.22
991.67	6707.26
992.027	7117.7
992.383	6328.48
992.74	5550.39
993.096	5827.1
993.453	6047.93
993.809	6282.09
994.165	8378.23
994.522	7678.88
994.878	8469.95
995.234	10629.26
995.59	10485.58
995.946	9913.56
996.302	11297.42
996.658	13038.51
997.013	14316.87
997.369	16991.81
997.725	21738.07
998.08	14030.46
998.436	21627.06
998.791	29853.1
999.147	29740.02
999.502	32480.27
999.857	23581.89
1000.212	38447.43
1000.567	54892.91
1000.922	31765.11
1001.277	20186.05
1001.632	14945.06
1001.987	19309.86
1002.342	13861.77
1002.696	11088.18
1003.051	8875.02
1003.406	10737.04
1003.76	10702.2
1004.114	10562.38
1004.469	8873.53
1004.823	7355.75
1005.177	7931.42
1005.531	6289.88
1005.885	5573.39
1006.239	6280.43
1006.593	7865.37
1006.947	10484.93
1007.301	7867.86
1007.655	8579.3
1008.008	6306.72
1008.362	7078.77
1008.715	10096.49
1009.069	9148.89
1009.422	13725.91
1009.776	27486.64
1010.129	18247.34
1010.482	15207.03
1010.835	12876.23
1011.188	26782.57
1011.541	25217.37
1011.894	-153643.78
1012.247	452378.73
1012.6	30703.5
1012.952	19401.58
1013.305	10012.67
1013.657	7246.92
1014.01	6857.17
1014.362	5665
1014.715	5036.54
1015.067	4391.87
1015.419	4301.59
1015.771	3816.18
1016.123	3401.51
1016.475	3490.97
1016.827	3715.82
1017.179	4016.44
1017.531	4043.85
1017.883	4133.87
1018.234	4004.43
1018.586	5051.53
1018.938	5344.92
1019.289	7365.58
1019.64	8426.95
1019.992	7864.49
1020.343	7251.27
1020.694	5746.83
1021.045	5074.68
1021.396	5763.53
1021.747	6196.89
1022.098	7431.55
1022.449	5400.9
1022.8	5002.99
1023.151	3491.38
1023.501	3089.11
1023.852	3341.97
1024.202	3452.84
1024.553	3778.31
1024.903	3697.51
1025.253	3178.33
1025.604	2860.36
1025.954	3543.47
1026.304	4327.72
1026.654	5053.06
1027.004	7390.79
1027.354	11951.09
1027.703	11320.3
1028.053	14898.66
1028.403	21660.79
1028.753	31418.84
1029.102	42946.07
1029.452	221412.47
1029.801	9610.57
1030.15	6192.44
1030.499	5268.94
897.758	2404.67
901.051	2344.52
904.343	2380.9
907.636	2385.76
910.928	2447.54
914.22	2362.3
917.511	2368.97
920.803	2421.42
924.094	2429.99
927.384	2421.21
930.675	2386.6
933.965	2345.17
937.255	2368.72
940.544	2330.02
943.834	2308.7
947.123	2244.87
950.411	2336.36
953.7	2311.55
956.988	2288.41
960.276	2229.62
963.563	2291.81
966.851	2295.9
970.138	2343.99
973.424	2339.07
976.711	2297.09
979.997	2375.26
983.283	2421.69
986.568	2341.83
989.853	2345.06
993.138	2371.35
996.423	2452.55
999.708	2400.47
1002.992	2441.72
1006.275	2326.26
1009.559	2345.88
1012.842	2450.34
1016.125	2395.29
1019.408	2375.01
1022.69	2443.27
1025.972	2470.15
1029.254	2443.92
1032.536	2391.32
1035.817	2410.95
1039.098	2372.57
1042.379	2463.29
1045.659	2483.18
1048.939	2421.95
1052.219	2435.56
1055.498	2437.33
1058.778	2429.67
1062.057	2408.97
1065.335	2433.34
1068.614	2449.41
1071.892	2437.31
1075.17	2501.66
1078.447	2494.48
1081.724	2488.56
1085.001	2521.06
1088.278	2496.83
1091.554	2506.23
1094.83	2500.73
1098.106	2531.44
1101.382	2568.58
1104.657	2568.36
1107.932	2567.18
1111.206	2537.35
1114.481	2495.51
1117.755	2494.76
1121.029	2480.81
1124.302	2536.48
1127.575	2496
1130.848	2489.88
1134.121	2457.62
1137.393	2412.57
1140.665	2473.85
1143.937	2451.81
1147.208	2407.18
1150.48	2454.38
1153.75	2442.77
1157.021	2463.1
1160.291	2434.7
1163.561	2485.81
1166.831	2464.9
1170.101	2491.54
1173.37	2460.46
1176.639	2411.03
1179.907	2462.26
1183.176	2478.14
1186.444	2480.76
1189.711	2509.55
1192.979	2523.93
1196.246	2481.41
1199.513	2494.22
1202.78	2496.29
1206.046	2506.63
1209.312	2533.38
1212.578	2554.81
1215.843	2514.1
1219.108	2484.63
1222.373	2510.87
1225.638	2476.54
1228.902	2465.49
1232.166	2428.07
1235.43	2413.89
1238.693	2435.36
1241.956	2430.74
1245.219	2473.89
1248.482	2459.81
1251.744	2457.09
1255.006	2590.41
1258.268	2540.48
1261.529	2491.86
1264.79	2495.59
1268.051	2597.61
1271.312	2609.71
1274.572	2576.28
1277.832	2564.24
1281.092	2549.1
1284.351	2533.09
1287.61	2514.22
1290.869	2441.57
1294.128	2430.63
1297.386	2496.51
1300.644	2485.95
1303.902	2496.07
1307.159	2361.27
1310.416	2414.94
1313.673	2440.97
1316.93	2433.32
1320.186	2469.41
1323.442	2507.82
1326.697	2503.32
1329.953	2483.99
1333.208	2513.54
1336.463	2492.94
1339.717	2442.4
1342.972	2564.09
1346.226	2537.32
1349.479	2479.12
1352.733	2455.55
1355.986	2472.02
1359.238	2450.85
1362.491	2453.42
1365.743	2455.37
1368.995	2451.41
1372.247	2463.89
1375.498	2485.25
1378.749	2511.32
1382	2469.03
1385.251	2514.26
1388.501	2471.48
1391.751	2462.31
1395	2428.95
1398.25	2459.33
1401.499	2477.22
1404.748	2414.01
1407.996	2397.54
1411.244	2385.2
1414.492	2367.41
1417.74	2349.22
1420.987	2354.11
1424.234	2411.68
1427.481	2384.14
1430.728	2441.2
1433.974	2416.63
1437.22	2421.49
1440.465	2419.31
1443.711	2401.78
1446.956	2429.86
1450.201	2414.32
1453.445	2451.95
1456.689	2436.32
1459.933	2448.26
1463.177	2482.29
1466.42	2457.58
1469.663	2438.03
1472.906	2441.35
1476.148	2500.14
1479.391	2492.18
1482.633	2463.45
1485.874	2475.73
1489.115	2475.54
1492.356	2470.2
1495.597	2446.99
1498.838	2445.24
1502.078	2422.33
1505.318	2384.46
1508.557	2422.42
1511.797	2411.63
1515.036	2441.24
1518.274	2425.53
1521.513	2390.72
1524.751	2408.66
1527.989	2425.4
1531.227	2441.48
1534.464	2443.77
1537.701	2450.25
1540.938	2464.85
1544.174	2416.68
1547.41	2411.44
1550.646	2449.23
1553.882	2492.51
1557.117	2544.71
1560.352	2555.77
1563.587	2516.54
1566.821	2479.43
1570.055	2506.41
1573.289	2481.31
1576.523	2547.1
1579.756	2556.63
1582.989	2576.09
1586.222	2538.61
1589.454	2570.22
1592.686	2550.59
1595.918	2576.49
1599.15	2569.61
1602.381	2630.31
1605.612	2598.45
1608.843	2695.93
1612.073	2613.81
1615.303	2600.15
1618.533	2595.03
1621.762	2595.4
1624.992	2577.05
1628.221	2572.81
1631.449	2559.08
1634.678	2599.23
1637.906	2560.07
1641.134	2593.02
1644.361	2553.03
1647.588	2541.95
1650.815	2561.17
1654.042	2532.59
1657.269	2557.88
1660.495	2525.1
1663.72	2529.82
1666.946	2496.99
1670.171	2456.53
1673.396	2429.53
1676.621	2414.83
1679.845	2425.02
1683.069	2439.34
1686.293	2473.39
1689.517	2456.27
1692.74	2399.83
1695.963	2423.37
1699.185	2450.93
1702.408	2424.1
1705.63	2461.43
1708.852	2474.76
1712.073	2448.17
1715.294	2444.35
1718.515	2498.02
1721.736	2452.33
1724.956	2437.42
1728.176	2461.23
1731.396	2484.03
1734.616	2470.58
1737.835	2503.97
1741.054	2476.18
1744.272	2471.74
1747.491	2504.81
1750.709	2542.36
1753.927	2468.85
1757.144	2504.09
1760.361	2553.22
1763.578	2538.55
1766.795	2483.41
1770.011	2482.67
1773.227	2515.41
1776.443	2553.8
1779.658	2596.86
1782.874	2539.62
1786.089	2526.02
1789.303	2527.88
1792.518	2530.07
1795.732	2516.52
1798.945	2528.62
1802.159	2575.17
1805.372	2496.35
1808.585	2484.83
1811.797	2486.46
1815.01	2520.76
1818.222	2533.1
1821.434	2503.93
1824.645	2554.17
1827.856	2552.26
1831.067	2585.75
1834.278	2532.03
1837.488	2517.73
1840.698	2651.49
1843.908	2586.49
1847.117	2551.8
1850.326	2458.52
1853.535	2540.2
1856.744	2564.1
1859.952	2483.15
1863.16	2484.19
1866.368	2502.68
1869.575	2609.67
1872.782	2496.09
1875.989	2431.34
1879.196	2495.84
1882.402	2488.53
1885.608	2525.8
1888.814	2446.6
1892.019	2351.92
1895.224	2404.01
1898.429	2376.36
1901.634	2357.77
1904.838	2333.66
1908.042	2383.1
1911.246	2398.11
1914.449	2347.72
1917.652	2333.89
1920.855	2317.27
1924.058	2354
1927.26	2394.14
1930.462	2418.73
1933.664	2449.99
1936.865	2392.38
1940.066	2405.78
1943.267	2352.37
1946.467	2361.89
1949.668	2384.53
1952.868	2455.15
1956.067	2438.37
1959.267	2377.51
1962.466	2402.63
1965.665	2386.17
1968.863	2383.87
1972.061	2389.02
1975.259	2383.3
1978.457	2459.98
1981.654	2420.67
1984.852	2423.77
1988.048	2366.83
1991.245	2362.4
1994.441	2446.19
1997.637	2416.46
2000.833	2398.11
2004.028	2434.8
2007.223	2496.1
2010.418	2479.16
2013.613	2436.75
2016.807	2418.28
2020.001	2417.42
2023.194	2452.06
2026.388	2429.8
2029.581	2375.61
2032.774	2433.22
2035.966	2444.29
2039.158	2382.96
2042.35	2403.13
2045.542	2330.77
2048.733	2420.45
2051.924	2428.15
2055.115	2449.89
2058.306	2403.41
2061.496	2461.94
2064.686	2518.19
2067.875	2427.48
2071.065	2432.69
2074.254	2455.03
2077.442	2410.26
2080.631	2496.22
2083.819	2408.41
2087.007	2395.09
2090.195	2375.28
2093.382	2398.68
2096.569	2381.36
2099.756	2340.12
2102.942	2377.88
2106.128	2387.92
2109.314	2379.1
2112.5	2354.42
2115.685	2327.08
2118.87	2335.71
2122.055	2400.87
2125.239	2373.23
2128.424	2355.3
2131.608	2435.17
2134.791	2418.31
2137.974	2464.56
2141.157	2452.64
2144.34	2413.91
2147.523	2417.03
2150.705	2436.36
2153.887	2410.37
2157.068	2370.63
2160.25	2362.11
2163.431	2391.76
2166.611	2349.67
2169.792	2366.86
2172.972	2271.27
2176.152	2335.23
2179.331	2365.43
2182.511	2355.92
2185.69	2383.06
2188.868	2381.64
2192.047	2426.19
2195.225	2428.67
2198.403	2382.94
2201.58	2370.85
2204.758	2363.26
2207.935	2441.24
2211.111	2342.36
2214.288	2331.45
2217.464	2368.47
2220.64	2329.24
2223.815	2381.19
2226.991	2311.44
2230.166	2327.57
2233.34	2360.08
2236.515	2378.66
2239.689	2448.84
2242.863	2395.61
2246.036	2451.69
2249.209	2442.44
2252.382	2467.92
2255.555	2468.85
2258.727	2413.36
2261.9	2444.6
2265.071	2437.49
2268.243	2437.79
2271.414	2379.47
2274.585	2349.72
2277.756	2414.37
2280.926	2369.16
2284.096	2404.61
2287.266	2326.22
2290.436	2374.97
2293.605	2401.54
2296.774	2434.33
2299.942	2445.37
2303.111	2464.56
2306.279	2513.87
2309.447	2499.01
2312.614	2472.29
2315.781	2495.22
2318.948	2469.68
2322.115	2504.41
2325.281	2407.51
2328.447	2419.09
2331.613	2392.16
2334.779	2375.95
2337.944	2373.86
2341.109	2375.41
2344.274	2364.45
2347.438	2328.24
2350.602	2350.94
2353.766	2363.47
2356.929	2352.8
2360.092	2391.85
2363.255	2351.77
2366.418	2303.9
2369.58	2392.21
2372.742	2226.38
2375.904	2230.57
2379.066	2208.7
2382.227	2238.47
2385.388	2202.95
2388.548	2140.83
2391.709	2188.78
2394.869	2171.52
2398.029	2247.45
2401.188	2253.47
2404.347	2202.06
2407.506	2308.19
2410.665	2341.19
2413.823	2338.01
2416.981	2309.83
2420.139	2332.41
2423.296	2377.29
2426.453	2348.78
2429.61	2373.23
2432.767	2327.56
2435.923	2363.61
2439.079	2321.08
2442.235	2361.34
2445.391	2296.36
2448.546	2332.17
2451.701	2373.1
2454.855	2357.37
2458.009	2395.77
2461.163	2390.95
2464.317	2355.77
2467.471	2384.4
2470.624	2418.33
2473.777	2398.59
2476.929	2414.33
2480.082	2439.9
2483.234	2407.7
2486.385	2354.95
2489.537	2348.5
2492.688	2328.14
2495.839	2344.62
2498.989	2358.59
2502.14	2343.95
2505.29	2332.24
2508.439	2356.22
2511.589	2289.12
2514.738	2293.29
2517.887	2320.63
2521.035	2390.16
2524.183	2364.03
2527.331	2344.96
2530.479	2331.53
2533.627	2337.08
