Data from N_2_DIV_OH_2N_Splice17_12-21-44-877.txt Node
Date: Sat Mar 14 12:21:44 EDT 2020
User: sa697716
Spectrometer: FLMS03696
Trigger mode: 0
Integration Time (sec): 3.180400E-1
Scans to average: 20
Electric dark correction enabled: true
Nonlinearity correction enabled: true
Boxcar width: 5
XAxis mode: Wavelengths
Number of Pixels in Spectrum: 2048
>>>>>Begin Spectral Data<<<<<
187.83	-359010.36
188.298	2462.5
188.766	1396.03
189.233	1219.32
189.701	1755.77
190.169	2358.54
190.636	883.53
191.104	740.61
191.571	140.7
192.039	8.63
192.506	9.15
192.974	401.93
193.441	-786.26
193.908	-101.36
194.375	-31.61
194.842	78.46
195.31	158.8
195.777	167.81
196.244	395.01
196.711	518.85
197.177	675.75
197.644	958.8
198.111	1642.19
198.578	2314.06
199.045	1864.2
199.511	3047.22
199.978	3547.68
200.445	2997.54
200.911	3325.19
201.378	3745.9
201.844	3373.38
202.31	5767.44
202.777	5999.44
203.243	3347.41
203.709	3186.16
204.176	3796.11
204.642	3147.47
205.108	2945.82
205.574	2411.9
206.04	2214.6
206.506	2068.89
206.972	1970.89
207.438	1899.59
207.903	2175.42
208.369	1893.97
208.835	1875.66
209.301	1955.15
209.766	1980.19
210.232	1949.52
210.697	2413.51
211.163	2989.89
211.628	4505.76
212.094	3745
212.559	4568.42
213.024	2823.04
213.49	3455.98
213.955	3368.51
214.42	3309.71
214.885	3086.33
215.35	2968.48
215.815	2843.05
216.28	2994.76
216.745	2424.6
217.21	2616.58
217.675	2379.58
218.14	2635.89
218.604	2901.78
219.069	3274.73
219.534	3376.13
219.998	3873.95
220.463	4645.75
220.927	5636.8
221.392	5246.77
221.856	5282.12
222.32	6585.22
222.785	8101.12
223.249	10165.61
223.713	11308.98
224.177	11287.39
224.642	14408.52
225.106	17720.7
225.57	19284.05
226.034	14329.6
226.497	21785.56
226.961	19666.82
227.425	22909.13
227.889	25377.93
228.353	25355.56
228.816	52225.88
229.28	49863.5
229.744	42099.51
230.207	25559.41
230.671	25120.72
231.134	41448.32
231.597	47762.17
232.061	47697.36
232.524	46475.43
232.987	32038.83
233.45	28801.79
233.914	25810.95
234.377	26458.72
234.84	24176.25
235.303	28477.74
235.766	31752.7
236.229	32806.96
236.691	20624.2
237.154	23134.88
237.617	17395.6
238.08	17783.69
238.542	20797.73
239.005	14874.98
239.468	14741.72
239.93	13893.57
240.393	12629.78
240.855	11089.04
241.317	11358.87
241.78	13822.9
242.242	14309.04
242.704	15439.77
243.166	13430.58
243.629	12196.1
244.091	14033.48
244.553	15363.81
245.015	16506.16
245.477	21308.31
245.939	31184.98
246.4	33036.1
246.862	32078.34
247.324	30161.9
247.786	33700.26
248.247	44154.73
248.709	45492.64
249.17	33988.82
249.632	31998.23
250.093	37076.42
250.555	32036.84
251.016	19542.11
251.477	18527.24
251.939	19986.17
252.4	20947.37
252.861	24924.03
253.322	23180.01
253.783	27564.21
254.244	35714.78
254.705	28144.09
255.166	24986.91
255.627	24527.72
256.088	34556.7
256.549	36702.39
257.009	31558.98
257.47	38230.32
257.931	31009.59
258.391	23183.04
258.852	23874.71
259.312	24995.03
259.773	30829.12
260.233	26040.64
260.694	21936.83
261.154	24839.67
261.614	19897.04
262.074	17763.76
262.534	18463.85
262.994	17402.76
263.455	23152.25
263.915	19487.4
264.374	18338.39
264.834	19997.36
265.294	22114.13
265.754	22913.87
266.214	21681.43
266.673	20295.73
267.133	25591.48
267.593	25341.88
268.052	30992.38
268.512	26941.48
268.971	32454.89
269.431	35552.32
269.89	31799.27
270.349	47643.9
270.809	53098.73
271.268	47712.51
271.727	107064.21
272.186	69377.52
272.645	52074.31
273.104	37509.03
273.563	54267.4
274.022	42700.87
274.481	36336.99
274.94	28011.62
275.399	20811.05
275.857	24209.71
276.316	32702.8
276.775	29086.17
277.233	28634.86
277.692	26785.32
278.15	30346.11
278.609	31243.62
279.067	28904.4
279.525	26861.24
279.984	34706.6
280.442	41755.17
280.9	41222.56
281.358	27144.8
281.816	25317.56
282.274	24825.3
282.732	25680.87
283.19	25813.35
283.648	22286.07
284.106	23760.35
284.564	24195.21
285.021	22451.68
285.479	16753.65
285.937	15230.38
286.394	13370.53
286.852	13765.12
287.309	14469.07
287.767	13988.5
288.224	13313.97
288.682	14613.9
289.139	16032.73
289.596	14657.67
290.053	15224.93
290.511	19211.27
290.968	23302.29
291.425	31641.56
291.882	26324.99
292.339	22863.6
292.796	22645.1
293.252	21341.61
293.709	16951.7
294.166	15200.29
294.623	16800.14
295.079	16123.69
295.536	16188.58
295.992	14690.59
296.449	14513.5
296.905	15046.34
297.362	14435.81
297.818	15192.83
298.274	15749.64
298.731	16056.98
299.187	15886.81
299.643	17046.47
300.099	20596.9
300.555	22561.91
301.011	18849.92
301.467	18177.37
301.923	21316.44
302.379	20835.14
302.835	20458.51
303.291	20472.48
303.746	23270.22
304.202	29411.42
304.658	29519.65
305.113	19858
305.569	19477.48
306.024	20768.45
306.479	19788.16
306.935	16698.31
307.39	18238.36
307.845	16874.18
308.301	17006.5
308.756	16587.13
309.211	15999.64
309.666	16404.15
310.121	20390.3
310.576	20736.45
311.031	20601.13
311.486	23593
311.94	23574.4
312.395	31577.96
312.85	59255.39
313.305	291072.07
313.759	1508916.97
314.214	109200.76
314.668	86770.5
315.123	73122.95
315.577	26230.44
316.032	23357.29
316.486	29284.42
316.94	23135.35
317.394	16075.58
317.849	12517.8
318.303	11849.64
318.757	11185.24
319.211	12362.38
319.665	10796.11
320.119	10893.96
320.572	15576.14
321.026	14515.3
321.48	12083.33
321.934	13160.7
322.387	13182.59
322.841	14212.59
323.295	12795.5
323.748	14725.36
324.202	14954.88
324.655	17980.13
325.108	25178.18
325.562	17822.89
326.015	21216.23
326.468	16041.02
326.921	17944.32
327.374	16759.31
327.827	17471.88
328.28	19797.61
328.733	13282.61
329.186	11667.44
329.639	11117.31
330.092	9363.56
330.545	8925.42
330.997	9010.41
331.45	9862.94
331.903	11581.65
332.355	19932.76
332.808	19371.44
333.26	15945.43
333.713	17313.7
334.165	17465.68
334.617	23330.45
335.069	18883.08
335.522	34123.61
335.974	37764.39
336.426	34454.43
336.878	23807.6
337.33	12092.9
337.782	11821.72
338.234	14834.25
338.686	17736.48
339.137	21013.28
339.589	19807.17
340.041	15525.23
340.493	13339.31
340.944	13675.49
341.396	14744.38
341.847	12393.67
342.299	14637.63
342.75	17853.63
343.201	15582.49
343.653	17907.81
344.104	22007.76
344.555	17280.67
345.006	26778.96
345.457	20545.35
345.908	16333.17
346.359	15381.05
346.81	12528.62
347.261	13160.39
347.712	12942.59
348.163	13864.45
348.613	14031.57
349.064	13102.26
349.515	11476.9
349.965	11806.53
350.416	14195.03
350.866	15570.72
351.317	17540.81
351.767	29112.33
352.217	36770.89
352.668	30557.89
353.118	28008.1
353.568	26993.48
354.018	21348.36
354.468	22533.75
354.918	16168.47
355.368	14149.82
355.818	19978.23
356.268	57608.53
356.718	241056.31
357.168	60130.21
357.617	30201.43
358.067	33680.98
358.517	31705.21
358.966	37194.35
359.416	41762.11
359.865	45114.45
360.315	53749.78
360.764	25096.45
361.213	14057.01
361.663	13327.84
362.112	16465.45
362.561	26577.52
363.01	20025.54
363.459	16819.97
363.908	18175.02
364.357	15461.86
364.806	26172.96
365.255	18009.7
365.703	16542.42
366.152	16583.46
366.601	13468.18
367.05	10958.91
367.498	9962.45
367.947	10416.26
368.395	10854.91
368.844	9662.7
369.292	11647.75
369.74	8072.75
370.189	12382.78
370.637	14554.64
371.085	12618.78
371.533	15391.98
371.981	14823.23
372.429	14208.82
372.877	14857.8
373.325	12454.77
373.773	12713.04
374.221	11362.52
374.669	14118.21
375.116	12263.67
375.564	12360.02
376.012	13840.63
376.459	11461.18
376.907	13770.05
377.354	16685.05
377.801	15644.38
378.249	18100.79
378.696	23262.05
379.143	28365.2
379.591	30366.1
380.038	51644.95
380.485	37653.29
380.932	40869.57
381.379	37592.67
381.826	27846.27
382.273	19959.6
382.72	17531.84
383.166	17154.01
383.613	11183.19
384.06	10116.32
384.506	11756.5
384.953	8665.58
385.4	8757.48
385.846	7724.85
386.292	7562.68
386.739	7433.74
387.185	7362.2
387.631	7402.02
388.078	7227.02
388.524	7765.38
388.97	7205.38
389.416	6048.23
389.862	6461.72
390.308	6145
390.754	6255.96
391.2	6814.08
391.645	6995.7
392.091	6725.09
392.537	6526.94
392.983	6555.03
393.428	6465.99
393.874	6958.44
394.319	7012.44
394.765	6661.02
395.21	6876.96
395.655	6456.7
396.101	6059.36
396.546	5485.66
396.991	5536.68
397.436	5147.6
397.881	4979.84
398.326	4721.67
398.771	4462.94
399.216	3895.51
399.661	3515.09
400.106	3495.34
400.551	3580.83
400.995	3210.43
401.44	3167.66
401.885	2977.14
402.329	2998.45
402.774	2867.33
403.218	2770.9
403.663	2664.82
404.107	2736.92
404.551	2750.56
404.995	2517.63
405.44	2419.88
405.884	2452.68
406.328	2370.72
406.772	2360.77
407.216	2148.36
407.66	2075.38
408.104	1967.67
408.547	1843.87
408.991	1779.96
409.435	1710.43
409.879	1688.08
410.322	1664.14
410.766	1605.48
411.209	1524.76
411.653	1464.38
412.096	1436.41
412.54	1436.86
412.983	1426.89
413.426	1427.24
413.869	1424.52
414.312	1401.36
414.756	1348.12
415.199	1285.49
415.642	1248.74
416.085	1250.41
416.527	1237.96
416.97	1255.02
417.413	1187.63
417.856	1173.42
418.298	1161.79
418.741	1153.59
419.184	1147.07
419.626	1193.52
420.069	1191.33
420.511	1196.11
420.953	1168.34
421.396	1157.17
421.838	1124.8
422.28	1153.54
422.722	1162.11
423.164	1175.9
423.606	1155.92
424.048	1151.31
424.49	1096.96
424.932	1093.74
425.374	1074.81
425.816	1093.04
426.258	1113.86
426.699	1124.56
427.141	1103.83
427.582	1116.85
428.024	1111.5
428.465	1105.78
428.907	1081
429.348	1062.72
429.789	1061.89
430.231	1043.11
430.672	1056.84
431.113	1032.71
431.554	1020.94
431.995	997.19
432.436	961.73
432.877	940.23
433.318	925.5
433.759	922.32
434.2	924.92
434.64	917.59
435.081	920.31
435.522	874.79
435.962	843.99
436.403	826.44
436.843	839.72
437.284	823.45
437.724	802.03
438.164	803.96
438.604	787.8
439.045	758.51
439.485	727.4
439.925	713.06
440.365	697.24
440.805	687.18
441.245	679.58
441.685	654.48
442.125	649.97
442.564	654.03
443.004	639.92
443.444	637.88
443.883	640.87
444.323	636.92
444.762	638.96
445.202	646.76
445.641	660.39
446.081	657.74
446.52	664.23
446.959	658.98
447.398	646.45
447.837	639.85
448.276	629.89
448.716	636.43
449.154	641.93
449.593	628.36
450.032	629
450.471	619.64
450.91	620.77
451.349	621.72
451.787	620.96
452.226	629.74
452.664	631.09
453.103	632.96
453.541	632.23
453.98	632.35
454.418	636.42
454.856	626.07
455.295	624.78
455.733	630.54
456.171	634.6
456.609	637.83
457.047	637.53
457.485	647.46
457.923	647.61
458.361	638.42
458.798	640.15
459.236	638.31
459.674	641.77
460.111	644.46
460.549	636.63
460.987	632.15
461.424	627.89
461.862	626.74
462.299	616.14
462.736	616.74
463.173	619.5
463.611	614.74
464.048	613.57
464.485	619.26
464.922	613.3
465.359	610.14
465.796	603.23
466.233	597.83
466.67	591.63
467.106	590.77
467.543	584.8
467.98	577.5
468.416	561.87
468.853	557.26
469.29	540.85
469.726	535.63
470.162	522.01
470.599	515.93
471.035	512.94
471.471	499.97
471.907	496.97
472.344	492.65
472.78	493.95
473.216	499.11
473.652	492.86
474.088	491.34
474.523	489.63
474.959	493.91
475.395	488.61
475.831	484.25
476.266	487.48
476.702	486.38
477.138	481.58
477.573	479.69
478.008	479.14
478.444	481.62
478.879	485.69
479.314	487.03
479.75	486.52
480.185	488.35
480.62	492.69
481.055	494.29
481.49	497.62
481.925	504.92
482.36	514.06
482.795	526.73
483.229	541.16
483.664	552.99
484.099	556.09
484.534	565.94
484.968	572.42
485.403	574.3
485.837	574.54
486.271	573.78
486.706	575.57
487.14	569.36
487.574	561.58
488.009	557.34
488.443	553.42
488.877	559.4
489.311	562.34
489.745	569.46
490.179	576.15
490.613	588.53
491.046	594.57
491.48	599.66
491.914	602.96
492.348	609.83
492.781	615.18
493.215	618.75
493.648	621.19
494.082	627.72
494.515	629.82
494.948	638.64
495.382	645.13
495.815	652.79
496.248	660.92
496.681	674.41
497.114	687.91
497.547	700.96
497.98	716.83
498.413	727.72
498.846	739.72
499.279	752.46
499.711	760.96
500.144	767.1
500.577	781.45
501.009	796.78
501.442	811.44
501.874	816.93
502.306	823.8
502.739	835.81
503.171	855.06
503.603	864.38
504.036	878.6
504.468	890.01
504.9	908.21
505.332	921
505.764	931.02
506.196	944.04
506.627	965.23
507.059	985.14
507.491	1000.42
507.923	1004.19
508.354	1026.36
508.786	1045.19
509.217	1072.27
509.649	1093.83
510.08	1120.71
510.512	1145.38
510.943	1168.88
511.374	1188.63
511.805	1217.9
512.237	1246.71
512.668	1290.64
513.099	1328.15
513.53	1365.19
513.961	1394.11
514.391	1437.12
514.822	1480.65
515.253	1528.69
515.684	1563.27
516.114	1602.11
516.545	1631.59
516.975	1668.09
517.406	1693.55
517.836	1700.63
518.267	1713.81
518.697	1738.45
519.127	1746.85
519.558	1759.65
519.988	1767.02
520.418	1783.96
520.848	1809.63
521.278	1823.68
521.708	1826.63
522.138	1844.3
522.567	1886.22
522.997	1918.78
523.427	1940.74
523.857	1966.02
524.286	1981.65
524.716	2002.72
525.145	2028.57
525.575	2043.53
526.004	2063.86
526.433	2079.01
526.863	2082.6
527.292	2070.99
527.721	2079.56
528.15	2088.97
528.579	2089.27
529.008	2104.54
529.437	2135.18
529.866	2153
530.295	2176.27
530.724	2192.97
531.152	2228.13
531.581	2246.22
532.01	2271.18
532.438	2283.13
532.867	2302.75
533.295	2328.91
533.723	2337.57
534.152	2335.97
534.58	2337.36
535.008	2318.44
535.436	2322.44
535.865	2332.42
536.293	2353
536.721	2373.72
537.149	2407.9
537.576	2412.38
538.004	2429.05
538.432	2440.72
538.86	2438.68
539.287	2448.82
539.715	2468.02
540.143	2472.33
540.57	2469.74
540.998	2465.88
541.425	2435.49
541.852	2408.76
542.28	2407.85
542.707	2388.04
543.134	2370.62
543.561	2367.2
543.988	2358.02
544.415	2357.28
544.842	2350.18
545.269	2340.2
545.696	2342.39
546.123	2360.64
546.549	2347.79
546.976	2330.55
547.403	2329.44
547.829	2332.47
548.256	2334.66
548.682	2329.86
549.108	2320.5
549.535	2320.92
549.961	2325.77
550.387	2309.3
550.813	2301.63
551.24	2310.62
551.666	2312.47
552.092	2299.87
552.518	2290.52
552.943	2281.78
553.369	2291.62
553.795	2297.23
554.221	2298.46
554.646	2292.2
555.072	2305.16
555.498	2311.51
555.923	2322.03
556.349	2342.75
556.774	2354.29
557.199	2358.01
557.625	2366.59
558.05	2356.85
558.475	2372.38
558.9	2370.57
559.325	2360.94
559.75	2353.35
560.175	2344.39
560.6	2335.43
561.025	2331.27
561.449	2332.67
561.874	2338
562.299	2343.26
562.723	2353.77
563.148	2340.65
563.572	2344.92
563.997	2358.19
564.421	2365.19
564.846	2366.09
565.27	2371.07
565.694	2367.02
566.118	2382.63
566.542	2391.34
566.966	2382.36
567.39	2376.37
567.814	2361.7
568.238	2362.13
568.662	2368.07
569.086	2371.11
569.509	2381.11
569.933	2361.57
570.357	2352.78
570.78	2324.76
571.204	2307.81
571.627	2294.75
572.05	2291.73
572.474	2290.32
572.897	2273.73
573.32	2262.73
573.743	2249.71
574.166	2224.38
574.589	2224.24
575.012	2213.76
575.435	2211.95
575.858	2198.92
576.281	2183.98
576.704	2163.74
577.126	2149.83
577.549	2135.27
577.972	2122.26
578.394	2108.03
578.817	2098.21
579.239	2073.64
579.661	2055.55
580.084	2033.56
580.506	2016.99
580.928	2010.78
581.35	1995.82
581.772	1987.45
582.194	1969.75
582.616	1953.53
583.038	1934.8
583.46	1921.88
583.882	1916.8
584.303	1921.49
584.725	1917.21
585.147	1917.68
585.568	1930.83
585.99	1945.53
586.411	1953.07
586.833	1971.56
587.254	1972.67
587.675	1991.29
588.096	2006.8
588.518	1999.62
588.939	1978.9
589.36	1975.22
589.781	1963.54
590.202	1925.9
590.623	1913.88
591.043	1911.05
591.464	1893.94
591.885	1888.93
592.305	1879.46
592.726	1861.46
593.147	1862.94
593.567	1854.77
593.987	1844.11
594.408	1836.16
594.828	1833.82
595.248	1826.78
595.669	1802.66
596.089	1793.11
596.509	1784.26
596.929	1767.23
597.349	1767.74
597.769	1754.08
598.189	1746.41
598.608	1747.81
599.028	1750.19
599.448	1750.94
599.867	1733.16
600.287	1727.65
600.706	1722.28
601.126	1709.68
601.545	1706.46
601.965	1704.35
602.384	1698.5
602.803	1701.53
603.222	1695
603.641	1686.61
604.061	1680.12
604.48	1675.4
604.898	1683.82
605.317	1688.74
605.736	1691.01
606.155	1687.67
606.574	1675.18
606.992	1680.61
607.411	1673.35
607.829	1662.37
608.248	1657.31
608.666	1654.91
609.085	1654.22
609.503	1645.31
609.921	1637.45
610.339	1638.51
610.758	1638.04
611.176	1631.07
611.594	1619.33
612.012	1615.07
612.43	1618.85
612.847	1626.71
613.265	1627.22
613.683	1631.76
614.101	1631.96
614.518	1625.83
614.936	1612.8
615.353	1592.8
615.771	1588.48
616.188	1588.09
616.606	1583.08
617.023	1574.35
617.44	1555.99
617.857	1546.26
618.274	1534.33
618.691	1525.35
619.108	1512.6
619.525	1505.15
619.942	1513.17
620.359	1516.14
620.776	1508.67
621.192	1502.95
621.609	1499.41
622.026	1506.44
622.442	1513.2
622.859	1517.72
623.275	1509.25
623.691	1516.43
624.108	1530.1
624.524	1547.15
624.94	1547.33
625.356	1559.26
625.772	1575.34
626.188	1589.66
626.604	1592.66
627.02	1587.47
627.436	1584.8
627.852	1592.42
628.268	1608.05
628.683	1596.6
629.099	1586.57
629.514	1581.62
629.93	1585.69
630.345	1590.54
630.761	1585.73
631.176	1588.55
631.591	1581.23
632.007	1573.11
632.422	1569.79
632.837	1554.53
633.252	1550.59
633.667	1537.3
634.082	1523.13
634.497	1506.2
634.911	1479.51
635.326	1471.07
635.741	1448.17
636.155	1433.64
636.57	1431.83
636.984	1428.5
637.399	1426.13
637.813	1421.35
638.228	1415.07
638.642	1415.69
639.056	1398.08
639.47	1394.78
639.884	1380.87
640.298	1368.39
640.712	1360.88
641.126	1341.12
641.54	1325.58
641.954	1314.42
642.368	1295.45
642.781	1280.67
643.195	1256.97
643.609	1253.62
644.022	1241.53
644.436	1232.87
644.849	1214.2
645.262	1196.41
645.676	1194.2
646.089	1183.95
646.502	1164.03
646.915	1153.88
647.328	1131.22
647.741	1124.51
648.154	1106.33
648.567	1099.47
648.98	1081.37
649.393	1080.14
649.805	1075.18
650.218	1063.19
650.631	1044.89
651.043	1035.65
651.456	1027.6
651.868	1028
652.28	1043.63
652.693	1057.1
653.105	1062.97
653.517	1071.7
653.929	1069.53
654.341	1072.42
654.753	1059.26
655.165	1063.79
655.577	1059.88
655.989	1052.79
656.401	1041.1
656.813	1002.47
657.224	979.58
657.636	948.15
658.047	927.08
658.459	904.46
658.87	892.77
659.282	878.04
659.693	854.84
660.104	835.73
660.515	819.61
660.926	814.95
661.338	808.53
661.749	798.22
662.159	785.25
662.57	775.95
662.981	768.42
663.392	756.69
663.803	756.02
664.213	749.37
664.624	742.03
665.035	741.17
665.445	726.09
665.855	716.23
666.266	705.73
666.676	700.36
667.086	690.57
667.497	686.41
667.907	678.61
668.317	667.69
668.727	662.02
669.137	660.55
669.547	655.79
669.956	654.5
670.366	654.66
670.776	654.9
671.186	657.36
671.595	658.38
672.005	660.78
672.414	660.26
672.824	658.47
673.233	662.44
673.642	664.88
674.052	668.47
674.461	672.02
674.87	675.52
675.279	673.4
675.688	675.08
676.097	678.16
676.506	676.33
676.915	690.39
677.323	695.59
677.732	696.13
678.141	696.99
678.549	689.91
678.958	690.88
679.366	691.74
679.775	698.37
680.183	711.48
680.592	719.97
681	728.8
681.408	727.61
681.816	738.95
682.224	751.79
682.632	767.38
683.04	800.55
683.448	829.14
683.856	866.83
684.264	911.1
684.671	951.64
685.079	1002.02
685.487	1058.09
685.894	1131.17
686.302	1196.26
686.709	1253.29
687.116	1320.49
687.524	1380.2
687.931	1435.38
688.338	1485.22
688.745	1527.77
689.152	1576.89
689.559	1639
689.966	1702.13
690.373	1740.45
690.78	1801.05
691.187	1887.24
691.593	1955.36
692	2016.75
692.407	2101.11
692.813	2203.49
693.22	2286.03
693.626	2373.52
694.032	2441.77
694.439	2542.22
694.845	2621.31
695.251	2720.26
695.657	2810.9
696.063	2941.46
696.469	3039.49
696.875	3131.25
697.281	3183.55
697.687	3247.88
698.093	3300.56
698.498	3400.33
698.904	3477.43
699.31	3594.36
699.715	3676.89
700.12	3794.99
700.526	3820.17
700.931	3910.49
701.337	3978.48
701.742	4022.41
702.147	4132.82
702.552	4172.59
702.957	4251.17
703.362	4277.26
703.767	4315.6
704.172	4369.02
704.577	4308.93
704.981	4369.82
705.386	4392.17
705.791	4382.49
706.195	4480.92
706.6	4493.83
707.004	4595.58
707.408	4556.91
707.813	4591.6
708.217	4572.46
708.621	4573.18
709.025	4696.3
709.43	4694.75
709.834	4770.49
710.237	4860.56
710.641	4837.72
711.045	4864.43
711.449	4854.85
711.853	4887.6
712.256	4939.83
712.66	4986.1
713.064	5080.64
713.467	5132.51
713.87	5275.41
714.274	5331.62
714.677	5470.38
715.08	5675.3
715.484	5886.78
715.887	6144.93
716.29	6400.61
716.693	6664.74
717.096	6974.63
717.499	7142.34
717.901	7173.22
718.304	7205.03
718.707	7233.7
719.109	7099.15
719.512	7057.87
719.915	6882.57
720.317	6808.46
720.719	6859.91
721.122	6819.15
721.524	6752.23
721.926	6693.13
722.328	6816.87
722.731	6802.69
723.133	6836.09
723.535	7079.8
723.937	7107.01
724.338	7169.17
724.74	7219.23
725.142	7116.67
725.544	7110.91
725.945	7133.46
726.347	7130.28
726.748	7121.89
727.15	7139.48
727.551	7088.74
727.952	7047.35
728.354	7006.74
728.755	7006.08
729.156	6949.92
729.557	6949.47
729.958	6794.67
730.359	6732.17
730.76	6705.46
731.161	6625.42
731.562	6592.27
731.962	6595.7
732.363	6514.35
732.763	6430.25
733.164	6474.15
733.564	6387.76
733.965	6269.8
734.365	6226.56
734.766	6257.93
735.166	6208.96
735.566	6141.2
735.966	6108.79
736.366	6100.97
736.766	6022.35
737.166	6062
737.566	6009.69
737.966	5975.75
738.365	6022.65
738.765	6013.32
739.165	5920.68
739.564	5887.23
739.964	5944.27
740.363	5883.52
740.763	5878.5
741.162	5863.3
741.561	5820.93
741.96	5765.13
742.36	5792.89
742.759	5800.47
743.158	5849.64
743.557	5869.73
743.955	5918.43
744.354	5860.44
744.753	5932.76
745.152	5884.24
745.55	5953.4
745.949	5947.84
746.348	5948.62
746.746	5968.98
747.144	5918.82
747.543	5890.4
747.941	5948.42
748.339	5859.72
748.737	5850.96
749.136	5838.59
749.534	5921.93
749.932	5886.7
750.33	5915.18
750.727	5985.47
751.125	5951.83
751.523	5930.6
751.921	5983.31
752.318	5940.38
752.716	6013.79
753.113	6029.51
753.511	6062
753.908	6057.95
754.305	6035.64
754.703	6112.9
755.1	6186
755.497	6264.51
755.894	6501.2
756.291	6728.37
756.688	7140.94
757.085	7691.2
757.482	8467
757.878	9306.74
758.275	10072.36
758.672	11127.92
759.068	11984.94
759.465	13209.21
759.861	14784.6
760.258	16615.56
760.654	17558.32
761.05	17416.7
761.447	16617.36
761.843	15459.94
762.239	14281.55
762.635	13745.84
763.031	13227.84
763.427	12486.39
763.822	11706.12
764.218	10938.68
764.614	9941.33
765.01	9270.32
765.405	8838.87
765.801	8513.36
766.196	8096.9
766.592	7864.79
766.987	7469.82
767.382	7202.01
767.778	7092.51
768.173	6931.68
768.568	6838.01
768.963	6680.86
769.358	6704.25
769.753	6647.5
770.148	6541.88
770.542	6541.56
770.937	6498.62
771.332	6612.82
771.726	6640.75
772.121	6561.29
772.515	6629.48
772.91	6613.99
773.304	6703.76
773.699	6623.11
774.093	6687.44
774.487	6757.97
774.881	6813.54
775.275	6813.01
775.669	6762.67
776.063	6817.5
776.457	6861.6
776.851	6768.83
777.245	6758.42
777.638	6797.7
778.032	6940.23
778.425	6897.04
778.819	6950.22
779.212	6893.3
779.606	6844.16
779.999	6868
780.392	6848.06
780.786	6955.55
781.179	6982
781.572	7036.08
781.965	7054.61
782.358	6982.25
782.751	7053.75
783.143	6995.68
783.536	7090.59
783.929	7143.13
784.322	7287.36
784.714	7326.6
785.107	7316.51
785.499	7406.76
785.891	7375.99
786.284	7352.9
786.676	7533.16
787.068	7506.96
787.46	7569.02
787.852	7594.13
788.245	7699.21
788.636	7736.52
789.028	7818.89
789.42	7863.55
789.812	7872.39
790.204	7997.22
790.595	8119.89
790.987	7872.72
791.378	7901.54
791.77	8061.17
792.161	8228.92
792.553	8297.39
792.944	8157.34
793.335	8070.14
793.726	8164.56
794.117	8275.58
794.508	8446.12
794.899	8409.43
795.29	8587.53
795.681	8660.51
796.072	8484.23
796.463	8245.99
796.853	8258.06
797.244	8453.95
797.634	8499.19
798.025	8496.18
798.415	8512.61
798.806	8619.17
799.196	8724.66
799.586	8781.78
799.976	8732.56
800.366	9021.47
800.756	9328.33
801.146	9277.97
801.536	9312.92
801.926	9405.16
802.316	9441.32
802.706	9525.63
803.095	9371.88
803.485	9500.23
803.874	9554.78
804.264	9879.24
804.653	9841.14
805.043	10021.3
805.432	10159.21
805.821	10161.6
806.21	10185.65
806.599	10331.7
806.988	10390.66
807.377	10529.05
807.766	10688.4
808.155	11038.86
808.544	10713.62
808.933	10734.16
809.321	10709.35
809.71	11084.38
810.098	11284.78
810.487	11861.8
810.875	12457.16
811.264	12489.62
811.652	12843.1
812.04	13031.23
812.428	13240.56
812.816	14196.52
813.204	14717.2
813.592	15413.5
813.98	15828.7
814.368	15704.07
814.756	16300.86
815.144	16204.02
815.531	16789.13
815.919	16698.35
816.306	17071.09
816.694	16678.97
817.081	16740.14
817.469	17177.1
817.856	17163.26
818.243	17494.59
818.63	17988.46
819.017	17464.17
819.404	17545.91
819.791	18017.87
820.178	18794.55
820.565	19105.68
820.952	20266.04
821.339	19648.02
821.725	19873.96
822.112	18946.42
822.498	18891.34
822.885	19049.5
823.271	18932.29
823.657	19452.48
824.044	19460.71
824.43	19551.06
824.816	19509.65
825.202	18960.87
825.588	20228.43
825.974	20249.12
826.36	20901.79
826.746	20944.02
827.132	21382.58
827.517	21346.55
827.903	20365.17
828.289	20400.38
828.674	19423.69
829.06	19296.82
829.445	19805.38
829.83	20241.98
830.216	20827.04
830.601	21267.6
830.986	20756.98
831.371	20592.56
831.756	21287.53
832.141	20748.99
832.526	20746.47
832.911	21089
833.295	20940.1
833.68	21516.58
834.065	20748.26
834.449	19617.49
834.834	19532.35
835.218	19537.03
835.603	19957.12
835.987	19699.36
836.371	20742.79
836.755	20607.06
837.139	21113.01
837.524	21425.91
837.908	21204.48
838.291	21285.62
838.675	21383.03
839.059	21642.4
839.443	21625.15
839.827	21348.44
840.21	21948.14
840.594	21765.81
840.977	22024.92
841.361	22012.81
841.744	22476.82
842.127	22279.67
842.511	22589.33
842.894	23326.04
843.277	23815.73
843.66	24494.59
844.043	24591.01
844.426	23575.99
844.809	23181.99
845.191	23227.9
845.574	22652.27
845.957	22202.64
846.339	22070.43
846.722	21414.15
847.104	21506.88
847.487	21286.11
847.869	21301.83
848.252	21653.97
848.634	22076.62
849.016	22417.39
849.398	22583.83
849.78	23640.02
850.162	23642.37
850.544	24167.43
850.926	24939.73
851.307	24821.33
851.689	25159.08
852.071	25725.14
852.452	26128.31
852.834	26097.87
853.215	26572.16
853.597	26762.35
853.978	27132.69
854.359	27703.64
854.741	26458.93
855.122	26345.99
855.503	25987.49
855.884	26146.02
856.265	26062.95
856.646	26208
857.026	25727.05
857.407	25657.96
857.788	25845.58
858.169	26209.8
858.549	25149.84
858.93	25929.68
859.31	25985.52
859.69	26239.06
860.071	25757.47
860.451	25491.98
860.831	24569.94
861.211	26013.25
861.591	26701.37
861.971	26679.79
862.351	26921.72
862.731	27404.61
863.111	27726.38
863.491	28134.29
863.87	29229.81
864.25	29653.34
864.629	29159.36
865.009	29790.03
865.388	30842.02
865.768	33041.12
866.147	32898.13
866.526	31071.86
866.905	31441.51
867.284	33214.42
867.663	31543.5
868.042	30237.09
868.421	30136.86
868.8	30635.53
869.179	30937.8
869.558	29123.16
869.936	26846.91
870.315	27334.38
870.693	27972.98
871.072	30158.03
871.45	28729.84
871.828	29096.91
872.207	30586.06
872.585	30119.12
872.963	30936.59
873.341	29878.52
873.719	29526.63
874.097	29164.56
874.475	29706.14
874.853	30406.16
875.23	29141.6
875.608	30356.77
875.986	32839.96
876.363	31398.05
876.741	32354.24
877.118	31535.23
877.495	33062.21
877.873	33624.17
878.25	35375.92
878.627	33932.73
879.004	34407.21
879.381	34243.8
879.758	33338.1
880.135	31043.76
880.512	32840.11
880.889	31977.07
881.265	31641.88
881.642	31396.38
882.019	31922.38
882.395	31284.87
882.772	32525.84
883.148	31117.26
883.524	30991.29
883.901	30820.81
884.277	31278.5
884.653	31075.47
885.029	31966.82
885.405	35411.27
885.781	35132.58
886.157	33692.34
886.532	34106.54
886.908	34091.16
887.284	37903.72
887.659	39154.66
888.035	40369.38
888.411	41418.63
888.786	41968.85
889.161	43431.22
889.537	42637.23
889.912	44000.67
890.287	43962.8
890.662	45095.72
891.037	44297.29
891.412	41313.46
891.787	40876.92
892.162	39450.84
892.536	40358.31
892.911	38832.76
893.286	38011.3
893.66	36467.69
894.035	37381.37
894.409	40700.72
894.784	39051.01
895.158	39692.71
895.532	42028.21
895.906	43184.52
896.281	44194.56
896.655	43491.72
897.029	49696.55
897.402	51758.71
897.776	57619.43
898.15	57448.85
898.524	56791.55
898.898	57545.75
899.271	64412.31
899.645	55810.27
900.018	53620.98
900.392	55609.65
900.765	56071.36
901.138	51890.07
901.511	51088.42
901.884	46910.14
902.258	43267.75
902.631	44734.51
903.003	51506.54
903.376	46468.86
903.749	52078.52
904.122	55724.91
904.495	61356.56
904.867	62154.19
905.24	53970.22
905.612	50252.35
905.985	51401.2
906.357	53763.59
906.729	51327.26
907.102	43824.17
907.474	42148.82
907.846	42429.55
908.218	41892.65
908.59	37013.62
908.962	35782.48
909.334	38535.69
909.705	40488.12
910.077	39300.2
910.449	40897.34
910.82	42022.62
911.192	46235.21
911.563	48047.87
911.935	51424.06
912.306	51498.77
912.677	53205.65
913.048	52691.69
913.419	57179.99
913.79	57510.18
914.161	61668.81
914.532	58933.9
914.903	54188.52
915.274	51476.16
915.645	50721.73
916.015	44643.99
916.386	42554.19
916.756	45278.19
917.127	46680.93
917.497	41683.65
917.868	45333.31
918.238	43081.45
918.608	44305.15
918.978	45196.65
919.348	47851.04
919.718	49437.87
920.088	47608.96
920.458	49435.81
920.828	52002.89
921.198	49294.81
921.567	52678.55
921.937	40814.43
922.306	41197.88
922.676	44438.12
923.045	37075.57
923.415	35220.14
923.784	32059.93
924.153	32956.54
924.522	32921.89
924.891	30973.72
925.26	33185.25
925.629	32395.9
925.998	37238.63
926.367	36352.89
926.736	34612.04
927.104	41233.18
927.473	44341.09
927.842	53550.92
928.21	53053.76
928.578	55792.84
928.947	52728.23
929.315	53027.73
929.683	62177.38
930.051	62676.98
930.42	72772.9
930.788	62221.42
931.156	61737.58
931.523	57860.74
931.891	53498.16
932.259	51388.6
932.627	59522.55
932.994	84174.77
933.362	69541.6
933.729	60400.67
934.097	57832.82
934.464	48927.08
934.831	56469.14
935.199	55710.25
935.566	54008.29
935.933	54764.11
936.3	66338.31
936.667	51672.71
937.034	46605.33
937.401	46142.73
937.767	39799.49
938.134	35414.28
938.501	49961.33
938.867	53210.81
939.234	89871.5
939.6	76738.66
939.967	84445.89
940.333	56501.27
940.699	48099.12
941.065	38616.01
941.431	50569.31
941.798	48753.66
942.163	63965.69
942.529	39943.69
942.895	36771.2
943.261	23772.13
943.627	31190.06
943.992	27293.43
944.358	27310.99
944.723	27391.12
945.089	26717.89
945.454	24691.33
945.82	26376.06
946.185	25356.95
946.55	29396.04
946.915	26377.84
947.28	30951
947.645	27206.51
948.01	25076.97
948.375	26180.58
948.74	31370.15
949.104	36561.24
949.469	52871.38
949.834	93481.01
950.198	88542.22
950.562	53030.09
950.927	44159.42
951.291	53178.09
951.655	45356.92
952.02	42683.43
952.384	32242.86
952.748	28077.21
953.112	27365.86
953.476	23792.55
953.839	22024.2
954.203	21819.7
954.567	27294.87
954.931	43013.88
955.294	36769.15
955.658	36985.71
956.021	62879.67
956.385	106740.64
956.748	157633.59
957.111	244750.23
957.474	274886.77
957.837	309390.47
958.2	234314.87
958.563	84298.23
958.926	57000.78
959.289	86512.28
959.652	96645.98
960.015	72533.43
960.377	104123.03
960.74	118812.99
961.102	205115.05
961.465	219985.44
961.827	117645.91
962.189	225676.61
962.552	156559.1
962.914	125557.73
963.276	81553.83
963.638	67385.46
964	66755.54
964.362	45088.73
964.724	43596.57
965.085	31110.37
965.447	25513.71
965.809	29129.95
966.17	29182.74
966.532	31616.27
966.893	29006.22
967.255	26382.65
967.616	31168.24
967.977	24946.28
968.338	27277.89
968.699	22397.69
969.061	22392.62
969.421	22551.27
969.782	25318.71
970.143	21382.46
970.504	22119.58
970.865	25142.92
971.225	25686.15
971.586	25123.37
971.946	35829.01
972.307	31084.75
972.667	40688.65
973.027	41890.5
973.388	50817.31
973.748	34544.84
974.108	37636.91
974.468	50900.13
974.828	39241.16
975.188	30236.63
975.548	27780.37
975.907	23309.45
976.267	26132.02
976.627	21978.25
976.986	22807.52
977.346	21743.12
977.705	20895.69
978.064	19013.03
978.424	15834.81
978.783	16390.44
979.142	18725.44
979.501	17924.8
979.86	18940.77
980.219	18267.83
980.578	23510.65
980.937	26336.71
981.296	23480.77
981.654	24169.34
982.013	37665.64
982.371	48862.17
982.73	45584.9
983.088	51575.41
983.447	55061.98
983.805	78810.76
984.163	164617.06
984.521	182860.55
984.879	267626.21
985.237	-434887.5
985.595	419118.55
985.953	104098.28
986.311	60189.4
986.669	34963.16
987.026	30194.87
987.384	40639.02
987.741	42026.55
988.099	30034.78
988.456	23955.91
988.814	22418.21
989.171	19504.21
989.528	19289.46
989.885	20349.9
990.242	16104.96
990.599	20070.22
990.956	16411.84
991.313	11466.1
991.67	9396.2
992.027	9940.22
992.383	8833.63
992.74	7753.26
993.096	8126.69
993.453	8421.02
993.809	8728.44
994.165	11619.65
994.522	10622.51
994.878	11711.51
995.234	14702.96
995.59	14515.63
995.946	13756.53
996.302	15682.5
996.658	18138.7
997.013	19982.31
997.369	23649.66
997.725	30256.89
998.08	19610.12
998.436	30304.76
998.791	41750.85
999.147	41662.35
999.502	45487.31
999.857	33124.4
1000.212	54011.93
1000.567	76873.5
1000.922	44364.65
1001.277	28220.52
1001.632	20948.93
1001.987	26943.57
1002.342	19315.61
1002.696	15480.88
1003.051	12340.92
1003.406	14934.04
1003.76	14860.12
1004.114	14627.17
1004.469	12310.26
1004.823	10196.45
1005.177	11038.45
1005.531	8757.81
1005.885	7777.81
1006.239	8793.27
1006.593	11004.24
1006.947	14742.04
1007.301	11075.38
1007.655	12078.76
1008.008	8886.59
1008.362	9985.64
1008.715	14261.06
1009.069	12914.35
1009.422	19363.6
1009.776	38829.32
1010.129	25710.42
1010.482	21510.69
1010.835	18201.43
1011.188	37858.04
1011.541	35632.1
1011.894	-217954.03
1012.247	641046.4
1012.6	43528.7
1012.952	27494.25
1013.305	14220.18
1013.657	10259.16
1014.01	9739.58
1014.362	8032.1
1014.715	7125.15
1015.067	6216.73
1015.419	6087.37
1015.771	5386.48
1016.123	4794.2
1016.475	4937.87
1016.827	5242.55
1017.179	5630.59
1017.531	5688.61
1017.883	5812.34
1018.234	5586.76
1018.586	7053.51
1018.938	7453.09
1019.289	10269.66
1019.64	11778.25
1019.992	10962.53
1020.343	10031.33
1020.694	7923.88
1021.045	7029.52
1021.396	8003.14
1021.747	8567.93
1022.098	10332.09
1022.449	7483.59
1022.8	6930.81
1023.151	4840.92
1023.501	4281.49
1023.852	4644.41
1024.202	4796.31
1024.553	5294.43
1024.903	5145.11
1025.253	4400.13
1025.604	3958.17
1025.954	4903.74
1026.304	5999.99
1026.654	6995.63
1027.004	10257.69
1027.354	16655.15
1027.703	15722.58
1028.053	20772.73
1028.403	30256.91
1028.753	44077.14
1029.102	59827.98
1029.452	307253.21
1029.801	13235.87
1030.15	8550.13
1030.499	7279.38
897.758	2537.4
901.051	2487.44
904.343	2523.79
907.636	2525.58
910.928	2590.42
914.22	2501.35
917.511	2508.3
920.803	2569.04
924.094	2581.31
927.384	2567.19
930.675	2534.42
933.965	2489.43
937.255	2505.84
940.544	2470.96
943.834	2430.81
947.123	2370.18
950.411	2465.15
953.7	2439.68
956.988	2413.87
960.276	2354.41
963.563	2426.97
966.851	2425.05
970.138	2480.09
973.424	2473.91
976.711	2424.93
979.997	2534.87
983.283	2575.09
986.568	2487.69
989.853	2498.71
993.138	2526.02
996.423	2608.97
999.708	2550.59
1002.992	2607.54
1006.275	2463.98
1009.559	2498.74
1012.842	2609.24
1016.125	2545.49
1019.408	2524.75
1022.69	2605.98
1025.972	2627.92
1029.254	2602.76
1032.536	2543.67
1035.817	2568.26
1039.098	2519.04
1042.379	2639.79
1045.659	2646.67
1048.939	2587.4
1052.219	2602.63
1055.498	2611.63
1058.778	2599.89
1062.057	2582.96
1065.335	2604.67
1068.614	2621.5
1071.892	2608.11
1075.17	2679.33
1078.447	2669.57
1081.724	2664.55
1085.001	2698.63
1088.278	2675.58
1091.554	2686.62
1094.83	2681.63
1098.106	2710.67
1101.382	2751.74
1104.657	2753.69
1107.932	2748.33
1111.206	2715.13
1114.481	2674.6
1117.755	2675.52
1121.029	2657.71
1124.302	2712
1127.575	2668.08
1130.848	2658.24
1134.121	2622.13
1137.393	2574.46
1140.665	2640.45
1143.937	2619.15
1147.208	2574.84
1150.48	2619.95
1153.75	2606.24
1157.021	2630.81
1160.291	2603.86
1163.561	2650.22
1166.831	2636.16
1170.101	2666
1173.37	2638.84
1176.639	2584.81
1179.907	2641.94
1183.176	2654.38
1186.444	2658.67
1189.711	2686.91
1192.979	2701.96
1196.246	2654.67
1199.513	2673.08
1202.78	2670.63
1206.046	2681.33
1209.312	2705.21
1212.578	2730.65
1215.843	2684.61
1219.108	2657.47
1222.373	2680.79
1225.638	2646.13
1228.902	2631.86
1232.166	2595.61
1235.43	2578.98
1238.693	2603.8
1241.956	2598.45
1245.219	2642.85
1248.482	2629.15
1251.744	2623.07
1255.006	2765.1
1258.268	2718.13
1261.529	2663.93
1264.79	2668.88
1268.051	2777.38
1271.312	2788.48
1274.572	2752.93
1277.832	2742.58
1281.092	2730.54
1284.351	2708.74
1287.61	2689.15
1290.869	2610.29
1294.128	2592.56
1297.386	2672.22
1300.644	2662.17
1303.902	2671.38
1307.159	2532.36
1310.416	2585.97
1313.673	2612.44
1316.93	2599.77
1320.186	2640.51
1323.442	2683.22
1326.697	2674.79
1329.953	2661.82
1333.208	2688.36
1336.463	2666.19
1339.717	2608.97
1342.972	2740.02
1346.226	2714.43
1349.479	2649.6
1352.733	2621.72
1355.986	2640.77
1359.238	2618.82
1362.491	2620.91
1365.743	2620.77
1368.995	2613.02
1372.247	2628.04
1375.498	2651.04
1378.749	2671.18
1382	2623.98
1385.251	2674.77
1388.501	2634.01
1391.751	2622.32
1395	2587.9
1398.25	2620.5
1401.499	2631.96
1404.748	2565.75
1407.996	2549.14
1411.244	2535
1414.492	2517.24
1417.74	2495.13
1420.987	2503.12
1424.234	2559.1
1427.481	2534.02
1430.728	2596.28
1433.974	2567.66
1437.22	2577.71
1440.465	2577.77
1443.711	2550.91
1446.956	2582.62
1450.201	2566.39
1453.445	2614.18
1456.689	2593.06
1459.933	2606.07
1463.177	2641.94
1466.42	2611.52
1469.663	2592.95
1472.906	2593.19
1476.148	2655.03
1479.391	2633.71
1482.633	2601.47
1485.874	2611.34
1489.115	2601.37
1492.356	2605.24
1495.597	2581.39
1498.838	2582.93
1502.078	2556.47
1505.318	2512.84
1508.557	2555.78
1511.797	2542.34
1515.036	2594.87
1518.274	2585.6
1521.513	2558.41
1524.751	2579.11
1527.989	2594.07
1531.227	2610.34
1534.464	2609.36
1537.701	2623.32
1540.938	2641.71
1544.174	2592.37
1547.41	2591
1550.646	2630.19
1553.882	2672.97
1557.117	2726.74
1560.352	2741.18
1563.587	2699.72
1566.821	2660.64
1570.055	2690.25
1573.289	2667.03
1576.523	2737.96
1579.756	2746.53
1582.989	2766.51
1586.222	2726.07
1589.454	2761.26
1592.686	2737.78
1595.918	2763.41
1599.15	2756.05
1602.381	2823.91
1605.612	2787.06
1608.843	2882.01
1612.073	2796.95
1615.303	2782.57
1618.533	2775.44
1621.762	2775.3
1624.992	2760.16
1628.221	2750.62
1631.449	2737.2
1634.678	2784.14
1637.906	2738.31
1641.134	2779.24
1644.361	2737.76
1647.588	2725.67
1650.815	2743.49
1654.042	2717.99
1657.269	2749.69
1660.495	2705.55
1663.72	2721.29
1666.946	2684.94
1670.171	2637.55
1673.396	2615.15
1676.621	2598.44
1679.845	2610.85
1683.069	2627.47
1686.293	2666.93
1689.517	2644.39
1692.74	2579.96
1695.963	2607.82
1699.185	2629.93
1702.408	2603.36
1705.63	2641.59
1708.852	2653.52
1712.073	2623.87
1715.294	2615.64
1718.515	2675.1
1721.736	2624.74
1724.956	2610.56
1728.176	2634.35
1731.396	2658.23
1734.616	2644.12
1737.835	2673.93
1741.054	2653.7
1744.272	2645.57
1747.491	2678.63
1750.709	2725.22
1753.927	2638.46
1757.144	2679.97
1760.361	2728.17
1763.578	2715.54
1766.795	2659.06
1770.011	2658.87
1773.227	2696.58
1776.443	2733.09
1779.658	2779.44
1782.874	2719.32
1786.089	2699.57
1789.303	2700.99
1792.518	2704.64
1795.732	2692.84
1798.945	2704.32
1802.159	2751.86
1805.372	2664.11
1808.585	2651.56
1811.797	2649.82
1815.01	2690.45
1818.222	2698.4
1821.434	2675.49
1824.645	2732.37
1827.856	2722.17
1831.067	2757.58
1834.278	2708.18
1837.488	2688.54
1840.698	2832.79
1843.908	2759.85
1847.117	2724.45
1850.326	2620.89
1853.535	2713.29
1856.744	2731.21
1859.952	2644.25
1863.16	2646.93
1866.368	2663.12
1869.575	2769.35
1872.782	2655.25
1875.989	2589.57
1879.196	2663.1
1882.402	2652.61
1885.608	2690.11
1888.814	2601.27
1892.019	2498.99
1895.224	2551.21
1898.429	2527.02
1901.634	2506.34
1904.838	2483.18
1908.042	2530.28
1911.246	2539.92
1914.449	2479.76
1917.652	2472.97
1920.855	2454.86
1924.058	2497.83
1927.26	2536.69
1930.462	2561.48
1933.664	2590.61
1936.865	2529.91
1940.066	2537.4
1943.267	2487.35
1946.467	2498.99
1949.668	2524.28
1952.868	2592.25
1956.067	2573.88
1959.267	2507.16
1962.466	2533.57
1965.665	2520.31
1968.863	2514.04
1972.061	2523.61
1975.259	2523.88
1978.457	2600.09
1981.654	2561.08
1984.852	2561.54
1988.048	2499.66
1991.245	2500.14
1994.441	2584.58
1997.637	2563.83
2000.833	2543.45
2004.028	2581.29
2007.223	2642.84
2010.418	2618.65
2013.613	2577.65
2016.807	2553.59
2020.001	2559.85
2023.194	2596.68
2026.388	2573.72
2029.581	2521.13
2032.774	2573.4
2035.966	2582.83
2039.158	2518.54
2042.35	2544.4
2045.542	2470.74
2048.733	2569.13
2051.924	2584.38
2055.115	2607.65
2058.306	2556.99
2061.496	2615.1
2064.686	2676.37
2067.875	2588.76
2071.065	2598.81
2074.254	2623.73
2077.442	2574.03
2080.631	2665.28
2083.819	2564.71
2087.007	2550.47
2090.195	2522.61
2093.382	2557.47
2096.569	2538.27
2099.756	2491.95
2102.942	2522.61
2106.128	2530.28
2109.314	2522.33
2112.5	2491.6
2115.685	2463.15
2118.87	2473.05
2122.055	2536.24
2125.239	2508.89
2128.424	2484.87
2131.608	2576.19
2134.791	2562.86
2137.974	2613.6
2141.157	2600.04
2144.34	2556.18
2147.523	2566.18
2150.705	2583.54
2153.887	2561.13
2157.068	2516.63
2160.25	2513.1
2163.431	2543.23
2166.611	2496.1
2169.792	2511.38
2172.972	2411.01
2176.152	2482.04
2179.331	2514.78
2182.511	2501.21
2185.69	2529.95
2188.868	2524.91
2192.047	2573.19
2195.225	2569.55
2198.403	2521.54
2201.58	2511.86
2204.758	2505.75
2207.935	2587.8
2211.111	2481.8
2214.288	2467.85
2217.464	2505.31
2220.64	2470.58
2223.815	2524.13
2226.991	2450.64
2230.166	2468.58
2233.34	2502.24
2236.515	2520.85
2239.689	2589.74
2242.863	2535.76
2246.036	2592.67
2249.209	2589.06
2252.382	2617.3
2255.555	2613.6
2258.727	2555.04
2261.9	2591.89
2265.071	2585.43
2268.243	2584.78
2271.414	2522.23
2274.585	2488.67
2277.756	2553.59
2280.926	2509.17
2284.096	2545.45
2287.266	2461.55
2290.436	2511.98
2293.605	2540.71
2296.774	2568.51
2299.942	2584.54
2303.111	2600.65
2306.279	2652.91
2309.447	2637.69
2312.614	2612.63
2315.781	2633.36
2318.948	2603.5
2322.115	2641.65
2325.281	2543.74
2328.447	2558.89
2331.613	2534.57
2334.779	2511.93
2337.944	2513.79
2341.109	2511.6
2344.274	2498.37
2347.438	2463.21
2350.602	2487.74
2353.766	2504.94
2356.929	2490.7
2360.092	2533.31
2363.255	2488.33
2366.418	2431.61
2369.58	2532.75
2372.742	2342.02
2375.904	2351.31
2379.066	2329.35
2382.227	2362.12
2385.388	2323.71
2388.548	2256.27
2391.709	2305.98
2394.869	2285.77
2398.029	2376.05
2401.188	2383.22
2404.347	2323.69
2407.506	2449.19
2410.665	2480.29
2413.823	2481.92
2416.981	2444.55
2420.139	2473.44
2423.296	2522.02
2426.453	2496.09
2429.61	2517.82
2432.767	2458.74
2435.923	2498.82
2439.079	2459.76
2442.235	2504.63
2445.391	2434.79
2448.546	2467.09
2451.701	2512.4
2454.855	2490.57
2458.009	2534.49
2461.163	2533.59
2464.317	2495.99
2467.471	2527.4
2470.624	2562.95
2473.777	2538.47
2476.929	2552.69
2480.082	2580.02
2483.234	2546
2486.385	2496.26
2489.537	2489.81
2492.688	2456.44
2495.839	2474.35
2498.989	2488.84
2502.14	2474.05
2505.29	2463.43
2508.439	2485.63
2511.589	2412.95
2514.738	2419.07
2517.887	2447.38
2521.035	2516.13
2524.183	2491.68
2527.331	2475.79
2530.479	2454.62
2533.627	2461.55
