Data from N_2_DEC_ON_6N_Splice17_12-14-46-188.txt Node
Date: Sat Mar 14 12:14:46 EDT 2020
User: sa697716
Spectrometer: FLMS03696
Trigger mode: 0
Integration Time (sec): 3.180400E-1
Scans to average: 20
Electric dark correction enabled: true
Nonlinearity correction enabled: true
Boxcar width: 5
XAxis mode: Wavelengths
Number of Pixels in Spectrum: 2048
>>>>>Begin Spectral Data<<<<<
187.83	-298943.52
188.298	2176.31
188.766	1158.11
189.233	1098.34
189.701	1555.77
190.169	2160.48
190.636	827.96
191.104	671.45
191.571	112.52
192.039	-50.68
192.506	-48.24
192.974	449.65
193.441	-716.26
193.908	-328.5
194.375	-46.19
194.842	14.87
195.31	117.01
195.777	200.55
196.244	388.51
196.711	362.13
197.177	446.2
197.644	623.43
198.111	1032.31
198.578	1432.93
199.045	1170.35
199.511	1886.78
199.978	2202.48
200.445	1869.44
200.911	2038.91
201.378	2268.27
201.844	2104.62
202.31	3568.81
202.777	3713.3
203.243	2090
203.709	1998.31
204.176	2375.72
204.642	1947.97
205.108	1818.11
205.574	1476.66
206.04	1329.56
206.506	1242.08
206.972	1155.64
207.438	1101.84
207.903	1256.85
208.369	1098.66
208.835	1091.83
209.301	1124.83
209.766	1139.25
210.232	1122.79
210.697	1384
211.163	1687.08
211.628	2509.51
212.094	2148.99
212.559	2691.28
213.024	1665.81
213.49	2010.55
213.955	1935.59
214.42	1878.78
214.885	1764.18
215.35	1677.68
215.815	1626.31
216.28	1723.77
216.745	1373.97
217.21	1469.43
217.675	1297.39
218.14	1416.26
218.604	1525.19
219.069	1718.91
219.534	1786.86
219.998	2010.46
220.463	2384.43
220.927	2819.7
221.392	2610.91
221.856	2630.94
222.32	3218.29
222.785	3934.37
223.249	4905.7
223.713	5478.53
224.177	5440.64
224.642	6871.6
225.106	8407.49
225.57	9093.27
226.034	6793.86
226.497	10316.59
226.961	9297.14
227.425	10865.15
227.889	12035.75
228.353	11958.57
228.816	24567.94
229.28	23496.48
229.744	19784.6
230.207	12071.13
230.671	11934.28
231.134	19600.69
231.597	22554.64
232.061	22508.28
232.524	21855.08
232.987	15044.33
233.45	13584.21
233.914	12171.25
234.377	12409.47
234.84	11373.18
235.303	13382
235.766	14894.23
236.229	15424.95
236.691	9703.46
237.154	10882.36
237.617	8213.92
238.08	8402.03
238.542	9839.57
239.005	7051.97
239.468	7026.55
239.93	6641.33
240.393	6049.01
240.855	5317.14
241.317	5440.83
241.78	6628.74
242.242	6882.06
242.704	7453.18
243.166	6505.74
243.629	5934.63
244.091	6830.46
244.553	7499.07
245.015	8071.79
245.477	10442.69
245.939	15321.05
246.4	16280.62
246.862	15828.29
247.324	14908.02
247.786	16666.04
248.247	21862.32
248.709	22458.97
249.17	16826.35
249.632	15939.65
250.093	18519.5
250.555	15989.62
251.016	9780.04
251.477	9289.07
251.939	10042.34
252.4	10528.87
252.861	12488.52
253.322	11621.5
253.783	13839.04
254.244	17953
254.705	14094.5
255.166	12487.09
255.627	12307.31
256.088	17313.52
256.549	18387.04
257.009	15814.04
257.47	19202.79
257.931	15631.85
258.391	11722.49
258.852	12075.16
259.312	12631.67
259.773	15576.43
260.233	13193.58
260.694	11104.07
261.154	12606.3
261.614	10125.16
262.074	9042.56
262.534	9386.31
262.994	8856.11
263.455	11756.24
263.915	9904.5
264.374	9321.31
264.834	10157.82
265.294	11231.46
265.754	11635.21
266.214	10962.58
266.673	10250.94
267.133	12903.24
267.593	12783.86
268.052	15641.15
268.512	13584.38
268.971	16410.25
269.431	17984.93
269.89	16064.13
270.349	24062.32
270.809	26805.59
271.268	24165.69
271.727	53996.78
272.186	35001.78
272.645	26267.37
273.104	18893.94
273.563	27326.34
274.022	21411.81
274.481	18241.16
274.94	14087.02
275.399	10462.37
275.857	12158.8
276.316	16415.34
276.775	14620.96
277.233	14399.48
277.692	13477.41
278.15	15284.1
278.609	15771.3
279.067	14604.28
279.525	13591.73
279.984	17511.72
280.442	21058.06
280.9	20848.97
281.358	13716.17
281.816	12801.92
282.274	12539.24
282.732	12939.74
283.19	12986.33
283.648	11213.28
284.106	11945.19
284.564	12142.28
285.021	11294.99
285.479	8419.43
285.937	7652.96
286.394	6738.92
286.852	6957.23
287.309	7325.32
287.767	7112.37
288.224	6790.19
288.682	7445.88
289.139	8195.75
289.596	7521.67
290.053	7817.33
290.511	9874.3
290.968	11988.52
291.425	16262.34
291.882	13587.21
292.339	11849.37
292.796	11757.13
293.252	11090.65
293.709	8855.77
294.166	7942.74
294.623	8774.72
295.079	8424.89
295.536	8492.76
295.992	7713.43
296.449	7630.04
296.905	7942.18
297.362	7634.23
297.818	8031.03
298.274	8336.51
298.731	8467.84
299.187	8400.71
299.643	9014.81
300.099	10931.95
300.555	11963.16
301.011	10035.06
301.467	9739.2
301.923	11357.46
302.379	11105.3
302.835	10939.54
303.291	10973.56
303.746	12529.15
304.202	15825.03
304.658	15925.28
305.113	10728.25
305.569	10549.03
306.024	11232.56
306.479	10644.86
306.935	9007.47
307.39	9826.76
307.845	9082.27
308.301	9168.4
308.756	8931.86
309.211	8626.61
309.666	8842.91
310.121	11034
310.576	11220.3
311.031	11166.94
311.486	12813
311.94	12829.32
312.395	17218.63
312.85	32360.18
313.305	158589.2
313.759	826431.81
314.214	59888.57
314.668	47581.56
315.123	40143.29
315.577	14433.9
316.032	12841.28
316.486	16166.24
316.94	12801.97
317.394	8934
317.849	6974.81
318.303	6597.03
318.757	6247.6
319.211	6925.96
319.665	6082.36
320.119	6135.23
320.572	8780.87
321.026	8221.83
321.48	6834.82
321.934	7426.11
322.387	7442.23
322.841	8039.28
323.295	7285.42
323.748	8354.67
324.202	8476.93
324.655	10166.82
325.108	14258.72
325.562	10119.31
326.015	12034.11
326.468	9106.8
326.921	10210.42
327.374	9545.35
327.827	9959.79
328.28	11263.48
328.733	7570.94
329.186	6669.49
329.639	6385.5
330.092	5379.51
330.545	5126.86
330.997	5175.09
331.45	5680.06
331.903	6685.79
332.355	11492.16
332.808	11164.07
333.26	9206.07
333.713	9998.04
334.165	10101.11
334.617	13448.95
335.069	10854.9
335.522	19543.69
335.974	21709.89
336.426	19817.18
336.878	13689.96
337.33	6955.14
337.782	6805.47
338.234	8566.63
338.686	10258.11
339.137	12175.25
339.589	11482.6
340.041	9037.31
340.493	7802.9
340.944	7981.38
341.396	8625.09
341.847	7282.7
342.299	8627.95
342.75	10552.28
343.201	9184.35
343.653	10559.46
344.104	12969.17
344.555	10198.31
345.006	15810.24
345.457	12158.65
345.908	9652.76
346.359	9063.88
346.81	7398.19
347.261	7766.2
347.712	7625.36
348.163	8189.6
348.613	8342.23
349.064	7810.63
349.515	6864.28
349.965	7070.14
350.416	8481.49
350.866	9329.54
351.317	10551.38
351.767	17392.39
352.217	22061.35
352.668	18383.89
353.118	16882.67
353.568	16216.23
354.018	12847.07
354.468	13564.63
354.918	9761.96
355.368	8599.31
355.818	12171.65
356.268	35001.92
356.718	147435.54
357.168	36737.84
357.617	18472.21
358.067	20488.17
358.517	19252.03
358.966	22652.28
359.416	25555.35
359.865	27609.51
360.315	32760.93
360.764	15303.96
361.213	8631.09
361.663	8172.04
362.112	10106.11
362.561	16293.3
363.01	12362.77
363.459	10415.91
363.908	11261.02
364.357	9563.89
364.806	16200.86
365.255	11210.01
365.703	10330.16
366.152	10344.05
366.601	8394.22
367.05	6826.85
367.498	6232.3
367.947	6497.56
368.395	6760.22
368.844	5996.59
369.292	7198.74
369.74	4973.49
370.189	7597.21
370.637	8894.86
371.085	7702.01
371.533	9421.02
371.981	9073.4
372.429	8682.01
372.877	9072.08
373.325	7602.22
373.773	7751.14
374.221	6944.39
374.669	8605.99
375.116	7460.88
375.564	7516.84
376.012	8408.83
376.459	6948.69
376.907	8309.77
377.354	10032.23
377.801	9414.97
378.249	10897.26
378.696	13975.22
379.143	16925.22
379.591	18089.37
380.038	30751.79
380.485	22392.17
380.932	24295.58
381.379	22316.32
381.826	16538.56
382.273	11803.35
382.72	10350.26
383.166	10098.96
383.613	6558.91
384.06	5934.62
384.506	6888.43
384.953	5064.59
385.4	5091.33
385.846	4462.89
386.292	4337.88
386.739	4258.09
387.185	4221.46
387.631	4225.99
388.078	4130.97
388.524	4439.09
388.97	4118.57
389.416	3453.97
389.862	3690.66
390.308	3525.26
390.754	3597.02
391.2	3935.86
391.645	4036.05
392.091	3897.8
392.537	3791.69
392.983	3802.83
393.428	3772.6
393.874	4053.19
394.319	4103.59
394.765	3916.19
395.21	4022
395.655	3786.66
396.101	3553.1
396.546	3218.27
396.991	3247.75
397.436	3021.05
397.881	2932.56
398.326	2775.23
398.771	2632.96
399.216	2297.39
399.661	2068.1
400.106	2074.97
400.551	2132.44
400.995	1919.17
401.44	1904.36
401.885	1790.36
402.329	1814.91
402.774	1739.37
403.218	1692.24
403.663	1636.9
404.107	1690.56
404.551	1713.54
404.995	1570
405.44	1512.71
405.884	1536.89
406.328	1490.62
406.772	1491.71
407.216	1360.73
407.66	1317.56
408.104	1252.24
408.547	1174.41
408.991	1137.89
409.435	1095.21
409.879	1087.28
410.322	1075.36
410.766	1042.55
411.209	992.78
411.653	951.63
412.096	933.4
412.54	934.39
412.983	926.5
413.426	930.22
413.869	929.96
414.312	914.39
414.756	879.35
415.199	839.46
415.642	816.75
416.085	818.79
416.527	815.18
416.97	827.77
417.413	785.28
417.856	777.73
418.298	770.34
418.741	762.74
419.184	759.03
419.626	790.43
420.069	792.8
420.511	796.15
420.953	781.99
421.396	777.9
421.838	757.96
422.28	778.67
422.722	786.41
423.164	798.77
423.606	787.66
424.048	783.61
424.49	745.69
424.932	740.65
425.374	730.08
425.816	739.28
426.258	748.88
426.699	756.72
427.141	745.31
427.582	754.54
428.024	748.13
428.465	743.39
428.907	727.38
429.348	717.45
429.789	718.27
430.231	703.46
430.672	712.75
431.113	695.36
431.554	686.65
431.995	668.47
432.436	644.18
432.877	630.16
433.318	619.21
433.759	614.99
434.2	614
434.64	604.05
435.081	605.03
435.522	574.75
435.962	555.76
436.403	546.3
436.843	552.48
437.284	540.78
437.724	526.55
438.164	527.71
438.604	516.67
439.045	497.97
439.485	481.85
439.925	471.78
440.365	458.91
440.805	451.58
441.245	444.93
441.685	428.83
442.125	424.94
442.564	426.71
443.004	418.01
443.444	416.95
443.883	418.12
444.323	411.76
444.762	411.29
445.202	416.24
445.641	426.29
446.081	423.44
446.52	428.01
446.959	426.08
447.398	417.15
447.837	411.54
448.276	404.85
448.716	411.58
449.154	415.87
449.593	408.52
450.032	409.01
450.471	399.64
450.91	399.62
451.349	398.73
451.787	396.96
452.226	402.56
452.664	404.32
453.103	405.56
453.541	401.9
453.98	403.36
454.418	405.28
454.856	399.88
455.295	401.31
455.733	403.82
456.171	406.62
456.609	407.75
457.047	408.8
457.485	414.72
457.923	416.28
458.361	410.99
458.798	411.36
459.236	410.47
459.674	411.72
460.111	412.95
460.549	409.35
460.987	407.16
461.424	404.69
461.862	402.54
462.299	397.47
462.736	397.04
463.173	398.94
463.611	396.67
464.048	397.38
464.485	401.59
464.922	397.4
465.359	395.3
465.796	395.31
466.233	394.14
466.67	391.61
467.106	390.24
467.543	385.43
467.98	381.01
468.416	370.62
468.853	366.97
469.29	356.07
469.726	353.38
470.162	344.28
470.599	336.23
471.035	332.29
471.471	324.14
471.907	321.57
472.344	320.88
472.78	322.57
473.216	325.99
473.652	321.5
474.088	320.55
474.523	320.31
474.959	324.55
475.395	321.65
475.831	320.72
476.266	322.01
476.702	321.22
477.138	317.72
477.573	315.83
478.008	313.94
478.444	315.97
478.879	320.39
479.314	321.58
479.75	320.49
480.185	322.07
480.62	324.25
481.055	326.1
481.49	329.38
481.925	334.49
482.36	341.18
482.795	351.15
483.229	360.53
483.664	367.13
484.099	368.45
484.534	374.46
484.968	378.27
485.403	379.23
485.837	378.77
486.271	378.13
486.706	378.25
487.14	373.37
487.574	367.85
488.009	364.71
488.443	362.02
488.877	366.55
489.311	368.67
489.745	373.97
490.179	378
490.613	386.57
491.046	389.68
491.48	393.03
491.914	395.26
492.348	399.51
492.781	403.63
493.215	405.87
493.648	406.83
494.082	410.75
494.515	412.36
494.948	419.31
495.382	422.84
495.815	427.78
496.248	433.18
496.681	442.06
497.114	450.18
497.547	458.54
497.98	468.33
498.413	475.1
498.846	484.15
499.279	491.28
499.711	495.16
500.144	498.88
500.577	508.2
501.009	516.99
501.442	525.95
501.874	530.07
502.306	532.94
502.739	541.78
503.171	553.05
503.603	557.02
504.036	565.07
504.468	571.48
504.9	581.52
505.332	587.65
505.764	593.3
506.196	600.49
506.627	612.12
507.059	623.6
507.491	629.97
507.923	631.29
508.354	643.41
508.786	653.42
509.217	668.09
509.649	680.5
510.08	695.31
510.512	709.07
510.943	721.99
511.374	732.26
511.805	748.08
512.237	764.07
512.668	789.12
513.099	810.26
513.53	832.31
513.961	848.63
514.391	873.02
514.822	898.86
515.253	925.68
515.684	944.5
516.114	966.97
516.545	983.17
516.975	1003.42
517.406	1017.17
517.836	1019.31
518.267	1023.74
518.697	1038.26
519.127	1041.11
519.558	1047.39
519.988	1050.43
520.418	1059.24
520.848	1073.49
521.278	1079.54
521.708	1103.1
522.138	1113.75
522.567	1137.21
522.997	1157.08
523.427	1169.06
523.857	1182.9
524.286	1190.57
524.716	1203.21
525.145	1217.18
525.575	1225.42
526.004	1237.75
526.433	1224.05
526.863	1223.39
527.292	1217.11
527.721	1221.39
528.15	1225.2
528.579	1226.16
529.008	1235.71
529.437	1252.15
529.866	1261.62
530.295	1273.9
530.724	1283.42
531.152	1302.41
531.581	1313.43
532.01	1326.9
532.438	1332.86
532.867	1343.4
533.295	1357.12
533.723	1361.03
534.152	1359.33
534.58	1359.53
535.008	1347.68
535.436	1349.8
535.865	1356.39
536.293	1367.28
536.721	1379.01
537.149	1398.26
537.576	1400.97
538.004	1410.04
538.432	1415.15
538.86	1413.95
539.287	1420
539.715	1430.8
540.143	1431.51
540.57	1428.58
540.998	1425.26
541.425	1409.46
541.852	1394.36
542.28	1392.94
542.707	1381.41
543.134	1371.51
543.561	1368.97
543.988	1363.16
544.415	1362.31
544.842	1359.12
545.269	1353.43
545.696	1353.98
546.123	1361.87
546.549	1353.96
546.976	1343.89
547.403	1343.52
547.829	1344.73
548.256	1346.45
548.682	1344.53
549.108	1338.7
549.535	1337.53
549.961	1338.74
550.387	1329.69
550.813	1325.91
551.24	1329.33
551.666	1330.94
552.092	1323.2
552.518	1317.78
552.943	1312.25
553.369	1316
553.795	1319.21
554.221	1320.18
554.646	1317.51
555.072	1325.87
555.498	1328.35
555.923	1335.34
556.349	1345.68
556.774	1351.76
557.199	1352.39
557.625	1356.97
558.05	1352.91
558.475	1361.48
558.9	1360.32
559.325	1354.15
559.75	1349.49
560.175	1345.15
560.6	1338.75
561.025	1337.64
561.449	1338.37
561.874	1342.66
562.299	1346.08
562.723	1350.81
563.148	1343.26
563.572	1346.76
563.997	1353.61
564.421	1357.35
564.846	1357.28
565.27	1360.76
565.694	1357.24
566.118	1365.67
566.542	1371.43
566.966	1366.25
567.39	1363.18
567.814	1353.7
568.238	1352.42
568.662	1356.28
569.086	1357.17
569.509	1361.77
569.933	1351.24
570.357	1346.07
570.78	1330.61
571.204	1319.9
571.627	1311.96
572.05	1310.2
572.474	1311.27
572.897	1301.82
573.32	1296.73
573.743	1290
574.166	1276.74
574.589	1275.94
575.012	1269.95
575.435	1268.47
575.858	1262.51
576.281	1253.07
576.704	1240.12
577.126	1229.27
577.549	1221.04
577.972	1212.86
578.394	1203.98
578.817	1198.74
579.239	1183.71
579.661	1173.78
580.084	1161.5
580.506	1150.83
580.928	1146.66
581.35	1139.78
581.772	1137.39
582.194	1127.11
582.616	1117.04
583.038	1105.83
583.46	1096.68
583.882	1094.43
584.303	1096.27
584.725	1092.46
585.147	1094.92
585.568	1103.38
585.99	1110.94
586.411	1115.23
586.833	1125.34
587.254	1126.4
587.675	1136.32
588.096	1146.33
588.518	1143.02
588.939	1131.48
589.36	1129.39
589.781	1119.77
590.202	1099.33
590.623	1092.8
591.043	1089.9
591.464	1080.66
591.885	1077.45
592.305	1072.39
592.726	1062.26
593.147	1062.9
593.567	1058.45
593.987	1053.27
594.408	1048.86
594.828	1047.54
595.248	1043.28
595.669	1031.2
596.089	1026.38
596.509	1021.05
596.929	1011.63
597.349	1011.28
597.769	1002.74
598.189	998.86
598.608	999.72
599.028	1001.46
599.448	1000.48
599.867	991.5
600.287	986.96
600.706	983.33
601.126	976.58
601.545	976.51
601.965	976.22
602.384	972.91
602.803	974.58
603.222	970.9
603.641	965.61
604.061	963.36
604.48	959.52
604.898	965.6
605.317	968.54
605.736	969.84
606.155	966.94
606.574	959.19
606.992	962.93
607.411	959.21
607.829	953.76
608.248	951.3
608.666	949.02
609.085	948.92
609.503	942.1
609.921	937.94
610.339	939.19
610.758	938.88
611.176	935.16
611.594	928.38
612.012	925.01
612.43	926.26
612.847	929.93
613.265	930.65
613.683	933.27
614.101	933.56
614.518	929.68
614.936	921.75
615.353	910.82
615.771	908.48
616.188	908.46
616.606	905.65
617.023	900.66
617.44	890.72
617.857	884.97
618.274	878.49
618.691	874.55
619.108	868.24
619.525	863.36
619.942	867.16
620.359	868.64
620.776	864.49
621.192	862.79
621.609	860.56
622.026	865.57
622.442	869.32
622.859	870.28
623.275	865.4
623.691	868.86
624.108	877.98
624.524	887.6
624.94	887.4
625.356	893.74
625.772	901.5
626.188	909.95
626.604	910.47
627.02	908.18
627.436	907.83
627.852	912.59
628.268	921.42
628.683	913.26
629.099	907.28
629.514	904.48
629.93	906.29
630.345	909.44
630.761	906.74
631.176	908.73
631.591	905.5
632.007	900.74
632.422	898.12
632.837	889.59
633.252	888.61
633.667	881.17
634.082	873.37
634.497	865.09
634.911	851.71
635.326	848.62
635.741	836.45
636.155	828.15
636.57	828.46
636.984	828.16
637.399	828.82
637.813	827.29
638.228	825.45
638.642	827.72
639.056	820.57
639.47	819.53
639.884	812.99
640.298	807.39
640.712	805.2
641.126	796.17
641.54	789.35
641.954	783.52
642.368	774.75
642.781	770.01
643.195	756.68
643.609	754.9
644.022	749.8
644.436	745.66
644.849	736.35
645.262	726.81
645.676	726.61
646.089	722.04
646.502	713.21
646.915	708.9
647.328	696.64
647.741	695.59
648.154	686.33
648.567	684
648.98	674.34
649.393	674.41
649.805	670.41
650.218	664.31
650.631	652.74
651.043	647.45
651.456	642.72
651.868	640.2
652.28	649.93
652.693	657.61
653.105	659.86
653.517	664.47
653.929	662.92
654.341	666.85
654.753	658.91
655.165	662.51
655.577	659.56
655.989	655.59
656.401	650.29
656.813	626.71
657.224	611.86
657.636	591.75
658.047	580.06
658.459	566.83
658.87	558.98
659.282	550.17
659.693	536.13
660.104	524.9
660.515	513.35
660.926	509.5
661.338	505.17
661.749	499.8
662.159	493.52
662.57	488
662.981	483.13
663.392	477.21
663.803	476.08
664.213	472
664.624	467.73
665.035	468.34
665.445	460.13
665.855	454.94
666.266	450.5
666.676	447.64
667.086	441.22
667.497	440.68
667.907	436.31
668.317	430.38
668.727	428.48
669.137	426.9
669.547	424.59
669.956	424.72
670.366	424.45
670.776	423.24
671.186	424.78
671.595	427.05
672.005	426.95
672.414	425.6
672.824	425.28
673.233	425.48
673.642	427.02
674.052	429.49
674.461	430.75
674.87	433.39
675.279	433.02
675.688	432.23
676.097	432.73
676.506	432.4
676.915	440
677.323	441.26
677.732	442.31
678.141	442.31
678.549	436.1
678.958	435.86
679.366	435.73
679.775	438.31
680.183	446.79
680.592	450.97
681	455.05
681.408	454.5
681.816	460.79
682.224	466.65
682.632	475.35
683.04	495.11
683.448	512.2
683.856	533.37
684.264	558.53
684.671	579.84
685.079	606.49
685.487	636.59
685.894	676.97
686.302	710.22
686.709	740.49
687.116	774.57
687.524	804.59
687.931	829.73
688.338	852.55
688.745	870.26
689.152	893.04
689.559	922.68
689.966	950.75
690.373	965.23
690.78	994.91
691.187	1036.29
691.593	1069.21
692	1096.37
692.407	1139.36
692.813	1191.96
693.22	1233.37
693.626	1275.79
694.032	1309.67
694.439	1362.74
694.845	1404.13
695.251	1455.56
695.657	1502.88
696.063	1569.99
696.469	1621.86
696.875	1667.93
697.281	1695.01
697.687	1729.79
698.093	1757.34
698.498	1812.18
698.904	1852.22
699.31	1916.02
699.715	1961.56
700.12	2024.65
700.526	2040.77
700.931	2091.24
701.337	2131.92
701.742	2158.46
702.147	2219.02
702.552	2246.08
702.957	2290.11
703.362	2310.2
703.767	2332.28
704.172	2362.15
704.577	2331.78
704.981	2367.43
705.386	2381.9
705.791	2378.44
706.195	2431.41
706.6	2440.31
707.004	2497.15
707.408	2478.53
707.813	2498.3
708.217	2489.89
708.621	2493.52
709.025	2564.78
709.43	2566.7
709.834	2610.31
710.237	2662.63
710.641	2654.87
711.045	2671.92
711.449	2670.97
711.853	2695.32
712.256	2726.49
712.66	2756.24
713.064	2811.31
713.467	2844.08
713.87	2928.42
714.274	2964.12
714.677	3044.03
715.08	3160.89
715.484	3283.5
715.887	3430.61
716.29	3573.76
716.693	3724.31
717.096	3899.76
717.499	3996.28
717.901	4016.48
718.304	4034.98
718.707	4052.94
719.109	3981.08
719.512	3958.17
719.915	3861.99
720.317	3821.49
720.719	3853.35
721.122	3833.64
721.524	3800.35
721.926	3772.61
722.328	3845.22
722.731	3839.27
723.133	3862.33
723.535	4001.11
723.937	4019.96
724.338	4058.5
724.74	4089.31
725.142	4055.15
725.544	4056.2
725.945	4078.61
726.347	4074.38
726.748	4068.57
727.15	4079.26
727.551	4054.69
727.952	4034
728.354	4012.81
728.755	4013.06
729.156	3981.69
729.557	3962.45
729.958	3872.15
730.359	3828.01
730.76	3815.66
731.161	3774.88
731.562	3756.7
731.962	3756.91
732.363	3712.14
732.763	3668.16
733.164	3695.8
733.564	3651.12
733.965	3583.57
734.365	3560.61
734.766	3580.5
735.166	3553.03
735.566	3514.15
735.966	3496.23
736.366	3493.4
736.766	3450.05
737.166	3470.58
737.566	3438.39
737.966	3417.41
738.365	3445.68
738.765	3443.69
739.165	3390.58
739.564	3372.57
739.964	3402.67
740.363	3369.28
740.763	3366.95
741.162	3358.62
741.561	3336.61
741.96	3306.92
742.36	3324.32
742.759	3327.71
743.158	3354.89
743.557	3366.3
743.955	3396
744.354	3365.85
744.753	3406.91
745.152	3377.89
745.55	3416.56
745.949	3412.4
746.348	3413.8
746.746	3422.29
747.144	3395.29
747.543	3378.66
747.941	3414.46
748.339	3363.95
748.737	3357.75
749.136	3351.97
749.534	3397.5
749.932	3378.35
750.33	3391.64
750.727	3431.31
751.125	3413.64
751.523	3400.36
751.921	3431.21
752.318	3407.17
752.716	3449.56
753.113	3458.23
753.511	3474.99
753.908	3474.44
754.305	3463.12
754.703	3508.73
755.1	3551.56
755.497	3596.2
755.894	3732.58
756.291	3861.75
756.688	4099.26
757.085	4413.92
757.482	4861.05
757.878	5348.92
758.275	5788.37
758.672	6387.8
759.068	6881.76
759.465	7585.09
759.861	8488.81
760.258	9535.47
760.654	10074.77
761.05	9993.19
761.447	9536.41
761.843	8877.42
762.239	8200.38
762.635	7897.67
763.031	7602.72
763.427	7181.31
763.822	6731.88
764.218	6286.86
764.614	5715.5
765.01	5331.95
765.405	5083.74
765.801	4897.06
766.196	4654.69
766.592	4519.97
766.987	4294.92
767.382	4143.05
767.778	4079.53
768.173	3986.34
768.568	3938.78
768.963	3848.99
769.358	3863.58
769.753	3829.38
770.148	3767.7
770.542	3767.63
770.937	3745.53
771.332	3810.15
771.726	3825.95
772.121	3780.2
772.515	3820.62
772.91	3807.78
773.304	3858.16
773.699	3808.53
774.093	3847.04
774.487	3888.13
774.881	3918.95
775.275	3914.86
775.669	3884.11
776.063	3912.23
776.457	3936.8
776.851	3884.32
777.245	3880.95
777.638	3905.18
778.032	3989.25
778.425	3962.36
778.819	3993.82
779.212	3963.52
779.606	3933.78
779.999	3946.35
780.392	3936.4
780.786	3995
781.179	4006.66
781.572	4035.69
781.965	4043.43
782.358	4002.08
782.751	4042.06
783.143	4004.82
783.536	4056.86
783.929	4087.76
784.322	4170.41
784.714	4191.13
785.107	4189
785.499	4240.56
785.891	4224.66
786.284	4212.85
786.676	4314.96
787.068	4300.52
787.46	4338.36
787.852	4352.2
788.245	4414.62
788.636	4434.35
789.028	4484.47
789.42	4513.64
789.812	4519.49
790.204	4590.55
790.595	4662.34
790.987	4520.69
791.378	4539.09
791.77	4630.72
792.161	4726.03
792.553	4766.75
792.944	4688.08
793.335	4641.58
793.726	4690.88
794.117	4758.95
794.508	4859.35
794.899	4838.35
795.29	4940.28
795.681	4979.9
796.072	4877.62
796.463	4753.23
796.853	4761.8
797.244	4873.69
797.634	4896.59
798.025	4898.49
798.415	4905.25
798.806	4964.5
799.196	5025.56
799.586	5064.05
799.976	5039.12
800.366	5206.4
800.756	5371.15
801.146	5342.33
801.536	5366.15
801.926	5416.18
802.316	5434.49
802.706	5485.76
803.095	5396.73
803.485	5468.67
803.874	5497.88
804.264	5681.08
804.653	5663.2
805.043	5772.55
805.432	5849.58
805.821	5850.43
806.21	5867
806.599	5950.02
806.988	5978.72
807.377	6057.21
807.766	6149.13
808.155	6347.2
808.544	6161.28
808.933	6168.13
809.321	6151.4
809.71	6360.99
810.098	6472.79
810.487	6803.7
810.875	7148.91
811.264	7166.59
811.652	7376.4
812.04	7480.39
812.428	7602.13
812.816	8145.74
813.204	8448.79
813.592	8839.61
813.98	9080.65
814.368	9016.23
814.756	9360.09
815.144	9300.34
815.531	9639.78
815.919	9579.42
816.306	9795.35
816.694	9569.15
817.081	9607.01
817.469	9850.51
817.856	9842.11
818.243	10030.87
818.63	10309.8
819.017	9999.96
819.404	10043.73
819.791	10310.84
820.178	10754.62
820.565	10934.51
820.952	11601.58
821.339	11249.92
821.725	11382.4
822.112	10862.96
822.498	10828.2
822.885	10918.17
823.271	10857.51
823.657	11156.15
824.044	11163.27
824.43	11209.34
824.816	11190.75
825.202	10878.63
825.588	11605.33
825.974	11615.16
826.36	11981.56
826.746	12010.64
827.132	12262.12
827.517	12247.84
827.903	11684.12
828.289	11716.07
828.674	11160.5
829.06	11085.17
829.445	11367
829.83	11618.4
830.216	11962.49
830.601	12224.11
830.986	11942.81
831.371	11850.94
831.756	12244.95
832.141	11949.17
832.526	11941.95
832.911	12149
833.295	12064.94
833.68	12409.73
834.065	11971.45
834.449	11317.16
834.834	11266.27
835.218	11257.34
835.603	11501.25
835.987	11354.4
836.371	11950.51
836.755	11875.91
837.139	12163.77
837.524	12337.49
837.908	12203.69
838.291	12253.13
838.675	12301.36
839.059	12451.88
839.443	12453.02
839.827	12293.63
840.21	12636.63
840.594	12528.44
840.977	12682.49
841.361	12672.3
841.744	12949.21
842.127	12834.04
842.511	13006.67
842.894	13439.77
843.277	13715.33
843.66	14101.12
844.043	14156.89
844.426	13585.12
844.809	13362.06
845.191	13380.13
845.574	13048.59
845.957	12777.29
846.339	12707.25
846.722	12325.29
847.104	12370.16
847.487	12242.06
847.869	12246.24
848.252	12447.63
848.634	12684.34
849.016	12874.72
849.398	12960.25
849.78	13566.82
850.162	13579.81
850.544	13875.33
850.926	14336.7
851.307	14272.4
851.689	14478.77
852.071	14804.79
852.452	15036.97
852.834	15018.87
853.215	15301.81
853.597	15419.13
853.978	15633.58
854.359	15950.69
854.741	15236.67
855.122	15159.76
855.503	14959.7
855.884	15051.6
856.265	15009.94
856.646	15088.49
857.026	14802.04
857.407	14753.91
857.788	14857.2
858.169	15055.68
858.549	14452.11
858.93	14897.47
859.31	14934.91
859.69	15075.8
860.071	14784.96
860.451	14631.08
860.831	14101.92
861.211	14927.42
861.591	15317.73
861.971	15304.69
862.351	15438.32
862.731	15713.03
863.111	15906.07
863.491	16134.72
863.87	16767.72
864.25	17017.34
864.629	16725.41
865.009	17091.72
865.388	17702.55
865.768	18966.99
866.147	18897.77
866.526	17858.69
866.905	18072.03
867.284	19078.73
867.663	18115.79
868.042	17372.16
868.421	17315.02
868.8	17605
869.179	17775.65
869.558	16742.91
869.936	15437.89
870.315	15712.04
870.693	16093.35
871.072	17358.73
871.45	16535.4
871.828	16750.54
872.207	17594.58
872.585	17326.04
872.963	17806.39
873.341	17198.58
873.719	17005.85
874.097	16800.5
874.475	17121.97
874.853	17513.67
875.23	16780.67
875.608	17491.49
875.986	18913.04
876.363	18095.68
876.741	18662.22
877.118	18194.44
877.495	19091.69
877.873	19403.44
878.25	20432.78
878.627	19599.81
879.004	19887.14
879.381	19795.74
879.758	19277.43
880.135	17956.7
880.512	18982.56
880.889	18468.17
881.265	18273.51
881.642	18124.99
882.019	18436.33
882.395	18052.72
882.772	18772.28
883.148	17948.87
883.524	17880.24
883.901	17779.91
884.277	18048.07
884.653	17937.08
885.029	18468.31
885.405	20457.02
885.781	20306.78
886.157	19468.87
886.532	19716.09
886.908	19710.62
887.284	21918.07
887.659	22654.61
888.035	23352.62
888.411	23963.04
888.786	24283.22
889.161	25127.23
889.537	24669.97
889.912	25449.48
890.287	25431.02
890.662	26091.79
891.037	25614.1
891.412	23904.03
891.787	23644.18
892.162	22830.78
892.536	23363.99
892.911	22484.73
893.286	21999.05
893.66	21097.4
894.035	21639.96
894.409	23561.58
894.784	22610.72
895.158	22985.9
895.532	24338.46
895.906	25006.85
896.281	25581.94
896.655	25184.39
897.029	28783.58
897.402	29992.05
897.776	33406.88
898.15	33279.29
898.524	32923.76
898.898	33339.85
899.271	37319.38
899.645	32328.28
900.018	31045
900.392	32192.66
900.765	32402.42
901.138	29978.36
901.511	29502.69
901.884	27086.65
902.258	24993.87
902.631	25821.99
903.003	29722.31
903.376	26815.22
903.749	30053.47
904.122	32180.94
904.495	35442.78
904.867	35911.77
905.24	31180.8
905.612	29038.55
905.985	29686.02
906.357	31030.08
906.729	29603.67
907.102	25281.11
907.474	24312.53
907.846	24473.19
908.218	24149.76
908.59	21339.85
908.962	20644.32
909.334	22231.72
909.705	23348.92
910.077	22664.97
910.449	23592.98
910.82	24270.18
911.192	26714.75
911.563	27760.98
911.935	29693.36
912.306	29720.4
912.677	30686.97
913.048	30395.58
913.419	32982.67
913.79	33166.51
914.161	35586.68
914.532	34011.79
914.903	31256.67
915.274	29686.17
915.645	29258.67
916.015	25753.08
916.386	24565.63
916.756	26153.96
917.127	26978.77
917.497	24110.03
917.868	26250.87
918.238	24934.27
918.608	25655.11
918.978	26164.84
919.348	27705.35
919.718	28624.94
920.088	27575.66
920.458	28653.34
920.828	30138.69
921.198	28566.79
921.567	30494.96
921.937	23613.81
922.306	23831.56
922.676	25681.9
923.045	21441.6
923.415	20377.91
923.784	18556.22
924.153	19086.27
924.522	19064.13
924.891	17922.98
925.26	19198.84
925.629	18752.82
925.998	21551.9
926.367	21049.62
926.736	20070.93
927.104	23899.79
927.473	25683.76
927.842	31032.83
928.21	30734.35
928.578	32306.97
928.947	30548.38
929.315	30738.91
929.683	36066.2
930.051	36360.52
930.42	42220.63
930.788	36113.44
931.156	35866.57
931.523	33618.6
931.891	31058.42
932.259	29856.05
932.627	34606.87
932.994	49004.41
933.362	40499.53
933.729	35162.65
934.097	33660.71
934.464	28492.34
934.831	32841.61
935.199	32369.16
935.566	31423.36
935.933	31823.19
936.3	38534.81
936.667	29992.68
937.034	27083.1
937.401	26794.13
937.767	23154.23
938.134	20642.67
938.501	29118.34
938.867	31052.89
939.234	52524.51
939.6	44871.01
939.967	49507.62
940.333	33133.26
940.699	28228.37
941.065	22631.9
941.431	29682.53
941.798	28618.55
942.163	37546.78
942.529	23440.18
942.895	21569.96
943.261	13955.62
943.627	18285.35
943.992	16024.74
944.358	16056.53
944.723	16131.31
945.089	15733.1
945.454	14532.52
945.82	15498.77
946.185	14869.42
946.55	17238.62
946.915	15475.72
947.28	18104.09
947.645	15922.1
948.01	14689.49
948.375	15313.53
948.74	18336.13
949.104	21369.69
949.469	30768.42
949.834	54434.38
950.198	51692.54
950.562	30985.18
950.927	25767.65
951.291	31077.37
951.655	26514.19
952.02	24865.33
952.384	18807.22
952.748	16398.65
953.112	16001.13
953.476	13948.83
953.839	12875.87
954.203	12749.39
954.567	15941.71
954.931	25104.05
955.294	21468.95
955.658	21583.41
956.021	36720.7
956.385	62266.5
956.748	91836.88
957.111	142396.76
957.474	159882.75
957.837	179800.8
958.2	135946.72
958.563	48916.71
958.926	33088.76
959.289	50222.05
959.652	56113.16
960.015	42151.33
960.377	60503.93
960.74	69014.99
961.102	118949.47
961.465	127605.18
961.827	68587.54
962.189	131774.54
962.552	91449.88
962.914	73399.91
963.276	47637.33
963.638	39360.26
964	38972.71
964.362	26353.9
964.724	25452.99
965.085	18161.49
965.447	14898.28
965.809	16957.48
966.17	16946.51
966.532	18334.01
966.893	16818.8
967.255	15284.52
967.616	18012.65
967.977	14412.07
968.338	15729.87
968.699	12934.79
969.061	12953.14
969.421	13056.48
969.782	14633.77
970.143	12388.86
970.504	12852.14
970.865	14611.28
971.225	14962.17
971.586	14644.72
971.946	20887.34
972.307	18149.56
972.667	23705.39
973.027	24405.04
973.388	29605.61
973.748	20146.13
974.108	21919.44
974.468	29569.5
974.828	22811.05
975.188	17543.37
975.548	16137.28
975.907	13537.77
976.267	15175.48
976.627	12774.31
976.986	13237.16
977.346	12602.81
977.705	12131.52
978.064	11057.24
978.424	9217.69
978.783	9518.99
979.142	10869.95
979.501	10403.68
979.86	11011.95
980.219	10606.45
980.578	13684.7
980.937	15328.33
981.296	13669.27
981.654	14078.37
982.013	21876.62
982.371	28375.51
982.73	26510.03
983.088	30015.66
983.447	32015.25
983.805	45787.77
984.163	95751.59
984.521	106284.19
984.879	155912.68
985.237	-253880.72
985.595	244494.51
985.953	60788.85
986.311	35045.46
986.669	20341.97
987.026	17549.63
987.384	23631.9
987.741	24447.55
988.099	17471.9
988.456	13905.9
988.814	13025.97
989.171	11312.76
989.528	11163.2
989.885	11766.89
990.242	9339.52
990.599	11645.63
990.956	9516.88
991.313	6648.03
991.67	5455.45
992.027	5786.68
992.383	5151.26
992.74	4521.43
993.096	4749.16
993.453	4926.65
993.809	5115.98
994.165	6806.35
994.522	6249.9
994.878	6889.71
995.234	8648.87
995.59	8515.53
995.946	8044.66
996.302	9190
996.658	10592.65
997.013	11634.71
997.369	13822.37
997.725	17676.06
998.08	11473.76
998.436	17633.45
998.791	24366.95
999.147	24328.39
999.502	26617.03
999.857	19361.53
1000.212	31491.75
1000.567	44781.59
1000.922	25839.51
1001.277	16378.51
1001.632	12164.91
1001.987	15692.06
1002.342	11255.5
1002.696	8987.72
1003.051	7204.34
1003.406	8706.91
1003.76	8662.67
1004.114	8559.99
1004.469	7219.76
1004.823	5977.35
1005.177	6441.07
1005.531	5107.15
1005.885	4511.93
1006.239	5097.63
1006.593	6390.71
1006.947	8533.24
1007.301	6413.44
1007.655	6995.9
1008.008	5129.31
1008.362	5762.22
1008.715	8258.94
1009.069	7496.99
1009.422	11291.8
1009.776	22635.21
1010.129	15000.47
1010.482	12496.43
1010.835	10542.57
1011.188	21920.15
1011.541	20547.66
1011.894	-124978.66
1012.247	367594.21
1012.6	24903.75
1012.952	15743.66
1013.305	8088.25
1013.657	5862.16
1014.01	5556
1014.362	4600.74
1014.715	4113.7
1015.067	3581.8
1015.419	3512.97
1015.771	3126.77
1016.123	2794.56
1016.475	2885.67
1016.827	3070.4
1017.179	3312.03
1017.531	3305.81
1017.883	3367.3
1018.234	3270.09
1018.586	4107.54
1018.938	4363.95
1019.289	6059.16
1019.64	6935.38
1019.992	6439.53
1020.343	5849.02
1020.694	4662.41
1021.045	4081.93
1021.396	4709.51
1021.747	5084.36
1022.098	6076.13
1022.449	4413.76
1022.8	4097.27
1023.151	2845.56
1023.501	2522.96
1023.852	2728.39
1024.202	2842.53
1024.553	3111.26
1024.903	3069.38
1025.253	2631.64
1025.604	2365.91
1025.954	2932.85
1026.304	3564.11
1026.654	4156.65
1027.004	6082.5
1027.354	9837.86
1027.703	9349.25
1028.053	12251.28
1028.403	17639.79
1028.753	25496.45
1029.102	34302.41
1029.452	174889.4
1029.801	7516.4
1030.15	4848.33
1030.499	4065.46
897.758	2405.58
901.051	2350.55
904.343	2381.93
907.636	2387.99
910.928	2451.33
914.22	2363.6
917.511	2368.77
920.803	2422.98
924.094	2431.15
927.384	2421.9
930.675	2387.01
933.965	2346.44
937.255	2363.43
940.544	2328.81
943.834	2306.6
947.123	2242.18
950.411	2335.57
953.7	2312.49
956.988	2287.88
960.276	2228.57
963.563	2289.85
966.851	2294.14
970.138	2341.86
973.424	2340.12
976.711	2295.73
979.997	2373.6
983.283	2418.84
986.568	2338.42
989.853	2340.42
993.138	2366.93
996.423	2449.18
999.708	2396.57
1002.992	2437.35
1006.275	2322.35
1009.559	2341.26
1012.842	2445.4
1016.125	2389.55
1019.408	2368.78
1022.69	2438.25
1025.972	2466.34
1029.254	2439.37
1032.536	2384.69
1035.817	2406.77
1039.098	2367.17
1042.379	2456.05
1045.659	2476.44
1048.939	2416.19
1052.219	2430.64
1055.498	2433.72
1058.778	2425.49
1062.057	2402.31
1065.335	2427.6
1068.614	2441.17
1071.892	2427.54
1075.17	2492.95
1078.447	2486.56
1081.724	2479.05
1085.001	2510.44
1088.278	2484.78
1091.554	2494.52
1094.83	2487.91
1098.106	2518.81
1101.382	2555.06
1104.657	2556.58
1107.932	2555.43
1111.206	2524.18
1114.481	2482.91
1117.755	2484.45
1121.029	2470.08
1124.302	2525.97
1127.575	2483.12
1130.848	2476.34
1134.121	2442.2
1137.393	2398
1140.665	2458.92
1143.937	2434.83
1147.208	2391.9
1150.48	2438.12
1153.75	2423.77
1157.021	2445.06
1160.291	2416.49
1163.561	2465.37
1166.831	2446.8
1170.101	2474.44
1173.37	2444.53
1176.639	2395.61
1179.907	2446.09
1183.176	2460.77
1186.444	2463.59
1189.711	2491.38
1192.979	2505.15
1196.246	2462.6
1199.513	2477.68
1202.78	2476.85
1206.046	2487.1
1209.312	2512.06
1212.578	2533.7
1215.843	2494.63
1219.108	2464.46
1222.373	2489.72
1225.638	2457.4
1228.902	2445.45
1232.166	2410.01
1235.43	2396.71
1238.693	2419.08
1241.956	2414.23
1245.219	2456.6
1248.482	2444.65
1251.744	2440.78
1255.006	2576.63
1258.268	2525.24
1261.529	2476.19
1264.79	2480.16
1268.051	2580.08
1271.312	2590.74
1274.572	2559.8
1277.832	2547.6
1281.092	2532.87
1284.351	2514.18
1287.61	2497.32
1290.869	2421.67
1294.128	2411.15
1297.386	2479.15
1300.644	2469.05
1303.902	2479.33
1307.159	2346.2
1310.416	2398.3
1313.673	2424.61
1316.93	2417.99
1320.186	2453.55
1323.442	2490.59
1326.697	2487.17
1329.953	2469.53
1333.208	2496.13
1336.463	2478.55
1339.717	2428.35
1342.972	2548.93
1346.226	2522.85
1349.479	2464.63
1352.733	2440.3
1355.986	2458.64
1359.238	2438.29
1362.491	2440.87
1365.743	2442.01
1368.995	2437.44
1372.247	2448.87
1375.498	2471.12
1378.749	2495.73
1382	2455.43
1385.251	2499.69
1388.501	2458.08
1391.751	2448.61
1395	2417.49
1398.25	2447.92
1401.499	2465.04
1404.748	2404.21
1407.996	2388.69
1411.244	2376.47
1414.492	2359.63
1417.74	2340.75
1420.987	2350.07
1424.234	2405.65
1427.481	2380.05
1430.728	2436.8
1433.974	2411.98
1437.22	2417.99
1440.465	2416.49
1443.711	2397.63
1446.956	2424.96
1450.201	2408.5
1453.445	2446.48
1456.689	2428.19
1459.933	2441.1
1463.177	2474.53
1466.42	2448.76
1469.663	2428.72
1472.906	2432.2
1476.148	2487.37
1479.391	2482.03
1482.633	2453.36
1485.874	2466.37
1489.115	2464.1
1492.356	2459.53
1495.597	2436.04
1498.838	2433.2
1502.078	2409.98
1505.318	2372.6
1508.557	2410.13
1511.797	2400.18
1515.036	2426.08
1518.274	2411.67
1521.513	2376.24
1524.751	2392.97
1527.989	2408.66
1531.227	2423.41
1534.464	2423.66
1537.701	2430.45
1540.938	2445.05
1544.174	2397.03
1547.41	2391.79
1550.646	2427.43
1553.882	2469.83
1557.117	2519.38
1560.352	2532.52
1563.587	2493.47
1566.821	2457.91
1570.055	2483.71
1573.289	2458.1
1576.523	2523.67
1579.756	2533.1
1582.989	2550.18
1586.222	2514.07
1589.454	2543.82
1592.686	2524.88
1595.918	2549.28
1599.15	2539.45
1602.381	2600.3
1605.612	2568.65
1608.843	2663.92
1612.073	2582.49
1615.303	2568.26
1618.533	2563.6
1621.762	2565.24
1624.992	2547.6
1628.221	2542.54
1631.449	2527.92
1634.678	2570.99
1637.906	2531.27
1641.134	2564.45
1644.361	2526.04
1647.588	2514.01
1650.815	2532.61
1654.042	2507.94
1657.269	2531.88
1660.495	2497.15
1663.72	2504.72
1666.946	2472.87
1670.171	2431.28
1673.396	2407.88
1676.621	2391.97
1679.845	2400.5
1683.069	2417.71
1686.293	2450.89
1689.517	2432.97
1692.74	2377.62
1695.963	2402.7
1699.185	2428.85
1702.408	2400.89
1705.63	2437.76
1708.852	2452.11
1712.073	2424.85
1715.294	2422.83
1718.515	2473.45
1721.736	2428.42
1724.956	2414.76
1728.176	2438.46
1731.396	2460.59
1734.616	2446.9
1737.835	2482.48
1741.054	2455.6
1744.272	2448.57
1747.491	2482.38
1750.709	2520.03
1753.927	2447.32
1757.144	2484.21
1760.361	2531.5
1763.578	2516.94
1766.795	2462.73
1770.011	2461.34
1773.227	2492.81
1776.443	2531.32
1779.658	2572.41
1782.874	2516.45
1786.089	2501.97
1789.303	2504.36
1792.518	2506.38
1795.732	2494.66
1798.945	2508.12
1802.159	2555.03
1805.372	2476.79
1808.585	2465.76
1811.797	2467.07
1815.01	2504.76
1818.222	2517.69
1821.434	2491.23
1824.645	2541.12
1827.856	2536.92
1831.067	2568.52
1834.278	2517.88
1837.488	2501.91
1840.698	2637.06
1843.908	2572.33
1847.117	2538.85
1850.326	2444.95
1853.535	2527.87
1856.744	2551.84
1859.952	2469.96
1863.16	2472.35
1866.368	2491.84
1869.575	2597.37
1872.782	2487.55
1875.989	2424.54
1879.196	2490.41
1882.402	2482.84
1885.608	2522.31
1888.814	2444.42
1892.019	2349.27
1895.224	2404
1898.429	2379.02
1901.634	2361.02
1904.838	2337.44
1908.042	2388.14
1911.246	2401.46
1914.449	2351.79
1917.652	2338.42
1920.855	2320.05
1924.058	2357.43
1927.26	2399.34
1930.462	2423.09
1933.664	2454.46
1936.865	2397.23
1940.066	2409.04
1943.267	2353.51
1946.467	2366.67
1949.668	2387.53
1952.868	2459.18
1956.067	2441.6
1959.267	2378.16
1962.466	2402.66
1965.665	2386.63
1968.863	2383.89
1972.061	2389.28
1975.259	2384.66
1978.457	2462.44
1981.654	2419.89
1984.852	2424.16
1988.048	2366.85
1991.245	2362.73
1994.441	2446.24
1997.637	2417.04
2000.833	2399.64
2004.028	2435.52
2007.223	2495.08
2010.418	2477.42
2013.613	2435.48
2016.807	2418.39
2020.001	2417.26
2023.194	2451.55
2026.388	2430.52
2029.581	2377.25
2032.774	2434.24
2035.966	2442.19
2039.158	2380.01
2042.35	2404.57
2045.542	2329.65
2048.733	2421.18
2051.924	2426.26
2055.115	2448.28
2058.306	2401.18
2061.496	2459.37
2064.686	2513.3
2067.875	2426.37
2071.065	2433.44
2074.254	2456.07
2077.442	2408.01
2080.631	2496.85
2083.819	2406
2087.007	2394.71
2090.195	2374.52
2093.382	2399
2096.569	2380.01
2099.756	2340.28
2102.942	2375.13
2106.128	2385.47
2109.314	2375.41
2112.5	2351.12
2115.685	2322.9
2118.87	2331.91
2122.055	2395.65
2125.239	2368.71
2128.424	2349.83
2131.608	2431.54
2134.791	2414.06
2137.974	2459.22
2141.157	2446.75
2144.34	2410.04
2147.523	2412.99
2150.705	2432.77
2153.887	2406.82
2157.068	2368.11
2160.25	2359.98
2163.431	2389.36
2166.611	2346.18
2169.792	2365.37
2172.972	2272.11
2176.152	2335.37
2179.331	2365.58
2182.511	2356.24
2185.69	2383.45
2188.868	2381.4
2192.047	2425.61
2195.225	2427.11
2198.403	2380.82
2201.58	2370.93
2204.758	2361.14
2207.935	2437.61
2211.111	2340.15
2214.288	2327.84
2217.464	2365.55
2220.64	2327.16
2223.815	2380.73
2226.991	2309.69
2230.166	2328.43
2233.34	2361.14
2236.515	2378.87
2239.689	2450.31
2242.863	2398.59
2246.036	2453.6
2249.209	2444.46
2252.382	2470.16
2255.555	2470.9
2258.727	2414.91
2261.9	2448.75
2265.071	2439.98
2268.243	2440.36
2271.414	2381.7
2274.585	2351.16
2277.756	2414.43
2280.926	2371.08
2284.096	2405.96
2287.266	2326.96
2290.436	2375.9
2293.605	2401.32
2296.774	2433.52
2299.942	2444.62
2303.111	2464.44
2306.279	2513.32
2309.447	2499.76
2312.614	2473.87
2315.781	2494.38
2318.948	2471.56
2322.115	2507.35
2325.281	2407.72
2328.447	2421.41
2331.613	2396.61
2334.779	2380.01
2337.944	2376.25
2341.109	2378.73
2344.274	2367.43
2347.438	2331.12
2350.602	2354.75
2353.766	2366.43
2356.929	2354.99
2360.092	2397.61
2363.255	2357.04
2366.418	2306.72
2369.58	2396.14
2372.742	2231.8
2375.904	2234.76
2379.066	2213.87
2382.227	2244.35
2385.388	2210.58
2388.548	2147.25
2391.709	2194.95
2394.869	2176.83
2398.029	2255.44
2401.188	2259.56
2404.347	2209.39
2407.506	2317.59
2410.665	2351.22
2413.823	2346.5
2416.981	2317.53
2420.139	2339.06
2423.296	2384.7
2426.453	2356.01
2429.61	2381.62
2432.767	2333.24
2435.923	2371.19
2439.079	2326.29
2442.235	2365.68
2445.391	2300.5
2448.546	2336.41
2451.701	2377.44
2454.855	2361.84
2458.009	2400.96
2461.163	2396.96
2464.317	2359.93
2467.471	2389.31
2470.624	2423.53
2473.777	2402.37
2476.929	2418.64
2480.082	2441.74
2483.234	2410.13
2486.385	2357.98
2489.537	2351.67
2492.688	2330.43
2495.839	2346.33
2498.989	2360.83
2502.14	2344.98
2505.29	2331.74
2508.439	2359.02
2511.589	2290.8
2514.738	2297.93
2517.887	2323.79
2521.035	2394.57
2524.183	2367.44
2527.331	2349.01
2530.479	2335.53
2533.627	2340.13
