Data from N_2_DIV_PA_2N_Splice17_12-39-09-486.txt Node
Date: Sat Mar 14 12:39:09 EDT 2020
User: sa697716
Spectrometer: FLMS03696
Trigger mode: 0
Integration Time (sec): 3.180400E-1
Scans to average: 20
Electric dark correction enabled: true
Nonlinearity correction enabled: true
Boxcar width: 5
XAxis mode: Wavelengths
Number of Pixels in Spectrum: 2048
>>>>>Begin Spectral Data<<<<<
187.83	-341868.14
188.298	2440.41
188.766	1309.82
189.233	1149.71
189.701	1717.72
190.169	2407.85
190.636	920.56
191.104	797.29
191.571	129.95
192.039	-81.35
192.506	-97.33
192.974	615.19
193.441	-1196.73
193.908	-360.72
194.375	-142.65
194.842	-22.13
195.31	94.24
195.777	205.12
196.244	482.1
196.711	555.39
197.177	677.06
197.644	942.48
198.111	1671.65
198.578	2349.78
199.045	1846.99
199.511	3001.5
199.978	3483.85
200.445	2955.31
200.911	3240.47
201.378	3604.63
201.844	3264.72
202.31	5596.91
202.777	5821.11
203.243	3196.89
203.709	3025.18
204.176	3609.56
204.642	3008.79
205.108	2822.55
205.574	2298.85
206.04	2108.44
206.506	1976.48
206.972	1863.83
207.438	1786.63
207.903	2042.99
208.369	1780.42
208.835	1777.65
209.301	1857.64
209.766	1881.54
210.232	1861.94
210.697	2299.07
211.163	2838.11
211.628	4288.8
212.094	3596.66
212.559	4441.16
213.024	2747.53
213.49	3362.86
213.955	3275.76
214.42	3188.99
214.885	2960.94
215.35	2853.78
215.815	2764.57
216.28	2917.16
216.745	2366.19
217.21	2529.31
217.675	2288.12
218.14	2539.9
218.604	2818.59
219.069	3192.66
219.534	3332.61
219.998	3827.97
220.463	4562.93
220.927	5548.84
221.392	5196.11
221.856	5251.41
222.32	6586.69
222.785	8118.04
223.249	10215.91
223.713	11347.67
224.177	11336.37
224.642	14482.15
225.106	17841.48
225.57	19477.69
226.034	14458.8
226.497	21936.48
226.961	19770.8
227.425	23035.82
227.889	25548.63
228.353	25483.23
228.816	52531.34
229.28	50174.28
229.744	42330.27
230.207	25724.3
230.671	25299.81
231.134	41821.16
231.597	48302.85
232.061	48318.43
232.524	47040.33
232.987	32361.41
233.45	29158.81
233.914	26155.09
234.377	26798.7
234.84	24520.62
235.303	28898.16
235.766	32254.65
236.229	33341.03
236.691	20975.22
237.154	23541.24
237.617	17728.94
238.08	18154.99
238.542	21229.44
239.005	15181.32
239.468	15078.86
239.93	14226.67
240.393	12925.12
240.855	11351.99
241.317	11618.1
241.78	14134.64
242.242	14613.63
242.704	15800.07
243.166	13771.77
243.629	12534.09
244.091	14464.92
244.553	15830.8
245.015	17013.27
245.477	22030.15
245.939	32276.18
246.4	34261.8
246.862	33308.81
247.324	31433.28
247.786	35143.72
248.247	46053.75
248.709	47519.74
249.17	35544.48
249.632	33571.15
250.093	38956.93
250.555	33616.5
251.016	20511.49
251.477	19443.49
251.939	21002.44
252.4	22010.52
252.861	26132.21
253.322	24317.72
253.783	28912.91
254.244	37472.89
254.705	29485.76
255.166	26189.09
255.627	25796.66
256.088	36412.18
256.549	38709.96
257.009	33296.85
257.47	40370.69
257.931	32934.9
258.391	24684.7
258.852	25473.06
259.312	26713.17
259.773	33027.09
260.233	27939.88
260.694	23585.31
261.154	26736.04
261.614	21499.79
262.074	19261.64
262.534	20028.21
262.994	18884.49
263.455	25158.6
263.915	21196.24
264.374	19959.36
264.834	21782.62
265.294	24128.82
265.754	24965.43
266.214	23671.55
266.673	22157.05
267.133	27916.82
267.593	27710.43
268.052	33914.12
268.512	29479.17
268.971	35563
269.431	39040.74
269.89	34992.28
270.349	52503.8
270.809	58633.87
271.268	52695.06
271.727	118251.1
272.186	76688.7
272.645	57592.54
273.104	41528.95
273.563	60196.8
274.022	47341.43
274.481	40301.21
274.94	31065.78
275.399	23101.32
275.857	26892.91
276.316	36366.14
276.775	32383.99
277.233	31922.72
277.692	29913.25
278.15	33915.96
278.609	34959.23
279.067	32361.97
279.525	30069.86
279.984	38851.96
280.442	46667.34
280.9	46061.81
281.358	30348.67
281.816	28300.53
282.274	27734.51
282.732	28624.99
283.19	28756.53
283.648	24800.84
284.106	26445.86
284.564	26899.62
285.021	24978.81
285.479	18633.36
285.937	16965.49
286.394	14884.4
286.852	15324.17
287.309	16098.15
287.767	15594.62
288.224	14838.16
288.682	16302.74
289.139	17886.9
289.596	16389.48
290.053	17038.71
290.511	21522.87
290.968	26089.83
291.425	35424.75
291.882	29482.43
292.339	25648.87
292.796	25410.03
293.252	23920.58
293.709	18981.93
294.166	17045.7
294.623	18830.94
295.079	18054.69
295.536	18144.8
295.992	16473.14
296.449	16303.33
296.905	16918.18
297.362	16245.4
297.818	17083.22
298.274	17751.69
298.731	18108.11
299.187	17918.42
299.643	19241.16
300.099	23280.23
300.555	25504.7
301.011	21324.75
301.467	20542.11
301.923	24098.23
302.379	23536.76
302.835	23141.44
303.291	23195.65
303.746	26396.65
304.202	33365.62
304.658	33527.78
305.113	22574.61
305.569	22156.85
306.024	23608.86
306.479	22519.85
306.935	18985
307.39	20751.18
307.845	19174.68
308.301	19285.95
308.756	18808.57
309.211	18119.52
309.666	18564.87
310.121	23056.86
310.576	23424.2
311.031	23298.23
311.486	26696.62
311.94	26717.19
312.395	35771.4
312.85	67296
313.305	330814.79
313.759	1716991.52
314.214	124469.72
314.668	98750.5
315.123	83223.8
315.577	29898.39
316.032	26590.9
316.486	33343.12
316.94	26328.25
317.394	18359.71
317.849	14279.88
318.303	13528.05
318.757	12747.43
319.211	14118.75
319.665	12369.64
320.119	12509.87
320.572	17899.52
321.026	16742.25
321.48	13912.57
321.934	15162.38
322.387	15178.14
322.841	16384.34
323.295	14738.76
323.748	16964.61
324.202	17196.83
324.655	20679.88
325.108	28936.96
325.562	20498.8
326.015	24373.13
326.468	18410.36
326.921	20642.12
327.374	19252.53
327.827	20070.69
328.28	22766.95
328.733	15293.38
329.186	13466.75
329.639	12810.57
330.092	10779.37
330.545	10262.45
330.997	10353
331.45	11369.55
331.903	13331.07
332.355	22955.83
332.808	22330.94
333.26	18410
333.713	19991.2
334.165	20131.65
334.617	26931.01
335.069	21780.43
335.522	39369.17
335.974	43662.15
336.426	39882.98
336.878	27590.17
337.33	13992.8
337.782	13652.17
338.234	17130.49
338.686	20502.11
339.137	24313.45
339.589	22886.72
340.041	17954.96
340.493	15442.03
340.944	15798.36
341.396	17009.48
341.847	14314.73
342.299	16871.49
342.75	20621.76
343.201	17992.44
343.653	20648.13
344.104	25358.15
344.555	19975.41
345.006	31012.38
345.457	23800.58
345.908	18923.05
346.359	17822.85
346.81	14515.5
347.261	15303.26
347.712	15088.62
348.163	16173.84
348.613	16440.53
349.064	15359.76
349.515	13460.01
349.965	13825.72
350.416	16621
350.866	18222.37
351.317	20593.76
351.767	34177.64
352.217	43235.42
352.668	35791.98
353.118	32802.52
353.568	31545.27
354.018	24985.19
354.468	26344.58
354.918	18957.64
355.368	16583.44
355.818	23512.3
356.268	67662.95
356.718	283563.1
357.168	70681.67
357.617	35623.3
358.067	39686.49
358.517	37254.77
358.966	43766.47
359.416	49097.52
359.865	53055
360.315	63227.34
360.764	29500.56
361.213	16553.01
361.663	15649.84
362.112	19325.34
362.561	31233.11
363.01	23555.32
363.459	19835.23
363.908	21447.54
364.357	18251.41
364.806	30794.34
365.255	21213.02
365.703	19455.69
366.152	19518.51
366.601	15842.29
367.05	12865.45
367.498	11690.4
367.947	12242.41
368.395	12739.19
368.844	11305.28
369.292	13617.61
369.74	9428.21
370.189	14451.04
370.637	16949.86
371.085	14624.38
371.533	17833.65
371.981	17211.3
372.429	16443.09
372.877	17153.52
373.325	14398.97
373.773	14691.68
374.221	13103.04
374.669	16263.31
375.116	14080.56
375.564	14204.01
376.012	15902.01
376.459	13144.78
376.907	15732.52
377.354	19063.41
377.801	17816.8
378.249	20551.32
378.696	26242.96
379.143	31895.76
379.591	34196.06
380.038	58033.19
380.485	42107.91
380.932	45600.32
381.379	41920.2
381.826	30994.45
382.273	22081.42
382.72	19343.65
383.166	18901.16
383.613	12334.38
384.06	11174.23
384.506	12978.57
384.953	9573.45
385.4	9681.3
385.846	8516.96
386.292	8305.66
386.739	8169.31
387.185	8108.4
387.631	8149.78
388.078	7945.22
388.524	8527.59
388.97	7886.01
389.416	6601.78
389.862	7050.64
390.308	6706.63
390.754	6834.42
391.2	7462.63
391.645	7662.22
392.091	7367.59
392.537	7139.55
392.983	7182.52
393.428	7103.71
393.874	7649.05
394.319	7699.44
394.765	7336.05
395.21	7567.7
395.655	7127.62
396.101	6697.75
396.546	6063.76
396.991	6129.86
397.436	5719.88
397.881	5536.22
398.326	5250.83
398.771	4986.42
399.216	4373.28
399.661	3945.91
400.106	3940.76
400.551	4045.56
400.995	3632.63
401.44	3604.99
401.885	3395.6
402.329	3438.39
402.774	3304.7
403.218	3218.89
403.663	3110.41
404.107	3208.16
404.551	3239.49
404.995	2981.05
405.44	2877.35
405.884	2927.5
406.328	2841.4
406.772	2840.28
407.216	2593.75
407.66	2512.68
408.104	2387.03
408.547	2241.91
408.991	2175.95
409.435	2101.42
409.879	2076.35
410.322	2056.42
410.766	1996.01
411.209	1903.5
411.653	1830.93
412.096	1797.83
412.54	1805.23
412.983	1798
413.426	1803.38
413.869	1802.2
414.312	1770.23
414.756	1710.43
415.199	1633.9
415.642	1586.99
416.085	1588.69
416.527	1581.39
416.97	1608.54
417.413	1524.95
417.856	1506
418.298	1493.39
418.741	1485.69
419.184	1483.72
419.626	1546
420.069	1548.07
420.511	1558.72
420.953	1526.88
421.396	1514.17
421.838	1476.16
422.28	1514.59
422.722	1527.22
423.164	1549.11
423.606	1525.89
424.048	1524.53
424.49	1449.32
424.932	1444.41
425.374	1423.46
425.816	1450.22
426.258	1478.4
426.699	1495.99
427.141	1472.99
427.582	1498.03
428.024	1492.11
428.465	1484.79
428.907	1451.05
429.348	1436.16
429.789	1436.25
430.231	1407.08
430.672	1426.02
431.113	1394.26
431.554	1375.59
431.995	1340.95
432.436	1291.92
432.877	1265.43
433.318	1243.73
433.759	1238.36
434.2	1238.28
434.64	1224.25
435.081	1228.97
435.522	1165.22
435.962	1122.97
436.403	1097.99
436.843	1113.51
437.284	1089.56
437.724	1058.13
438.164	1059.54
438.604	1033.4
439.045	991.69
439.485	951.8
439.925	930.35
440.365	905.54
440.805	892.22
441.245	881.15
441.685	849.21
442.125	840.53
442.564	846.75
443.004	828.51
443.444	825.85
443.883	826.7
444.323	819.07
444.762	819.06
445.202	828.79
445.641	842.86
446.081	834.95
446.52	839.22
446.959	831.49
447.398	807.67
447.837	794.19
448.276	779.78
448.716	784.76
449.154	789.51
449.593	772.17
450.032	768.3
450.471	750.63
450.91	749.64
451.349	747.81
451.787	742.62
452.226	753.94
452.664	752.97
453.103	752.14
453.541	750.72
453.98	747.51
454.418	749.84
454.856	738.91
455.295	737.98
455.733	744.14
456.171	746.45
456.609	748.99
457.047	747.11
457.485	757.76
457.923	758.65
458.361	747.22
458.798	749.17
459.236	747.7
459.674	750.47
460.111	752.98
460.549	745.13
460.987	741.87
461.424	737.23
461.862	732.78
462.299	720.78
462.736	720.35
463.173	723.25
463.611	717.21
464.048	715.95
464.485	723.01
464.922	715.45
465.359	711.32
465.796	704.38
466.233	699.55
466.67	694.27
467.106	693.45
467.543	686
467.98	676.79
468.416	657.76
468.853	650.73
469.29	630.47
469.726	624.49
470.162	608.05
470.599	597.79
471.035	591.33
471.471	577.53
471.907	572.71
472.344	568.09
472.78	568.56
473.216	575.36
473.652	568.96
474.088	566.38
474.523	565.05
474.959	569.26
475.395	562.92
475.831	558.97
476.266	560.66
476.702	559.42
477.138	552.71
477.573	550.44
478.008	546.66
478.444	548.01
478.879	552.67
479.314	553.93
479.75	553.1
480.185	554.7
480.62	558.28
481.055	559.64
481.49	563.39
481.925	570.67
482.36	580.73
482.795	596.16
483.229	611.3
483.664	623.91
484.099	624.35
484.534	632.96
484.968	638.62
485.403	640.51
485.837	639.52
486.271	636.17
486.706	636.08
487.14	626.73
487.574	615.57
488.009	608.83
488.443	601.22
488.877	605.89
489.311	605.85
489.745	611.52
490.179	614.99
490.613	623.78
491.046	626.41
491.48	627.84
491.914	626.49
492.348	628.84
492.781	630.01
493.215	628.56
493.648	626.21
494.082	627.22
494.515	623.87
494.948	626.98
495.382	626.35
495.815	626.72
496.248	627.86
496.681	633.87
497.114	638.91
497.547	641.58
497.98	647.79
498.413	649.55
498.846	653.1
499.279	654.81
499.711	652.47
500.144	649.91
500.577	653.17
501.009	655.74
501.442	659.1
501.874	653.16
502.306	648.69
502.739	649.47
503.171	653.65
503.603	649.39
504.036	649.84
504.468	647.84
504.9	649.03
505.332	646.61
505.764	643.29
506.196	639.98
506.627	643.95
507.059	646.47
507.491	643.17
507.923	634.36
508.354	638.01
508.786	638.23
509.217	642.55
509.649	646.16
510.08	651.24
510.512	655.54
510.943	658.84
511.374	659.9
511.805	665.99
512.237	672.13
512.668	686.34
513.099	696.05
513.53	706.6
513.961	713.88
514.391	727.11
514.822	743.32
515.253	759.61
515.684	769.4
516.114	781.43
516.545	790.16
516.975	800.69
517.406	806.01
517.836	803.93
518.267	804.13
518.697	811.86
519.127	811.98
519.558	812.51
519.988	811.93
520.418	815.9
520.848	823.73
521.278	826.41
521.708	860.15
522.138	868.38
522.567	884.91
522.997	899.74
523.427	907.7
523.857	916.91
524.286	922.89
524.716	932.53
525.145	945.19
525.575	952.61
526.004	962.21
526.433	935.36
526.863	935.74
527.292	932.68
527.721	936.68
528.15	941.01
528.579	942.76
529.008	949.97
529.437	962.69
529.866	970.51
530.295	981.36
530.724	990.95
531.152	1008.2
531.581	1018.53
532.01	1029.48
532.438	1035.99
532.867	1046.69
533.295	1058.96
533.723	1064.04
534.152	1065.85
534.58	1068.1
535.008	1060.61
535.436	1063.37
535.865	1069.56
536.293	1077.01
536.721	1086.37
537.149	1101.54
537.576	1105.03
538.004	1113.91
538.432	1118.67
538.86	1118.78
539.287	1123.02
539.715	1133.37
540.143	1134.89
540.57	1132.91
540.998	1132.3
541.425	1121.76
541.852	1110.55
542.28	1108.39
542.707	1098.79
543.134	1092.45
543.561	1090.11
543.988	1086.39
544.415	1085.78
544.842	1082.02
545.269	1078.69
545.696	1081.22
546.123	1089.47
546.549	1083.75
546.976	1076.84
547.403	1076.97
547.829	1077.68
548.256	1079.16
548.682	1078.06
549.108	1074.57
549.535	1075.89
549.961	1077.58
550.387	1069.9
550.813	1066.33
551.24	1069.86
551.666	1070.66
552.092	1065.4
552.518	1062.41
552.943	1059.61
553.369	1063.28
553.795	1065.37
554.221	1064.92
554.646	1062.54
555.072	1069.17
555.498	1071.52
555.923	1076.49
556.349	1085.57
556.774	1089.37
557.199	1088.67
557.625	1089.93
558.05	1085.77
558.475	1090.68
558.9	1089.38
559.325	1083.75
559.75	1078.45
560.175	1072.77
560.6	1067.94
561.025	1064.32
561.449	1063.18
561.874	1064.69
562.299	1066.5
562.723	1068.62
563.148	1060.84
563.572	1060.97
563.997	1064.3
564.421	1064.81
564.846	1062.66
565.27	1062.84
565.694	1060.02
566.118	1065.17
566.542	1069.11
566.966	1062.88
567.39	1058.14
567.814	1050.42
568.238	1048.04
568.662	1048.79
569.086	1048.34
569.509	1050.26
569.933	1040.46
570.357	1034.08
570.78	1019.92
571.204	1010.67
571.627	1003.75
572.05	1001.5
572.474	1001.23
572.897	994.4
573.32	990.01
573.743	983.09
574.166	972.96
574.589	971.81
575.012	968.24
575.435	967.83
575.858	961.83
576.281	955.19
576.704	945.97
577.126	937.92
577.549	930.95
577.972	924.11
578.394	918.53
578.817	916.1
579.239	904.93
579.661	896.89
580.084	889.15
580.506	882.31
580.928	879.67
581.35	872.94
581.772	870.35
582.194	862.65
582.616	855.47
583.038	847.24
583.46	839.93
583.882	838.71
584.303	839.2
584.725	835.89
585.147	840.53
585.568	847.21
585.99	855.15
586.411	860.05
586.833	868.4
587.254	870.87
587.675	879.57
588.096	887.14
588.518	884.46
588.939	876.7
589.36	876.73
589.781	866.79
590.202	852.76
590.623	848.23
591.043	845.95
591.464	838.69
591.885	836.44
592.305	832.43
592.726	825.07
593.147	826.57
593.567	824.31
593.987	819.91
594.408	817.15
594.828	814.01
595.248	811.2
595.669	801.78
596.089	798.59
596.509	794.9
596.929	787.8
597.349	787.94
597.769	781.95
598.189	778.7
598.608	778.41
599.028	779.49
599.448	778.77
599.867	771.12
600.287	768.09
600.706	765.69
601.126	760.43
601.545	760.49
601.965	759.91
602.384	756.89
602.803	757.71
603.222	755.33
603.641	751.69
604.061	751.31
604.48	749.13
604.898	753.28
605.317	755.59
605.736	756.17
606.155	754.81
606.574	749.5
606.992	752.73
607.411	751.03
607.829	746.47
608.248	745.06
608.666	743.52
609.085	744.65
609.503	741.42
609.921	739.35
610.339	741.96
610.758	742.21
611.176	740.76
611.594	736.97
612.012	735.74
612.43	739.02
612.847	742.45
613.265	744.36
613.683	746.7
614.101	748.12
614.518	746.08
614.936	740.88
615.353	733.53
615.771	732.95
616.188	733.51
616.606	733.13
617.023	730.92
617.44	724.64
617.857	720.83
618.274	717.27
618.691	716.01
619.108	712.71
619.525	710.45
619.942	715.39
620.359	718.5
620.776	716.11
621.192	714.51
621.609	714.28
622.026	718.99
622.442	723.79
622.859	726.25
623.275	721.71
623.691	724.93
624.108	732.72
624.524	741.97
624.94	741.54
625.356	748.18
625.772	755.34
626.188	761.33
626.604	762.59
627.02	759.97
627.436	759.47
627.852	764.36
628.268	771.83
628.683	766.08
629.099	760.86
629.514	758.32
629.93	761.11
630.345	765.06
630.761	763.61
631.176	766.26
631.591	766.19
632.007	763.37
632.422	763.15
632.837	757.57
633.252	758.61
633.667	754.41
634.082	750.63
634.497	744.64
634.911	735.05
635.326	734.16
635.741	726.26
636.155	720.99
636.57	725.06
636.984	726.8
637.399	731.39
637.813	732.4
638.228	734.88
638.642	740.51
639.056	737.6
639.47	741.21
639.884	741.71
640.298	742.06
640.712	745.78
641.126	742.39
641.54	739.92
641.954	740.32
642.368	737.71
642.781	738.48
643.195	731.95
643.609	737.94
644.022	738.24
644.436	739.39
644.849	734.91
645.262	730.35
645.676	735.41
646.089	738.18
646.502	732.84
646.915	733.49
647.328	724.69
647.741	728.36
648.154	722.21
648.567	725.61
648.98	719.35
649.393	723.3
649.805	723.23
650.218	719.94
650.631	710.86
651.043	709.01
651.456	706.96
651.868	708.83
652.28	721.75
652.693	734.21
653.105	739.38
653.517	748.11
653.929	750.63
654.341	758.16
654.753	751.42
655.165	757.88
655.577	758.26
655.989	758.66
656.401	756.71
656.813	734.42
657.224	721.67
657.636	703.46
658.047	695.46
658.459	684.93
658.87	681.88
659.282	677.69
659.693	668.51
660.104	662.07
660.515	656.37
660.926	660.34
661.338	662.57
661.749	663.65
662.159	662.98
662.57	663.17
662.981	665.49
663.392	665.12
663.803	673.23
664.213	675.34
664.624	677.35
665.035	683.64
665.445	676.14
665.855	675.18
666.266	672.77
666.676	674.62
667.086	671.27
667.497	674.27
667.907	672.24
668.317	668.32
668.727	669.87
669.137	672.67
669.547	674.86
669.956	679.51
670.366	681.89
670.776	685.55
671.186	690.67
671.595	696.08
672.005	699.48
672.414	700.33
672.824	700.15
673.233	704.07
673.642	705.98
674.052	708.62
674.461	711.35
674.87	716.84
675.279	714.47
675.688	714.72
676.097	715.09
676.506	712.53
676.915	724.5
677.323	725.55
677.732	721.93
678.141	720.64
678.549	708.71
678.958	705.85
679.366	703.41
679.775	705.53
680.183	714.38
680.592	716.99
681	718.53
681.408	710.11
681.816	713.09
682.224	716.94
682.632	721.4
683.04	741.78
683.448	755.12
683.856	773.05
684.264	794.51
684.671	808.62
685.079	828.3
685.487	851.09
685.894	883.9
686.302	906.66
686.709	921.44
687.116	937.67
687.524	947.86
687.931	953.31
688.338	952.78
688.745	946.01
689.152	944.97
689.559	951.67
689.966	957.25
690.373	948.53
690.78	953.38
691.187	971.18
691.593	981.33
692	986.51
692.407	1006.19
692.813	1036.39
693.22	1059.22
693.626	1082.35
694.032	1101.07
694.439	1133.95
694.845	1160.63
695.251	1196.39
695.657	1231.23
696.063	1284.45
696.469	1327.22
696.875	1368.01
697.281	1392.73
697.687	1424.52
698.093	1454.16
698.498	1506.75
698.904	1551.15
699.31	1613.87
699.715	1665.39
700.12	1731.91
700.526	1759.4
700.931	1817.25
701.337	1867.07
701.742	1905.6
702.147	1977.25
702.552	2017.37
702.957	2075.1
703.362	2109.64
703.767	2151.57
704.172	2201.3
704.577	2194.79
704.981	2248.99
705.386	2284.41
705.791	2302.27
706.195	2378.09
706.6	2410.15
707.004	2490.74
707.408	2494.24
707.813	2539.82
708.217	2556.4
708.621	2580.61
709.025	2678.15
709.43	2704.93
709.834	2776.24
710.237	2856.33
710.641	2872.81
711.045	2915.87
711.449	2938.48
711.853	2988.8
712.256	3047.86
712.66	3103.33
713.064	3192.47
713.467	3252.09
713.87	3373.84
714.274	3440.22
714.677	3559.4
715.08	3723.39
715.484	3895.08
715.887	4101.01
716.29	4302.37
716.693	4514.67
717.096	4758.08
717.499	4907.92
717.901	4968.84
718.304	5026.15
718.707	5080.78
719.109	5021.53
719.512	5024.18
719.915	4933.82
720.317	4913.75
720.719	4988.09
721.122	4992.8
721.524	4979.94
721.926	4969.12
722.328	5092.21
722.731	5111.31
723.133	5168.29
723.535	5385.75
723.937	5435.81
724.338	5514.86
724.74	5581.62
725.142	5553.48
725.544	5578.36
725.945	5627.33
726.347	5651.88
726.748	5669.24
727.15	5705.7
727.551	5690.65
727.952	5683.26
728.354	5675.87
728.755	5696.19
729.156	5670.19
729.557	5670.41
729.958	5562.85
730.359	5525.7
730.76	5522.25
731.161	5474.93
731.562	5466.51
731.962	5485.54
732.363	5433.29
732.763	5380.79
733.164	5435
733.564	5379.35
733.965	5292.56
734.365	5268.01
734.766	5309.13
735.166	5278.99
735.566	5232.94
735.966	5215.41
736.366	5219.74
736.766	5162.65
737.166	5207.05
737.566	5173.35
737.966	5155.46
738.365	5204.33
738.765	5208.59
739.165	5136.65
739.564	5118.21
739.964	5175.42
740.363	5133.46
740.763	5137.71
741.162	5132.41
741.561	5104.19
741.96	5056.8
742.36	5085.74
742.759	5099.06
743.158	5146.49
743.557	5167.83
743.955	5217.6
744.354	5173.82
744.753	5242.45
745.152	5205.09
745.55	5272.89
745.949	5270.49
746.348	5277.63
746.746	5300.57
747.144	5258.53
747.543	5238.43
747.941	5297.48
748.339	5221.84
748.737	5215.51
749.136	5206.88
749.534	5280.41
749.932	5249.62
750.33	5277.49
750.727	5344.34
751.125	5319.22
751.523	5306.05
751.921	5356.92
752.318	5321.15
752.716	5388.64
753.113	5407.52
753.511	5441.44
753.908	5444.36
754.305	5428.63
754.703	5499.59
755.1	5569.33
755.497	5638.56
755.894	5856.19
756.291	6057.79
756.688	6432.39
757.085	6933.58
757.482	7635.02
757.878	8401.28
758.275	9094.56
758.672	10049.46
759.068	10832.87
759.465	11940.89
759.861	13372.3
760.258	15036.3
760.654	15902.93
761.05	15774.18
761.447	15054.74
761.843	14010.96
762.239	12940.4
762.635	12456.51
763.031	11995.84
763.427	11325.68
763.822	10621.69
764.218	9928.34
764.614	9020.76
765.01	8412.31
765.405	8021.81
765.801	7726.18
766.196	7351.33
766.592	7140.86
766.987	6784.53
767.382	6543.6
767.778	6443.54
768.173	6297.23
768.568	6214.93
768.963	6072.57
769.358	6097.23
769.753	6047.08
770.148	5952.75
770.542	5949.67
770.937	5914.38
771.332	6018
771.726	6040.42
772.121	5968.69
772.515	6030.74
772.91	6014.99
773.304	6099.26
773.699	6023.54
774.093	6085.55
774.487	6146.97
774.881	6198.57
775.275	6194.23
775.669	6149.82
776.063	6198.15
776.457	6240.28
776.851	6155.8
777.245	6146.19
777.638	6185.66
778.032	6318.92
778.425	6277.97
778.819	6326.95
779.212	6279.22
779.606	6231.27
779.999	6253.4
780.392	6234.12
780.786	6325.92
781.179	6348.26
781.572	6399.48
781.965	6411.54
782.358	6345.38
782.751	6408.96
783.143	6353.32
783.536	6436.7
783.929	6485.08
784.322	6616.35
784.714	6655.53
785.107	6651.78
785.499	6736.13
785.891	6710.79
786.284	6687.83
786.676	6854.07
787.068	6836.56
787.46	6895.65
787.852	6918.37
788.245	7016.28
788.636	7047.58
789.028	7123.61
789.42	7169.02
789.812	7179.84
790.204	7289.2
790.595	7405.07
790.987	7177.4
791.378	7200.05
791.77	7346.87
792.161	7502.55
792.553	7567.19
792.944	7442.5
793.335	7365.52
793.726	7451.49
794.117	7553.68
794.508	7709.31
794.899	7676.43
795.29	7835.38
795.681	7899.79
796.072	7741.35
796.463	7531.33
796.853	7543.21
797.244	7725.34
797.634	7764.06
798.025	7761.69
798.415	7779.19
798.806	7877.45
799.196	7971.87
799.586	8031.03
799.976	7993.1
800.366	8258.26
800.756	8533.46
801.146	8492.19
801.536	8521.5
801.926	8602.63
802.316	8634.14
802.706	8718.04
803.095	8584.06
803.485	8700.05
803.874	8746.67
804.264	9039.87
804.653	9009.44
805.043	9172.48
805.432	9292.36
805.821	9294.73
806.21	9319.88
806.599	9453.65
806.988	9503.2
807.377	9624.41
807.766	9773.18
808.155	10098.22
808.544	9800.01
808.933	9818.57
809.321	9799.54
809.71	10138.04
810.098	10323.72
810.487	10853.75
810.875	11406.64
811.264	11434.76
811.652	11764.44
812.04	11936.78
812.428	12122.58
812.816	12996.89
813.204	13474.39
813.592	14100.15
813.98	14488.64
814.368	14376.37
814.756	14929.26
815.144	14836.88
815.531	15365.22
815.919	15282.61
816.306	15631.27
816.694	15277.17
817.081	15332.78
817.469	15727.36
817.856	15729.29
818.243	16035.44
818.63	16486.06
819.017	15998.86
819.404	16063.28
819.791	16500.2
820.178	17201.84
820.565	17480.57
820.952	18549.4
821.339	17986.25
821.725	18197.87
822.112	17351.48
822.498	17307.11
822.885	17457.71
823.271	17354.96
823.657	17835.2
824.044	17845.53
824.43	17930.25
824.816	17895.81
825.202	17394.75
825.588	18559.56
825.974	18576.8
826.36	19162.49
826.746	19201.79
827.132	19604.76
827.517	19577.31
827.903	18683.45
828.289	18719.34
828.674	17829.48
829.06	17715.41
829.445	18177.45
829.83	18580.95
830.216	19126.74
830.601	19548.19
830.986	19084.15
831.371	18924.09
831.756	19553.86
832.141	19064.56
832.526	19060.35
832.911	19390.71
833.295	19256.9
833.68	19786.78
834.065	19080.23
834.449	18038.13
834.834	17951.62
835.218	17942.78
835.603	18336.83
835.987	18098.82
836.371	19046.22
836.755	18927.5
837.139	19382.7
837.524	19658.54
837.908	19447.42
838.291	19517.41
838.675	19590.03
839.059	19832.07
839.443	19823.26
839.827	19561.1
840.21	20102.85
840.594	19939.34
840.977	20171.01
841.361	20147.86
841.744	20576.87
842.127	20403.23
842.511	20687.99
842.894	21368.53
843.277	21793.81
843.66	22414.76
844.043	22511.64
844.426	21593.86
844.809	21235.29
845.191	21277.27
845.574	20752.35
845.957	20337.68
846.339	20216.18
846.722	19616.75
847.104	19692.22
847.487	19498.67
847.869	19502.13
848.252	19816.72
848.634	20193.52
849.016	20496.97
849.398	20637.23
849.78	21600.13
850.162	21596.79
850.544	22070.73
850.926	22785.28
851.307	22688.12
851.689	23007.96
852.071	23526.14
852.452	23895.19
852.834	23874.33
853.215	24313.47
853.597	24482.1
853.978	24819.95
854.359	25342.65
854.741	24207.29
855.122	24092.55
855.503	23776.81
855.884	23927.09
856.265	23858.45
856.646	23991.08
857.026	23544.82
857.407	23481.1
857.788	23672.1
858.169	23995.88
858.549	23023.82
858.93	23740.31
859.31	23798.33
859.69	24022.81
860.071	23560.09
860.451	23319.08
860.831	22472.81
861.211	23788.28
861.591	24405.69
861.971	24371.91
862.351	24601.8
862.731	25050.66
863.111	25347.54
863.491	25717.66
863.87	26720.46
864.25	27120.78
864.629	26657.55
865.009	27245.44
865.388	28218.78
865.768	30256.5
866.147	30131.67
866.526	28449.95
866.905	28786.62
867.284	30403.55
867.663	28871
868.042	27674.89
868.421	27589.17
868.8	28054.22
869.179	28323.26
869.558	26677.42
869.936	24585.43
870.315	25034.54
870.693	25642.14
871.072	27651.34
871.45	26340.73
871.828	26686.44
872.207	28041.9
872.585	27610.07
872.963	28353.67
873.341	27389.4
873.719	27061.67
874.097	26732.18
874.475	27231.26
874.853	27863.29
875.23	26706.71
875.608	27823.71
875.986	30097.38
876.363	28791.35
876.741	29686.26
877.118	28953.73
877.495	30383.2
877.873	30901.24
878.25	32526.53
878.627	31199.02
879.004	31629.35
879.381	31478.48
879.758	30652.48
880.135	28537.81
880.512	30177.25
880.889	29374.36
881.265	29082.98
881.642	28840.43
882.019	29315.1
882.395	28709.08
882.772	29859.04
883.148	28577.04
883.524	28466.91
883.901	28302.92
884.277	28725.04
884.653	28530.99
885.029	29348.91
885.405	32484.67
885.781	32227.18
886.157	30903.8
886.532	31280.41
886.908	31267.74
887.284	34753.4
887.659	35880.92
888.035	36987.78
888.411	37936.65
888.786	38453.92
889.161	39791.76
889.537	39067.47
889.912	40318.04
890.287	40263.51
890.662	41311
891.037	40551.5
891.412	37806.89
891.787	37422.03
892.162	36121.76
892.536	36974.06
892.911	35589.81
893.286	34831.92
893.66	33421.26
894.035	34253.27
894.409	37305.43
894.784	35800.51
895.158	36392.16
895.532	38563.75
895.906	39618.9
896.281	40552.36
896.655	39902.44
897.029	45571.33
897.402	47448.03
897.776	52817.5
898.15	52641.49
898.524	52100.27
898.898	52776.36
899.271	59075.89
899.645	51174.8
900.018	49172.02
900.392	50994.97
900.765	51403.58
901.138	47597.57
901.511	46867.5
901.884	43016.24
902.258	39702.72
902.631	41013.93
903.003	47226.23
903.376	42617.53
903.749	47783.83
904.122	51150.4
904.495	56317.08
904.867	57021.65
905.24	49520.07
905.612	46121.94
905.985	47200.47
906.357	49370.53
906.729	47126.64
907.102	40238.93
907.474	38705.85
907.846	38948.97
908.218	38436.99
908.59	33980.16
908.962	32867.35
909.334	35374.46
909.705	37146.33
910.077	36061.18
910.449	37517.44
910.82	38565.47
911.192	42439.68
911.563	44112.66
911.935	47195.08
912.306	47260.6
912.677	48769.44
913.048	48254.68
913.419	52352.63
913.79	52663.09
914.161	56443.68
914.532	53941.05
914.903	49579.1
915.274	47108.6
915.645	46407.07
916.015	40837.47
916.386	38928.97
916.756	41445.16
917.127	42774.36
917.497	38228.2
917.868	41593.23
918.238	39525.36
918.608	40678.77
918.978	41527.85
919.348	43972.9
919.718	45434.18
920.088	43801.5
920.458	45479.14
920.828	47865.21
921.198	45373.18
921.567	48459.98
921.937	37549.43
922.306	37918.55
922.676	40887.64
923.045	34102.27
923.415	32397.49
923.784	29502.87
924.153	30325.76
924.522	30310.54
924.891	28487.18
925.26	30528.47
925.629	29806.65
925.998	34279.18
926.367	33462.46
926.736	31843.38
927.104	37908.85
927.473	40744.41
927.842	49213.03
928.21	48764.02
928.578	51279.7
928.947	48502.06
929.315	48781.78
929.683	57220.04
930.051	57664.72
930.42	66962.69
930.788	57283.27
931.156	56900.1
931.523	53313.54
931.891	49292.77
932.259	47343.32
932.627	54862.48
932.994	77657.69
933.362	64210.17
933.729	55774.82
934.097	53366.29
934.464	45178.07
934.831	52127.01
935.199	51378.75
935.566	49887.16
935.933	50622.5
936.3	61313.11
936.667	47757.21
937.034	43079.04
937.401	42605.99
937.767	36780.27
938.134	32772.13
938.501	46248.79
938.867	49293.49
939.234	83391.86
939.6	71119.66
939.967	78261.88
940.333	52382.87
940.699	44585.39
941.065	35793.88
941.431	46934.15
941.798	45269.2
942.163	59387.44
942.529	37065.71
942.895	34121.31
943.261	22068.15
943.627	28965.77
943.992	25312.77
944.358	25333.14
944.723	25417.79
945.089	24747.26
945.454	22866.69
945.82	24402.79
946.185	23468.52
946.55	27185.01
946.915	24373.04
947.28	28572
947.645	25142.34
948.01	23227.7
948.375	24220.19
948.74	29027.85
949.104	33904.26
949.469	48947.12
949.834	86437.49
950.198	81910.97
950.562	49109.24
950.927	40909.83
951.291	49231.05
951.655	41901.31
952.02	39343.71
952.384	29787.34
952.748	25911.63
953.112	25240.25
953.476	21943.41
953.839	20312.11
954.203	20112.94
954.567	25137.56
954.931	39572.99
955.294	33848.03
955.658	34083.27
956.021	57961.12
956.385	98183.6
956.748	144914.07
957.111	224800.95
957.474	252333.09
957.837	284042.92
958.2	214939.24
958.563	77386.04
958.926	52374.09
959.289	79529.61
959.652	88796.55
960.015	66557.44
960.377	95546.68
960.74	109050.83
961.102	188136.33
961.465	202041.98
961.827	108215.27
962.189	207558.67
962.552	143895.64
962.914	115289.97
963.276	74810.36
963.638	61814.52
964	61268.33
964.362	41405.22
964.724	40045.16
965.085	28589.93
965.447	23445.39
965.809	26728.94
966.17	26785.59
966.532	28987.92
966.893	26646.83
967.255	24237.22
967.616	28633.63
967.977	22936.2
968.338	25040.83
968.699	20568.26
969.061	20560.79
969.421	20688.16
969.782	23207.13
970.143	19589.83
970.504	20278.66
970.865	23012.32
971.225	23523.09
971.586	23004.65
971.946	32799.19
972.307	28482.12
972.667	37254.46
973.027	38375.37
973.388	46557.79
973.748	31654.24
974.108	34496.71
974.468	46663.56
974.828	35972.07
975.188	27701.49
975.548	25457.35
975.907	21373.37
976.267	24004.44
976.627	20171.96
976.986	20896.45
977.346	19910.04
977.705	19177.55
978.064	17456.47
978.424	14542.18
978.783	15058.38
979.142	17179.7
979.501	16437.94
979.86	17368.9
980.219	16724.55
980.578	21567.43
980.937	24162.48
981.296	21562.94
981.654	22188.54
982.013	34540.94
982.371	44809.5
982.73	41834.18
983.088	47383.11
983.447	50621.62
983.805	72398.83
984.163	151266.73
984.521	167888.91
984.879	246207.61
985.237	-400564.25
985.595	386068.55
985.953	95850.49
986.311	55419.1
986.669	32175.06
987.026	27775.44
987.384	37379.49
987.741	38677.98
988.099	27651.71
988.456	22032.68
988.814	20620.32
989.171	17931.58
989.528	17684.37
989.885	18717.72
990.242	14800.01
990.599	18427.84
990.956	15055.79
991.313	10522.32
991.67	8618.79
992.027	9132.81
992.383	8119.61
992.74	7125.24
993.096	7455.93
993.453	7735.2
993.809	8001.55
994.165	10658.71
994.522	9772.66
994.878	10793.94
995.234	13537.71
995.59	13377.92
995.946	12657.87
996.302	14453.81
996.658	16704.06
997.013	18464.69
997.369	21912.78
997.725	28061.23
998.08	18180.51
998.436	28074.66
998.791	38672.91
999.147	38658.67
999.502	42120.58
999.857	30624.7
1000.212	49946.57
1000.567	71187.14
1000.922	41023.31
1001.277	26027.77
1001.632	19320.72
1001.987	24913.14
1002.342	17861.34
1002.696	14304.32
1003.051	11401.58
1003.406	13834.84
1003.76	13797.12
1004.114	13587
1004.469	11427.92
1004.823	9454.1
1005.177	10196.99
1005.531	8078.37
1005.885	7161.87
1006.239	8091.59
1006.593	10139.66
1006.947	13570.92
1007.301	10164.66
1007.655	11062.15
1008.008	8118.86
1008.362	9126.67
1008.715	13033.08
1009.069	11838.58
1009.422	17821.84
1009.776	35775.37
1010.129	23718.87
1010.482	19852.03
1010.835	16821.63
1011.188	34987.37
1011.541	32913.36
1011.894	-201071.17
1012.247	590229.82
1012.6	40210.73
1012.952	25395.96
1013.305	13103.59
1013.657	9448.64
1014.01	8928.67
1014.362	7346.6
1014.715	6515.54
1015.067	5676.22
1015.419	5557.15
1015.771	4931.44
1016.123	4386.7
1016.475	4501.62
1016.827	4800.61
1017.179	5142.58
1017.531	5163.47
1017.883	5292.88
1018.234	5129.08
1018.586	6465.82
1018.938	6867.1
1019.289	9475.49
1019.64	10832.35
1019.992	10096.78
1020.343	9247.53
1020.694	7320.48
1021.045	6492.92
1021.396	7425.01
1021.747	7938.29
1022.098	9531.87
1022.449	6914.94
1022.8	6411.5
1023.151	4461.68
1023.501	3958.54
1023.852	4309.01
1024.202	4478.9
1024.553	4902.11
1024.903	4793.23
1025.253	4108.72
1025.604	3702.58
1025.954	4566.59
1026.304	5572.14
1026.654	6480.86
1027.004	9509.28
1027.354	15391.1
1027.703	14455.82
1028.053	19022.67
1028.403	27986.18
1028.753	40570.96
1029.102	55404.85
1029.452	286234.45
1029.801	12461.32
1030.15	8082.61
1030.499	6892.72
897.758	3031.52
901.051	3016.3
904.343	3055.31
907.636	3047.67
910.928	3114.63
914.22	3020.7
917.511	3031.27
920.803	3111.31
924.094	3150.37
927.384	3110.01
930.675	3078.41
933.965	3024.58
937.255	3017.12
940.544	2983.77
943.834	2872.99
947.123	2826.16
950.411	2927.07
953.7	2895.28
956.988	2845.32
960.276	2793.23
963.563	2903.76
966.851	2886.39
970.138	2957.88
973.424	2939.71
976.711	2888.01
979.997	3096.84
983.283	3118.95
986.568	3001.53
989.853	3040.2
993.138	3071.32
996.423	3145.25
999.708	3064.62
1002.992	3166.91
1006.275	2935.71
1009.559	3023.94
1012.842	3148.67
1016.125	3067.49
1019.408	3044.13
1022.69	3157.85
1025.972	3163.85
1029.254	3135.96
1032.536	3044.09
1035.817	3085.7
1039.098	2999.6
1042.379	3225.2
1045.659	3191.26
1048.939	3114.91
1052.219	3146.87
1055.498	3176.2
1058.778	3150.2
1062.057	3142.28
1065.335	3161.03
1068.614	3189.55
1071.892	3157.36
1075.17	3253.35
1078.447	3231.64
1081.724	3219.65
1085.001	3264.57
1088.278	3234.3
1091.554	3252.22
1094.83	3250.56
1098.106	3274.6
1101.382	3331.3
1104.657	3333.28
1107.932	3326.13
1111.206	3280.2
1114.481	3241.23
1117.755	3248.2
1121.029	3215.16
1124.302	3260.59
1127.575	3199.7
1130.848	3178.89
1134.121	3129.1
1137.393	3069.36
1140.665	3144.92
1143.937	3118.6
1147.208	3060.59
1150.48	3079.55
1153.75	3061.39
1157.021	3126.26
1160.291	3088.4
1163.561	3126.81
1166.831	3139.28
1170.101	3175.55
1173.37	3164.92
1176.639	3093.44
1179.907	3170.36
1183.176	3188.09
1186.444	3203.15
1189.711	3235.08
1192.979	3233.07
1196.246	3191.18
1199.513	3214.52
1202.78	3209.35
1206.046	3216.66
1209.312	3244.29
1212.578	3274.69
1215.843	3210.8
1219.108	3191.1
1222.373	3211.5
1225.638	3166.59
1228.902	3143.29
1232.166	3116.51
1235.43	3090.26
1238.693	3110.09
1241.956	3113.23
1245.219	3140.21
1248.482	3144.64
1251.744	3133.86
1255.006	3309.41
1258.268	3271.81
1261.529	3204.38
1264.79	3219.95
1268.051	3331.9
1271.312	3355.65
1274.572	3309.1
1277.832	3302.13
1281.092	3301.49
1284.351	3256.45
1287.61	3231.47
1290.869	3126.36
1294.128	3084.81
1297.386	3212.84
1300.644	3194.48
1303.902	3207.02
1307.159	3056.55
1310.416	3114.46
1313.673	3131.07
1316.93	3108.34
1320.186	3165.87
1323.442	3218.09
1326.697	3195.19
1329.953	3203.03
1333.208	3211.02
1336.463	3199.63
1339.717	3119.85
1342.972	3241.99
1346.226	3231.94
1349.479	3149.74
1352.733	3103.04
1355.986	3148.49
1359.238	3118.02
1362.491	3116.95
1365.743	3122.61
1368.995	3123.95
1372.247	3134.75
1375.498	3159.28
1378.749	3178.86
1382	3134.2
1385.251	3204.03
1388.501	3174.46
1391.751	3140.31
1395	3116.19
1398.25	3154.44
1401.499	3145
1404.748	3049.92
1407.996	3011.21
1411.244	2996.49
1414.492	2975.05
1417.74	2943.43
1420.987	2964.24
1424.234	3014.4
1427.481	3009.64
1430.728	3069.33
1433.974	3042.04
1437.22	3073.23
1440.465	3084.45
1443.711	3053.2
1446.956	3094.08
1450.201	3100.24
1453.445	3149.51
1456.689	3109.9
1459.933	3127.54
1463.177	3156.43
1466.42	3124.65
1469.663	3101.91
1472.906	3076.15
1476.148	3194.43
1479.391	3109.75
1482.633	3092.64
1485.874	3092.03
1489.115	3059.46
1492.356	3088.97
1495.597	3057.51
1498.838	3067.52
1502.078	3021.09
1505.318	2952.55
1508.557	2999.91
1511.797	2937.98
1515.036	3069.81
1518.274	3059.69
1521.513	3045.56
1524.751	3077.17
1527.989	3077.89
1531.227	3089.48
1534.464	3063.12
1537.701	3110.69
1540.938	3136.47
1544.174	3098.85
1547.41	3101.5
1550.646	3144.17
1553.882	3165.64
1557.117	3217.67
1560.352	3240.1
1563.587	3193.94
1566.821	3144.61
1570.055	3202.38
1573.289	3165.28
1576.523	3253.94
1579.756	3253.38
1582.989	3271.54
1586.222	3231.29
1589.454	3277.22
1592.686	3242.25
1595.918	3264.33
1599.15	3246.55
1602.381	3349.84
1605.612	3277.31
1608.843	3377.01
1612.073	3287.3
1615.303	3266.54
1618.533	3250.5
1621.762	3258.88
1624.992	3261.99
1628.221	3231.4
1631.449	3213.7
1634.678	3301.84
1637.906	3243.44
1641.134	3298.36
1644.361	3242.58
1647.588	3228.38
1650.815	3241.01
1654.042	3234.11
1657.269	3267.54
1660.495	3210.86
1663.72	3186.07
1666.946	3164.9
1670.171	3073.29
1673.396	3052.12
1676.621	3047.76
1679.845	3092.33
1683.069	3125.83
1686.293	3179.09
1689.517	3136.43
1692.74	3040.99
1695.963	3063.58
1699.185	3132.3
1702.408	3088.85
1705.63	3143.1
1708.852	3147.98
1712.073	3120.54
1715.294	3082.2
1718.515	3146.35
1721.736	3082.81
1724.956	3080.72
1728.176	3111.07
1731.396	3132.16
1734.616	3121.88
1737.835	3139.43
1741.054	3129.71
1744.272	3127.84
1747.491	3142.62
1750.709	3225.44
1753.927	3099.66
1757.144	3161.87
1760.361	3190.7
1763.578	3206.94
1766.795	3138.87
1770.011	3158.97
1773.227	3220.35
1776.443	3245.38
1779.658	3285.44
1782.874	3238.25
1786.089	3201.14
1789.303	3204.32
1792.518	3218.86
1795.732	3209.99
1798.945	3207.08
1802.159	3271.45
1805.372	3137.94
1808.585	3107.13
1811.797	3109.14
1815.01	3187.44
1818.222	3182.32
1821.434	3094.55
1824.645	3185.9
1827.856	3144.61
1831.067	3181.52
1834.278	3145.16
1837.488	3124
1840.698	3297.42
1843.908	3205.65
1847.117	3170.92
1850.326	3008.21
1853.535	3141.92
1856.744	3229.93
1859.952	3120.15
1863.16	3121.82
1866.368	3152.96
1869.575	3260.74
1872.782	3150.67
1875.989	3092.25
1879.196	3213.57
1882.402	3200.78
1885.608	3251.19
1888.814	3118.89
1892.019	3002.74
1895.224	3053.73
1898.429	3050.32
1901.634	3021.56
1904.838	3003.9
1908.042	3045.45
1911.246	3051.42
1914.449	2948.51
1917.652	2960.72
1920.855	2947.88
1924.058	3020.39
1927.26	3049.41
1930.462	3085.46
1933.664	3098.08
1936.865	3032.11
1940.066	3029.98
1943.267	2979.5
1946.467	3001.72
1949.668	3033.06
1952.868	3100.91
1956.067	3064.39
1959.267	2984.43
1962.466	3016.37
1965.665	3002.82
1968.863	3004.21
1972.061	3028.69
1975.259	3033.92
1978.457	3114.89
1981.654	3070.88
1984.852	3070.61
1988.048	2983.35
1991.245	2998.68
1994.441	3080.32
1997.637	3091.22
2000.833	3073.34
2004.028	3112.65
2007.223	3160.3
2010.418	3125.48
2013.613	3097.7
2016.807	3042.96
2020.001	3066.53
2023.194	3131.79
2026.388	3099.21
2029.581	3049.27
2032.774	3080.39
2035.966	3079.21
2039.158	2997.4
2042.35	3030.56
2045.542	2959.65
2048.733	3080.63
2051.924	3132.38
2055.115	3171.68
2058.306	3092.93
2061.496	3156.83
2064.686	3234.54
2067.875	3158.79
2071.065	3185.21
2074.254	3220.93
2077.442	3171.26
2080.631	3270.8
2083.819	3120.17
2087.007	3092.57
2090.195	3049.43
2093.382	3103.2
2096.569	3080.06
2099.756	3022.79
2102.942	3028.04
2106.128	3020.09
2109.314	3015.75
2112.5	2958.77
2115.685	2941.96
2118.87	2956.13
2122.055	3028.03
2125.239	2978.81
2128.424	2938.01
2131.608	3082.32
2134.791	3069.75
2137.974	3145.55
2141.157	3128.31
2144.34	3060.18
2147.523	3100.91
2150.705	3102.88
2153.887	3092.8
2157.068	3019.41
2160.25	3045.61
2163.431	3101.2
2166.611	3022.17
2169.792	3028.76
2172.972	2907.44
2176.152	3016.99
2179.331	3059.11
2182.511	3016.71
2185.69	3050.24
2188.868	3037.52
2192.047	3111.35
2195.225	3074.05
2198.403	3021.08
2201.58	3022.87
2204.758	3028.27
2207.935	3118.91
2211.111	2974.78
2214.288	2956.63
2217.464	3002.92
2220.64	2993.19
2223.815	3052.37
2226.991	2964.1
2230.166	2986.96
2233.34	3003.37
2236.515	3041.77
2239.689	3118.36
2242.863	3057.03
2246.036	3120.05
2249.209	3137.42
2252.382	3189.04
2255.555	3155.74
2258.727	3079.62
2261.9	3131.39
2265.071	3122.2
2268.243	3131.77
2271.414	3045.7
2274.585	2989.11
2277.756	3064.53
2280.926	3024.16
2284.096	3074.15
2287.266	2958.77
2290.436	3021.17
2293.605	3058.59
2296.774	3077.52
2299.942	3114.14
2303.111	3132.64
2306.279	3176.95
2309.447	3167.78
2312.614	3143.34
2315.781	3154.44
2318.948	3121.25
2322.115	3159.06
2325.281	3064.4
2328.447	3095.15
2331.613	3075.88
2334.779	3034.11
2337.944	3042.28
2341.109	3032.76
2344.274	3008.96
2347.438	2972.26
2350.602	3003.87
2353.766	3021.5
2356.929	3005.99
2360.092	3053.79
2363.255	2986.42
2366.418	2890.15
2369.58	3041.74
2372.742	2755.46
2375.904	2788.58
2379.066	2754.07
2382.227	2802.46
2385.388	2765.15
2388.548	2668.54
2391.709	2736.81
2394.869	2702.79
2398.029	2847.97
2401.188	2876.91
2404.347	2784.85
2407.506	2977.25
2410.665	3000.67
2413.823	3026.14
2416.981	2960.63
2420.139	3005.27
2423.296	3063.88
2426.453	3036.65
2429.61	3067.7
2432.767	2963.34
2435.923	3006.83
2439.079	2923.74
2442.235	2998.83
2445.391	2910.28
2448.546	2919.33
2451.701	2988.13
2454.855	2932.92
2458.009	3009.16
2461.163	3026.27
2464.317	2969.48
2467.471	3011.43
2470.624	3053.35
2473.777	3072.37
2476.929	3068.97
2480.082	3096.92
2483.234	3062.83
2486.385	2971.28
2489.537	2966.41
2492.688	2900.42
2495.839	2921.83
2498.989	2925.78
2502.14	2904.95
2505.29	2880.24
2508.439	2906.09
2511.589	2815.61
2514.738	2845.25
2517.887	2875.69
2521.035	2989.29
2524.183	2990.77
2527.331	2962.09
2530.479	2913.17
2533.627	2933.73
