Data from N_2_DIV_PA_2N_Splice17_12-39-33-230.txt Node
Date: Sat Mar 14 12:39:33 EDT 2020
User: sa697716
Spectrometer: FLMS03696
Trigger mode: 0
Integration Time (sec): 3.180400E-1
Scans to average: 20
Electric dark correction enabled: true
Nonlinearity correction enabled: true
Boxcar width: 5
XAxis mode: Wavelengths
Number of Pixels in Spectrum: 2048
>>>>>Begin Spectral Data<<<<<
187.83	-417838.48
188.298	3029.69
188.766	1610.01
189.233	1514.15
189.701	2092.72
190.169	2962.55
190.636	1131.99
191.104	909.25
191.571	185.14
192.039	-1.72
192.506	-19.25
192.974	626.69
193.441	-907.87
193.908	-152.2
194.375	22.74
194.842	79.05
195.31	263.93
195.777	230.09
196.244	464.43
196.711	535.96
197.177	653.23
197.644	938.28
198.111	1636.28
198.578	2250.69
199.045	1785.72
199.511	2899.71
199.978	3385.27
200.445	2878.55
200.911	3187.86
201.378	3564.58
201.844	3237.59
202.31	5530.26
202.777	5745.6
203.243	3182.46
203.709	3054.52
204.176	3632.08
204.642	3013.34
205.108	2822.32
205.574	2294.55
206.04	2071.38
206.506	1929.73
206.972	1831.3
207.438	1770.67
207.903	1999.53
208.369	1737.59
208.835	1715.6
209.301	1804.62
209.766	1835.94
210.232	1819.03
210.697	2239.12
211.163	2785.08
211.628	4194.5
212.094	3506.64
212.559	4304.29
213.024	2686.93
213.49	3293.96
213.955	3237
214.42	3143.11
214.885	2905.51
215.35	2756.38
215.815	2656.33
216.28	2814.33
216.745	2292.23
217.21	2462.31
217.675	2245.45
218.14	2502.95
218.604	2774.21
219.069	3135.22
219.534	3291.16
219.998	3791.92
220.463	4588.97
220.927	5589.58
221.392	5228.33
221.856	5277.97
222.32	6624.13
222.785	8175.64
223.249	10243.68
223.713	11381.1
224.177	11329.95
224.642	14473.2
225.106	17805.76
225.57	19395.72
226.034	14456.05
226.497	22000.59
226.961	19849.55
227.425	23067.5
227.889	25516.13
228.353	25503.01
228.816	52645.79
229.28	50354.87
229.744	42454.55
230.207	25796.5
230.671	25355.22
231.134	41764.23
231.597	48082.36
232.061	47936.94
232.524	46788.43
232.987	32177.39
233.45	28961.6
233.914	25978.69
234.377	26635.47
234.84	24327.01
235.303	28636.47
235.766	31965.01
236.229	33082.03
236.691	20804.17
237.154	23359.74
237.617	17567.51
238.08	18009.53
238.542	21094.89
239.005	15069.26
239.468	14937.41
239.93	14101.65
240.393	12823.77
240.855	11257.47
241.317	11524.59
241.78	14046.01
242.242	14547.16
242.704	15716.5
243.166	13662.22
243.629	12391.07
244.091	14277.6
244.553	15635.84
245.015	16774.91
245.477	21695.64
245.939	31773.3
246.4	33701.95
246.862	32729.82
247.324	30790.14
247.786	34398.13
248.247	45120.75
248.709	46589.29
249.17	34839.44
249.632	32889.14
250.093	38144.7
250.555	32920.07
251.016	20085.58
251.477	19048.27
251.939	20548.53
252.4	21553.06
252.861	25624.16
253.322	23837
253.783	28331.92
254.244	36740.69
254.705	28895.25
255.166	25679.05
255.627	25296.48
256.088	35667.72
256.549	37887.07
257.009	32580.59
257.47	39528.52
257.931	32172.59
258.391	24086.44
258.852	24813.38
259.312	26039.76
259.773	32186.25
260.233	27214.46
260.694	22952.72
261.154	26008.06
261.614	20890.8
262.074	18706.41
262.534	19457.64
262.994	18346.79
263.455	24435.52
263.915	20584.05
264.374	19347.76
264.834	21113.64
265.294	23370.24
265.754	24218.25
266.214	22924.99
266.673	21444.74
267.133	27064.15
267.593	26848.17
268.052	32831.6
268.512	28571.05
268.971	34460.19
269.431	37810.26
269.89	33887.77
270.349	50864.03
270.809	56725.73
271.268	51007.29
271.727	114470.63
272.186	74132.73
272.645	55564.75
273.104	40084.34
273.563	58020.95
274.022	45637.61
274.481	38839.66
274.94	29942.45
275.399	22230.15
275.857	25907.67
276.316	35044.41
276.775	31192.56
277.233	30734.61
277.692	28820.09
278.15	32623.69
278.609	33616.79
279.067	31150.16
279.525	28968.77
279.984	37374.11
280.442	44967.38
280.9	44311.41
281.358	29186.55
281.816	27204.76
282.274	26662.11
282.732	27543.66
283.19	27701.13
283.648	23895.11
284.106	25448.33
284.564	25858.37
285.021	24019.12
285.479	17911.25
285.937	16292.76
286.394	14317.27
286.852	14764.53
287.309	15528.52
287.767	15029.68
288.224	14297.3
288.682	15698.23
289.139	17263.23
289.596	15817.82
290.053	16419.03
290.511	20713.86
290.968	25117.64
291.425	33993.35
291.882	28310.78
292.339	24648.92
292.796	24444.44
293.252	23037.86
293.709	18308.01
294.166	16394.67
294.623	18117.82
295.079	17424.87
295.536	17526.6
295.992	15914.1
296.449	15754.28
296.905	16333.43
297.362	15658.08
297.818	16469.09
298.274	17129.48
298.731	17445.65
299.187	17275.98
299.643	18555.5
300.099	22443.06
300.555	24617.25
301.011	20587.47
301.467	19874.47
301.923	23306.66
302.379	22774.78
302.835	22386.3
303.291	22382.14
303.746	25488.13
304.202	32220.29
304.658	32340.26
305.113	21767.13
305.569	21329.23
306.024	22752.27
306.479	21672.47
306.935	18270.9
307.39	19935.59
307.845	18397.56
308.301	18530.98
308.756	18058.4
309.211	17408.21
309.666	17872.45
310.121	22179.05
310.576	22552.33
311.031	22393.95
311.486	25630.35
311.94	25642.28
312.395	34336.44
312.85	64562.55
313.305	317032.45
313.759	1646629.69
314.214	119308.02
314.668	94562.05
315.123	79531
315.577	28524.22
316.032	25380.17
316.486	31842.45
316.94	25155.75
317.394	17533.34
317.849	13635.46
318.303	12896.19
318.757	12158.45
319.211	13451.37
319.665	11765.1
320.119	11922.95
320.572	17096.08
321.026	15972.24
321.48	13295.73
321.934	14485.79
322.387	14500.07
322.841	15670.27
323.295	14134.86
323.748	16266.63
324.202	16505.34
324.655	19857.55
325.108	27796.81
325.562	19657.55
326.015	23367.34
326.468	17664.33
326.921	19771.79
327.374	18477.85
327.827	19281.07
328.28	21872.13
328.733	14679.14
329.186	12924.71
329.639	12325.85
330.092	10375.63
330.545	9884.3
330.997	9977.51
331.45	10928.32
331.903	12811.53
332.355	22034.62
332.808	21376.61
333.26	17596.52
333.713	19125.69
334.165	19270.98
334.617	25725.47
335.069	20788.68
335.522	37610.44
335.974	41663.7
336.426	38106.98
336.878	26432.63
337.33	13416.58
337.782	13107.3
338.234	16436.28
338.686	19663.35
339.137	23269.27
339.589	21926.98
340.041	17190.33
340.493	14751.71
340.944	15114.22
341.396	16275.84
341.847	13714.78
342.299	16223.88
342.75	19848.54
343.201	17333.55
343.653	19930.37
344.104	24498.95
344.555	19274.42
345.006	30038.09
345.457	23056.57
345.908	18343.93
346.359	17260.39
346.81	14034.49
347.261	14747.31
347.712	14538.4
348.163	15584.42
348.613	15804.79
349.064	14764.67
349.515	12927.05
349.965	13248.97
350.416	15961.48
350.866	17509.26
351.317	19810.17
351.767	32852.91
352.217	41538.27
352.668	34430.43
353.118	31572.55
353.568	30408.12
354.018	24096.89
354.468	25479.5
354.918	18326.39
355.368	16014.01
355.818	22634.47
356.268	65009.5
356.718	272060.03
357.168	67937.51
357.617	34095.79
358.067	37920.67
358.517	35541.35
358.966	41731.05
359.416	46807.81
359.865	50545.56
360.315	60350.8
360.764	28218.35
361.213	15842.38
361.663	14989.02
362.112	18451.39
362.561	29828.4
363.01	22524.77
363.459	18984.74
363.908	20545.23
364.357	17484.93
364.806	29524.82
365.255	20303.31
365.703	18633.27
366.152	18656.41
366.601	15190.22
367.05	12378.05
367.498	11285.68
367.947	11815.14
368.395	12286.86
368.844	10889.6
369.292	13124.49
369.74	9084.53
370.189	13920.97
370.637	16307.48
371.085	14084.02
371.533	17155.02
371.981	16517.15
372.429	15747.1
372.877	16412.08
373.325	13781.34
373.773	14041.65
374.221	12531.83
374.669	15576.07
375.116	13477.59
375.564	13614.02
376.012	15264.97
376.459	12620.01
376.907	15112.75
377.354	18306.8
377.801	17140.16
378.249	19734.07
378.696	25339.49
379.143	30733.93
379.591	32862.51
380.038	55780.81
380.485	40507.44
380.932	43970.33
381.379	40420.9
381.826	29930.82
382.273	21379.22
382.72	18744.03
383.166	18373.11
383.613	11982.09
384.06	10863.04
384.506	12629.6
384.953	9314.38
385.4	9406.82
385.846	8272.62
386.292	8089.43
386.739	7951.66
387.185	7902.28
387.631	7928.04
388.078	7724.03
388.524	8283.48
388.97	7674.07
389.416	6425.73
389.862	6866.71
390.308	6540.82
390.754	6667.3
391.2	7267.67
391.645	7456.64
392.091	7169.25
392.537	6967.18
392.983	7014.2
393.428	6935.34
393.874	7461.44
394.319	7530.05
394.765	7172.7
395.21	7381.9
395.655	6934.48
396.101	6513.05
396.546	5908.99
396.991	5973.19
397.436	5571.31
397.881	5386.1
398.326	5113.49
398.771	4854.72
399.216	4250.88
399.661	3836.1
400.106	3846.24
400.551	3956.64
400.995	3561.1
401.44	3529.7
401.885	3323.52
402.329	3364.8
402.774	3240.02
403.218	3146.19
403.663	3041.08
404.107	3139.67
404.551	3173.46
404.995	2914.7
405.44	2814.16
405.884	2860.38
406.328	2776.18
406.772	2774.12
407.216	2534.25
407.66	2453.51
408.104	2338.98
408.547	2191.81
408.991	2124.89
409.435	2053.04
409.879	2030.67
410.322	2011.1
410.766	1948.61
411.209	1855.23
411.653	1786.77
412.096	1753.67
412.54	1759.36
412.983	1746.74
413.426	1755.99
413.869	1758.38
414.312	1727.21
414.756	1667.31
415.199	1591.4
415.642	1546.89
416.085	1553.47
416.527	1544.39
416.97	1570.51
417.413	1491.89
417.856	1477.93
418.298	1464.77
418.741	1452.96
419.184	1452.04
419.626	1510.63
420.069	1512.91
420.511	1523.75
420.953	1491.33
421.396	1477.2
421.838	1440
422.28	1473.76
422.722	1484.53
423.164	1507.65
423.606	1486.66
424.048	1483.2
424.49	1412.08
424.932	1405.32
425.374	1385.7
425.816	1410.77
426.258	1438.23
426.699	1453.39
427.141	1433.32
427.582	1454.32
428.024	1447.98
428.465	1439.91
428.907	1406.45
429.348	1390.78
429.789	1393.1
430.231	1365.08
430.672	1384.21
431.113	1354.62
431.554	1335.8
431.995	1302.57
432.436	1258.45
432.877	1228.96
433.318	1209.69
433.759	1206.07
434.2	1207.88
434.64	1195.22
435.081	1199.71
435.522	1135.83
435.962	1094.07
436.403	1070.96
436.843	1087.58
437.284	1062.74
437.724	1035.49
438.164	1039.31
438.604	1015.41
439.045	976.81
439.485	935.46
439.925	914.62
440.365	892.08
440.805	880.42
441.245	872
441.685	839.04
442.125	833.08
442.564	838.27
443.004	815.23
443.444	811.42
443.883	809.87
444.323	804.29
444.762	804.99
445.202	815.08
445.641	829.18
446.081	822.61
446.52	829.19
446.959	818.79
447.398	797.87
447.837	787.15
448.276	771.93
448.716	778.32
449.154	782.92
449.593	764.25
450.032	758.86
450.471	743.21
450.91	742.11
451.349	740.13
451.787	736.93
452.226	746.75
452.664	745.49
453.103	746.07
453.541	744.22
453.98	743.51
454.418	747.78
454.856	737.2
455.295	735
455.733	738.58
456.171	739.9
456.609	742.34
457.047	742.22
457.485	755.26
457.923	757.44
458.361	747.15
458.798	748.25
459.236	744.97
459.674	749.42
460.111	752.41
460.549	745.48
460.987	742.22
461.424	738.04
461.862	734.18
462.299	722.31
462.736	720.04
463.173	722.36
463.611	714.13
464.048	714.22
464.485	720.81
464.922	715.19
465.359	711.75
465.796	705.05
466.233	699.8
466.67	692.74
467.106	689.97
467.543	683.9
467.98	675.2
468.416	657.57
468.853	650.58
469.29	630.37
469.726	621.96
470.162	605.66
470.599	594.98
471.035	588.56
471.471	574.44
471.907	571.15
472.344	566.74
472.78	567.61
473.216	575.67
473.652	568.73
474.088	566.46
474.523	564.81
474.959	569
475.395	563.82
475.831	559.98
476.266	561.94
476.702	558.49
477.138	551.62
477.573	549.41
478.008	546.1
478.444	548.24
478.879	553.42
479.314	555.56
479.75	555.03
480.185	556.68
480.62	561.42
481.055	563.45
481.49	568.12
481.925	575.7
482.36	585.56
482.795	600.54
483.229	615.36
483.664	626.74
484.099	627.31
484.534	635.85
484.968	641.54
485.403	641.84
485.837	640.17
486.271	637.3
486.706	637.27
487.14	628.43
487.574	617.08
488.009	609.55
488.443	602.62
488.877	607.82
489.311	607.7
489.745	612.71
490.179	617.12
490.613	626.75
491.046	629.5
491.48	631.21
491.914	629.06
492.348	630.74
492.781	632.36
493.215	630.73
493.648	628.06
494.082	630.31
494.515	627.2
494.948	630.45
495.382	629.97
495.815	630.1
496.248	630.56
496.681	637.51
497.114	643.32
497.547	647.83
497.98	655.2
498.413	656.02
498.846	658.67
499.279	660.87
499.711	658.07
500.144	655.32
500.577	658.66
501.009	662.07
501.442	664.64
501.874	658.98
502.306	652.77
502.739	653.18
503.171	657.24
503.603	652.74
504.036	653
504.468	650.78
504.9	651.3
505.332	649.11
505.764	644.74
506.196	641.59
506.627	644.82
507.059	647.98
507.491	644.59
507.923	636.49
508.354	639.66
508.786	639.85
509.217	645.2
509.649	648.37
510.08	653.56
510.512	658.41
510.943	662.22
511.374	663.27
511.805	669.55
512.237	675.77
512.668	689.06
513.099	699.31
513.53	709.55
513.961	716.65
514.391	730.51
514.822	745.95
515.253	761.61
515.684	771.4
516.114	784.7
516.545	792.13
516.975	802.88
517.406	809.98
517.836	808.03
518.267	808.67
518.697	816.9
519.127	816.78
519.558	817.36
519.988	816.97
520.418	820.66
520.848	828.54
521.278	832.73
521.708	865.9
522.138	873.07
522.567	889.29
522.997	903.43
523.427	910.97
523.857	920.9
524.286	926.98
524.716	937.06
525.145	949
525.575	955.91
526.004	965.25
526.433	939.54
526.863	940.64
527.292	937.4
527.721	942.29
528.15	946.71
528.579	948.18
529.008	956.37
529.437	969.47
529.866	977.71
530.295	989.13
530.724	998.18
531.152	1014.17
531.581	1024.56
532.01	1036.81
532.438	1042.22
532.867	1051.45
533.295	1063.56
533.723	1067.78
534.152	1068.07
534.58	1068.95
535.008	1060.2
535.436	1063.17
535.865	1069.2
536.293	1077.36
536.721	1087.07
537.149	1103.68
537.576	1107.53
538.004	1116.35
538.432	1121.67
538.86	1122.95
539.287	1128.53
539.715	1138.28
540.143	1138.98
540.57	1137.71
540.998	1135.09
541.425	1123.21
541.852	1110.75
542.28	1109.53
542.707	1100.32
543.134	1092.43
543.561	1090.29
543.988	1086.59
544.415	1086.81
544.842	1083.97
545.269	1079.78
545.696	1082.76
546.123	1090.35
546.549	1085.46
546.976	1079.07
547.403	1079.56
547.829	1081.42
548.256	1082.33
548.682	1080.94
549.108	1077.32
549.535	1078.07
549.961	1080.04
550.387	1072.37
550.813	1070.35
551.24	1074.48
551.666	1074.98
552.092	1068.83
552.518	1065.5
552.943	1062.33
553.369	1066.12
553.795	1068.34
554.221	1068.88
554.646	1066.22
555.072	1073.04
555.498	1074.47
555.923	1078
556.349	1085.54
556.774	1090.2
557.199	1089.85
557.625	1091.91
558.05	1087.93
558.475	1093.31
558.9	1091.27
559.325	1085.3
559.75	1079.6
560.175	1073.62
560.6	1069.08
561.025	1066.53
561.449	1066.01
561.874	1068.31
562.299	1070.33
562.723	1072.59
563.148	1064.9
563.572	1064.6
563.997	1069.05
564.421	1069.43
564.846	1066.98
565.27	1067.42
565.694	1063.93
566.118	1067.76
566.542	1069.04
566.966	1062.54
567.39	1057.49
567.814	1050.23
568.238	1048.45
568.662	1048.99
569.086	1049.48
569.509	1052.52
569.933	1042.4
570.357	1037.58
570.78	1024.38
571.204	1017.09
571.627	1008.93
572.05	1006.88
572.474	1005.4
572.897	997.75
573.32	992.49
573.743	985.82
574.166	975.75
574.589	974.6
575.012	968.52
575.435	967.24
575.858	961.61
576.281	955.44
576.704	946.89
577.126	939.07
577.549	932.75
577.972	927.05
578.394	921.68
578.817	918.55
579.239	908.05
579.661	901.61
580.084	893.74
580.506	885.86
580.928	883.35
581.35	876.51
581.772	873.98
582.194	865.41
582.616	858.04
583.038	849.08
583.46	841.66
583.882	840.25
584.303	841.09
584.725	837.57
585.147	842.51
585.568	850.31
585.99	857.96
586.411	863.03
586.833	873.09
587.254	874.45
587.675	883.14
588.096	891.59
588.518	889.18
588.939	880.85
589.36	879.55
589.781	869.33
590.202	855.52
590.623	851.3
591.043	848.75
591.464	841.39
591.885	840.37
592.305	837.34
592.726	829.48
593.147	830.27
593.567	827.97
593.987	824.33
594.408	821.41
594.828	817.39
595.248	814.34
595.669	805.17
596.089	801.53
596.509	797.14
596.929	789.2
597.349	789.98
597.769	783.38
598.189	779.6
598.608	780.82
599.028	783.5
599.448	783.59
599.867	775.85
600.287	773.09
600.706	771.28
601.126	766.65
601.545	766.74
601.965	765.2
602.384	763.55
602.803	764.88
603.222	762.23
603.641	757.54
604.061	755.55
604.48	752.93
604.898	757.45
605.317	759.62
605.736	760.63
606.155	760.15
606.574	755.4
606.992	758.42
607.411	756.51
607.829	751.79
608.248	750.45
608.666	748.83
609.085	749.5
609.503	744.67
609.921	742.46
610.339	745.28
610.758	744.73
611.176	743.49
611.594	739.69
612.012	738.31
612.43	742.18
612.847	746.16
613.265	749.38
613.683	753.04
614.101	755.82
614.518	753.76
614.936	749.02
615.353	741.68
615.771	740.48
616.188	741.43
616.606	741.47
617.023	738.62
617.44	731.99
617.857	727.96
618.274	723.51
618.691	721.63
619.108	717.37
619.525	713.62
619.942	719.14
620.359	722.76
620.776	720.49
621.192	719.01
621.609	718.76
622.026	723.74
622.442	729.25
622.859	731.72
623.275	728.3
623.691	732.71
624.108	740.54
624.524	748.59
624.94	748.3
625.356	754.81
625.772	763
626.188	769.37
626.604	770.23
627.02	767.31
627.436	766.95
627.852	771.04
628.268	779.02
628.683	773.63
629.099	769.11
629.514	766.5
629.93	768.74
630.345	771.99
630.761	769.98
631.176	772.73
631.591	771.78
632.007	769.33
632.422	767.79
632.837	760.62
633.252	760.88
633.667	756.46
634.082	752.2
634.497	746.34
634.911	737.62
635.326	737.29
635.741	729.32
636.155	724.58
636.57	729.08
636.984	732.3
637.399	738.06
637.813	740.4
638.228	742.54
638.642	749
639.056	745.69
639.47	748.62
639.884	747.74
640.298	747.54
640.712	751.13
641.126	747.23
641.54	746.18
641.954	745.83
642.368	743.69
642.781	745.6
643.195	739.04
643.609	745.15
644.022	745.29
644.436	747.33
644.849	745.55
645.262	741.68
645.676	746.03
646.089	747.97
646.502	743.17
646.915	742.93
647.328	734.46
647.741	736.79
648.154	731.31
648.567	734.04
648.98	728.65
649.393	730.89
649.805	732.28
650.218	729.79
650.631	719.77
651.043	717.57
651.456	715.99
651.868	717.37
652.28	731.14
652.693	742.41
653.105	748.28
653.517	757.19
653.929	759.82
654.341	765.46
654.753	760.42
655.165	768.08
655.577	768.57
655.989	767.81
656.401	764.83
656.813	742.96
657.224	731.72
657.636	713.5
658.047	704.39
658.459	694.74
658.87	692.13
659.282	686.85
659.693	676.96
660.104	671.12
660.515	666.77
660.926	672.94
661.338	675.66
661.749	675.67
662.159	674.34
662.57	675.54
662.981	676.05
663.392	674.87
663.803	683.57
664.213	685.83
664.624	686.55
665.035	693.41
665.445	684.5
665.855	682.36
666.266	681.29
666.676	683.98
667.086	680.48
667.497	683.93
667.907	682.43
668.317	677.46
668.727	678.74
669.137	682.6
669.547	682.18
669.956	687.68
670.366	691.62
670.776	695.35
671.186	700.45
671.595	704.8
672.005	708.46
672.414	710.16
672.824	709.6
673.233	712.77
673.642	714.49
674.052	718.15
674.461	719.07
674.87	722.42
675.279	718.98
675.688	718.95
676.097	719.66
676.506	717.08
676.915	727.99
677.323	728.82
677.732	726.51
678.141	726.01
678.549	714.35
678.958	711.5
679.366	709.43
679.775	711.25
680.183	719.9
680.592	722.52
681	723.9
681.408	713.78
681.816	717.71
682.224	721.41
682.632	725.24
683.04	745.68
683.448	760.73
683.856	780.39
684.264	802.54
684.671	817.75
685.079	838.82
685.487	862.07
685.894	897.81
686.302	920.87
686.709	935.72
687.116	952.38
687.524	962.85
687.931	968.25
688.338	966.16
688.745	958.33
689.152	955.7
689.559	962.22
689.966	968.05
690.373	959.05
690.78	962.81
691.187	980.57
691.593	988.38
692	993.15
692.407	1010.8
692.813	1041.22
693.22	1063.62
693.626	1086.64
694.032	1103.42
694.439	1135.95
694.845	1161.17
695.251	1196.88
695.657	1230.12
696.063	1284.36
696.469	1326.81
696.875	1367.43
697.281	1390.6
697.687	1422.98
698.093	1452.83
698.498	1504.47
698.904	1546.74
699.31	1610.49
699.715	1663.45
700.12	1732.65
700.526	1761.99
700.931	1819.82
701.337	1871.05
701.742	1912.92
702.147	1985.73
702.552	2027.18
702.957	2087.72
703.362	2124.9
703.767	2166.4
704.172	2214.99
704.577	2206.48
704.981	2261.26
705.386	2298.26
705.791	2316.67
706.195	2391.83
706.6	2423.19
707.004	2505.89
707.408	2509.55
707.813	2555.45
708.217	2572.78
708.621	2600.33
709.025	2700.13
709.43	2727.26
709.834	2798.44
710.237	2879.67
710.641	2894.05
711.045	2938.61
711.449	2959.84
711.853	3011.74
712.256	3071.39
712.66	3129.58
713.064	3218.38
713.467	3279.92
713.87	3401.19
714.274	3467.86
714.677	3587.88
715.08	3758.07
715.484	3933.69
715.887	4142.22
716.29	4346.22
716.693	4561.82
717.096	4809.14
717.499	4960.1
717.901	5017.54
718.304	5076.82
718.707	5134.87
719.109	5076.51
719.512	5077.19
719.915	4984.88
720.317	4961.29
720.719	5032.87
721.122	5037.66
721.524	5019.74
721.926	5012.35
722.328	5138.55
722.731	5160.88
723.133	5216.62
723.535	5433.13
723.937	5482.77
724.338	5563.59
724.74	5633.19
725.142	5600.78
725.544	5625.34
725.945	5678.79
726.347	5696.43
726.748	5713.48
727.15	5747.26
727.551	5733.1
727.952	5727.87
728.354	5720.17
728.755	5740.74
729.156	5716.62
729.557	5723.19
729.958	5613.54
730.359	5571.97
730.76	5571.59
731.161	5524.87
731.562	5517.64
731.962	5538.11
732.363	5484.18
732.763	5431.76
733.164	5485.88
733.564	5430.66
733.965	5340.13
734.365	5317.21
734.766	5359.41
735.166	5328.62
735.566	5282.43
735.966	5261.96
736.366	5262.22
736.766	5207.22
737.166	5251.99
737.566	5216.32
737.966	5193.28
738.365	5245.72
738.765	5247.42
739.165	5178.89
739.564	5161.04
739.964	5218.89
740.363	5178.03
740.763	5185.84
741.162	5179.95
741.561	5151.48
741.96	5107.25
742.36	5138.77
742.759	5151.56
743.158	5205.13
743.557	5225.34
743.955	5277.58
744.354	5232.69
744.753	5302.38
745.152	5263.07
745.55	5329.26
745.949	5326.68
746.348	5331.06
746.746	5353.46
747.144	5315.19
747.543	5288.84
747.941	5346.97
748.339	5270.61
748.737	5264.7
749.136	5259.26
749.534	5336.17
749.932	5307.49
750.33	5338.18
750.727	5406.2
751.125	5382.16
751.523	5365.34
751.921	5419.47
752.318	5383.8
752.716	5451.87
753.113	5471.07
753.511	5501.89
753.908	5503.96
754.305	5487.55
754.703	5558.36
755.1	5628.43
755.497	5700.49
755.894	5921.58
756.291	6128.09
756.688	6506.9
757.085	7010.39
757.482	7717.01
757.878	8491.97
758.275	9193.54
758.672	10158.24
759.068	10949.25
759.465	12071.02
759.861	13511.82
760.258	15181.19
760.654	16050.4
761.05	15929.53
761.447	15203.7
761.843	14164.47
762.239	13082.25
762.635	12595.38
763.031	12128.18
763.427	11444.75
763.822	10735.55
764.218	10035.42
764.614	9122.83
765.01	8513.63
765.405	8117.21
765.801	7819.06
766.196	7433.16
766.592	7220.81
766.987	6857.87
767.382	6611.02
767.778	6511.05
768.173	6360.49
768.568	6279.17
768.963	6136.88
769.358	6158.37
769.753	6102.83
770.148	6007.87
770.542	6009.09
770.937	5972.75
771.332	6079.39
771.726	6104.97
772.121	6032.63
772.515	6099.05
772.91	6082.89
773.304	6163.95
773.699	6085.54
774.093	6151.2
774.487	6214.5
774.881	6263.98
775.275	6257.4
775.669	6209.57
776.063	6260.62
776.457	6304.54
776.851	6217.71
777.245	6206.38
777.638	6245.09
778.032	6379.98
778.425	6338.17
778.819	6385.73
779.212	6334.64
779.606	6289.99
779.999	6311.53
780.392	6292.51
780.786	6388.37
781.179	6411.71
781.572	6462.91
781.965	6478.6
782.358	6412.02
782.751	6479.47
783.143	6427.94
783.536	6514.94
783.929	6566.85
784.322	6699.03
784.714	6735.66
785.107	6727.41
785.499	6812.34
785.891	6789.92
786.284	6767.19
786.676	6930.46
787.068	6902.34
787.46	6960.69
787.852	6981.74
788.245	7077.07
788.636	7112.73
789.028	7189.27
789.42	7238.8
789.812	7247.17
790.204	7359.57
790.595	7477.59
790.987	7255.08
791.378	7286
791.77	7435.68
792.161	7592.76
792.553	7659.11
792.944	7530.19
793.335	7453.27
793.726	7537.34
794.117	7642.31
794.508	7799.34
794.899	7765.09
795.29	7925.83
795.681	7992.09
796.072	7828.2
796.463	7617.44
796.853	7628.88
797.244	7816.6
797.634	7856.85
798.025	7855.77
798.415	7868.28
798.806	7969.55
799.196	8066.63
799.586	8127.92
799.976	8084.83
800.366	8351.75
800.756	8630.59
801.146	8583.97
801.536	8613.81
801.926	8693.4
802.316	8723.61
802.706	8807.57
803.095	8663.62
803.485	8780.04
803.874	8820.81
804.264	9124.45
804.653	9096.1
805.043	9261.44
805.432	9388.36
805.821	9386.91
806.21	9415.83
806.599	9551.52
806.988	9603.39
807.377	9729.16
807.766	9877.12
808.155	10209.41
808.544	9904.97
808.933	9917.64
809.321	9895.12
809.71	10236.43
810.098	10422.74
810.487	10957.05
810.875	11513.09
811.264	11542.13
811.652	11876.43
812.04	12047.07
812.428	12237.42
812.816	13114.44
813.204	13598.15
813.592	14241.25
813.98	14635.04
814.368	14527.39
814.756	15079
815.144	14986.9
815.531	15525.16
815.919	15442.84
816.306	15792.8
816.694	15432.04
817.081	15484.75
817.469	15885.75
817.856	15876.55
818.243	16183.19
818.63	16630.38
819.017	16151.44
819.404	16225.7
819.791	16663.66
820.178	17376.89
820.565	17678.17
820.952	18752.37
821.339	18199.26
821.725	18409.71
822.112	17551.09
822.498	17499.51
822.885	17658.84
823.271	17551.27
823.657	18033.36
824.044	18038.27
824.43	18115.45
824.816	18071.7
825.202	17574.35
825.588	18744.32
825.974	18761.86
826.36	19357.37
826.746	19404.68
827.132	19805.25
827.517	19773.87
827.903	18866.11
828.289	18912.15
828.674	18017.12
829.06	17898.71
829.445	18352.35
829.83	18764.32
830.216	19316.71
830.601	19736.66
830.986	19264.23
831.371	19108.2
831.756	19756.34
832.141	19262.37
832.526	19256.63
832.911	19587.28
833.295	19447.21
833.68	19984.93
834.065	19263.72
834.449	18211.32
834.834	18134.75
835.218	18128.21
835.603	18521.73
835.987	18269.43
836.371	19226.68
836.755	19110.65
837.139	19564.2
837.524	19845.7
837.908	19642.97
838.291	19713.99
838.675	19801.17
839.059	20031.74
839.443	20019.11
839.827	19754.74
840.21	20307.84
840.594	20137.87
840.977	20371.76
841.361	20349.19
841.744	20787.44
842.127	20604.99
842.511	20891.45
842.894	21570.24
843.277	22007.52
843.66	22636.93
844.043	22739.94
844.426	21807.69
844.809	21450.68
845.191	21487.1
845.574	20955.4
845.957	20532.11
846.339	20413.05
846.722	19808.13
847.104	19882.38
847.487	19684.08
847.869	19693.61
848.252	20010.07
848.634	20397.81
849.016	20697.36
849.398	20841.14
849.78	21815.66
850.162	21823.24
850.544	22297.73
850.926	23020.19
851.307	22924.2
851.689	23250.12
852.071	23773.67
852.452	24144.69
852.834	24129.92
853.215	24589.32
853.597	24770.66
853.978	25124
854.359	25637.32
854.741	24498.95
855.122	24388.51
855.503	24061.48
855.884	24212.45
856.265	24144.75
856.646	24266.4
857.026	23803.28
857.407	23734.09
857.788	23908.3
858.169	24232.82
858.549	23262.16
858.93	23969.35
859.31	24021.58
859.69	24260.28
860.071	23794.03
860.451	23534.63
860.831	22698.72
861.211	24031.1
861.591	24652.81
861.971	24623.57
862.351	24843.89
862.731	25285.16
863.111	25605.32
863.491	25986.36
863.87	26996.41
864.25	27400.79
864.629	26952.02
865.009	27536.63
865.388	28523.69
865.768	30575.63
866.147	30457.87
866.526	28768.36
866.905	29117.52
867.284	30734.81
867.663	29177.21
868.042	27966.5
868.421	27887.64
868.8	28341.12
869.179	28632.06
869.558	26955.05
869.936	24840.57
870.315	25283.51
870.693	25904.36
871.072	27938.02
871.45	26616.73
871.828	26968.85
872.207	28348.66
872.585	27910.43
872.963	28681.3
873.341	27690.37
873.719	27363.1
874.097	27039.86
874.475	27563.56
874.853	28196.29
875.23	27036.99
875.608	28172.67
875.986	30478.18
876.363	29139.71
876.741	30036.59
877.118	29282.08
877.495	30718.54
877.873	31243.76
878.25	32874.8
878.627	31520.2
879.004	31962.19
879.381	31794.56
879.758	30957.18
880.135	28815.67
880.512	30480.04
880.889	29666.45
881.265	29364.42
881.642	29120.11
882.019	29606.32
882.395	29010.55
882.772	30173.49
883.148	28858.08
883.524	28743.57
883.901	28576.41
884.277	29000.86
884.653	28820.92
885.029	29648.44
885.405	32829.91
885.781	32568.41
886.157	31231.36
886.532	31626.64
886.908	31602.53
887.284	35154.79
887.659	36299.07
888.035	37420.78
888.411	38380.43
888.786	38882.95
889.161	40222.22
889.537	39495.56
889.912	40767.34
890.287	40725.96
890.662	41764.52
891.037	41024.96
891.412	38247.68
891.787	37868.77
892.162	36550.67
892.536	37409.7
892.911	36000.71
893.286	35243.41
893.66	33793.03
894.035	34646.08
894.409	37734.81
894.784	36206.39
895.158	36784.72
895.532	38964.48
895.906	40019.07
896.281	40978.36
896.655	40337.5
897.029	46108.66
897.402	48010.39
897.776	53464.14
898.15	53297.37
898.524	52692.21
898.898	53397.66
899.271	59788.5
899.645	51781.55
900.018	49744.67
900.392	51574.15
900.765	51977.29
901.138	48090.07
901.511	47390.57
901.884	43514.7
902.258	40147.31
902.631	41508.65
903.003	47784.96
903.376	43142.87
903.749	48380.61
904.122	51805.8
904.495	57034.95
904.867	57762.74
905.24	50152.36
905.612	46692.22
905.985	47762.91
906.357	49935.27
906.729	47665.54
907.102	40711.55
907.474	39141.65
907.846	39406.26
908.218	38871.4
908.59	34365.27
908.962	33234.67
909.334	35791.02
909.705	37602.03
910.077	36501.53
910.449	37992.55
910.82	39037.21
911.192	42943.92
911.563	44611.64
911.935	47722.81
912.306	47789.74
912.677	49366.11
913.048	48875.92
913.419	53025.94
913.79	53286.15
914.161	57149.5
914.532	54609.64
914.903	50184.57
915.274	47666.31
915.645	47010.74
916.015	41398.76
916.386	39471.47
916.756	41973.62
917.127	43305.39
917.497	38675.83
917.868	42109.37
918.238	40014.12
918.608	41159.67
918.978	41998.47
919.348	44481.53
919.718	45936.27
920.088	44242.52
920.458	45970.25
920.828	48379.35
921.198	45865.58
921.567	49017.98
921.937	37962.93
922.306	38323.54
922.676	41356.85
923.045	34525.93
923.415	32802.04
923.784	29885.29
924.153	30731.35
924.522	30705.85
924.891	28879.38
925.26	30930.65
925.629	30204.09
925.998	34732.55
926.367	33915.18
926.736	32288.87
927.104	38478.38
927.473	41361.6
927.842	49918.67
928.21	49424.57
928.578	51960.55
928.947	49121.03
929.315	49434.63
929.683	57940.38
930.051	58398.71
930.42	67811.5
930.788	58008.28
931.156	57536.96
931.523	53941.31
931.891	49844.91
932.259	47866.67
932.627	55462.56
932.994	78507.6
933.362	64876.8
933.729	56385.69
934.097	53988.83
934.464	45706.86
934.831	52734.36
935.199	52019.24
935.566	50480.19
935.933	51267.59
936.3	62152.91
936.667	48412.29
937.034	43681.66
937.401	43201.31
937.767	37287.73
938.134	33191.87
938.501	46824.12
938.867	49876.42
939.234	84322.68
939.6	71942.27
939.967	79051.23
940.333	52883.35
940.699	45028.61
941.065	36131.17
941.431	47416.51
941.798	45703.47
942.163	60008.45
942.529	37460.03
942.895	34488.5
943.261	22306.2
943.627	29248.74
943.992	25606.73
944.358	25653.89
944.723	25710.5
945.089	25047.32
945.454	23112.01
945.82	24682.97
946.185	23712.02
946.55	27452.18
946.915	24634.22
947.28	28892
947.645	25420.64
948.01	23467.91
948.375	24458.86
948.74	29348.86
949.104	34215.11
949.469	49436.25
949.834	87373.83
950.198	82870.07
950.562	49661.72
950.927	41319.62
951.291	49705.39
951.655	42361.54
952.02	39787.05
952.384	30087.73
952.748	26181.37
953.112	25536.67
953.476	22216.6
953.839	20528.21
954.203	20308.03
954.567	25431.16
954.931	40061.91
955.294	34239.8
955.658	34465.27
956.021	58648.21
956.385	99400.6
956.748	146751.59
957.111	227682.08
957.474	255646.46
957.837	288147.88
958.2	218107.34
958.563	78392.15
958.926	53003.8
959.289	80502.56
959.652	89850.45
960.015	67400.28
960.377	96760.29
960.74	110444.16
961.102	190613.55
961.465	204556.66
961.827	109522.42
962.189	210274.67
962.552	145830.07
962.914	116916.18
963.276	75875.47
963.638	62726.76
964	62049.7
964.362	41940.51
964.724	40548.75
965.085	28901.52
965.447	23667.97
965.809	26975.64
966.17	27005.38
966.532	29196.22
966.893	26802.83
967.255	24404.87
967.616	28800.76
967.977	23079.06
968.338	25222.65
968.699	20707.2
969.061	20726.37
969.421	20885.97
969.782	23440.38
970.143	19796.7
970.504	20516.84
970.865	23304.52
971.225	23798.87
971.586	23302.55
971.946	33207.68
972.307	28803.58
972.667	37705.85
973.027	38799.21
973.388	47085.07
973.748	32036.18
974.108	34918.34
974.468	47284.82
974.828	36464.85
975.188	28081.09
975.548	25775.62
975.907	21651.74
976.267	24293.93
976.627	20396.87
976.986	21154.6
977.346	20146.4
977.705	19374.85
978.064	17625.88
978.424	14672.87
978.783	15179.02
979.142	17323.6
979.501	16575.34
979.86	17517.01
980.219	16880.7
980.578	21767.09
980.937	24368.54
981.296	21763.18
981.654	22394.69
982.013	34868.2
982.371	45213.45
982.73	42231.95
983.088	47848.47
983.447	51136.18
983.805	73173.34
984.163	152794.09
984.521	169847.9
984.879	249266.64
985.237	-405298.27
985.595	390677.59
985.953	96999.21
986.311	56087.79
986.669	32582.42
987.026	28073.92
987.384	37759.71
987.741	39045.75
988.099	27967.77
988.456	22269.98
988.814	20832.76
989.171	18082.09
989.528	17842.55
989.885	18868.14
990.242	14925.15
990.599	18594.48
990.956	15240.97
991.313	10651.1
991.67	8752.35
992.027	9270.14
992.383	8245.39
992.74	7242.48
993.096	7607.26
993.453	7891.71
993.809	8187.44
994.165	10911.92
994.522	9998.44
994.878	11020.58
995.234	13840.4
995.59	13637.63
995.946	12914.8
996.302	14718.28
996.658	16999
997.013	18729.76
997.369	22187.04
997.725	28357.39
998.08	18346.17
998.436	28270.01
998.791	39031.73
999.147	38996.98
999.502	42496.65
999.857	30876.98
1000.212	50404.06
1000.567	71869.99
1000.922	41395.49
1001.277	26299.22
1001.632	19501.41
1001.987	25150.04
1002.342	18024.68
1002.696	14393.03
1003.051	11464.68
1003.406	13912.89
1003.76	13855.72
1004.114	13636.95
1004.469	11458.12
1004.823	9506.48
1005.177	10275.66
1005.531	8154.97
1005.885	7244.45
1006.239	8172.02
1006.593	10246.49
1006.947	13728.38
1007.301	10298.81
1007.655	11224.9
1008.008	8251.66
1008.362	9277.94
1008.715	13244.17
1009.069	12038.21
1009.422	18121.14
1009.776	36232.8
1010.129	24123.08
1010.482	20193.04
1010.835	17063.09
1011.188	35581.06
1011.541	33424
1011.894	-204206.15
1012.247	600358.24
1012.6	40822.53
1012.952	25684.82
1013.305	13231.74
1013.657	9550.21
1014.01	9016.5
1014.362	7424.12
1014.715	6612.99
1015.067	5746.76
1015.419	5623.76
1015.771	4980.06
1016.123	4425.38
1016.475	4548.99
1016.827	4859.38
1017.179	5221.26
1017.531	5265.44
1017.883	5393
1018.234	5212.01
1018.586	6584
1018.938	6963.95
1019.289	9621.88
1019.64	11043.38
1019.992	10321.9
1020.343	9423.88
1020.694	7446.35
1021.045	6587.47
1021.396	7523.19
1021.747	8062.8
1022.098	9667.38
1022.449	6975.87
1022.8	6474.35
1023.151	4513.17
1023.501	4013.26
1023.852	4342.13
1024.202	4507.45
1024.553	4946.74
1024.903	4833.94
1025.253	4126.17
1025.604	3706.65
1025.954	4602.57
1026.304	5630.94
1026.654	6583.35
1027.004	9621.81
1027.354	15482.47
1027.703	14640.1
1028.053	19253.69
1028.403	27983.42
1028.753	40506.17
1029.102	55136.38
1029.452	284126.84
1029.801	12262.01
1030.15	7914.58
1030.499	6681.12
897.758	3052.1
901.051	3031.97
904.343	3074.24
907.636	3064.75
910.928	3132.49
914.22	3036.77
917.511	3045.48
920.803	3126.45
924.094	3165.91
927.384	3122.14
930.675	3093.36
933.965	3039.71
937.255	3035.29
940.544	2999.11
943.834	2887.22
947.123	2841.61
950.411	2944.15
953.7	2911.51
956.988	2859.85
960.276	2810.66
963.563	2922.22
966.851	2902.74
970.138	2973.83
973.424	2955.17
976.711	2904.47
979.997	3115.89
983.283	3136.59
986.568	3018.15
989.853	3060.26
993.138	3091.26
996.423	3163.7
999.708	3083.05
1002.992	3187.15
1006.275	2953.7
1009.559	3042.16
1012.842	3168.57
1016.125	3087.15
1019.408	3063.65
1022.69	3178.62
1025.972	3182.95
1029.254	3155.3
1032.536	3062.67
1035.817	3104.95
1039.098	3018.62
1042.379	3245.41
1045.659	3211.45
1048.939	3133.1
1052.219	3164.52
1055.498	3196.87
1058.778	3170.74
1062.057	3161.55
1065.335	3179.8
1068.614	3207.9
1071.892	3176.55
1075.17	3270.77
1078.447	3251.25
1081.724	3237.79
1085.001	3284.88
1088.278	3255.69
1091.554	3272.1
1094.83	3269.49
1098.106	3294.35
1101.382	3352
1104.657	3354.94
1107.932	3347.55
1111.206	3298.85
1114.481	3260.08
1117.755	3267.91
1121.029	3234.12
1124.302	3280.2
1127.575	3216.68
1130.848	3195.76
1134.121	3148.15
1137.393	3086.72
1140.665	3164.87
1143.937	3135.41
1147.208	3078.09
1150.48	3097.34
1153.75	3079.16
1157.021	3141.98
1160.291	3106.01
1163.561	3142.57
1166.831	3157.56
1170.101	3193
1173.37	3182.95
1176.639	3108.74
1179.907	3186.36
1183.176	3204.98
1186.444	3219.97
1189.711	3252.46
1192.979	3251.4
1196.246	3207.72
1199.513	3234.22
1202.78	3224.89
1206.046	3230.87
1209.312	3259.58
1212.578	3289.89
1215.843	3226.83
1219.108	3211.23
1222.373	3231.76
1225.638	3183.44
1228.902	3160.43
1232.166	3133.37
1235.43	3105.94
1238.693	3130.23
1241.956	3134.46
1245.219	3160.5
1248.482	3164.91
1251.744	3154.48
1255.006	3330.2
1258.268	3292.13
1261.529	3227.13
1264.79	3242.13
1268.051	3355.55
1271.312	3379.37
1274.572	3329.02
1277.832	3321.59
1281.092	3323.84
1284.351	3278.05
1287.61	3252.85
1290.869	3144.31
1294.128	3101.29
1297.386	3231.07
1300.644	3210.69
1303.902	3224.75
1307.159	3073.19
1310.416	3132.56
1313.673	3149.6
1316.93	3122.81
1320.186	3185.24
1323.442	3234.8
1326.697	3215.79
1329.953	3221.34
1333.208	3230.31
1336.463	3219.85
1339.717	3137.93
1342.972	3258.74
1346.226	3249.46
1349.479	3166.09
1352.733	3123.28
1355.986	3163.19
1359.238	3134.57
1362.491	3131.94
1365.743	3140
1368.995	3140.53
1372.247	3153.67
1375.498	3176.4
1378.749	3200.15
1382	3156.01
1385.251	3226
1388.501	3195.72
1391.751	3161.71
1395	3138.09
1398.25	3175.32
1401.499	3165.09
1404.748	3069.61
1407.996	3026.45
1411.244	3012.1
1414.492	2989.35
1417.74	2959.44
1420.987	2977.46
1424.234	3025.49
1427.481	3025.06
1430.728	3084.24
1433.974	3055.32
1437.22	3087.55
1440.465	3097.06
1443.711	3068.07
1446.956	3109.05
1450.201	3114.66
1453.445	3159.98
1456.689	3126.2
1459.933	3144.12
1463.177	3168.49
1466.42	3138.52
1469.663	3115.84
1472.906	3090.05
1476.148	3213.4
1479.391	3126.01
1482.633	3109.32
1485.874	3110.17
1489.115	3079.22
1492.356	3105.66
1495.597	3074.41
1498.838	3086.38
1502.078	3038.6
1505.318	2971.39
1508.557	3019.39
1511.797	2952.02
1515.036	3089.12
1518.274	3078.84
1521.513	3062.95
1524.751	3094.03
1527.989	3095.26
1531.227	3106.45
1534.464	3079.76
1537.701	3127.99
1540.938	3153.27
1544.174	3115.09
1547.41	3120.45
1550.646	3161.32
1553.882	3182.17
1557.117	3237.25
1560.352	3258.48
1563.587	3212.23
1566.821	3164.36
1570.055	3219.74
1573.289	3182.24
1576.523	3275.37
1579.756	3273.79
1582.989	3290.68
1586.222	3250.07
1589.454	3299.3
1592.686	3264.11
1595.918	3286.69
1599.15	3268.15
1602.381	3369.56
1605.612	3299.98
1608.843	3398.98
1612.073	3307.44
1615.303	3286.77
1618.533	3271.87
1621.762	3278.29
1624.992	3278.15
1628.221	3246.05
1631.449	3229.55
1634.678	3316.78
1637.906	3262.23
1641.134	3315.21
1644.361	3259.92
1647.588	3241.85
1650.815	3256.56
1654.042	3252.68
1657.269	3286.16
1660.495	3230.24
1663.72	3202.29
1666.946	3183.49
1670.171	3092.3
1673.396	3068.2
1676.621	3066.28
1679.845	3110.32
1683.069	3145.52
1686.293	3197.55
1689.517	3152.77
1692.74	3058.58
1695.963	3079.24
1699.185	3150.42
1702.408	3106.27
1705.63	3159.34
1708.852	3165.88
1712.073	3137.33
1715.294	3099.58
1718.515	3161.17
1721.736	3098.25
1724.956	3092.27
1728.176	3122.82
1731.396	3146.02
1734.616	3135.45
1737.835	3150.2
1741.054	3145.42
1744.272	3139.76
1747.491	3156
1750.709	3239.16
1753.927	3114.9
1757.144	3179.47
1760.361	3211.72
1763.578	3227.56
1766.795	3156.84
1770.011	3178.26
1773.227	3238.89
1776.443	3260.06
1779.658	3304.38
1782.874	3256.01
1786.089	3218.36
1789.303	3221.6
1792.518	3234.64
1795.732	3225.44
1798.945	3222.51
1802.159	3287.84
1805.372	3154.72
1808.585	3123.78
1811.797	3128.91
1815.01	3204.59
1818.222	3199.49
1821.434	3109.47
1824.645	3203.32
1827.856	3161.16
1831.067	3200.11
1834.278	3160.75
1837.488	3139.49
1840.698	3312.8
1843.908	3221.37
1847.117	3182.4
1850.326	3023.07
1853.535	3156.16
1856.744	3247.07
1859.952	3135.18
1863.16	3137.31
1866.368	3166.16
1869.575	3277.17
1872.782	3165.54
1875.989	3109.46
1879.196	3228.33
1882.402	3218.84
1885.608	3266.24
1888.814	3133.53
1892.019	3018.69
1895.224	3069
1898.429	3066.22
1901.634	3036.91
1904.838	3019.3
1908.042	3063.87
1911.246	3066.02
1914.449	2966.08
1917.652	2980.32
1920.855	2966.49
1924.058	3039.02
1927.26	3065.73
1930.462	3101.93
1933.664	3113.32
1936.865	3048.34
1940.066	3045.92
1943.267	2998.04
1946.467	3019.16
1949.668	3052.85
1952.868	3116.73
1956.067	3080.2
1959.267	3003.99
1962.466	3036.82
1965.665	3020.93
1968.863	3022.6
1972.061	3047.8
1975.259	3053.19
1978.457	3131.09
1981.654	3089.39
1984.852	3085.84
1988.048	2999.13
1991.245	3015.48
1994.441	3096.36
1997.637	3107.07
2000.833	3090.64
2004.028	3129.78
2007.223	3175.89
2010.418	3139.68
2013.613	3114.41
2016.807	3059.18
2020.001	3082.69
2023.194	3148.65
2026.388	3114.06
2029.581	3063.3
2032.774	3096.35
2035.966	3092.43
2039.158	3011.35
2042.35	3047.37
2045.542	2975.2
2048.733	3092.59
2051.924	3148.06
2055.115	3188.83
2058.306	3109.12
2061.496	3175.98
2064.686	3253.39
2067.875	3175.3
2071.065	3207.28
2074.254	3241.29
2077.442	3189.52
2080.631	3290.88
2083.819	3141.62
2087.007	3111.49
2090.195	3067.41
2093.382	3122.54
2096.569	3098.99
2099.756	3041.89
2102.942	3047.36
2106.128	3037.49
2109.314	3033.43
2112.5	2975.67
2115.685	2961.8
2118.87	2975.06
2122.055	3044.1
2125.239	2996.08
2128.424	2955.59
2131.608	3101.7
2134.791	3086.56
2137.974	3162.9
2141.157	3145.68
2144.34	3077.87
2147.523	3117.32
2150.705	3116.5
2153.887	3107.58
2157.068	3035.18
2160.25	3060.52
2163.431	3115.34
2166.611	3034.43
2169.792	3043.07
2172.972	2922.7
2176.152	3031.06
2179.331	3074.84
2182.511	3035.45
2185.69	3067.21
2188.868	3053.49
2192.047	3132.25
2195.225	3095.27
2198.403	3043.2
2201.58	3044.15
2204.758	3048.84
2207.935	3137.86
2211.111	2997.18
2214.288	2975.91
2217.464	3022.28
2220.64	3013.83
2223.815	3073.37
2226.991	2982.8
2230.166	3005.64
2233.34	3021.5
2236.515	3058.36
2239.689	3136.09
2242.863	3074.15
2246.036	3136.26
2249.209	3155.52
2252.382	3205.74
2255.555	3172.71
2258.727	3096.34
2261.9	3144.9
2265.071	3136.97
2268.243	3145.05
2271.414	3061.62
2274.585	3004.54
2277.756	3081.14
2280.926	3037.53
2284.096	3089.29
2287.266	2975.64
2290.436	3036.98
2293.605	3075.86
2296.774	3096.83
2299.942	3131.93
2303.111	3151.25
2306.279	3194.74
2309.447	3184.62
2312.614	3160.02
2315.781	3172.24
2318.948	3133.55
2322.115	3170.72
2325.281	3078.08
2328.447	3110.38
2331.613	3092.07
2334.779	3050.22
2337.944	3058.25
2341.109	3049.42
2344.274	3024.83
2347.438	2991.7
2350.602	3022.79
2353.766	3045.24
2356.929	3029.17
2360.092	3074.4
2363.255	3005.86
2366.418	2907.5
2369.58	3060.87
2372.742	2771.97
2375.904	2804.55
2379.066	2771.26
2382.227	2816.43
2385.388	2781.17
2388.548	2682.07
2391.709	2748.77
2394.869	2718.84
2398.029	2863.04
2401.188	2892.64
2404.347	2800.86
2407.506	2995.68
2410.665	3018.72
2413.823	3042.81
2416.981	2977.15
2420.139	3023.62
2423.296	3082.4
2426.453	3057.47
2429.61	3085.86
2432.767	2981.67
2435.923	3025.07
2439.079	2937.91
2442.235	3014.31
2445.391	2925.59
2448.546	2939.52
2451.701	3006.23
2454.855	2949.34
2458.009	3027.02
2461.163	3041.91
2464.317	2984.96
2467.471	3029.69
2470.624	3069.72
2473.777	3092.16
2476.929	3088.46
2480.082	3116.85
2483.234	3078.29
2486.385	2985.93
2489.537	2982.84
2492.688	2912.7
2495.839	2934.72
2498.989	2940.71
2502.14	2918.08
2505.29	2894.54
2508.439	2921.16
2511.589	2828.26
2514.738	2855.61
2517.887	2885.89
2521.035	3003.16
2524.183	3004.63
2527.331	2977
2530.479	2928.88
2533.627	2947.4
