Data from N_2_HIR_IL_4N_Splice17_12-11-08-823.txt Node
Date: Sat Mar 14 12:11:08 EDT 2020
User: sa697716
Spectrometer: FLMS03696
Trigger mode: 0
Integration Time (sec): 3.180400E-1
Scans to average: 20
Electric dark correction enabled: true
Nonlinearity correction enabled: true
Boxcar width: 5
XAxis mode: Wavelengths
Number of Pixels in Spectrum: 2048
>>>>>Begin Spectral Data<<<<<
187.83	-306642.35
188.298	2104
188.766	1172.65
189.233	1041.25
189.701	1448.93
190.169	2066.68
190.636	851.47
191.104	733.12
191.571	157.39
192.039	-33.1
192.506	-71.71
192.974	295.59
193.441	-602.66
193.908	-22.24
194.375	-49.55
194.842	16.95
195.31	132.47
195.777	191.29
196.244	402.37
196.711	490.42
197.177	609.73
197.644	858.34
198.111	1474.98
198.578	2053.68
199.045	1635.08
199.511	2685.09
199.978	3123.51
200.445	2672.32
200.911	2964.53
201.378	3305.62
201.844	2988.18
202.31	5096.15
202.777	5301.07
203.243	2935.45
203.709	2807.34
204.176	3375.02
204.642	2789.04
205.108	2612.65
205.574	2121.49
206.04	1958.12
206.506	1837.21
206.972	1742.91
207.438	1689.05
207.903	1906.42
208.369	1680.83
208.835	1678.23
209.301	1745.98
209.766	1794.47
210.232	1786.9
210.697	2200.16
211.163	2692.22
211.628	4058.2
212.094	3369.25
212.559	4109.75
213.024	2563.97
213.49	3122.63
213.955	3027.72
214.42	2971.24
214.885	2761.12
215.35	2649.99
215.815	2540.48
216.28	2677.2
216.745	2164.19
217.21	2316.32
217.675	2099.52
218.14	2334.38
218.604	2558.21
219.069	2886.09
219.534	2987.51
219.998	3437.89
220.463	4104.37
220.927	5012.74
221.392	4685.2
221.856	4726.44
222.32	5935.37
222.785	7319.49
223.249	9186.48
223.713	10256.69
224.177	10255.01
224.642	13123.56
225.106	16072.56
225.57	17550.72
226.034	13010.4
226.497	19766.17
226.961	17803.04
227.425	20700.99
227.889	22967.77
228.353	22930.69
228.816	47199.8
229.28	45012.17
229.744	37824.73
230.207	22996.53
230.671	22646.33
231.134	37433.08
231.597	43171.45
232.061	43156.78
232.524	42073.23
232.987	28923.78
233.45	26025.29
233.914	23306.18
234.377	23880.78
234.84	21870.31
235.303	25785.26
235.766	28669.72
236.229	29620.69
236.691	18618.7
237.154	20919.35
237.617	15722.62
238.08	16080.85
238.542	18822.36
239.005	13451.1
239.468	13332.23
239.93	12560.6
240.393	11407.52
240.855	10020.11
241.317	10242.49
241.78	12464.52
242.242	12845.53
242.704	13871.29
243.166	12054.45
243.629	10936.13
244.091	12591.23
244.553	13779.69
245.015	14793.33
245.477	19122.12
245.939	28004.27
246.4	29733.25
246.862	28843.19
247.324	27230.17
247.786	30436.11
248.247	39930.07
248.709	41162.55
249.17	30841.7
249.632	29078.41
250.093	33743.64
250.555	29112.43
251.016	17753.81
251.477	16840.11
251.939	18173.66
252.4	19057.86
252.861	22648.15
253.322	21064.35
253.783	25079.93
254.244	32490.55
254.705	25617.54
255.166	22771.95
255.627	22424.33
256.088	31654.4
256.549	33634.53
257.009	28946.65
257.47	35125.46
257.931	28613.01
258.391	21433.14
258.852	22076.26
259.312	23120.15
259.773	28555.21
260.233	24137.33
260.694	20361.86
261.154	23052.1
261.614	18472.48
262.074	16540.73
262.534	17183.19
262.994	16191.42
263.455	21564.23
263.915	18170.04
264.374	17114.23
264.834	18683.09
265.294	20683.66
265.754	21426.23
266.214	20308.11
266.673	19055.46
267.133	24031.47
267.593	23852.84
268.052	29157.04
268.512	25376.39
268.971	30639.89
269.431	33635.5
269.89	30122.26
270.349	45171.95
270.809	50338.25
271.268	45224.42
271.727	101363.25
272.186	65727.12
272.645	49316.39
273.104	35626.01
273.563	51575.98
274.022	40531.1
274.481	34493.45
274.94	26622.5
275.399	19800.1
275.857	23108.69
276.316	31276.94
276.775	27857.44
277.233	27433.38
277.692	25686.63
278.15	29056.56
278.609	29937.67
279.067	27724.51
279.525	25781.07
279.984	33274.92
280.442	39980.89
280.9	39390.22
281.358	25924.31
281.816	24177.91
282.274	23686.12
282.732	24482.99
283.19	24621.6
283.648	21265.33
284.106	22664.39
284.564	23066.65
285.021	21416.05
285.479	16000.7
285.937	14556.33
286.394	12780.45
286.852	13160.87
287.309	13853.36
287.767	13389.89
288.224	12759.43
288.682	13998.66
289.139	15381.18
289.596	14066.46
290.053	14594.09
290.511	18390.45
290.968	22334.19
291.425	30290.07
291.882	25200.85
292.339	21905.07
292.796	21712.49
293.252	20451.65
293.709	16254.59
294.166	14539.63
294.623	16060.86
295.079	15398.18
295.536	15467.79
295.992	14024.96
296.449	13877
296.905	14417.58
297.362	13825.78
297.818	14555.18
298.274	15095.77
298.731	15359.48
299.187	15215.93
299.643	16333.56
300.099	19793.9
300.555	21683.6
301.011	18125.73
301.467	17476.9
301.923	20446.66
302.379	19991.37
302.835	19633.7
303.291	19654.14
303.746	22379.06
304.202	28259.37
304.658	28366.33
305.113	19081.96
305.569	18718.84
306.024	19957.19
306.479	18987.55
306.935	16001.68
307.39	17460.38
307.845	16130.35
308.301	16233.98
308.756	15812.06
309.211	15253.1
309.666	15629.06
310.121	19401.86
310.576	19692.34
311.031	19540.69
311.486	22383.47
311.94	22384.17
312.395	29940.17
312.85	56232.99
313.305	276064.6
313.759	1431937.18
314.214	103701.42
314.668	82288.38
315.123	69275.7
315.577	24883.42
316.032	22143.43
316.486	27798.11
316.94	21970.55
317.394	15290.78
317.849	11904.67
318.303	11277.01
318.757	10628.77
319.211	11748.09
319.665	10293.23
320.119	10405.28
320.572	14907.36
321.026	13924.71
321.48	11570.75
321.934	12600.3
322.387	12619.16
322.841	13609.02
323.295	12244.6
323.748	14097.97
324.202	14312.39
324.655	17134.81
325.108	23944.58
325.562	16928.33
326.015	20104.74
326.468	15192.92
326.921	16989.07
327.374	15881.49
327.827	16547.37
328.28	18744.62
328.733	12564.61
329.186	11051.46
329.639	10550.63
330.092	8894.76
330.545	8471.01
330.997	8565.92
331.45	9377.3
331.903	11001.45
332.355	18924.8
332.808	18411.3
333.26	15174.82
333.713	16495.55
334.165	16598.28
334.617	22195.07
335.069	17943.78
335.522	32458.61
335.974	35907.63
336.426	32787.34
336.878	22724.1
337.33	11517.7
337.782	11252.65
338.234	14097.1
338.686	16838.5
339.137	19978.35
339.589	18775.33
340.041	14732.85
340.493	12655.6
340.944	12951.65
341.396	13933.97
341.847	11694.67
342.299	13782.91
342.75	16809.58
343.201	14662.48
343.653	16827.49
344.104	20631.3
344.555	16225.62
345.006	25192.67
345.457	19296.5
345.908	15321.35
346.359	14453.16
346.81	11797.67
347.261	12437.72
347.712	12244.2
348.163	13153.09
348.613	13376.44
349.064	12494.32
349.515	10962.13
349.965	11244.89
350.416	13523.68
350.866	14831.6
351.317	16725.66
351.767	27652.34
352.217	34932.84
352.668	28959.91
353.118	26503.57
353.568	25502.22
354.018	20205.87
354.468	21291.57
354.918	15285
355.368	13381.65
355.818	18899.55
356.268	54450.55
356.718	228179.63
357.168	56851.78
357.617	28526.14
358.067	31678.47
358.517	29709.2
358.966	34814.39
359.416	39030.63
359.865	42206.94
360.315	50326.15
360.764	23522.78
361.213	13157.44
361.663	12462.14
362.112	15355.41
362.561	24835.04
363.01	18770.14
363.459	15792.61
363.908	17084.97
364.357	14527.56
364.806	24434.44
365.255	16758.04
365.703	15344.86
366.152	15358.71
366.601	12436.63
367.05	10091.48
367.498	9147.42
367.947	9552.92
368.395	9925.12
368.844	8799.25
369.292	10598.97
369.74	7349.66
370.189	11273.2
370.637	13180.48
371.085	11386.39
371.533	13880.97
371.981	13403.65
372.429	12816.01
372.877	13345.97
373.325	11198.48
373.773	11415.62
374.221	10158.27
374.669	12576.65
375.116	10897.36
375.564	11022.57
376.012	12342.03
376.459	10175.9
376.907	12173.16
377.354	14757.54
377.801	13780.07
378.249	15844.97
378.696	20248.99
379.143	24589.35
379.591	26279.25
380.038	44495.25
380.485	32231.23
380.932	34868.37
381.379	32013.79
381.826	23620.93
382.273	16823.48
382.72	14756.21
383.166	14425.83
383.613	9403.27
384.06	8495.08
384.506	9873.52
384.953	7276.93
385.4	7346.87
385.846	6460.8
386.292	6313.63
386.739	6190.05
387.185	6129.3
387.631	6156.02
388.078	5991.06
388.524	6418.88
388.97	5968.57
389.416	5005.3
389.862	5340.21
390.308	5080.76
390.754	5178.64
391.2	5648.74
391.645	5818.41
392.091	5603.7
392.537	5436.05
392.983	5473.23
393.428	5415.87
393.874	5817.72
394.319	5858.46
394.765	5590.72
395.21	5780.22
395.655	5454.03
396.101	5132.01
396.546	4647.02
396.991	4704.01
397.436	4391.81
397.881	4269.76
398.326	4063.69
398.771	3864.01
399.216	3393.76
399.661	3071.6
400.106	3072.69
400.551	3164.79
400.995	2853
401.44	2841.65
401.885	2683.35
402.329	2727.31
402.774	2621.51
403.218	2553.78
403.663	2472.39
404.107	2558.24
404.551	2588.08
404.995	2389.49
405.44	2310.08
405.884	2358.1
406.328	2288.34
406.772	2288.98
407.216	2092.97
407.66	2031.47
408.104	1933.22
408.547	1815.88
408.991	1762.38
409.435	1699.61
409.879	1681.27
410.322	1665.12
410.766	1610.03
411.209	1534.65
411.653	1478.28
412.096	1453.36
412.54	1457.25
412.983	1450.85
413.426	1459.18
413.869	1459.04
414.312	1435.33
414.756	1386.02
415.199	1323.56
415.642	1289.82
416.085	1296.65
416.527	1288.94
416.97	1309.98
417.413	1245.88
417.856	1237.35
418.298	1225.67
418.741	1221.1
419.184	1220.89
419.626	1272.14
420.069	1271.5
420.511	1278.71
420.953	1251.91
421.396	1241.66
421.838	1211.47
422.28	1240.49
422.722	1246.48
423.164	1267.69
423.606	1248.04
424.048	1248.77
424.49	1187.99
424.932	1185.98
425.374	1171.42
425.816	1190
426.258	1215.75
426.699	1229.99
427.141	1211.66
427.582	1231.45
428.024	1223.83
428.465	1215.55
428.907	1183.97
429.348	1169.93
429.789	1168.64
430.231	1144.54
430.672	1163.69
431.113	1136.09
431.554	1119.82
431.995	1093.78
432.436	1054.15
432.877	1030.89
433.318	1012.65
433.759	1007.73
434.2	1009.9
434.64	999.57
435.081	1000.59
435.522	946.67
435.962	913.27
436.403	895.62
436.843	908.61
437.284	889.51
437.724	865.94
438.164	870.93
438.604	852.44
439.045	817.78
439.485	785.94
439.925	769.1
440.365	749.89
440.805	738.19
441.245	727.6
441.685	699.45
442.125	693.79
442.564	697.04
443.004	679.79
443.444	677.99
443.883	677.72
444.323	670.71
444.762	673.44
445.202	682.72
445.641	693.8
446.081	686.82
446.52	693.44
446.959	686.99
447.398	670.93
447.837	661.1
448.276	648.81
448.716	656.17
449.154	661.34
449.593	644.22
450.032	640.72
450.471	629.04
450.91	629.92
451.349	627.24
451.787	622.55
452.226	629.69
452.664	629.07
453.103	629.16
453.541	626.08
453.98	624.53
454.418	626.97
454.856	617.13
455.295	616.03
455.733	620.01
456.171	621.81
456.609	623.99
457.047	624.36
457.485	633.46
457.923	634.63
458.361	626.06
458.798	627.51
459.236	625.27
459.674	628.81
460.111	632.77
460.549	626.6
460.987	625.58
461.424	621.89
461.862	618.25
462.299	609.23
462.736	609.32
463.173	611.42
463.611	606.08
464.048	605.8
464.485	611.67
464.922	604.01
465.359	601.13
465.796	594.27
466.233	590.76
466.67	585.94
467.106	584.59
467.543	578.19
467.98	570.89
468.416	554.84
468.853	550.48
469.29	532.95
469.726	527.41
470.162	513.97
470.599	505.74
471.035	500.23
471.471	488.21
471.907	484.12
472.344	480.46
472.78	480.66
473.216	486.92
473.652	480.73
474.088	479.7
474.523	477.94
474.959	480.3
475.395	474.6
475.831	472.01
476.266	474.47
476.702	473.04
477.138	467.29
477.573	465.07
478.008	462.27
478.444	463.82
478.879	467.51
479.314	469.17
479.75	469.16
480.185	471.32
480.62	474.52
481.055	476.14
481.49	478.84
481.925	484.27
482.36	492.79
482.795	505.46
483.229	518.31
483.664	528.78
484.099	529.36
484.534	536.59
484.968	541.44
485.403	542.44
485.837	541
486.271	540.26
486.706	541.05
487.14	534.6
487.574	525.96
488.009	520.66
488.443	514.6
488.877	519.82
489.311	520.18
489.745	525.32
490.179	529.31
490.613	538.52
491.046	541.75
491.48	545.44
491.914	545.38
492.348	548.93
492.781	551.76
493.215	552.68
493.648	551.84
494.082	555.62
494.515	555.18
494.948	560.44
495.382	562.94
495.815	565.93
496.248	569.41
496.681	578.41
497.114	586.25
497.547	593.32
497.98	603.44
498.413	608.69
498.846	616.61
499.279	622.86
499.711	625.55
500.144	627.1
500.577	634.43
501.009	642.24
501.442	649.16
501.874	649.96
502.306	651.26
502.739	657.01
503.171	668.66
503.603	670.57
504.036	678.05
504.468	682.09
504.9	690.39
505.332	695.59
505.764	698.79
506.196	704.56
506.627	716.52
507.059	726.74
507.491	733.32
507.923	732.09
508.354	744.47
508.786	753.28
509.217	769.25
509.649	782.26
510.08	798.42
510.512	812.22
510.943	825.56
511.374	835.59
511.805	853.79
512.237	870.75
512.668	897.61
513.099	920.8
513.53	943.75
513.961	961.81
514.391	988.91
514.822	1017.77
515.253	1049.75
515.684	1073.35
516.114	1099.32
516.545	1119.45
516.975	1143.38
517.406	1160.86
517.836	1166.84
518.267	1175.95
518.697	1193.75
519.127	1201.28
519.558	1210.11
519.988	1215.45
520.418	1226.84
520.848	1244.93
521.278	1254.61
521.708	1276.67
522.138	1291.16
522.567	1319.34
522.997	1343.62
523.427	1358.59
523.857	1375.57
524.286	1387.75
524.716	1404.81
525.145	1423.2
525.575	1434.72
526.004	1449.34
526.433	1442.78
526.863	1445.39
527.292	1439.03
527.721	1446.15
528.15	1453.8
528.579	1455.87
529.008	1467.35
529.437	1488.85
529.866	1502.52
530.295	1518.7
530.724	1531.69
531.152	1556.77
531.581	1570.45
532.01	1588.41
532.438	1596.49
532.867	1611.47
533.295	1630.02
533.723	1635.79
534.152	1634.8
534.58	1636.06
535.008	1623.82
535.436	1626.96
535.865	1634.69
536.293	1648.66
536.721	1663.09
537.149	1687.08
537.576	1690.32
538.004	1701.81
538.432	1711.01
538.86	1710.79
539.287	1717.64
539.715	1731.6
540.143	1734.47
540.57	1732.6
540.998	1729.29
541.425	1709.67
541.852	1691.53
542.28	1690.49
542.707	1676.3
543.134	1662.93
543.561	1658.7
543.988	1652.26
544.415	1650.98
544.842	1647.1
545.269	1639.67
545.696	1641.71
546.123	1653.09
546.549	1643.82
546.976	1632.22
547.403	1632.16
547.829	1634.45
548.256	1636.67
548.682	1633.44
549.108	1627.43
549.535	1626
549.961	1628.68
550.387	1617.05
550.813	1611.78
551.24	1617.58
551.666	1617.89
552.092	1609.11
552.518	1602.7
552.943	1596.8
553.369	1603.55
553.795	1607.31
554.221	1607.87
554.646	1603.74
555.072	1611.74
555.498	1615.6
555.923	1622.63
556.349	1635.42
556.774	1642.61
557.199	1643.07
557.625	1647.62
558.05	1640.55
558.475	1649.08
558.9	1647.31
559.325	1639.26
559.75	1633.26
560.175	1626.09
560.6	1618.43
561.025	1615.65
561.449	1613.94
561.874	1617.12
562.299	1618.74
562.723	1622.83
563.148	1611.51
563.572	1612.27
563.997	1618.32
564.421	1619.82
564.846	1616.76
565.27	1617.85
565.694	1612.55
566.118	1621.77
566.542	1625.17
566.966	1617.56
567.39	1611.54
567.814	1599.37
568.238	1596.86
568.662	1599.75
569.086	1599.95
569.509	1603.96
569.933	1588.07
570.357	1579.35
570.78	1558.17
571.204	1545.62
571.627	1533.92
572.05	1529.86
572.474	1528.63
572.897	1516.17
573.32	1507.81
573.743	1497.54
574.166	1481.66
574.589	1479.89
575.012	1471.82
575.435	1468.15
575.858	1457.76
576.281	1445.91
576.704	1430.94
577.126	1418.44
577.549	1407.37
577.972	1396.03
578.394	1384.86
578.817	1377.19
579.239	1359.51
579.661	1346.36
580.084	1332.13
580.506	1319.19
580.928	1314.97
581.35	1304.44
581.772	1299.35
582.194	1286.58
582.616	1274.66
583.038	1261.72
583.46	1251.17
583.882	1247.63
584.303	1250.04
584.725	1245.63
585.147	1247.47
585.568	1255.65
585.99	1265.8
586.411	1271.12
586.833	1282.29
587.254	1282.65
587.675	1294.08
588.096	1303.1
588.518	1298.22
588.939	1282.45
589.36	1278.61
589.781	1268.08
590.202	1243.43
590.623	1234.04
591.043	1229.79
591.464	1217.3
591.885	1214.65
592.305	1208.07
592.726	1196.22
593.147	1195.43
593.567	1191.52
593.987	1185.7
594.408	1181.06
594.828	1178.13
595.248	1172.93
595.669	1158.36
596.089	1152.5
596.509	1145.07
596.929	1134.1
597.349	1133.78
597.769	1125.71
598.189	1119.21
598.608	1119.07
599.028	1119.43
599.448	1119.94
599.867	1108.59
600.287	1103.39
600.706	1099.83
601.126	1092.64
601.545	1091.43
601.965	1090.1
602.384	1086.35
602.803	1088.51
603.222	1083.86
603.641	1078.05
604.061	1074.05
604.48	1071.13
604.898	1077.51
605.317	1081.21
605.736	1081.32
606.155	1078.61
606.574	1070.36
606.992	1073.01
607.411	1068.51
607.829	1061.44
608.248	1058.57
608.666	1056.01
609.085	1054.81
609.503	1047.12
609.921	1041.59
610.339	1042.7
610.758	1040.93
611.176	1036.57
611.594	1029.05
612.012	1025.77
612.43	1028.53
612.847	1032.39
613.265	1032.84
613.683	1035.94
614.101	1036.76
614.518	1032.48
614.936	1024.53
615.353	1012.84
615.771	1010.25
616.188	1010.06
616.606	1007.12
617.023	1000.58
617.44	988.87
617.857	981.32
618.274	973.3
618.691	968.03
619.108	960.45
619.525	954.84
619.942	959.58
620.359	962.31
620.776	957.59
621.192	954.36
621.609	953.45
622.026	959.44
622.442	965.21
622.859	968.31
623.275	962.95
623.691	967.72
624.108	976.94
624.524	987.46
624.94	986.65
625.356	995.28
625.772	1004.97
626.188	1013.13
626.604	1012.85
627.02	1008.94
627.436	1006.04
627.852	1011.1
628.268	1019.76
628.683	1012.27
629.099	1006.13
629.514	1001.78
629.93	1002.85
630.345	1006.13
630.761	1002.74
631.176	1005.82
631.591	1001.88
632.007	997.87
632.422	995.74
632.837	985.88
633.252	983.52
633.667	973.26
634.082	964.9
634.497	954.19
634.911	938.69
635.326	934.73
635.741	920.42
636.155	910.44
636.57	909.42
636.984	907.81
637.399	907.9
637.813	905.7
638.228	904.5
638.642	905.8
639.056	896.93
639.47	895.24
639.884	886.69
640.298	880.27
640.712	878.09
641.126	867.48
641.54	858.02
641.954	851.86
642.368	841.51
642.781	834.47
643.195	819.58
643.609	818.49
644.022	812.17
644.436	807.57
644.849	797.32
645.262	787.27
645.676	786.23
646.089	781.32
646.502	769.96
646.915	765.01
647.328	752.27
647.741	750.94
648.154	740.57
648.567	739.13
648.98	729.78
649.393	730.1
649.805	728.09
650.218	723.51
650.631	713.61
651.043	709.91
651.456	706.44
651.868	706.95
652.28	718.46
652.693	728.46
653.105	732.91
653.517	740.12
653.929	740.48
654.341	745.72
654.753	737.42
655.165	742.55
655.577	740.67
655.989	737.41
656.401	731.93
656.813	708.78
657.224	695.93
657.636	676.04
658.047	665.7
658.459	653.34
658.87	647.62
659.282	640.55
659.693	628.01
660.104	618.85
660.515	610.89
660.926	610.46
661.338	609.35
661.749	606.12
662.159	601.58
662.57	598.38
662.981	597.32
663.392	593.03
663.803	599.01
664.213	598.4
664.624	597.69
665.035	601.93
665.445	593.91
665.855	590.52
666.266	586.72
666.676	587.05
667.086	583.15
667.497	584.65
667.907	581.73
668.317	575.62
668.727	575.49
669.137	576.99
669.547	576.7
669.956	580.83
670.366	584.21
670.776	588.2
671.186	592.81
671.595	596.54
672.005	599.21
672.414	600.67
672.824	601.13
673.233	605.59
673.642	609.38
674.052	612.42
674.461	615.87
674.87	620.54
675.279	618.5
675.688	620.92
676.097	624.18
676.506	624.39
676.915	636.95
677.323	640.31
677.732	640.25
678.141	640.01
678.549	633.72
678.958	633.86
679.366	633.33
679.775	638.5
680.183	647.63
680.592	651.49
681	656.04
681.408	650.81
681.816	655.87
682.224	661.15
682.632	669.49
683.04	692.16
683.448	710.68
683.856	734.42
684.264	760.25
684.671	780.62
685.079	809.76
685.487	839.66
685.894	884.7
686.302	920.62
686.709	950.25
687.116	984.5
687.524	1012.29
687.931	1034.05
688.338	1052.01
688.745	1066.71
689.152	1088.23
689.559	1118.79
689.966	1150.02
690.373	1162.91
690.78	1192.86
691.187	1241.8
691.593	1278.87
692	1312.26
692.407	1364.37
692.813	1430.2
693.22	1483.2
693.626	1537.83
694.032	1583.31
694.439	1650.38
694.845	1707.07
695.251	1776.17
695.657	1839.31
696.063	1930.31
696.469	2003.17
696.875	2071.71
697.281	2114.94
697.687	2167.41
698.093	2215.09
698.498	2292.78
698.904	2357.79
699.31	2447.56
699.715	2517.76
700.12	2612.1
700.526	2642.88
700.931	2717.85
701.337	2779.11
701.742	2823.39
702.147	2914.92
702.552	2955.53
702.957	3024.71
703.362	3057.32
703.767	3098.7
704.172	3150.57
704.577	3120.32
704.981	3179.12
705.386	3208.09
705.791	3213.71
706.195	3298.94
706.6	3320.42
707.004	3412.23
707.408	3395.43
707.813	3434.48
708.217	3434.76
708.621	3448.13
709.025	3556.41
709.43	3570.84
709.834	3642.92
710.237	3725.38
710.641	3722.25
711.045	3757.19
711.449	3762.7
711.853	3803.97
712.256	3857.74
712.66	3909.37
713.064	3996.91
713.467	4048.91
713.87	4173.47
714.274	4232.57
714.677	4356.29
715.08	4532.04
715.484	4715.93
715.887	4937.33
716.29	5155.07
716.693	5383.54
717.096	5645.18
717.499	5795.54
717.901	5836.31
718.304	5877.73
718.707	5915.69
719.109	5819.64
719.512	5801.91
719.915	5670
720.317	5619.77
720.719	5675.83
721.122	5654.37
721.524	5610.03
721.926	5575.96
722.328	5693.21
722.731	5693.23
723.133	5731.54
723.535	5945.66
723.937	5973.44
724.338	6038.31
724.74	6091.61
725.142	6016.77
725.544	6020.62
725.945	6051.74
726.347	6054.44
726.748	6052.76
727.15	6072.43
727.551	6036.17
727.952	6011.77
728.354	5988.89
728.755	5994.82
729.156	5954.24
729.557	5962.32
729.958	5834.33
730.359	5783.03
730.76	5767.9
731.161	5707.35
731.562	5686.77
731.962	5697.13
732.363	5631.92
732.763	5563.22
733.164	5606.52
733.564	5535.52
733.965	5435.35
734.365	5401.02
734.766	5435.87
735.166	5395.54
735.566	5338.52
735.966	5310.91
736.366	5306.29
736.766	5242.11
737.166	5280.34
737.566	5237.47
737.966	5213.14
738.365	5256.15
738.765	5253.12
739.165	5173.87
739.564	5148.84
739.964	5201.32
740.363	5152.33
740.763	5151.34
741.162	5134.87
741.561	5102.63
741.96	5053.03
742.36	5074.98
742.759	5081.86
743.158	5127.75
743.557	5143.7
743.955	5188.45
744.354	5137.81
744.753	5201.07
745.152	5157.15
745.55	5223.48
745.949	5214.67
746.348	5218.13
746.746	5237.53
747.144	5194.21
747.543	5172.97
747.941	5227.53
748.339	5148.72
748.737	5142.04
749.136	5134.9
749.534	5206.82
749.932	5175.1
750.33	5204.37
750.727	5267.48
751.125	5240.84
751.523	5225.59
751.921	5268.92
752.318	5232.17
752.716	5299.83
753.113	5318.43
753.511	5346.75
753.908	5347.82
754.305	5329.17
754.703	5395.35
755.1	5460.68
755.497	5528.04
755.894	5739.46
756.291	5940.28
756.688	6304.77
757.085	6793.8
757.482	7475.14
757.878	8219.62
758.275	8893.7
758.672	9825.89
759.068	10586.85
759.465	11668.04
759.861	13062.34
760.258	14674.8
760.654	15501.77
761.05	15376.68
761.447	14663.37
761.843	13653.64
762.239	12608.39
762.635	12139.11
763.031	11685.02
763.427	11026.61
763.822	10338.08
764.218	9662.55
764.614	8779.63
765.01	8192.38
765.405	7811.24
765.801	7520.4
766.196	7147.37
766.592	6940.4
766.987	6592.08
767.382	6356.44
767.778	6258.84
768.173	6114.92
768.568	6033.01
768.963	5897.04
769.358	5915.87
769.753	5863.31
770.148	5770.68
770.542	5769.36
770.937	5733.23
771.332	5830.7
771.726	5853.14
772.121	5782.48
772.515	5842.25
772.91	5826.47
773.304	5902.22
773.699	5828.26
774.093	5887.36
774.487	5950.92
774.881	5998.23
775.275	5993.82
775.669	5951.87
776.063	5999.07
776.457	6043.07
776.851	5963.44
777.245	5956.54
777.638	5993.73
778.032	6121.85
778.425	6084.74
778.819	6131.06
779.212	6087.14
779.606	6044.94
779.999	6064.49
780.392	6047.89
780.786	6137.6
781.179	6159.91
781.572	6202.96
781.965	6218.6
782.358	6156.89
782.751	6217.88
783.143	6164.96
783.536	6243.68
783.929	6293.69
784.322	6422.59
784.714	6454.03
785.107	6447.27
785.499	6526.64
785.891	6504.89
786.284	6482.42
786.676	6640
787.068	6616.98
787.46	6669.32
787.852	6689.78
788.245	6779.82
788.636	6810.98
789.028	6884.2
789.42	6926.88
789.812	6933.2
790.204	7040.13
790.595	7149.25
790.987	6934.35
791.378	6960.52
791.77	7108.87
792.161	7256.87
792.553	7319.47
792.944	7196.86
793.335	7124.47
793.726	7205.1
794.117	7307.5
794.508	7455.36
794.899	7422.27
795.29	7572.82
795.681	7637.99
796.072	7475.97
796.463	7272.08
796.853	7282.17
797.244	7453.22
797.634	7489.95
798.025	7486.86
798.415	7499.75
798.806	7596.66
799.196	7686.51
799.586	7745.88
799.976	7698.68
800.366	7952.65
800.756	8217.85
801.146	8174.28
801.536	8210.51
801.926	8291.26
802.316	8316.13
802.706	8393.19
803.095	8258.96
803.485	8369.68
803.874	8412.48
804.264	8698.99
804.653	8671.83
805.043	8830.95
805.432	8951.8
805.821	8950.01
806.21	8971.57
806.599	9108.35
806.988	9157.49
807.377	9275.64
807.766	9422.81
808.155	9729.54
808.544	9440.09
808.933	9454.52
809.321	9426.58
809.71	9748.73
810.098	9925.88
810.487	10431.89
810.875	10959.58
811.264	10987.42
811.652	11302.81
812.04	11461.83
812.428	11642.75
812.816	12485.67
813.204	12952.12
813.592	13562.4
813.98	13929.92
814.368	13825.74
814.756	14350.47
815.144	14259.19
815.531	14760.4
815.919	14683.93
816.306	15015.76
816.694	14676.31
817.081	14733.4
817.469	15108.1
817.856	15107.85
818.243	15399.73
818.63	15827.15
819.017	15359.52
819.404	15429.59
819.791	15854.55
820.178	16528.08
820.565	16808.73
820.952	17826.59
821.339	17281.29
821.725	17480.32
822.112	16669.76
822.498	16633.98
822.885	16780.28
823.271	16680.38
823.657	17138.19
824.044	17143.01
824.43	17218.94
824.816	17183.47
825.202	16714.5
825.588	17833.12
825.974	17846.5
826.36	18418.01
826.746	18454.4
827.132	18845.17
827.517	18826.69
827.903	17958.38
828.289	18005.36
828.674	17155.25
829.06	17041.22
829.445	17477.09
829.83	17864.68
830.216	18396.55
830.601	18790.72
830.986	18343.54
831.371	18187.09
831.756	18794.65
832.141	18335.09
832.526	18327.57
832.911	18638.65
833.295	18516.72
833.68	19028.37
834.065	18353.04
834.449	17352.04
834.834	17272.55
835.218	17260.68
835.603	17630.73
835.987	17403.07
836.371	18313.37
836.755	18195.2
837.139	18630.19
837.524	18890.08
837.908	18692.4
838.291	18754.75
838.675	18825.41
839.059	19056.47
839.443	19046.71
839.827	18801.72
840.21	19328.62
840.594	19156.98
840.977	19392.19
841.361	19369.45
841.744	19782.68
842.127	19612.24
842.511	19877.94
842.894	20536.36
843.277	20949.12
843.66	21552.14
844.043	21635.53
844.426	20753.91
844.809	20426.43
845.191	20453.18
845.574	19959.03
845.957	19561.03
846.339	19447.11
846.722	18884.28
847.104	18963.9
847.487	18774.61
847.869	18791.59
848.252	19113.1
848.634	19473.25
849.016	19762.14
849.398	19896.92
849.78	20837.25
850.162	20845.25
850.544	21306.5
850.926	21995.12
851.307	21890.48
851.689	22202.23
852.071	22699.24
852.452	23041.75
852.834	23013.89
853.215	23447.28
853.597	23631.49
853.978	23932.06
854.359	24426.68
854.741	23334.29
855.122	23221.49
855.503	22913.62
855.884	23055.99
856.265	22985.41
856.646	23109.23
857.026	22682.03
857.407	22608.34
857.788	22776.39
858.169	23102.46
858.549	22174.94
858.93	22850.01
859.31	22904.14
859.69	23127.32
860.071	22688.66
860.451	22447.63
860.831	21645.07
861.211	22920.75
861.591	23525.77
861.971	23495.44
862.351	23701.1
862.731	24125.97
863.111	24421.76
863.491	24776.04
863.87	25736.85
864.25	26121.78
864.629	25683.49
865.009	26237.86
865.388	27175.83
865.768	29114.62
866.147	28994.87
866.526	27394.29
866.905	27714.86
867.284	29264.5
867.663	27801.77
868.042	26633.94
868.421	26545.84
868.8	26986.73
869.179	27243.83
869.558	25649.57
869.936	23636.46
870.315	24061.28
870.693	24647.99
871.072	26570.74
871.45	25322.72
871.828	25635.47
872.207	26963.48
872.585	26539.54
872.963	27254.98
873.341	26326.25
873.719	26011.58
874.097	25711.58
874.475	26198.06
874.853	26800.38
875.23	25690.77
875.608	26752.41
875.986	28936.51
876.363	27657.08
876.741	28494.16
877.118	27789.89
877.495	29152.42
877.873	29624.76
878.25	31166.18
878.627	29888.52
879.004	30298.6
879.381	30149.1
879.758	29351.18
880.135	27326.88
880.512	28900.55
880.889	28148.84
881.265	27858.82
881.642	27625.98
882.019	28114.55
882.395	27559.04
882.772	28645.32
883.148	27398.76
883.524	27297.9
883.901	27144.17
884.277	27553.28
884.653	27392.86
885.029	28183.09
885.405	31196.17
885.781	30952.57
886.157	29682.05
886.532	30029.51
886.908	30027.39
887.284	33400.99
887.659	34496.09
888.035	35563.05
888.411	36483.33
888.786	36958.06
889.161	38244.2
889.537	37556.56
889.912	38762.79
890.287	38719.4
890.662	39726.09
891.037	38995.64
891.412	36365.66
891.787	36000.4
892.162	34750.65
892.536	35565.25
892.911	34241.49
893.286	33515.05
893.66	32160.5
894.035	32986.99
894.409	35913.56
894.784	34458.02
895.158	35039.16
895.532	37104.93
895.906	38117.09
896.281	39016.98
896.655	38399.65
897.029	43874.2
897.402	45715.89
897.776	50889.28
898.15	50717.21
898.524	50182.52
898.898	50868.39
899.271	56964.96
899.645	49333.56
900.018	47391.71
900.392	49153.57
900.765	49530.02
901.138	45819.72
901.511	45112.21
901.884	41415.35
902.258	38206.12
902.631	39472.94
903.003	45412.19
903.376	40985.82
903.749	45967.02
904.122	49193.77
904.495	54168.38
904.867	54868.42
905.24	47647.35
905.612	44354.37
905.985	45376.6
906.357	47419.91
906.729	45264.06
907.102	38667.41
907.474	37162.57
907.846	37399.29
908.218	36905.43
908.59	32617.07
908.962	31537
909.334	33951.85
909.705	35644.44
910.077	34611.16
910.449	36030.89
910.82	37023.8
911.192	40738.12
911.563	42349.15
911.935	45333.53
912.306	45375.56
912.677	46812.36
913.048	46367.38
913.419	50297.61
913.79	50582.39
914.161	54200.02
914.532	51772.13
914.903	47559.9
915.274	45158.58
915.645	44464.61
916.015	39108.87
916.386	37293.15
916.756	39711.42
917.127	40945.67
917.497	36582.22
917.868	39811.08
918.238	37824.52
918.608	38936.61
918.978	39767.45
919.348	42124.55
919.718	43512.83
920.088	41925.6
920.458	43553.51
920.828	45839.12
921.198	43447.92
921.567	46405.55
921.937	35932.11
922.306	36262.03
922.676	39110.47
923.045	32605
923.415	30978.28
923.784	28225.3
924.153	29018.05
924.522	28993.11
924.891	27237.82
925.26	29174
925.629	28482.1
925.998	32762.58
926.367	31991.93
926.736	30447.58
927.104	36279.14
927.473	39017.42
927.842	47124.36
928.21	46669.64
928.578	49066.17
928.947	46434.33
929.315	46707.03
929.683	54820.82
930.051	55266.32
930.42	64204.01
930.788	54910.64
931.156	54499.42
931.523	51061.63
931.891	47179.43
932.259	45324.73
932.627	52487.4
932.994	74250.7
933.362	61394.85
933.729	53304.09
934.097	51023.69
934.464	43181.84
934.831	49840.99
935.199	49139.5
935.566	47680.57
935.933	48311.83
936.3	58481.31
936.667	45581.11
937.034	41044.36
937.401	40614.37
937.767	35047.96
938.134	31187.32
938.501	43973.96
938.867	46843.17
939.234	79252.95
939.6	67636.44
939.967	74561.39
940.333	49918.42
940.699	42497.61
941.065	34166.62
941.431	44783.69
941.798	43145.15
942.163	56728.15
942.529	35440.08
942.895	32612.22
943.261	21094.66
943.627	27651.99
943.992	24215.01
944.358	24290.22
944.723	24366.27
945.089	23767.91
945.454	21954.84
945.82	23492.97
946.185	22584.21
946.55	26171.5
946.915	23501.09
947.28	27576.33
947.645	24286.76
948.01	22413.92
948.375	23370.65
948.74	28016.45
949.104	32665.1
949.469	47229.38
949.834	83354.56
950.198	78876.39
950.562	47294.49
950.927	39396.59
951.291	47361.61
951.655	40348.96
952.02	37893.56
952.384	28627.23
952.748	24934.22
953.112	24319.48
953.476	21133.03
953.839	19540.84
954.203	19365.84
954.567	24212.89
954.931	38121.45
955.294	32620.73
955.658	32806.76
956.021	55795.89
956.385	94594.58
956.748	139470.47
957.111	216331.31
957.474	242901.6
957.837	273576.5
958.2	206851.38
958.563	74399.33
958.926	50321.46
959.289	76351.8
959.652	85226.79
960.015	63953.32
960.377	91876.16
960.74	104889.84
961.102	181172.71
961.465	194686.6
961.827	104116.96
962.189	199817.45
962.552	138566.05
962.914	110956.29
963.276	71962.35
963.638	59499.5
964	58891.75
964.362	39794.09
964.724	38447.71
965.085	27420.58
965.447	22469.62
965.809	25641.42
966.17	25656.05
966.532	27786.3
966.893	25522.54
967.255	23254.21
967.616	27464.88
967.977	21979.46
968.338	24007.82
968.699	19724.93
969.061	19711.21
969.421	19827.28
969.782	22256.05
970.143	18810.4
970.504	19441.29
970.865	22097.61
971.225	22550.57
971.586	22031.96
971.946	31435.17
972.307	27272.33
972.667	35694.25
973.027	36735.36
973.388	44582.67
973.748	30317.9
974.108	32979.81
974.468	44652.03
974.828	34413.04
975.188	26512.79
975.548	24366.92
975.907	20447.36
976.267	22950.36
976.627	19267.1
976.986	19985.13
977.346	19037.66
977.705	18317.48
978.064	16698.05
978.424	13901.06
978.783	14386.07
979.142	16417.51
979.501	15708.66
979.86	16617.68
980.219	16012.96
980.578	20690.73
980.937	23183.03
981.296	20669.77
981.654	21253.16
982.013	33065.34
982.371	42895.2
982.73	40034.65
983.088	45308.35
983.447	48371.83
983.805	69173.95
984.163	144593.59
984.521	160569.99
984.879	235494.87
985.237	-382492.07
985.595	369140.49
985.953	91861.82
986.311	53078.63
986.669	30814.3
987.026	26652.88
987.384	35890.39
987.741	37105.64
988.099	26508.48
988.456	21089.97
988.814	19742.26
989.171	17192.82
989.528	16955.03
989.885	17907.95
990.242	14194.2
990.599	17688.4
990.956	14459.52
991.313	10122.14
991.67	8306.6
992.027	8784.63
992.383	7799.97
992.74	6840.72
993.096	7176.73
993.453	7435.51
993.809	7698.82
994.165	10238.07
994.522	9376.42
994.878	10335.53
995.234	12967.95
995.59	12792.87
995.946	12128.81
996.302	13855.85
996.658	16040.2
997.013	17661.12
997.369	20973.87
997.725	26894.41
998.08	17428.37
998.436	26939.8
998.791	37170.86
999.147	37039.85
999.502	40371.87
999.857	29357.15
1000.212	47859.19
1000.567	67979.56
1000.922	39254.37
1001.277	24950.6
1001.632	18482.45
1001.987	23796.35
1002.342	17047.5
1002.696	13618.67
1003.051	10888.11
1003.406	13201.88
1003.76	13137.87
1004.114	12940.19
1004.469	10861.01
1004.823	8980.45
1005.177	9701.53
1005.531	7701.87
1005.885	6846.9
1006.239	7715.49
1006.593	9672.17
1006.947	12948.33
1007.301	9705.17
1007.655	10569.54
1008.008	7761.37
1008.362	8749.41
1008.715	12504.04
1009.069	11339.36
1009.422	16958.75
1009.776	33926.01
1010.129	22509.4
1010.482	18779.3
1010.835	15839.87
1011.188	33028.01
1011.541	31172.94
1011.894	-190915.9
1012.247	560039.74
1012.6	38102.68
1012.952	24027.2
1013.305	12434.45
1013.657	9008.51
1014.01	8547.13
1014.362	7064.39
1014.715	6269.58
1015.067	5455.74
1015.419	5326.72
1015.771	4710.15
1016.123	4197.71
1016.475	4317.49
1016.827	4604.9
1017.179	4956.64
1017.531	4980.09
1017.883	5073.91
1018.234	4896.35
1018.586	6184.56
1018.938	6530.01
1019.289	9006.08
1019.64	10334.63
1019.992	9635.57
1020.343	8821.77
1020.694	6960.9
1021.045	6153.87
1021.396	7033.3
1021.747	7551.77
1022.098	9049.34
1022.449	6567.56
1022.8	6112.56
1023.151	4279.47
1023.501	3782.92
1023.852	4129.05
1024.202	4274
1024.553	4687.9
1024.903	4554.85
1025.253	3880.68
1025.604	3511
1025.954	4364.08
1026.304	5336.31
1026.654	6216.57
1027.004	9057.98
1027.354	14577.27
1027.703	13658.16
1028.053	18009.58
1028.403	26333.51
1028.753	38315.43
1029.102	52431.39
1029.452	269291.25
1029.801	11679.04
1030.15	7530.47
1030.499	6392.68
897.758	2324.09
901.051	2265.31
904.343	2301.95
907.636	2307.25
910.928	2369.2
914.22	2284.38
917.511	2288.28
920.803	2343.1
924.094	2344.33
927.384	2340.76
930.675	2305.28
933.965	2267.21
937.255	2290.48
940.544	2252.3
943.834	2242.34
947.123	2178.44
950.411	2269.54
953.7	2248.72
956.988	2226.51
960.276	2167.23
963.563	2225.35
966.851	2232.7
970.138	2278.68
973.424	2277.56
976.711	2234.43
979.997	2300.01
983.283	2347.88
986.568	2272.5
989.853	2271.17
993.138	2299.07
996.423	2381.97
999.708	2335.55
1002.992	2369.19
1006.275	2264.48
1009.559	2279.14
1012.842	2380.74
1016.125	2327.95
1019.408	2306.77
1022.69	2371.27
1025.972	2400.12
1029.254	2374.04
1032.536	2329.78
1035.817	2344.58
1039.098	2310.93
1042.379	2388.4
1045.659	2409.54
1048.939	2353.35
1052.219	2363.61
1055.498	2364.49
1058.778	2359.03
1062.057	2337.23
1065.335	2361.56
1068.614	2374.99
1071.892	2366.46
1075.17	2427.83
1078.447	2424.97
1081.724	2419.72
1085.001	2449.65
1088.278	2427.13
1091.554	2434.92
1094.83	2429.78
1098.106	2466.5
1101.382	2498.39
1104.657	2500.91
1107.932	2497.28
1111.206	2473.15
1114.481	2427.86
1117.755	2428.8
1121.029	2418.56
1124.302	2477.1
1127.575	2440.39
1130.848	2434.34
1134.121	2398.39
1137.393	2359.99
1140.665	2419.31
1143.937	2400.14
1147.208	2349.45
1150.48	2401.44
1153.75	2390.36
1157.021	2402.69
1160.291	2377.93
1163.561	2426.08
1166.831	2401.94
1170.101	2429.63
1173.37	2395.84
1176.639	2347.97
1179.907	2397.49
1183.176	2418.14
1186.444	2419.03
1189.711	2447.87
1192.979	2464.16
1196.246	2418.81
1199.513	2432.01
1202.78	2435.77
1206.046	2445.74
1209.312	2472.38
1212.578	2492.36
1215.843	2453.91
1219.108	2420.58
1222.373	2447.11
1225.638	2413.79
1228.902	2406.63
1232.166	2365.48
1235.43	2354.97
1238.693	2376.26
1241.956	2370.75
1245.219	2414.46
1248.482	2401.15
1251.744	2397.03
1255.006	2529.71
1258.268	2478.6
1261.529	2430.55
1264.79	2430.72
1268.051	2533.82
1271.312	2542.92
1274.572	2513.57
1277.832	2501.09
1281.092	2487.85
1284.351	2471.31
1287.61	2455.75
1290.869	2383.31
1294.128	2374.51
1297.386	2437.49
1300.644	2428.58
1303.902	2436.38
1307.159	2304.89
1310.416	2357.14
1313.673	2382.58
1316.93	2374.84
1320.186	2410.59
1323.442	2446.92
1326.697	2443.95
1329.953	2422.77
1333.208	2451.88
1336.463	2430.22
1339.717	2384.42
1342.972	2494.27
1346.226	2469.02
1349.479	2414.42
1352.733	2390.73
1355.986	2402.76
1359.238	2382.12
1362.491	2385.77
1365.743	2387.14
1368.995	2378
1372.247	2391.37
1375.498	2412.13
1378.749	2448.11
1382	2400.16
1385.251	2442.11
1388.501	2394.09
1391.751	2389.16
1395	2354.64
1398.25	2385.47
1401.499	2400.2
1404.748	2344.83
1407.996	2324.16
1411.244	2313.01
1414.492	2295.26
1417.74	2274.33
1420.987	2279.65
1424.234	2339.24
1427.481	2308.05
1430.728	2366.72
1433.974	2338.53
1437.22	2342.51
1440.465	2341.11
1443.711	2328.9
1446.956	2356.42
1450.201	2333.06
1453.445	2378.04
1456.689	2363.18
1459.933	2374.94
1463.177	2410.24
1466.42	2382.65
1469.663	2365.79
1472.906	2375.65
1476.148	2426.95
1479.391	2413.67
1482.633	2384.98
1485.874	2407.11
1489.115	2406.18
1492.356	2396.92
1495.597	2376.29
1498.838	2375.42
1502.078	2354.85
1505.318	2321.11
1508.557	2356.84
1511.797	2352.36
1515.036	2386.36
1518.274	2368.55
1521.513	2327.7
1524.751	2342.04
1527.989	2365.04
1531.227	2380.27
1534.464	2386.34
1537.701	2387.95
1540.938	2402.55
1544.174	2352.34
1547.41	2345.29
1550.646	2383.84
1553.882	2429.75
1557.117	2484.76
1560.352	2496.49
1563.587	2457.51
1566.821	2423.91
1570.055	2443.05
1573.289	2422.57
1576.523	2485.98
1579.756	2499.45
1582.989	2519.01
1586.222	2480.79
1589.454	2512.89
1592.686	2496.47
1595.918	2522.44
1599.15	2515.92
1602.381	2569.49
1605.612	2544.54
1608.843	2640.55
1612.073	2562.22
1615.303	2546.78
1618.533	2544.41
1621.762	2543.25
1624.992	2519.94
1628.221	2517.06
1631.449	2504.01
1634.678	2540
1637.906	2508.09
1641.134	2539.15
1644.361	2501.1
1647.588	2487.11
1650.815	2509.49
1654.042	2477.25
1657.269	2505.98
1660.495	2477.27
1663.72	2471.71
1666.946	2441.26
1670.171	2406.37
1673.396	2377.38
1676.621	2360.91
1679.845	2365.97
1683.069	2377.42
1686.293	2409.54
1689.517	2396.02
1692.74	2342.18
1695.963	2365.23
1699.185	2400.48
1702.408	2373.06
1705.63	2404.34
1708.852	2419.4
1712.073	2392.62
1715.294	2394.7
1718.515	2443.31
1721.736	2400.3
1724.956	2381.69
1728.176	2404.66
1731.396	2425.91
1734.616	2410.68
1737.835	2444.73
1741.054	2419.27
1744.272	2411.14
1747.491	2445.84
1750.709	2479.22
1753.927	2415.17
1757.144	2445.83
1760.361	2499.02
1763.578	2478.72
1766.795	2427.49
1770.011	2421.59
1773.227	2449.44
1776.443	2489.28
1779.658	2535.16
1782.874	2475.22
1786.089	2463.16
1789.303	2464.78
1792.518	2464.92
1795.732	2450.41
1798.945	2465.06
1802.159	2507.99
1805.372	2438.72
1808.585	2431.52
1811.797	2433.2
1815.01	2458.9
1818.222	2476.78
1821.434	2440.95
1824.645	2488.53
1827.856	2490.31
1831.067	2526.54
1834.278	2465.12
1837.488	2451.28
1840.698	2580.3
1843.908	2517.41
1847.117	2483.16
1850.326	2398.74
1853.535	2471.19
1856.744	2502.05
1859.952	2419.66
1863.16	2420.96
1866.368	2432.6
1869.575	2545.59
1872.782	2429.52
1875.989	2364.09
1879.196	2421.63
1882.402	2410.87
1885.608	2445.85
1888.814	2375.05
1892.019	2277.47
1895.224	2329.95
1898.429	2301.19
1901.634	2283.62
1904.838	2258.78
1908.042	2308.83
1911.246	2319.98
1914.449	2273.9
1917.652	2260.35
1920.855	2241.5
1924.058	2274.8
1927.26	2317.81
1930.462	2341.37
1933.664	2373.01
1936.865	2317.27
1940.066	2328.91
1943.267	2275.69
1946.467	2285.94
1949.668	2306.97
1952.868	2378.05
1956.067	2364.53
1959.267	2303.81
1962.466	2327.72
1965.665	2311.87
1968.863	2307.85
1972.061	2312.75
1975.259	2309.31
1978.457	2386.13
1981.654	2345.46
1984.852	2348.83
1988.048	2294.53
1991.245	2287.09
1994.441	2371.07
1997.637	2339.63
2000.833	2321.82
2004.028	2357.71
2007.223	2417.33
2010.418	2402.24
2013.613	2354.6
2016.807	2343.69
2020.001	2342.5
2023.194	2370.83
2026.388	2354
2029.581	2300.16
2032.774	2356.19
2035.966	2364.12
2039.158	2307.55
2042.35	2330.2
2045.542	2255.15
2048.733	2345.22
2051.924	2345.76
2055.115	2363.91
2058.306	2322.18
2061.496	2378.68
2064.686	2428.42
2067.875	2341.57
2071.065	2348.04
2074.254	2367.31
2077.442	2320.34
2080.631	2405.74
2083.819	2323.51
2087.007	2316.1
2090.195	2296.73
2093.382	2319.37
2096.569	2300.23
2099.756	2261.55
2102.942	2300.52
2106.128	2311.95
2109.314	2303.49
2112.5	2282.01
2115.685	2253.14
2118.87	2262.32
2122.055	2320.03
2125.239	2296.85
2128.424	2282.61
2131.608	2354.65
2134.791	2339.99
2137.974	2383.52
2141.157	2371.11
2144.34	2335.79
2147.523	2334.28
2150.705	2356.86
2153.887	2327.57
2157.068	2295.93
2160.25	2285.45
2163.431	2307.67
2166.611	2270.53
2169.792	2290.57
2172.972	2196.06
2176.152	2255.08
2179.331	2285.97
2182.511	2281.82
2185.69	2304.7
2188.868	2307.75
2192.047	2347.32
2195.225	2352.77
2198.403	2306.46
2201.58	2293.95
2204.758	2282
2207.935	2360.62
2211.111	2268.06
2214.288	2255.4
2217.464	2290.74
2220.64	2252.56
2223.815	2304.05
2226.991	2233.25
2230.166	2250.65
2233.34	2287.17
2236.515	2304.09
2239.689	2370.27
2242.863	2319.49
2246.036	2373.39
2249.209	2361.43
2252.382	2385.69
2255.555	2389.41
2258.727	2333.86
2261.9	2365.51
2265.071	2357.14
2268.243	2355.58
2271.414	2300.01
2274.585	2276.85
2277.756	2337.17
2280.926	2294.13
2284.096	2324.81
2287.266	2248.26
2290.436	2295.1
2293.605	2318.99
2296.774	2355.44
2299.942	2362.42
2303.111	2379.22
2306.279	2430.1
2309.447	2414.55
2312.614	2386.34
2315.781	2409.84
2318.948	2384.5
2322.115	2422.21
2325.281	2324.1
2328.447	2333.91
2331.613	2305.27
2334.779	2294
2337.944	2290.52
2341.109	2290.6
2344.274	2280.88
2347.438	2248.87
2350.602	2270.05
2353.766	2283.74
2356.929	2270.91
2360.092	2310.8
2363.255	2275.15
2366.418	2232.94
2369.58	2312.67
2372.742	2164.73
2375.904	2165.62
2379.066	2146.84
2382.227	2176.83
2385.388	2137.17
2388.548	2078.35
2391.709	2124.56
2394.869	2108.52
2398.029	2178.44
2401.188	2177.7
2404.347	2131.96
2407.506	2227.86
2410.665	2262.71
2413.823	2253.98
2416.981	2224.66
2420.139	2248.43
2423.296	2294.8
2426.453	2265.59
2429.61	2287.93
2432.767	2247.41
2435.923	2286.78
2439.079	2240.39
2442.235	2278.65
2445.391	2217.91
2448.546	2256.05
2451.701	2296.07
2454.855	2283.17
2458.009	2317.65
2461.163	2311.44
2464.317	2280.47
2467.471	2309.29
2470.624	2343.2
2473.777	2324.23
2476.929	2340.53
2480.082	2364
2483.234	2334.38
2486.385	2278.73
2489.537	2274.51
2492.688	2254.18
2495.839	2272.12
2498.989	2286.13
2502.14	2269.48
2505.29	2258.18
2508.439	2283.12
2511.589	2218.05
2514.738	2222.55
2517.887	2247.96
2521.035	2317.93
2524.183	2286.38
2527.331	2273.54
2530.479	2261.3
2533.627	2265.72
