Data from N_2_DEC_VA_2N_Splice17_12-07-12-082.txt Node
Date: Sat Mar 14 12:07:12 EDT 2020
User: sa697716
Spectrometer: FLMS03696
Trigger mode: 0
Integration Time (sec): 3.180400E-1
Scans to average: 20
Electric dark correction enabled: true
Nonlinearity correction enabled: true
Boxcar width: 5
XAxis mode: Wavelengths
Number of Pixels in Spectrum: 2048
>>>>>Begin Spectral Data<<<<<
187.83	-337282.78
188.298	2393.63
188.766	1284.25
189.233	1135.43
189.701	1562.76
190.169	2084.15
190.636	789.06
191.104	618.34
191.571	93.53
192.039	-45.56
192.506	-55.13
192.974	429.24
193.441	-548.67
193.908	-9.32
194.375	-26.36
194.842	-0.06
195.31	22.71
195.777	91.17
196.244	320.81
196.711	536.68
197.177	725.72
197.644	1107.92
198.111	1953.93
198.578	2769.88
199.045	2208.39
199.511	3681.19
199.978	4328.07
200.445	3668.72
200.911	4119.45
201.378	4652.71
201.844	4205.27
202.31	7206.45
202.777	7500.48
203.243	4178.16
203.709	3940.55
204.176	4746.36
204.642	3897
205.108	3652.33
205.574	3001.87
206.04	2775.04
206.506	2586.27
206.972	2446.07
207.438	2370.69
207.903	2689.1
208.369	2351.58
208.835	2348.79
209.301	2446.27
209.766	2506.55
210.232	2490.02
210.697	3088.1
211.163	3793.11
211.628	5777.56
212.094	4844.2
212.559	5906.91
213.024	3679.53
213.49	4463.03
213.955	4372.05
214.42	4330.4
214.885	4037.12
215.35	3844.71
215.815	3656.09
216.28	3871.68
216.745	3163.39
217.21	3413.84
217.675	3166.29
218.14	3571.14
218.604	4029.16
219.069	4622.98
219.534	4825.58
219.998	5657.12
220.463	6911.04
220.927	8587.22
221.392	8104.32
221.856	8223.03
222.32	10400.78
222.785	12848.98
223.249	16216.88
223.713	18078.49
224.177	18069.41
224.642	23255.81
225.106	28546.43
225.57	31204.05
226.034	23130.56
226.497	35205.9
226.961	31726.21
227.425	36939.98
227.889	40954.97
228.353	40859.08
228.816	84375.97
229.28	80651.74
229.744	67938.17
230.207	41274.9
230.671	40508.31
231.134	67123.85
231.597	77326.34
232.061	77257.55
232.524	75346.88
232.987	51816.11
233.45	46591.81
233.914	41714.92
234.377	42706.32
234.84	39043.32
235.303	46034.37
235.766	51333.78
236.229	52939.71
236.691	33309.13
237.154	37383.23
237.617	28070.89
238.08	28746.45
238.542	33637.77
239.005	24040.97
239.468	23846.4
239.93	22450.33
240.393	20378.26
240.855	17880.64
241.317	18315.26
241.78	22281.16
242.242	23005.41
242.704	24805.98
243.166	21562.04
243.629	19520.98
244.091	22459.66
244.553	24568.19
245.015	26347.37
245.477	34049.48
245.939	49856.21
246.4	52794.38
246.862	51252.16
247.324	48273.34
247.786	53940.48
248.247	70683.94
248.709	72982.03
249.17	54494.66
249.632	51275.29
250.093	59349.53
250.555	51140.36
251.016	31121.38
251.477	29492.99
251.939	31771.91
252.4	33299.9
252.861	39586.11
253.322	36739.92
253.783	43700.89
254.244	56628.87
254.705	44589.36
255.166	39643.7
255.627	39016.06
256.088	55018.52
256.549	58372.41
257.009	50244.29
257.47	61002.66
257.931	49655.69
258.391	37236.22
258.852	38384.42
259.312	40283.76
259.773	49789.75
260.233	42045.11
260.694	35454.69
261.154	40205
261.614	32236.3
262.074	28822.46
262.534	29946.22
262.994	28211.75
263.455	37570.01
263.915	31618.12
264.374	29748.09
264.834	32463.94
265.294	36003.25
265.754	37288.13
266.214	35279.61
266.673	33055.11
267.133	41720.09
267.593	41316.92
268.052	50458.17
268.512	43829.84
268.971	52810
269.431	57927.35
269.89	51845.75
270.349	77643.59
270.809	86490.75
271.268	77695.51
271.727	174184.94
272.186	112708.64
272.645	84513.66
273.104	61057.21
273.563	88414.27
274.022	69548.77
274.481	59050.37
274.94	45475.79
275.399	33811.48
275.857	39363.23
276.316	53250.71
276.775	47402.09
277.233	46660.98
277.692	43638.52
278.15	49291.24
278.609	50659.01
279.067	46874.46
279.525	43553.05
279.984	56219.46
280.442	67484.64
280.9	66491.27
281.358	43743.6
281.816	40729.84
282.274	39891.58
282.732	41275.54
283.19	41507.64
283.648	35853.11
284.106	38213.07
284.564	38887.74
285.021	36080.54
285.479	26912.4
285.937	24510.88
286.394	21493.07
286.852	22146.37
287.309	23278.58
287.767	22459.34
288.224	21356.68
288.682	23433.69
289.139	25667.6
289.596	23475.58
290.053	24369.18
290.511	30746.09
290.968	37214.2
291.425	50482.96
291.882	41940.92
292.339	36417.11
292.796	36111.13
293.252	33981.61
293.709	26960.99
294.166	24160.08
294.623	26692.12
295.079	25619.17
295.536	25685.67
295.992	23317.67
296.449	23042.57
296.905	23942.8
297.362	22970.93
297.818	24169.65
298.274	25055.1
298.731	25530.1
299.187	25264.96
299.643	27111.51
300.099	32758.82
300.555	35929.02
301.011	30010.49
301.467	28898.43
301.923	33820.07
302.379	33013.16
302.835	32405.18
303.291	32458.46
303.746	36932.35
304.202	46636.47
304.658	46818.8
305.113	31507.16
305.569	30888.85
306.024	32957.27
306.479	31417.34
306.935	26487.44
307.39	28938.73
307.845	26715.69
308.301	26863.89
308.756	26163.59
309.211	25230.29
309.666	25840.22
310.121	32084.73
310.576	32571.38
311.031	32308.7
311.486	37029.35
311.94	37032.36
312.395	49586.84
312.85	93296.59
313.305	458846.34
313.759	2377587.41
314.214	172118.43
314.668	136497.31
315.123	114775.08
315.577	41155.39
316.032	36614.06
316.486	45845.14
316.94	36123.3
317.394	25093.75
317.849	19477.97
318.303	18441.01
318.757	17369.28
319.211	19228.37
319.665	16832.26
320.119	17017.82
320.572	24401.31
321.026	22779.83
321.48	18949.55
321.934	20673.16
322.387	20752.16
322.841	22409.1
323.295	20105.34
323.748	23183.74
324.202	23475.03
324.655	28161.35
325.108	39343.5
325.562	27772.6
326.015	32998.43
326.468	24964.09
326.921	27909.74
327.374	26013.3
327.827	27060.86
328.28	30646.72
328.733	20542.88
329.186	18088.85
329.639	17239.69
330.092	14538.12
330.545	13855.63
330.997	13967.43
331.45	15219.5
331.903	17829.24
332.355	30637.98
332.808	29804.63
333.26	24620.84
333.713	26723.44
334.165	26911.28
334.617	35921.59
335.069	29036.48
335.522	52565.64
335.974	58278.64
336.426	53343.55
336.878	37029.01
337.33	18780.45
337.782	18366.14
338.234	23018.95
338.686	27585.44
339.137	32694.56
339.589	30803.27
340.041	24124.74
340.493	20731
340.944	21209.74
341.396	22855.73
341.847	19167.03
342.299	22608.6
342.75	27560.11
343.201	24112.5
343.653	27669.23
344.104	33978.38
344.555	26704.66
345.006	41632.16
345.457	31843.51
345.908	25291.6
346.359	23749.03
346.81	19353.67
347.261	20381.55
347.712	20077.76
348.163	21473.52
348.613	21708.27
349.064	20277.62
349.515	17747.74
349.965	18162.8
350.416	21885.01
350.866	24083.26
351.317	27243.43
351.767	45132.33
352.217	57056.18
352.668	47304.16
353.118	43309.43
353.568	41835.4
354.018	33044.14
354.468	34871.2
354.918	25024.32
355.368	21883.65
355.818	30857.51
356.268	88803.04
356.718	371204.27
357.168	92395.47
357.617	46431.14
358.067	51756.85
358.517	48504.47
358.966	56870.2
359.416	63815.28
359.865	69042.61
360.315	82150.55
360.764	38364.58
361.213	21507.68
361.663	20412.32
362.112	25207.46
362.561	40747.61
363.01	30722.91
363.459	25865.68
363.908	28013.34
364.357	23799.16
364.806	40141.95
365.255	27618.75
365.703	25320.53
366.152	25388.89
366.601	20579.84
367.05	16703.55
367.498	15172.17
367.947	15854.44
368.395	16486.29
368.844	14612.53
369.292	17634
369.74	12207.92
370.189	18716.27
370.637	21928.43
371.085	18944.65
371.533	23100.59
371.981	22310.13
372.429	21276.5
372.877	22220.16
373.325	18638.02
373.773	19052.51
374.221	17028.41
374.669	21175.08
375.116	18367.74
375.564	18587.73
376.012	20800.01
376.459	17171.87
376.907	20582.44
377.354	25000.41
377.801	23366.06
378.249	26933.97
378.696	34564.89
379.143	41967.2
379.591	44999.33
380.038	76462.6
380.485	55489.58
380.932	60326.23
381.379	55537.49
381.826	41101.65
382.273	29393.14
382.72	25870.43
383.166	25411.84
383.613	16562.5
384.06	15034.74
384.506	17501.85
384.953	12944.93
385.4	13112.47
385.846	11570.47
386.292	11371.78
386.739	11234.58
387.185	11199.44
387.631	11285.94
388.078	11013.91
388.524	11879.84
388.97	11057.51
389.416	9281.46
389.862	9930.99
390.308	9483.66
390.754	9702.15
391.2	10612.7
391.645	10930.56
392.091	10502.58
392.537	10228.76
392.983	10333.14
393.428	10223.62
393.874	11044.9
394.319	11159.39
394.765	10636.34
395.21	11021.94
395.655	10397.87
396.101	9787.64
396.546	8871.61
396.991	9005.54
397.436	8397.88
397.881	8138.01
398.326	7743.28
398.771	7333.8
399.216	6428.96
399.661	5817.66
400.106	5800.42
400.551	5948.84
400.995	5341.86
401.44	5289.04
401.885	4972.14
402.329	5019.39
402.774	4816.99
403.218	4648.39
403.663	4481.87
404.107	4603.49
404.551	4626.21
404.995	4239.62
405.44	4080.55
405.884	4142.51
406.328	4013.9
406.772	4000.91
407.216	3641.26
407.66	3519.88
408.104	3347.12
408.547	3127.29
408.991	3024.39
409.435	2908.49
409.879	2863.59
410.322	2822.99
410.766	2719.23
411.209	2575.88
411.653	2467.1
412.096	2412.31
412.54	2406.9
412.983	2387.51
413.426	2387.63
413.869	2383.22
414.312	2336.24
414.756	2250.29
415.199	2145.66
415.642	2079.91
416.085	2080.58
416.527	2064.98
416.97	2094.32
417.413	1984.18
417.856	1963.62
418.298	1944.5
418.741	1929.97
419.184	1924.61
419.626	2005.82
420.069	2003.14
420.511	2010.63
420.953	1964.41
421.396	1944.06
421.838	1894.2
422.28	1933.91
422.722	1936.18
423.164	1956.5
423.606	1918.03
424.048	1911.03
424.49	1807.74
424.932	1794.77
425.374	1771.09
425.816	1799.94
426.258	1828.37
426.699	1843.37
427.141	1811.92
427.582	1836.52
428.024	1827.17
428.465	1816
428.907	1769.18
429.348	1747.53
429.789	1740.55
430.231	1696.34
430.672	1714.09
431.113	1674.35
431.554	1648.65
431.995	1608.46
432.436	1549.23
432.877	1513.01
433.318	1483.3
433.759	1476.36
434.2	1476.15
434.64	1462.79
435.081	1468.84
435.522	1395.07
435.962	1344.55
436.403	1317.06
436.843	1337.1
437.284	1311.87
437.724	1280.53
438.164	1291.11
438.604	1266.18
439.045	1220.03
439.485	1173.27
439.925	1152.64
440.365	1127.87
440.805	1118.52
441.245	1107.49
441.685	1072.1
442.125	1071.41
442.564	1085.34
443.004	1067.59
443.444	1071.42
443.883	1080.91
444.323	1081.67
444.762	1092.69
445.202	1118.17
445.641	1145.01
446.081	1149.98
446.52	1168.64
446.959	1163.91
447.398	1141.27
447.837	1133.85
448.276	1122.45
448.716	1140.44
449.154	1158.47
449.593	1137.78
450.032	1137.88
450.471	1126.28
450.91	1135.89
451.349	1138.71
451.787	1139.94
452.226	1163.4
452.664	1169.95
453.103	1177.29
453.541	1181.43
453.98	1181.01
454.418	1193.03
454.856	1177.73
455.295	1178.39
455.733	1188.49
456.171	1199.37
456.609	1204.84
457.047	1207.73
457.485	1224.7
457.923	1226.76
458.361	1212.47
458.798	1219.7
459.236	1218.47
459.674	1230.9
460.111	1238.59
460.549	1228.37
460.987	1226.46
461.424	1223.84
461.862	1219.68
462.299	1202.18
462.736	1202.51
463.173	1207.21
463.611	1192.8
464.048	1189.04
464.485	1197.55
464.922	1186.55
465.359	1181.18
465.796	1155.79
466.233	1146.41
466.67	1134.18
467.106	1131.11
467.543	1119.59
467.98	1106.12
468.416	1078.88
468.853	1072.63
469.29	1042.17
469.726	1031.08
470.162	1005.73
470.599	1000.51
471.035	991.83
471.471	968.49
471.907	966.62
472.344	962.94
472.78	965.08
473.216	979.06
473.652	968.57
474.088	966.89
474.523	964.74
474.959	973.79
475.395	966.5
475.831	961.71
476.266	968.55
476.702	966.67
477.138	957.41
477.573	956.55
478.008	954.26
478.444	958.03
478.879	966.33
479.314	971.15
479.75	971.97
480.185	978.05
480.62	989.03
481.055	995.9
481.49	1004.58
481.925	1020.16
482.36	1036.35
482.795	1067.74
483.229	1100.25
483.664	1126.49
484.099	1133.73
484.534	1152.73
484.968	1165.53
485.403	1172.72
485.837	1174.95
486.271	1175.82
486.706	1181.26
487.14	1174.56
487.574	1159.8
488.009	1153.16
488.443	1148.66
488.877	1164.78
489.311	1174.57
489.745	1193.47
490.179	1209.81
490.613	1236.36
491.046	1254.05
491.48	1269.21
491.914	1277.3
492.348	1293.81
492.781	1308.39
493.215	1319.08
493.648	1330.15
494.082	1348.58
494.515	1357.6
494.948	1380.16
495.382	1399.65
495.815	1417.19
496.248	1437.4
496.681	1472.62
497.114	1504.39
497.547	1533.47
497.98	1566.62
498.413	1586.98
498.846	1615.73
499.279	1644.08
499.711	1663.49
500.144	1678.7
500.577	1707.34
501.009	1740.41
501.442	1768.26
501.874	1780.48
502.306	1795.73
502.739	1817.94
503.171	1858.85
503.603	1874.86
504.036	1904.63
504.468	1924.7
504.9	1957.29
505.332	1980.82
505.764	1996.09
506.196	2019.3
506.627	2057.09
507.059	2091.74
507.491	2121.33
507.923	2121.04
508.354	2157.08
508.786	2182.44
509.217	2225.14
509.649	2259.12
510.08	2303.6
510.512	2339.29
510.943	2371.58
511.374	2395.59
511.805	2438.98
512.237	2479.77
512.668	2550.98
513.099	2607.76
513.53	2663.57
513.961	2702.8
514.391	2766.73
514.822	2829.22
515.253	2901.93
515.684	2949.87
516.114	3005.69
516.545	3041.18
516.975	3088.91
517.406	3115.83
517.836	3111.51
518.267	3113.17
518.697	3138.62
519.127	3135.73
519.558	3141.87
519.988	3137.02
520.418	3149.29
520.848	3174.89
521.278	3180.68
521.708	3155.76
522.138	3168.98
522.567	3221.8
522.997	3263.22
523.427	3284.55
523.857	3307.75
524.286	3316.3
524.716	3335.61
525.145	3359.95
525.575	3368.98
526.004	3388.37
526.433	3407.82
526.863	3399.62
527.292	3368.01
527.721	3368.68
528.15	3371.36
528.579	3362.57
529.008	3375.31
529.437	3413.51
529.866	3433.21
530.295	3461.68
530.724	3479.78
531.152	3527.01
531.581	3547.01
532.01	3575.5
532.438	3587.61
532.867	3611.92
533.295	3644.32
533.723	3652.65
534.152	3644.24
534.58	3639.95
535.008	3604.8
535.436	3603.45
535.865	3615.52
536.293	3643.59
536.721	3673.93
537.149	3720.26
537.576	3721.72
538.004	3744.31
538.432	3759.35
538.86	3754.17
539.287	3769.43
539.715	3796.29
540.143	3802.72
540.57	3794.83
540.998	3786.41
541.425	3738.06
541.852	3695.66
542.28	3691.74
542.707	3659.82
543.134	3630.08
543.561	3621.02
543.988	3603.17
544.415	3601.31
544.842	3589.13
545.269	3572.72
545.696	3574.09
546.123	3599.01
546.549	3577.71
546.976	3550.85
547.403	3548.54
547.829	3550.73
548.256	3553.06
548.682	3545.04
549.108	3526.03
549.535	3523.18
549.961	3525.59
550.387	3497.66
550.813	3484.46
551.24	3497.21
551.666	3500.05
552.092	3481.38
552.518	3469.15
552.943	3457.48
553.369	3470.8
553.795	3483.53
554.221	3486.25
554.646	3481.72
555.072	3502.18
555.498	3514.67
555.923	3534.08
556.349	3563.59
556.774	3583.18
557.199	3586.07
557.625	3600.59
558.05	3591.29
558.475	3614.08
558.9	3614.69
559.325	3601.51
559.75	3593.92
560.175	3586.47
560.6	3576.4
561.025	3578.55
561.449	3584.71
561.874	3602.92
562.299	3616.18
562.723	3637.64
563.148	3625.27
563.572	3640.49
563.997	3666.99
564.421	3686.37
564.846	3693
565.27	3710.12
565.694	3712.42
566.118	3742.83
566.542	3765.37
566.966	3760.55
567.39	3759.73
567.814	3746.8
568.238	3754.86
568.662	3776.57
569.086	3792.74
569.509	3819.73
569.933	3794.78
570.357	3789.95
570.78	3758.34
571.204	3740.55
571.627	3728.95
572.05	3735.69
572.474	3743.17
572.897	3724.67
573.32	3716.16
573.743	3704.65
574.166	3672.77
574.589	3685.76
575.012	3677.64
575.435	3681.98
575.858	3670.03
576.281	3655.03
576.704	3628.58
577.126	3609.44
577.549	3595.05
577.972	3582.36
578.394	3563.24
578.817	3551.13
579.239	3514.2
579.661	3489.89
580.084	3459.58
580.506	3434.93
580.928	3431.48
581.35	3412.27
581.772	3407.51
582.194	3383.8
582.616	3360.02
583.038	3335.25
583.46	3319.49
583.882	3316.51
584.303	3332.7
584.725	3329.58
585.147	3333.37
585.568	3361.43
585.99	3391.78
586.411	3410.04
586.833	3444.98
587.254	3452.08
587.675	3488.79
588.096	3520.83
588.518	3512.61
588.939	3475.78
589.36	3474.3
589.781	3463.07
590.202	3396.43
590.623	3378.44
591.043	3377.11
591.464	3351.25
591.885	3343.78
592.305	3330.45
592.726	3301.03
593.147	3306.53
593.567	3296.3
593.987	3281.1
594.408	3270.9
594.828	3274.02
595.248	3262.69
595.669	3220.93
596.089	3207.06
596.509	3194.35
596.929	3166.74
597.349	3170.18
597.769	3148.36
598.189	3135.31
598.608	3139.09
599.028	3145.04
599.448	3146.21
599.867	3120.21
600.287	3114.73
600.706	3105.23
601.126	3085.14
601.545	3082.64
601.965	3081.36
602.384	3071.89
602.803	3082.16
603.222	3073.4
603.641	3061.42
604.061	3053.49
604.48	3047.86
604.898	3067.93
605.317	3082.83
605.736	3091.34
606.155	3087.9
606.574	3070.31
606.992	3086.57
607.411	3078.85
607.829	3064.62
608.248	3059.32
608.666	3059.34
609.085	3061.27
609.503	3046.26
609.921	3035.96
610.339	3044.25
610.758	3049.24
611.176	3043.89
611.594	3025.64
612.012	3023.08
612.43	3034.22
612.847	3055.3
613.265	3060.76
613.683	3075.55
614.101	3082.92
614.518	3079.58
614.936	3060.92
615.353	3030.05
615.771	3026.62
616.188	3031.95
616.606	3028.92
617.023	3016.27
617.44	2986.97
617.857	2977.15
618.274	2961.94
618.691	2950.67
619.108	2931.84
619.525	2921.66
619.942	2940.48
620.359	2950.77
620.776	2942.81
621.192	2933.29
621.609	2931.72
622.026	2949.02
622.442	2963.81
622.859	2973.32
623.275	2959.8
623.691	2975.88
624.108	3002.89
624.524	3038.74
624.94	3038.22
625.356	3064.06
625.772	3098.81
626.188	3129.1
626.604	3135.22
627.02	3126.98
627.436	3123.27
627.852	3138.72
628.268	3167.82
628.683	3151.12
629.099	3131.33
629.514	3123.41
629.93	3131.58
630.345	3141.81
630.761	3133.75
631.176	3142.14
631.591	3126.9
632.007	3110.4
632.422	3108.58
632.837	3083
633.252	3074.55
633.667	3052.39
634.082	3030.72
634.497	2999.74
634.911	2951.53
635.326	2942.05
635.741	2899.47
636.155	2877.85
636.57	2881.67
636.984	2878.7
637.399	2878.92
637.813	2879.63
638.228	2876.99
638.642	2886.56
639.056	2861.64
639.47	2862.62
639.884	2842.35
640.298	2829.64
640.712	2825.06
641.126	2793.46
641.54	2773.68
641.954	2764.42
642.368	2731.65
642.781	2702.66
643.195	2659.77
643.609	2657.74
644.022	2642
644.436	2628.71
644.849	2596.67
645.262	2566.59
645.676	2569.25
646.089	2553.54
646.502	2511.45
646.915	2497
647.328	2458.78
647.741	2448.95
648.154	2416.16
648.567	2400.16
648.98	2365.29
649.393	2362.91
649.805	2350.15
650.218	2329.18
650.631	2288.97
651.043	2273.84
651.456	2257.27
651.868	2257.36
652.28	2296.54
652.693	2327.13
653.105	2344.83
653.517	2365.82
653.929	2364.45
654.341	2377.8
654.753	2348.18
655.165	2362.94
655.577	2354.95
655.989	2344.4
656.401	2326.63
656.813	2237.88
657.224	2189.66
657.636	2122.81
658.047	2076.43
658.459	2030.1
658.87	2005.82
659.282	1976.01
659.693	1923.23
660.104	1884.12
660.515	1847.48
660.926	1835.77
661.338	1822.75
661.749	1802.13
662.159	1772.74
662.57	1757.43
662.981	1736.44
663.392	1711.05
663.803	1708.31
664.213	1693.54
664.624	1675.27
665.035	1670.89
665.445	1633.18
665.855	1607.57
666.266	1579.62
666.676	1566.19
667.086	1538.3
667.497	1525.74
667.907	1503.24
668.317	1475.96
668.727	1456.5
669.137	1450.01
669.547	1436.41
669.956	1434.88
670.366	1431.17
670.776	1426.63
671.186	1425.6
671.595	1424.88
672.005	1427.99
672.414	1420.99
672.824	1413.29
673.233	1420.34
673.642	1420.13
674.052	1421.45
674.461	1420.01
674.87	1427.36
675.279	1420.04
675.688	1423.48
676.097	1424.61
676.506	1419.15
676.915	1446.43
677.323	1452.58
677.732	1452.15
678.141	1454.91
678.549	1442.03
678.958	1446.22
679.366	1451.25
679.775	1470.78
680.183	1498.31
680.592	1521.32
681	1543.76
681.408	1545.23
681.816	1576.8
682.224	1612.83
682.632	1649.94
683.04	1731.53
683.448	1805.13
683.856	1893.47
684.264	1993.47
684.671	2093.48
685.079	2211.08
685.487	2340.84
685.894	2512.2
686.302	2662.61
686.709	2787.32
687.116	2930.43
687.524	3047.06
687.931	3147.8
688.338	3237.5
688.745	3309.91
689.152	3388.68
689.559	3489
689.966	3581.23
690.373	3617.75
690.78	3695.61
691.187	3824.84
691.593	3914.84
692	3985.15
692.407	4099.15
692.813	4232.29
693.22	4331.35
693.626	4430.88
694.032	4494.93
694.439	4617.17
694.845	4697.66
695.251	4811.38
695.657	4905.06
696.063	5068.01
696.469	5170.3
696.875	5258.07
697.281	5287.87
697.687	5332.1
698.093	5357.87
698.498	5458.78
698.904	5523.43
699.31	5648.02
699.715	5715.42
700.12	5843.62
700.526	5821.75
700.931	5905.87
701.337	5956.1
701.742	5966.48
702.147	6077.02
702.552	6087.05
702.957	6155.52
703.362	6149.1
703.767	6161.1
704.172	6195.09
704.577	6067.18
704.981	6114.73
705.386	6104.59
705.791	6052.73
706.195	6152.15
706.6	6130.24
707.004	6237.77
707.408	6147.97
707.813	6159.57
708.217	6102.19
708.621	6070.26
709.025	6203.15
709.43	6172.54
709.834	6245.04
710.237	6329.65
710.641	6271.53
711.045	6281.85
711.449	6240.52
711.853	6257.73
712.256	6299.86
712.66	6336.34
713.064	6435
713.467	6475.55
713.87	6632.22
714.274	6678.7
714.677	6831.5
715.08	7067.89
715.484	7308.8
715.887	7604.14
716.29	7896.72
716.693	8197.38
717.096	8546.22
717.499	8723.87
717.901	8735.81
718.304	8748.85
718.707	8763.16
719.109	8578.09
719.512	8502.88
719.915	8266.31
720.317	8155.74
720.719	8202.8
721.122	8137.36
721.524	8040.98
721.926	7952.63
722.328	8088.03
722.731	8055.64
723.133	8075.65
723.535	8351.54
723.937	8363.96
724.338	8429.89
724.74	8476.88
725.142	8321.18
725.544	8302.54
725.945	8315.32
726.347	8301.82
726.748	8276.57
727.15	8285.34
727.551	8213.14
727.952	8158.17
728.354	8107.87
728.755	8097.03
729.156	8024.25
729.557	8033.64
729.958	7846.11
730.359	7767.83
730.76	7731.42
731.161	7633.73
731.562	7586.93
731.962	7589.53
732.363	7486.28
732.763	7382.56
733.164	7430.07
733.564	7325.33
733.965	7180.89
734.365	7122.43
734.766	7152.66
735.166	7088.93
735.566	7001.92
735.966	6956.73
736.366	6943.78
736.766	6850.23
737.166	6892
737.566	6824.15
737.966	6780.88
738.365	6828.65
738.765	6817.15
739.165	6707.13
739.564	6665.78
739.964	6729.46
740.363	6661.33
740.763	6655.3
741.162	6634.82
741.561	6585.09
741.96	6517.48
742.36	6545.23
742.759	6552.6
743.158	6604.06
743.557	6623.62
743.955	6677.35
744.354	6609.73
744.753	6689.43
745.152	6626.63
745.55	6703.91
745.949	6694.8
746.348	6695.54
746.746	6717.94
747.144	6659.44
747.543	6626.97
747.941	6696.78
748.339	6595.97
748.737	6581.98
749.136	6566.81
749.534	6656.76
749.932	6613.1
750.33	6644.55
750.727	6721.58
751.125	6684.78
751.523	6661.52
751.921	6717.16
752.318	6665.7
752.716	6748.78
753.113	6769.55
753.511	6807.09
753.908	6806.82
754.305	6780.07
754.703	6863.24
755.1	6944.96
755.497	7027.25
755.894	7293.66
756.291	7546.74
756.688	8010.62
757.085	8622.74
757.482	9486.12
757.878	10428.51
758.275	11280.33
758.672	12466.51
759.068	13424.69
759.465	14792.65
759.861	16561.69
760.258	18610.86
760.654	19666.5
761.05	19501.51
761.447	18615.85
761.843	17326.23
762.239	15996.47
762.635	15397.38
763.031	14819.51
763.427	13991.13
763.822	13117.74
764.218	12256.07
764.614	11133.05
765.01	10390.22
765.405	9905.58
765.801	9535.84
766.196	9067.92
766.592	8804.53
766.987	8362.68
767.382	8063.83
767.778	7936.8
768.173	7757.12
768.568	7653.2
768.963	7477.74
769.358	7498.28
769.753	7431.63
770.148	7313.19
770.542	7310.29
770.937	7267.7
771.332	7397.03
771.726	7421.33
772.121	7331.94
772.515	7407.39
772.91	7387.92
773.304	7490.65
773.699	7401.9
774.093	7477.66
774.487	7556.95
774.881	7622.56
775.275	7617.75
775.669	7557.05
776.063	7620.08
776.457	7672.27
776.851	7567.99
777.245	7554.78
777.638	7598.58
778.032	7756.19
778.425	7707.63
778.819	7763.87
779.212	7700.52
779.606	7643.92
779.999	7672.49
780.392	7650.06
780.786	7768.03
781.179	7797.37
781.572	7860.58
781.965	7880.09
782.358	7800.1
782.751	7875.88
783.143	7810.82
783.536	7913.48
783.929	7975.42
784.322	8138.79
784.714	8184.77
785.107	8172.72
785.499	8273.72
785.891	8238.89
786.284	8214.06
786.676	8411.93
787.068	8388.11
787.46	8458.9
787.852	8488.45
788.245	8607.53
788.636	8646.26
789.028	8735.42
789.42	8796.35
789.812	8806.14
790.204	8942.36
790.595	9077.19
790.987	8804.18
791.378	8832.68
791.77	9016.12
792.161	9205.63
792.553	9281.88
792.944	9124.56
793.335	9030.18
793.726	9127.32
794.117	9251.4
794.508	9443.39
794.899	9400.81
795.29	9596.71
795.681	9676.34
796.072	9481.34
796.463	9208.07
796.853	9218.09
797.244	9436.54
797.634	9482.25
798.025	9480.79
798.415	9499.87
798.806	9618.14
799.196	9734.74
799.586	9801.43
799.976	9747.39
800.366	10060.88
800.756	10411.62
801.146	10358.16
801.536	10398.53
801.926	10500.06
802.316	10530.19
802.706	10625.47
803.095	10457.91
803.485	10597.91
803.874	10656.49
804.264	11020.26
804.653	10985.04
805.043	11181.17
805.432	11327.57
805.821	11322.41
806.21	11349.3
806.599	11519.6
806.988	11581.62
807.377	11731.31
807.766	11912.39
808.155	12307.61
808.544	11940.21
808.933	11955.04
809.321	11927.33
809.71	12345.7
810.098	12571.76
810.487	13214.48
810.875	13885.1
811.264	13915.85
811.652	14311.3
812.04	14517.31
812.428	14742.94
812.816	15807.1
813.204	16391.01
813.592	17152.22
813.98	17613.41
814.368	17478.75
814.756	18146.03
815.144	18028.79
815.531	18681.22
815.919	18584.78
816.306	19002.73
816.694	18572.56
817.081	18633.73
817.469	19112.31
817.856	19113.4
818.243	19491.22
818.63	20042.25
819.017	19452.07
819.404	19534.38
819.791	20057.44
820.178	20914.01
820.565	21257.71
820.952	22545.56
821.339	21866.27
821.725	22126.99
822.112	21090.13
822.498	21024.7
822.885	21206.76
823.271	21076.7
823.657	21660.99
824.044	21665.36
824.43	21757.13
824.816	21706.83
825.202	21098.99
825.588	22508.33
825.974	22528.49
826.36	23247.09
826.746	23290.92
827.132	23774.38
827.517	23726.15
827.903	22639.74
828.289	22695.03
828.674	21627.17
829.06	21493.21
829.445	22042.41
829.83	22535.32
830.216	23192.7
830.601	23695.02
830.986	23133.31
831.371	22957.91
831.756	23744.87
832.141	23149.43
832.526	23142.6
832.911	23535.38
833.295	23376.08
833.68	24037.34
834.065	23183.85
834.449	21918.93
834.834	21816.19
835.218	21804.9
835.603	22265.21
835.987	21977.79
836.371	23130.03
836.755	22991.76
837.139	23542.68
837.524	23879.78
837.908	23627.54
838.291	23700.16
838.675	23791.79
839.059	24081.38
839.443	24078.78
839.827	23763.85
840.21	24424.84
840.594	24224.85
840.977	24505.95
841.361	24473.07
841.744	24987.63
842.127	24772.35
842.511	25114.61
842.894	25955.49
843.277	26484.29
843.66	27236.28
844.043	27357.66
844.426	26244.77
844.809	25820.7
845.191	25861.96
845.574	25232.58
845.957	24734.62
846.339	24593.09
846.722	23867.16
847.104	23947.39
847.487	23717.23
847.869	23725.82
848.252	24112.38
848.634	24569.79
849.016	24933.52
849.398	25116.59
849.78	26292.29
850.162	26301.46
850.544	26867.24
850.926	27743.65
851.307	27630.04
851.689	28018.3
852.071	28666.26
852.452	29109.67
852.834	29077.29
853.215	29622.1
853.597	29839.96
853.978	30244.59
854.359	30878.63
854.741	29515.11
855.122	29376.74
855.503	28979.28
855.884	29165.85
856.265	29080.51
856.646	29239.82
857.026	28697.77
857.407	28607.92
857.788	28825.17
858.169	29231.1
858.549	28043.79
858.93	28898.73
859.31	28973.31
859.69	29255.59
860.071	28682.58
860.451	28378.11
860.831	27358.06
861.211	28970.98
861.591	29733.7
861.971	29698.84
862.351	29966.71
862.731	30495.9
863.111	30858.44
863.491	31303.58
863.87	32524.14
864.25	33007.24
864.629	32443.81
865.009	33148.73
865.388	34309.46
865.768	36759.99
866.147	36603.53
866.526	34564.66
866.905	34982.01
867.284	36944.12
867.663	35074.56
868.042	33603.15
868.421	33494.58
868.8	34060.11
869.179	34385.05
869.558	32398.01
869.936	29860.61
870.315	30390.93
870.693	31134.37
871.072	33572.71
871.45	31979.65
871.828	32387.69
872.207	34052.9
872.585	33537.28
872.963	34433.56
873.341	33250.92
873.719	32833.95
874.097	32434.48
874.475	33048.65
874.853	33797.82
875.23	32382.11
875.608	33729.96
875.986	36495.9
876.363	34893.38
876.741	35948.13
877.118	35039.76
877.495	36765.29
877.873	37387.49
878.25	39346.73
878.627	37742.68
879.004	38287.2
879.381	38115.05
879.758	37112.22
880.135	34546.03
880.512	36538.73
880.889	35591.78
881.265	35237.07
881.642	34947.28
882.019	35540.15
882.395	34815.12
882.772	36188.65
883.148	34617.44
883.524	34461.41
883.901	34264.12
884.277	34785.46
884.653	34561
885.029	35547.83
885.405	39350.66
885.781	39038.32
886.157	37442.04
886.532	37898.67
886.908	37895.18
887.284	42126.71
887.659	43521.48
888.035	44881.15
888.411	46046.21
888.786	46681.95
889.161	48304.27
889.537	47425.56
889.912	48940.87
890.287	48886.49
890.662	50165.44
891.037	49258.52
891.412	45955.02
891.787	45504.52
892.162	43908.64
892.536	44928.03
892.911	43224.38
893.286	42313.04
893.66	40605.05
894.035	41649.91
894.409	45363.83
894.784	43528.07
895.158	44239.85
895.532	46840.95
895.906	48114.22
896.281	49258.24
896.655	48461.67
897.029	55375.99
897.402	57677.47
897.776	64229.16
898.15	64030.61
898.524	63325.94
898.898	64176.59
899.271	71861.63
899.645	62243.38
900.018	59792.04
900.392	62025.05
900.765	62551.83
901.138	57879.01
901.511	57000.61
901.884	52325.24
902.258	48254.45
902.631	49868.98
903.003	57390.29
903.376	51784.36
903.749	58064.8
904.122	62174.34
904.495	68457.17
904.867	69306.5
905.24	60170.59
905.612	56008.23
905.985	57291.91
906.357	59888.34
906.729	57163.07
907.102	48831.84
907.474	46961.44
907.846	47270.64
908.218	46644.39
908.59	41212.87
908.962	39854.47
909.334	42932.27
909.705	45089.37
910.077	43764.06
910.449	45547.1
910.82	46800.12
911.192	51491.79
911.563	53485.41
911.935	57230.07
912.306	57283.84
912.677	59133.47
913.048	58548.98
913.419	63521.01
913.79	63896.49
914.161	68502.94
914.532	65480.7
914.903	60181.81
915.274	57151.07
915.645	56330.45
916.015	49577.4
916.386	47272.83
916.756	50332.22
917.127	51930.9
917.497	46390.55
917.868	50479.53
918.238	47981.72
918.608	49366.31
918.978	50372.88
919.348	53367.18
919.718	55112.42
920.088	53072.65
920.458	55136.23
920.828	58020.14
921.198	55006.53
921.567	58778.03
921.937	45511.78
922.306	45956.36
922.676	49577.52
923.045	41383.71
923.415	39308.05
923.784	35800.03
924.153	36816.45
924.522	36751.55
924.891	34541.61
925.26	36979.17
925.629	36097.48
925.998	41509.12
926.367	40474.96
926.736	38507.44
927.104	45854.16
927.473	49260.56
927.842	59522.23
928.21	58954.99
928.578	62008.28
928.947	58635.32
929.315	58984.65
929.683	69162.21
930.051	69702.07
930.42	80968.46
930.788	69204.61
931.156	68693.07
931.523	64382.88
931.891	59475.38
932.259	57127.67
932.627	66207.39
932.994	93656.77
933.362	77394.94
933.729	67265.36
934.097	64389.1
934.464	54473.44
934.831	62887.24
935.199	61984.45
935.566	60149.59
935.933	61017.36
936.3	73867.89
936.667	57535.34
937.034	51847.06
937.401	51325.16
937.767	44274.61
938.134	39409.44
938.501	55622.13
938.867	59289.13
939.234	100255.38
939.6	85528
939.967	94124.33
940.333	63016.7
940.699	53657.31
941.065	43118.52
941.431	56466.28
941.798	54373.91
942.163	71403.57
942.529	44596.19
942.895	41039.43
943.261	26529.11
943.627	34801.44
943.992	30464.63
944.358	30500.28
944.723	30570.77
945.089	29811.22
945.454	27554.38
945.82	29443.08
946.185	28324.49
946.55	32812.75
946.915	29427.09
947.28	34520.7
947.645	30385.03
948.01	28033
948.375	29243.63
948.74	35081.37
949.104	40877.05
949.469	59078.86
949.834	104397.09
950.198	98802.25
950.562	59226.39
950.927	49299.27
951.291	59363.16
951.655	50620.36
952.02	47570.6
952.384	35986.85
952.748	31312.67
953.112	30548.17
953.476	26560.98
953.839	24579.67
954.203	24347.45
954.567	30468.39
954.931	48070.89
955.294	41118.55
955.658	41339.2
956.021	70350.76
956.385	119348.37
956.748	176239.22
957.111	273370.75
957.474	307242.73
957.837	345988.67
958.2	261903.6
958.563	94196.03
958.926	63612.64
959.289	96526.16
959.652	107866.17
960.015	80936.48
960.377	116055.07
960.74	132371.16
961.102	228958.2
961.465	245694.85
961.827	131253.98
962.189	251954.39
962.552	174682.05
962.914	140104.16
963.276	90960.54
963.638	75246.77
964	74537.81
964.362	50424.77
964.724	48782.1
965.085	34760.02
965.447	28506.95
965.809	32564.74
966.17	32611.39
966.532	35284.86
966.893	32403.51
967.255	29497.51
967.616	34816.31
967.977	27876.48
968.338	30456.36
968.699	25008.54
969.061	25000.89
969.421	25152.47
969.782	28240.55
970.143	23830.61
970.504	24692.19
970.865	28089.82
971.225	28683.15
971.586	28042.87
971.946	39970.44
972.307	34688.78
972.667	45422.41
973.027	46786.82
973.388	56771.08
973.748	38604.88
974.108	42071.35
974.468	56948.66
974.828	43849.35
975.188	33794.54
975.548	31053.79
975.907	26066.23
976.267	29254.85
976.627	24542.68
976.986	25443.31
977.346	24247.86
977.705	23319.56
978.064	21246.36
978.424	17690.65
978.783	18316.73
979.142	20882.31
979.501	19978.96
979.86	21108.77
980.219	20342.88
980.578	26268.93
980.937	29449.57
981.296	26253.13
981.654	27035.73
982.013	42104.23
982.371	54640.64
982.73	50991.91
983.088	57788.78
983.447	61756.8
983.805	88337.22
984.163	184429.03
984.521	204683.09
984.879	300125.04
985.237	-488112.86
985.595	470587.68
985.953	117023.04
986.311	67538.08
986.669	39209.87
987.026	33868.72
987.384	45563.14
987.741	47147.4
988.099	33665.58
988.456	26817.4
988.814	25052.32
989.171	21790.91
989.528	21504.15
989.885	22661.26
990.242	17947.53
990.599	22386.82
990.956	18293.27
991.313	12787.33
991.67	10489.41
992.027	11091.9
992.383	9859.44
992.74	8649.61
993.096	9063.73
993.453	9389.37
993.809	9754.31
994.165	12995.65
994.522	11873.98
994.878	13107.6
995.234	16438.82
995.59	16221.86
995.946	15430.22
996.302	17583.26
996.658	20363.81
997.013	22469.68
997.369	26644.08
997.725	34050.18
998.08	22067.49
998.436	34100.37
998.791	47079.68
999.147	46992.57
999.502	51302.45
999.857	37347.6
1000.212	60996.88
1000.567	86701.86
1000.922	50002.98
1001.277	31767.71
1001.632	23578.15
1001.987	30366.97
1002.342	21781.76
1002.696	17385.37
1003.051	13870.2
1003.406	16782.55
1003.76	16689.84
1004.114	16428.38
1004.469	13837.98
1004.823	11462.19
1005.177	12384.61
1005.531	9832.14
1005.885	8715.46
1006.239	9824.76
1006.593	12320.51
1006.947	16485.71
1007.301	12379.87
1007.655	13466.98
1008.008	9885.04
1008.362	11097.03
1008.715	15861.3
1009.069	14420.79
1009.422	21557.94
1009.776	43314.62
1010.129	28759.01
1010.482	24062.68
1010.835	20388.06
1011.188	42483.02
1011.541	40065.68
1011.894	-245947.32
1012.247	724136.42
1012.6	49270.04
1012.952	31020.71
1013.305	16131.55
1013.657	11581.2
1014.01	10982.21
1014.362	9067.83
1014.715	8008.44
1015.067	6956.95
1015.419	6815.04
1015.771	6025.82
1016.123	5354.09
1016.475	5485.67
1016.827	5846.71
1017.179	6269.74
1017.531	6349.08
1017.883	6502.03
1018.234	6241.68
1018.586	7914.24
1018.938	8361.25
1019.289	11498.03
1019.64	13186.61
1019.992	12285.88
1020.343	11250.7
1020.694	8878.83
1021.045	7837.72
1021.396	8944.38
1021.747	9572.21
1022.098	11552.09
1022.449	8397.49
1022.8	7814.12
1023.151	5429.57
1023.501	4803.89
1023.852	5243.8
1024.202	5431.3
1024.553	5994.95
1024.903	5850.54
1025.253	4976.2
1025.604	4474.93
1025.954	5558.26
1026.304	6801.54
1026.654	7910.27
1027.004	11671.87
1027.354	18956.96
1027.703	17748.29
1028.053	23487.08
1028.403	34185.62
1028.753	49616.84
1029.102	68187.5
1029.452	352836.7
1029.801	15263.16
1030.15	9846.31
1030.499	8409.43
897.758	2247.71
901.051	2179.79
904.343	2218.15
907.636	2224.49
910.928	2287
914.22	2204.77
917.511	2208.93
920.803	2262.99
924.094	2262.55
927.384	2264.45
930.675	2226.05
933.965	2188.49
937.255	2220.88
940.544	2184.72
943.834	2185.13
947.123	2123.95
950.411	2215.75
953.7	2195.68
956.988	2177.75
960.276	2114.79
963.563	2166.78
966.851	2177.62
970.138	2222.52
973.424	2222.8
976.711	2177.71
979.997	2227.75
983.283	2271.39
986.568	2198.86
989.853	2193.14
993.138	2221.2
996.423	2304.93
999.708	2262
1002.992	2294.78
1006.275	2200.49
1009.559	2209.47
1012.842	2308.4
1016.125	2259.69
1019.408	2242.57
1022.69	2303.28
1025.972	2336.73
1029.254	2310.29
1032.536	2272.11
1035.817	2281.78
1039.098	2254.11
1042.379	2312.81
1045.659	2338.44
1048.939	2287.53
1052.219	2296.34
1055.498	2291.06
1058.778	2288.52
1062.057	2263.19
1065.335	2288.78
1068.614	2302.75
1071.892	2298.78
1075.17	2353.63
1078.447	2359.64
1081.724	2355.38
1085.001	2382.55
1088.278	2360.32
1091.554	2367.04
1094.83	2361.19
1098.106	2399.31
1101.382	2431.26
1104.657	2431.76
1107.932	2431.96
1111.206	2406.17
1114.481	2358.17
1117.755	2359.19
1121.029	2350.31
1124.302	2414.74
1127.575	2377.91
1130.848	2373.82
1134.121	2343.27
1137.393	2304.2
1140.665	2365.58
1143.937	2344.51
1147.208	2294.5
1150.48	2352.9
1153.75	2342.15
1157.021	2348.16
1160.291	2321.77
1163.561	2378.98
1166.831	2347.1
1170.101	2376.46
1173.37	2335.59
1176.639	2288.36
1179.907	2334.06
1183.176	2358.67
1186.444	2359.63
1189.711	2385.38
1192.979	2408.48
1196.246	2362.08
1199.513	2375.53
1202.78	2381.04
1206.046	2390.24
1209.312	2418.28
1212.578	2438.25
1215.843	2403.32
1219.108	2367.34
1222.373	2393.48
1225.638	2363.92
1228.902	2356
1232.166	2313.57
1235.43	2298.58
1238.693	2321.05
1241.956	2314.51
1245.219	2363.71
1248.482	2344.98
1251.744	2343.24
1255.006	2474.39
1258.268	2419.28
1261.529	2373.17
1264.79	2371.64
1268.051	2472.73
1271.312	2485.6
1274.572	2457.58
1277.832	2444.62
1281.092	2423.3
1284.351	2413.63
1287.61	2397.6
1290.869	2330.11
1294.128	2326.83
1297.386	2376.47
1300.644	2371.23
1303.902	2379.88
1307.159	2244.91
1310.416	2297.11
1313.673	2326.35
1316.93	2325.47
1320.186	2357.29
1323.442	2392.3
1326.697	2389.62
1329.953	2363.04
1333.208	2398.21
1336.463	2371.42
1339.717	2331.35
1342.972	2439.64
1346.226	2411.97
1349.479	2355.2
1352.733	2333.88
1355.986	2340.31
1359.238	2320.63
1362.491	2327.66
1365.743	2325.73
1368.995	2319.03
1372.247	2330.78
1375.498	2351.11
1378.749	2389.85
1382	2340.81
1385.251	2380.21
1388.501	2331.93
1391.751	2331.42
1395	2294.18
1398.25	2318.72
1401.499	2342.58
1404.748	2289.56
1407.996	2265.77
1411.244	2252.47
1414.492	2238.35
1417.74	2218.76
1420.987	2223.78
1424.234	2283.38
1427.481	2245.48
1430.728	2306.03
1433.974	2280.25
1437.22	2279.16
1440.465	2277.35
1443.711	2274.16
1446.956	2300.7
1450.201	2273.11
1453.445	2318.85
1456.689	2305.53
1459.933	2319.12
1463.177	2360.83
1466.42	2332.61
1469.663	2317.06
1472.906	2331.84
1476.148	2381.73
1479.391	2358.27
1482.633	2331.9
1485.874	2358.46
1489.115	2363.15
1492.356	2349.99
1495.597	2327.66
1498.838	2322.93
1502.078	2305.99
1505.318	2275.59
1508.557	2311.17
1511.797	2310.54
1515.036	2355.6
1518.274	2327.41
1521.513	2283.04
1524.751	2297.44
1527.989	2321.57
1531.227	2341.12
1534.464	2354.98
1537.701	2349.6
1540.938	2363.89
1544.174	2312.93
1547.41	2303.04
1550.646	2339.58
1553.882	2393.86
1557.117	2452.08
1560.352	2460
1563.587	2424.2
1566.821	2388.23
1570.055	2404.09
1573.289	2387.55
1576.523	2450.22
1579.756	2463.34
1582.989	2485.31
1586.222	2447.22
1589.454	2476.21
1592.686	2457.24
1595.918	2487.02
1599.15	2482.68
1602.381	2530.97
1605.612	2512.04
1608.843	2609.39
1612.073	2529.14
1615.303	2515.64
1618.533	2515.39
1621.762	2511.89
1624.992	2487.44
1628.221	2491.68
1631.449	2477.45
1634.678	2505.29
1637.906	2474.47
1641.134	2503.47
1644.361	2465.27
1647.588	2452.85
1650.815	2475.93
1654.042	2436.53
1657.269	2466.45
1660.495	2444.38
1663.72	2428.82
1666.946	2398.4
1670.171	2370.37
1673.396	2341.22
1676.621	2322.36
1679.845	2320.51
1683.069	2330.46
1686.293	2361.01
1689.517	2351.56
1692.74	2300.79
1695.963	2321.37
1699.185	2364.58
1702.408	2333.9
1705.63	2364.27
1708.852	2382.41
1712.073	2353.13
1715.294	2363.33
1718.515	2404.8
1721.736	2363.02
1724.956	2340.18
1728.176	2361.99
1731.396	2387.15
1734.616	2369.02
1737.835	2406.58
1741.054	2375.93
1744.272	2367.45
1747.491	2408.28
1750.709	2434.3
1753.927	2377.91
1757.144	2403.69
1760.361	2462.14
1763.578	2438.1
1766.795	2386.13
1770.011	2374.77
1773.227	2400.39
1776.443	2444.38
1779.658	2489.22
1782.874	2424.04
1786.089	2415.56
1789.303	2418.67
1792.518	2415.33
1795.732	2402.9
1798.945	2418.79
1802.159	2458.19
1805.372	2400.21
1808.585	2395.01
1811.797	2393.1
1815.01	2415.57
1818.222	2439.13
1821.434	2397.23
1824.645	2439.64
1827.856	2448.64
1831.067	2479.64
1834.278	2414.26
1837.488	2397.4
1840.698	2523.45
1843.908	2460.7
1847.117	2429.86
1850.326	2349.12
1853.535	2411.8
1856.744	2445.19
1859.952	2366.7
1863.16	2367.29
1866.368	2378.84
1869.575	2494.3
1872.782	2374.54
1875.989	2303.49
1879.196	2353.47
1882.402	2342.56
1885.608	2376.3
1888.814	2313.23
1892.019	2216.56
1895.224	2265.73
1898.429	2232.88
1901.634	2215.81
1904.838	2187.62
1908.042	2243.06
1911.246	2254.14
1914.449	2215.03
1917.652	2194.83
1920.855	2175.98
1924.058	2201.71
1927.26	2245.75
1930.462	2269.31
1933.664	2305.97
1936.865	2247.92
1940.066	2262.45
1943.267	2208.2
1946.467	2220.32
1949.668	2239.24
1952.868	2311.57
1956.067	2299.13
1959.267	2240.82
1962.466	2265.09
1965.665	2244.51
1968.863	2238.39
1972.061	2242.79
1975.259	2238.79
1978.457	2313.87
1981.654	2271.02
1984.852	2276.19
1988.048	2225.81
1991.245	2217.33
1994.441	2304.55
1997.637	2264.82
2000.833	2249.38
2004.028	2287.44
2007.223	2349.6
2010.418	2337.14
2013.613	2287.6
2016.807	2282.01
2020.001	2275.25
2023.194	2300.9
2026.388	2283.19
2029.581	2226.92
2032.774	2290.89
2035.966	2301.53
2039.158	2244.74
2042.35	2264.4
2045.542	2187.18
2048.733	2273.71
2051.924	2267.92
2055.115	2286
2058.306	2248.71
2061.496	2303.83
2064.686	2356.97
2067.875	2263.68
2071.065	2265.96
2074.254	2286.97
2077.442	2240.7
2080.631	2325.68
2083.819	2251.49
2087.007	2244.82
2090.195	2228.75
2093.382	2245.3
2096.569	2229.17
2099.756	2188.64
2102.942	2233.04
2106.128	2249.45
2109.314	2234.09
2112.5	2216.95
2115.685	2187
2118.87	2194.95
2122.055	2257.13
2125.239	2234.86
2128.424	2220.73
2131.608	2285.38
2134.791	2269.74
2137.974	2310.58
2141.157	2299.05
2144.34	2269.44
2147.523	2262.63
2150.705	2288.17
2153.887	2256.16
2157.068	2224.92
2160.25	2207.84
2163.431	2232.72
2166.611	2200.3
2169.792	2220.38
2172.972	2128.81
2176.152	2181.31
2179.331	2210.14
2182.511	2210.02
2185.69	2232.91
2188.868	2236.91
2192.047	2274.31
2195.225	2288.95
2198.403	2237.64
2201.58	2223.26
2204.758	2211.59
2207.935	2287.58
2211.111	2199.78
2214.288	2190.35
2217.464	2224.54
2220.64	2180.59
2223.815	2231.23
2226.991	2161.28
2230.166	2177.39
2233.34	2218.54
2236.515	2233.15
2239.689	2297.79
2242.863	2248.56
2246.036	2301.38
2249.209	2281.16
2252.382	2302.76
2255.555	2312.1
2258.727	2259.36
2261.9	2288.47
2265.071	2278.32
2268.243	2276.26
2271.414	2225.08
2274.585	2205.11
2277.756	2263.96
2280.926	2222.92
2284.096	2253.67
2287.266	2181.51
2290.436	2225.64
2293.605	2247.49
2296.774	2286.62
2299.942	2290.88
2303.111	2307.05
2306.279	2356.29
2309.447	2341.69
2312.614	2314.95
2315.781	2336.04
2318.948	2314.37
2322.115	2351.1
2325.281	2251.23
2328.447	2259.45
2331.613	2227.57
2334.779	2218.75
2337.944	2217.52
2341.109	2218.2
2344.274	2206.89
2347.438	2172.56
2350.602	2197.13
2353.766	2204.58
2356.929	2192.92
2360.092	2232.74
2363.255	2201.12
2366.418	2165.81
2369.58	2238.46
2372.742	2100.35
2375.904	2097.54
2379.066	2082.21
2382.227	2107.86
2385.388	2068.1
2388.548	2017.67
2391.709	2061.92
2394.869	2046.73
2398.029	2108.05
2401.188	2103.92
2404.347	2063.26
2407.506	2149.7
2410.665	2188.09
2413.823	2173.65
2416.981	2152.99
2420.139	2171.06
2423.296	2213.64
2426.453	2184.76
2429.61	2204.85
2432.767	2169.14
2435.923	2210.93
2439.079	2158.62
2442.235	2196.59
2445.391	2134.66
2448.546	2177.71
2451.701	2212.4
2454.855	2204.5
2458.009	2235.39
2461.163	2226.34
2464.317	2200.32
2467.471	2227.53
2470.624	2257.03
2473.777	2247.65
2476.929	2260.92
2480.082	2284.58
2483.234	2257.11
2486.385	2197.18
2489.537	2192.22
2492.688	2179.86
2495.839	2195.82
2498.989	2209.25
2502.14	2196.15
2505.29	2187.91
2508.439	2209.53
2511.589	2149.03
2514.738	2148.48
2517.887	2174.21
2521.035	2249.26
2524.183	2210.93
2527.331	2196.99
2530.479	2189.3
2533.627	2192.69
