Data from N_2_HIR_WI_4N_Splice17_12-32-13-956.txt Node
Date: Sat Mar 14 12:32:13 EDT 2020
User: sa697716
Spectrometer: FLMS03696
Trigger mode: 0
Integration Time (sec): 3.180400E-1
Scans to average: 20
Electric dark correction enabled: true
Nonlinearity correction enabled: true
Boxcar width: 5
XAxis mode: Wavelengths
Number of Pixels in Spectrum: 2048
>>>>>Begin Spectral Data<<<<<
187.83	-271779.54
188.298	2059.68
188.766	1124.74
189.233	1037.35
189.701	1445.07
190.169	1961.01
190.636	777.85
191.104	664.39
191.571	101.89
192.039	-50.57
192.506	-48.5
192.974	564.87
193.441	-644.43
193.908	-98.66
194.375	-0.73
194.842	50.77
195.31	122.63
195.777	217.83
196.244	430.49
196.711	445.39
197.177	511.8
197.644	708.11
198.111	1247.88
198.578	1689.62
199.045	1321.17
199.511	2141.17
199.978	2477.18
200.445	2132.03
200.911	2314.54
201.378	2548.77
201.844	2294.09
202.31	3941.07
202.777	4091.45
203.243	2255.14
203.709	2143.01
204.176	2577.09
204.642	2131.59
205.108	1982.96
205.574	1576.74
206.04	1413.55
206.506	1330.69
206.972	1266.83
207.438	1216.6
207.903	1376.97
208.369	1207.31
208.835	1217.28
209.301	1276.57
209.766	1303.04
210.232	1303.28
210.697	1625.51
211.163	2015.49
211.628	2987.65
212.094	2487.36
212.559	3087.34
213.024	1932.08
213.49	2387.22
213.955	2309.11
214.42	2228.32
214.885	2073.11
215.35	1990.27
215.815	1935.4
216.28	2066.73
216.745	1671.55
217.21	1794.72
217.675	1603.04
218.14	1763.5
218.604	1902.86
219.069	2139.1
219.534	2225.6
219.998	2539.87
220.463	3011.8
220.927	3602.44
221.392	3336.75
221.856	3362.41
222.32	4174.43
222.785	5137.6
223.249	6428.42
223.713	7150.6
224.177	7096.15
224.642	9059.09
225.106	11091.57
225.57	12101.71
226.034	9072.78
226.497	13834.71
226.961	12510.65
227.425	14588.45
227.889	16132.49
228.353	16131.87
228.816	33265.21
229.28	31824.41
229.744	26767.35
230.207	16314.26
230.671	16044.24
231.134	26354.73
231.597	30398.36
232.061	30339.8
232.524	29483.76
232.987	20335.53
233.45	18350.56
233.914	16492.72
234.377	16930.11
234.84	15501.69
235.303	18238.82
235.766	20367.34
236.229	21080.72
236.691	13261.73
237.154	14897.8
237.617	11259.44
238.08	11527.49
238.542	13497.67
239.005	9661.13
239.468	9601.85
239.93	9061.06
240.393	8253.69
240.855	7243.18
241.317	7424.74
241.78	9037.48
242.242	9361.37
242.704	10118.71
243.166	8823.99
243.629	8035.4
244.091	9255.66
244.553	10148.19
245.015	10914.64
245.477	14115.42
245.939	20734.44
246.4	21981.87
246.862	21385.02
247.324	20208.75
247.786	22642.01
248.247	29709.2
248.709	30624.64
249.17	22946.64
249.632	21716.36
250.093	25296.24
250.555	21892.97
251.016	13381.5
251.477	12731.94
251.939	13750.31
252.4	14421.46
252.861	17145.97
253.322	16014.18
253.783	19052.51
254.244	24722.99
254.705	19464.56
255.166	17308.36
255.627	17080.64
256.088	24127.95
256.549	25655.66
257.009	22132.97
257.47	26903.31
257.931	21944.85
258.391	16475.95
258.852	17016.55
259.312	17878.74
259.773	22106.71
260.233	18737.06
260.694	15830.8
261.154	18008.55
261.614	14492.55
262.074	12971.5
262.534	13505.43
262.994	12777.07
263.455	17011.2
263.915	14372.49
264.374	13550.8
264.834	14827.28
265.294	16443.29
265.754	17078.15
266.214	16155.65
266.673	15184.99
267.133	19220.02
267.593	19109.23
268.052	23418.44
268.512	20404.6
268.971	24710.1
269.431	27157.18
269.89	24370.39
270.349	36604.59
270.809	40884.92
271.268	36901.77
271.727	82828.66
272.186	53767.08
272.645	40424.87
273.104	29147.7
273.563	42288.91
274.022	33249.42
274.481	28388.04
274.94	21928.07
275.399	16323.41
275.857	19034.46
276.316	25753.55
276.775	22944.09
277.233	22623.65
277.692	21208.82
278.15	24081.67
278.609	24868.96
279.067	23053.39
279.525	21437.38
279.984	27715.92
280.442	33356.84
280.9	33012.37
281.358	21749.48
281.816	20326.11
282.274	19936.7
282.732	20610.33
283.19	20727.92
283.648	17889.74
284.106	19065.8
284.564	19432.35
285.021	18056.95
285.479	13486.72
285.937	12249.37
286.394	10787.35
286.852	11114.32
287.309	11696.67
287.767	11330.18
288.224	10801.37
288.682	11867.95
289.139	13076.45
289.596	11991.75
290.053	12457.53
290.511	15737.19
290.968	19142.72
291.425	25982.62
291.882	21678.62
292.339	18905.26
292.796	18781.15
293.252	17702.26
293.709	14085.06
294.166	12649.59
294.623	13974.47
295.079	13418.1
295.536	13511.96
295.992	12266.04
296.449	12138.6
296.905	12641.18
297.362	12154.38
297.818	12786.1
298.274	13304.18
298.731	13567.07
299.187	13418.97
299.643	14413.54
300.099	17472.4
300.555	19151.16
301.011	16037.39
301.467	15518.52
301.923	18134.74
302.379	17714.89
302.835	17416.18
303.291	17427.79
303.746	19818.1
304.202	25085.81
304.658	25203.21
305.113	16994.42
305.569	16684.09
306.024	17756.11
306.479	16873.61
306.935	14250.75
307.39	15558.55
307.845	14396.39
308.301	14504.08
308.756	14157.95
309.211	13622.6
309.666	13968.49
310.121	17330.89
310.576	17560.5
311.031	17465.17
311.486	19989.42
311.94	19967.98
312.395	26656.79
312.85	50148.39
313.305	246043.74
313.759	1278388.97
314.214	92820.42
314.668	73722.15
315.123	62046.67
315.577	22346.58
316.032	19876.27
316.486	24931.54
316.94	19698.54
317.394	13767.41
317.849	10701.85
318.303	10152.85
318.757	9569.23
319.211	10585.86
319.665	9257.67
320.119	9370.79
320.572	13401.6
321.026	12523.87
321.48	10428.69
321.934	11357.87
322.387	11349.98
322.841	12253.86
323.295	11023.87
323.748	12684.34
324.202	12852.51
324.655	15455.89
325.108	21621.53
325.562	15272.74
326.015	18164.03
326.468	13751.32
326.921	15411.14
327.374	14396.99
327.827	15018.88
328.28	17025.59
328.733	11433.62
329.186	10076.53
329.639	9599.18
330.092	8095.72
330.545	7742.54
330.997	7806.99
331.45	8546.15
331.903	10002.93
332.355	17217.23
332.808	16732.5
333.26	13781.44
333.713	14974.32
334.165	15059.19
334.617	20062.04
335.069	16161.23
335.522	29134.79
335.974	32281.49
336.426	29431.84
336.878	20395.29
337.33	10353.51
337.782	10096.12
338.234	12669.79
338.686	15155.4
339.137	17967.88
339.589	16939.84
340.041	13293.74
340.493	11432.84
340.944	11705
341.396	12628.23
341.847	10645.6
342.299	12562.08
342.75	15379.53
343.201	13400.9
343.653	15391.11
344.104	18923.72
344.555	14907.08
345.006	23186.57
345.457	17791.22
345.908	14131.25
346.359	13314.38
346.81	10812.53
347.261	11387.07
347.712	11156.87
348.163	11961.68
348.613	12125.49
349.064	11303.84
349.515	9897.44
349.965	10168.12
350.416	12220.08
350.866	13405.56
351.317	15086.15
351.767	25028.14
352.217	31702.28
352.668	26406.9
353.118	24224.09
353.568	23338.42
354.018	18497.91
354.468	19493.88
354.918	13993.51
355.368	12248.8
355.818	17335.72
356.268	49851.7
356.718	208943.45
357.168	51934.74
357.617	26012.17
358.067	28897.74
358.517	27065.93
358.966	31783.31
359.416	35743.5
359.865	38563.93
360.315	45961.78
360.764	21497.03
361.213	12097.01
361.663	11432.3
362.112	14081.76
362.561	22745.57
363.01	17196.61
363.459	14481.19
363.908	15664.29
364.357	13304.19
364.806	22463.13
365.255	15448.77
365.703	14150.97
366.152	14168.76
366.601	11512.37
367.05	9383.83
367.498	8547.47
367.947	8916.49
368.395	9274.49
368.844	8216.44
369.292	9897.93
369.74	6860.2
370.189	10479.24
370.637	12275.08
371.085	10570.67
371.533	12877.31
371.981	12402.21
372.429	11858.01
372.877	12393.16
373.325	10399.82
373.773	10592.35
374.221	9442.68
374.669	11689.49
375.116	10150.49
375.564	10228.53
376.012	11475.42
376.459	9475.5
376.907	11326.76
377.354	13710.78
377.801	12815.34
378.249	14794.35
378.696	18956.48
379.143	22994.72
379.591	24588.59
380.038	41655.35
380.485	30223.79
380.932	32735.07
381.379	30094.94
381.826	22285.44
382.273	15837.83
382.72	13840.68
383.166	13494.43
383.613	8783.72
384.06	7938.57
384.506	9241.01
384.953	6811.79
385.4	6872.64
385.846	6037.41
386.292	5891.95
386.739	5776.87
387.185	5733.74
387.631	5775.63
388.078	5638.23
388.524	6051.86
388.97	5629.03
389.416	4709.65
389.862	5029.04
390.308	4797.51
390.754	4902.61
391.2	5354.37
391.645	5518.02
392.091	5326.21
392.537	5175.9
392.983	5206.53
393.428	5162.12
393.874	5556.32
394.319	5626.06
394.765	5378.96
395.21	5556.59
395.655	5239.16
396.101	4936.81
396.546	4471.86
396.991	4537.74
397.436	4237
397.881	4111.22
398.326	3913.71
398.771	3719.66
399.216	3259.63
399.661	2944.97
400.106	2951.38
400.551	3041.08
400.995	2737.57
401.44	2726.54
401.885	2568.41
402.329	2605.17
402.774	2513.54
403.218	2445.4
403.663	2371.56
404.107	2456.83
404.551	2488.62
404.995	2291.49
405.44	2211.48
405.884	2253.01
406.328	2186.73
406.772	2187.9
407.216	2002.63
407.66	1943.12
408.104	1851.48
408.547	1735.53
408.991	1680.11
409.435	1619.19
409.879	1602.09
410.322	1587.63
410.766	1540.94
411.209	1467.58
411.653	1411.06
412.096	1385.32
412.54	1389.25
412.983	1381.89
413.426	1391.03
413.869	1393.85
414.312	1376.03
414.756	1328.53
415.199	1268.53
415.642	1233.72
416.085	1239.6
416.527	1236.18
416.97	1256.35
417.413	1192.98
417.856	1184.55
418.298	1174.23
418.741	1166.55
419.184	1161.04
419.626	1211.45
420.069	1214.05
420.511	1221.93
420.953	1196.62
421.396	1188.27
421.838	1161.07
422.28	1191.3
422.722	1198.94
423.164	1220.43
423.606	1201.39
424.048	1204.92
424.49	1143.6
424.932	1138.19
425.374	1122.4
425.816	1140.74
426.258	1163.57
426.699	1179.94
427.141	1160
427.582	1174.71
428.024	1165.37
428.465	1159.67
428.907	1129.08
429.348	1117.51
429.789	1120.27
430.231	1097.76
430.672	1113.69
431.113	1083.58
431.554	1063.75
431.995	1037.84
432.436	1002.22
432.877	980.62
433.318	963.67
433.759	957.29
434.2	957.41
434.64	946.35
435.081	948.21
435.522	899.69
435.962	868.01
436.403	851.78
436.843	863.34
437.284	845.7
437.724	822.55
438.164	825.92
438.604	809.75
439.045	777.62
439.485	746.56
439.925	729.83
440.365	710.63
440.805	702.25
441.245	690.31
441.685	665.33
442.125	659.75
442.564	663.75
443.004	647.23
443.444	646.44
443.883	649.55
444.323	643.78
444.762	645.88
445.202	656.17
445.641	668.66
446.081	666.83
446.52	672.02
446.959	667.69
447.398	653.44
447.837	647.91
448.276	635.64
448.716	639.69
449.154	645.47
449.593	633.11
450.032	632.85
450.471	622.37
450.91	623.97
451.349	625.83
451.787	623.21
452.226	633.42
452.664	634.49
453.103	637.28
453.541	639.95
453.98	641.81
454.418	646.22
454.856	636.44
455.295	635.74
455.733	641.42
456.171	644.66
456.609	646.89
457.047	647.49
457.485	658.94
457.923	660.95
458.361	653.02
458.798	653.92
459.236	653.12
459.674	658.26
460.111	661.73
460.549	655.79
460.987	653.43
461.424	651.7
461.862	648.17
462.299	637.17
462.736	638.02
463.173	639.61
463.611	634.51
464.048	633.21
464.485	637.19
464.922	630.06
465.359	625.64
465.796	619.99
466.233	615.5
466.67	610.51
467.106	608.58
467.543	600.43
467.98	593
468.416	576.9
468.853	572.08
469.29	555.77
469.726	550.07
470.162	536.87
470.599	526.84
471.035	520.95
471.471	508.56
471.907	505.98
472.344	503.57
472.78	505.64
473.216	512.39
473.652	506.52
474.088	504.59
474.523	504.95
474.959	510.04
475.395	506.67
475.831	504.21
476.266	507.07
476.702	505.75
477.138	500.95
477.573	498.44
478.008	496.63
478.444	499.12
478.879	504.1
479.314	505.69
479.75	504.7
480.185	507.01
480.62	511.89
481.055	514.99
481.49	519.45
481.925	526.99
482.36	537.4
482.795	552.21
483.229	567.15
483.664	579.72
484.099	581.83
484.534	591.98
484.968	599.09
485.403	601.71
485.837	602.25
486.271	601.46
486.706	602.94
487.14	596.57
487.574	587.89
488.009	583.46
488.443	578.82
488.877	585.84
489.311	588.04
489.745	594.87
490.179	601.05
490.613	612.27
491.046	617.99
491.48	623.52
491.914	625.85
492.348	631.81
492.781	636.14
493.215	639.17
493.648	640.91
494.082	647.46
494.515	648.7
494.948	657.15
495.382	662.35
495.815	667.43
496.248	672.69
496.681	684.69
497.114	695.18
497.547	706.15
497.98	719.87
498.413	727.89
498.846	738.23
499.279	747.96
499.711	752.39
500.144	755.62
500.577	767.14
501.009	779.51
501.442	790.15
501.874	793.74
502.306	796.81
502.739	805.45
503.171	820.26
503.603	824.83
504.036	834.81
504.468	842.41
504.9	855.06
505.332	862.66
505.764	867.57
506.196	875.35
506.627	890.6
507.059	904.04
507.491	912.5
507.923	911.47
508.354	925.99
508.786	937.18
509.217	954.15
509.649	968.9
510.08	987.5
510.512	1004.28
510.943	1018.29
511.374	1028.52
511.805	1047.21
512.237	1065.58
512.668	1096.18
513.099	1121.16
513.53	1146.47
513.961	1164.53
514.391	1193.32
514.822	1223.17
515.253	1255.19
515.684	1277.8
516.114	1303.45
516.545	1322.26
516.975	1343.63
517.406	1358.48
517.836	1358.51
518.267	1362.67
518.697	1377.13
519.127	1377.98
519.558	1382.55
519.988	1384.63
520.418	1392.33
520.848	1406.85
521.278	1412.59
521.708	1432.61
522.138	1441.52
522.567	1468.44
522.997	1489.04
523.427	1501.92
523.857	1515.96
524.286	1523.65
524.716	1534.36
525.145	1549.78
525.575	1559.22
526.004	1570.05
526.433	1556.72
526.863	1555.76
527.292	1544.58
527.721	1548.79
528.15	1553.87
528.579	1553.29
529.008	1561.98
529.437	1581.34
529.866	1592.54
530.295	1605.83
530.724	1617.52
531.152	1641.43
531.581	1652.96
532.01	1668.09
532.438	1673.6
532.867	1684.3
533.295	1701.6
533.723	1706.14
534.152	1704.38
534.58	1704.46
535.008	1689.57
535.436	1691.03
535.865	1697.43
536.293	1709.68
536.721	1723.82
537.149	1747.59
537.576	1750.36
538.004	1760.18
538.432	1767.26
538.86	1765.53
539.287	1770.98
539.715	1783.79
540.143	1785.3
540.57	1781.72
540.998	1778.46
541.425	1757.44
541.852	1737.93
542.28	1735.22
542.707	1720.37
543.134	1707.55
543.561	1702.63
543.988	1696.34
544.415	1695.39
544.842	1690.18
545.269	1683.08
545.696	1685.19
546.123	1697.34
546.549	1687.24
546.976	1675.62
547.403	1675.03
547.829	1675.8
548.256	1677.33
548.682	1673.24
549.108	1666.36
549.535	1665.57
549.961	1666.83
550.387	1654.6
550.813	1650.03
551.24	1655.94
551.666	1657.87
552.092	1648.88
552.518	1642.75
552.943	1638.69
553.369	1645.64
553.795	1650.71
554.221	1652.22
554.646	1650.82
555.072	1660.57
555.498	1664.94
555.923	1673.59
556.349	1687.1
556.774	1695.59
557.199	1698.33
557.625	1703.68
558.05	1698.47
558.475	1708.57
558.9	1708.64
559.325	1701.8
559.75	1696.93
560.175	1691.55
560.6	1686.97
561.025	1685.37
561.449	1686.79
561.874	1692.37
562.299	1697.73
562.723	1706.47
563.148	1698.49
563.572	1703.82
563.997	1714.27
564.421	1720.7
564.846	1722.41
565.27	1726.98
565.694	1726.57
566.118	1739.52
566.542	1748.74
566.966	1744.93
567.39	1741.68
567.814	1733.41
568.238	1733.14
568.662	1738.26
569.086	1742.09
569.509	1750.8
569.933	1738.8
570.357	1734.14
570.78	1715.84
571.204	1704.66
571.627	1695.49
572.05	1695.09
572.474	1695.75
572.897	1685.25
573.32	1680.43
573.743	1672.06
574.166	1655.9
574.589	1657.69
575.012	1651.64
575.435	1651.48
575.858	1643.79
576.281	1634.5
576.704	1620.64
577.126	1610.47
577.549	1602.59
577.972	1595.01
578.394	1587.31
578.817	1582.3
579.239	1563.64
579.661	1551.42
580.084	1537.61
580.506	1526.25
580.928	1523.27
581.35	1513.77
581.772	1509.89
582.194	1496.24
582.616	1483.69
583.038	1470.32
583.46	1460.47
583.882	1459.07
584.303	1463.75
584.725	1459.99
585.147	1463.08
585.568	1473.48
585.99	1485.74
586.411	1493.82
586.833	1509.15
587.254	1511.86
587.675	1526.17
588.096	1539.5
588.518	1534.2
588.939	1518.73
589.36	1517.83
589.781	1507.74
590.202	1480.77
590.623	1472.81
591.043	1470.79
591.464	1459.07
591.885	1455.63
592.305	1450.82
592.726	1436.76
593.147	1438.57
593.567	1433.76
593.987	1427.45
594.408	1422.27
594.828	1420.77
595.248	1415.57
595.669	1398.39
596.089	1392.3
596.509	1386.16
596.929	1372.92
597.349	1374.29
597.769	1364.6
598.189	1359.04
598.608	1360.95
599.028	1363.7
599.448	1364.3
599.867	1352.41
600.287	1347.74
600.706	1343.79
601.126	1335.33
601.545	1334.36
601.965	1333.09
602.384	1329.18
602.803	1331.69
603.222	1326.01
603.641	1319.47
604.061	1315.93
604.48	1312.23
604.898	1320.25
605.317	1324.68
605.736	1326.45
606.155	1325.17
606.574	1317.51
606.992	1322.19
607.411	1318.04
607.829	1311.1
608.248	1307.82
608.666	1305.6
609.085	1304.74
609.503	1296.26
609.921	1291.38
610.339	1293.03
610.758	1291.47
611.176	1286.4
611.594	1278.01
612.012	1274.98
612.43	1277.78
612.847	1284.22
613.265	1284.92
613.683	1289.49
614.101	1291.05
614.518	1286.74
614.936	1276.53
615.353	1262.96
615.771	1260.23
616.188	1260.25
616.606	1257.07
617.023	1251.24
617.44	1237.95
617.857	1231.78
618.274	1222.86
618.691	1217.29
619.108	1208.99
619.525	1204.08
619.942	1210.36
620.359	1212.42
620.776	1208.11
621.192	1204.82
621.609	1201.95
622.026	1208.57
622.442	1214.2
622.859	1217.56
623.275	1210.44
623.691	1215.75
624.108	1226.42
624.524	1238.97
624.94	1239.31
625.356	1248.29
625.772	1260.35
626.188	1272.31
626.604	1273.55
627.02	1270.51
627.436	1270.19
627.852	1277.33
628.268	1288.58
628.683	1280.23
629.099	1272.87
629.514	1267.84
629.93	1272.36
630.345	1276.74
630.761	1272.77
631.176	1276.54
631.591	1270.96
632.007	1264.59
632.422	1263.14
632.837	1252.69
633.252	1251.5
633.667	1242.64
634.082	1234.96
634.497	1223.14
634.911	1204.76
635.326	1201.78
635.741	1185.45
636.155	1176.86
636.57	1178.39
636.984	1178.78
637.399	1181.72
637.813	1181.11
638.228	1180.07
638.642	1185.44
639.056	1175.69
639.47	1176.68
639.884	1169.25
640.298	1164.59
640.712	1164.14
641.126	1153.13
641.54	1145.24
641.954	1140.36
642.368	1129.01
642.781	1122.35
643.195	1104.95
643.609	1105.67
644.022	1101.09
644.436	1097.17
644.849	1085.81
645.262	1072.99
645.676	1074.61
646.089	1069.75
646.502	1056.38
646.915	1052.61
647.328	1036.66
647.741	1034.15
648.154	1021.51
648.567	1017.63
648.98	1003.74
649.393	1002.45
649.805	999.34
650.218	991.09
650.631	975.32
651.043	966.16
651.456	958.53
651.868	956.69
652.28	972.77
652.693	984.41
653.105	988.91
653.517	997.71
653.929	997.73
654.341	1001.28
654.753	988.3
655.165	991.88
655.577	988.06
655.989	981.85
656.401	972.57
656.813	936.52
657.224	915.39
657.636	885.44
658.047	866.69
658.459	845.99
658.87	835.39
659.282	821.79
659.693	800.87
660.104	785.65
660.515	770.06
660.926	767.2
661.338	761.92
661.749	754.75
662.159	745.1
662.57	737.74
662.981	731.33
663.392	722.16
663.803	723.48
664.213	718.9
664.624	712.18
665.035	713.2
665.445	697.21
665.855	688.21
666.266	677.88
666.676	673.32
667.086	663.79
667.497	660.91
667.907	653.7
668.317	643.38
668.727	639.98
669.137	639.16
669.547	634.68
669.956	635.86
670.366	637.04
670.776	638.14
671.186	640.34
671.595	642.52
672.005	644.04
672.414	642.29
672.824	641.43
673.233	642.99
673.642	644.31
674.052	645.97
674.461	646.76
674.87	649.76
675.279	646.26
675.688	646.97
676.097	647.64
676.506	644.11
676.915	655.48
677.323	657.01
677.732	655.06
678.141	654.65
678.549	647.36
678.958	648.01
679.366	647.89
679.775	653.04
680.183	663.5
680.592	669.9
681	676.61
681.408	672.09
681.816	680.81
682.224	690.83
682.632	702.14
683.04	729.66
683.448	752.28
683.856	781.04
684.264	815.03
684.671	846.06
685.079	883.05
685.487	924.87
685.894	984.16
686.302	1031.78
686.709	1072.85
687.116	1121.45
687.524	1161.51
687.931	1196.45
688.338	1225.96
688.745	1249.75
689.152	1278.7
689.559	1316.51
689.966	1353.33
690.373	1369.27
690.78	1402.92
691.187	1455.21
691.593	1491.67
692	1524.92
692.407	1574.31
692.813	1636.38
693.22	1684.02
693.626	1731.32
694.032	1770.17
694.439	1832.21
694.845	1877.87
695.251	1937.61
695.657	1988.46
696.063	2068.56
696.469	2124.59
696.875	2176.27
697.281	2201.99
697.687	2235.36
698.093	2264.44
698.498	2322.58
698.904	2363.89
699.31	2433.69
699.715	2480.93
700.12	2552.97
700.526	2562.72
700.931	2616.62
701.337	2656.33
701.742	2678.14
702.147	2743.86
702.552	2763.05
702.957	2806.94
703.362	2818.61
703.767	2836.34
704.172	2864.29
704.577	2820.26
704.981	2853.33
705.386	2862
705.791	2851.28
706.195	2909.93
706.6	2914.14
707.004	2975.09
707.408	2945.28
707.813	2966.69
708.217	2951.53
708.621	2948.41
709.025	3025.55
709.43	3024.45
709.834	3070.73
710.237	3125.43
710.641	3109.41
711.045	3124.17
711.449	3118.96
711.853	3142.49
712.256	3172.09
712.66	3203.11
713.064	3264.93
713.467	3296.82
713.87	3386.76
714.274	3421.55
714.677	3509.58
715.08	3641.42
715.484	3778.2
715.887	3942.06
716.29	4097.87
716.693	4264.35
717.096	4457.75
717.499	4561.25
717.901	4578.4
718.304	4597.18
718.707	4617.37
719.109	4529.92
719.512	4500.53
719.915	4387.67
720.317	4339.79
720.719	4378.37
721.122	4353.97
721.524	4311.47
721.926	4277.29
722.328	4358.23
722.731	4350.03
723.133	4367.67
723.535	4522.16
723.937	4536.39
724.338	4574.31
724.74	4603.29
725.142	4563.62
725.544	4562.18
725.945	4587.57
726.347	4578.78
726.748	4572.56
727.15	4581.53
727.551	4551.01
727.952	4526.78
728.354	4502.69
728.755	4503.08
729.156	4469.04
729.557	4441.68
729.958	4339.53
730.359	4287.18
730.76	4270.95
731.161	4219.65
731.562	4198.11
731.962	4199.61
732.363	4147.23
732.763	4095.47
733.164	4121.87
733.564	4065.91
733.965	3988.48
734.365	3959.79
734.766	3980.78
735.166	3948.95
735.566	3902.96
735.966	3880.33
736.366	3874.22
736.766	3823.3
737.166	3845.66
737.566	3814.65
737.966	3793.01
738.365	3824.21
738.765	3820.58
739.165	3761.09
739.564	3740.56
739.964	3777.51
740.363	3740.58
740.763	3739.42
741.162	3733.07
741.561	3706.92
741.96	3667.95
742.36	3684.38
742.759	3687.5
743.158	3715.83
743.557	3727.26
743.955	3759.06
744.354	3721.62
744.753	3766.53
745.152	3732.42
745.55	3773.66
745.949	3768.34
746.348	3770.46
746.746	3782.46
747.144	3752.1
747.543	3734.78
747.941	3774.7
748.339	3718.12
748.737	3712.83
749.136	3704.68
749.534	3756.5
749.932	3734.72
750.33	3753.4
750.727	3797.74
751.125	3778.01
751.523	3764.75
751.921	3800.08
752.318	3771.06
752.716	3818.32
753.113	3829.58
753.511	3849.78
753.908	3850.01
754.305	3836.82
754.703	3887.13
755.1	3936.78
755.497	3984.77
755.894	4135.18
756.291	4278.71
756.688	4542.41
757.085	4890.65
757.482	5382.97
757.878	5924.58
758.275	6408.75
758.672	7075.47
759.068	7618.24
759.465	8391.96
759.861	9391.54
760.258	10551.36
760.654	11143.77
761.05	11053.91
761.447	10552.72
761.843	9824.63
762.239	9065.6
762.635	8726.35
763.031	8399.84
763.427	7931.42
763.822	7438.22
764.218	6954.04
764.614	6320.26
765.01	5894.79
765.405	5621.94
765.801	5415.75
766.196	5146.76
766.592	4997.85
766.987	4749.69
767.382	4579.89
767.778	4510.82
768.173	4408.42
768.568	4349.85
768.963	4251.51
769.358	4267.47
769.753	4229.25
770.148	4163.35
770.542	4164.16
770.937	4140.18
771.332	4211.21
771.726	4229.69
772.121	4177.93
772.515	4220.76
772.91	4208.37
773.304	4264.44
773.699	4211.34
774.093	4255.16
774.487	4295.63
774.881	4329.2
775.275	4329.18
775.669	4297.19
776.063	4330.88
776.457	4360.75
776.851	4297.45
777.245	4294.67
777.638	4322.78
778.032	4416.41
778.425	4385.56
778.819	4423.34
779.212	4391.45
779.606	4358.34
779.999	4375.19
780.392	4362.57
780.786	4430.81
781.179	4451.92
781.572	4485.82
781.965	4494.98
782.358	4449.86
782.751	4497.67
783.143	4456.19
783.536	4515.11
783.929	4549.6
784.322	4639.9
784.714	4664.97
785.107	4657.92
785.499	4714.89
785.891	4697.52
786.284	4682.71
786.676	4797.17
787.068	4779.65
787.46	4822.66
787.852	4837.67
788.245	4908.24
788.636	4933.78
789.028	4989.39
789.42	5020.76
789.812	5028.71
790.204	5105.24
790.595	5184.64
790.987	5024.34
791.378	5042.58
791.77	5144.62
792.161	5250.59
792.553	5292.43
792.944	5202.97
793.335	5145.69
793.726	5204.65
794.117	5273.49
794.508	5381.49
794.899	5356.87
795.29	5469.34
795.681	5513.53
796.072	5400.38
796.463	5263.3
796.853	5272.39
797.244	5397.9
797.634	5423.93
798.025	5420.81
798.415	5432.16
798.806	5501.04
799.196	5570.41
799.586	5612.84
799.976	5585.99
800.366	5772.93
800.756	5954.02
801.146	5922.18
801.536	5947.45
801.926	6007.3
802.316	6032.6
802.706	6088.72
803.095	5994.78
803.485	6079.77
803.874	6115.74
804.264	6320.99
804.653	6295.53
805.043	6413.65
805.432	6502.73
805.821	6499.17
806.21	6515.31
806.599	6606.12
806.988	6639.62
807.377	6722.45
807.766	6818.47
808.155	7035.06
808.544	6828.15
808.933	6842.75
809.321	6826.4
809.71	7056.77
810.098	7186.23
810.487	7553.38
810.875	7935.29
811.264	7955.87
811.652	8190.2
812.04	8311.11
812.428	8443.52
812.816	9050.8
813.204	9376.5
813.592	9816.27
813.98	10086.66
814.368	10011.49
814.756	10389.91
815.144	10324.89
815.531	10699.5
815.919	10635.77
816.306	10871.92
816.694	10632.58
817.081	10674.81
817.469	10953.33
817.856	10942.97
818.243	11159.03
818.63	11469.71
819.017	11137.09
819.404	11187.69
819.791	11485.22
820.178	11971.66
820.565	12177.72
820.952	12914.4
821.339	12521.41
821.725	12667.53
822.112	12080.53
822.498	12041.08
822.885	12142.59
823.271	12065.53
823.657	12398.69
824.044	12399.54
824.43	12454.89
824.816	12430.59
825.202	12088.46
825.588	12889.89
825.974	12909.2
826.36	13320.87
826.746	13347.09
827.132	13627.36
827.517	13609.3
827.903	12986.8
828.289	13023.05
828.674	12407.77
829.06	12319.94
829.445	12630.69
829.83	12922.36
830.216	13290.65
830.601	13586.54
830.986	13264.25
831.371	13154.98
831.756	13601.07
832.141	13267.63
832.526	13260.25
832.911	13485.89
833.295	13397.46
833.68	13768.56
834.065	13279.67
834.449	12565.06
834.834	12501.57
835.218	12499.88
835.603	12777.29
835.987	12604.73
836.371	13263.6
836.755	13188.47
837.139	13508.53
837.524	13702.53
837.908	13565.8
838.291	13615.12
838.675	13671.49
839.059	13837.67
839.443	13825.78
839.827	13646.5
840.21	14033.95
840.594	13919.07
840.977	14078.2
841.361	14060.19
841.744	14354.69
842.127	14221.25
842.511	14409.5
842.894	14873.67
843.277	15181.36
843.66	15611.08
844.043	15677.59
844.426	15032.86
844.809	14780.01
845.191	14807.19
845.574	14442.66
845.957	14158.51
846.339	14083.64
846.722	13676.99
847.104	13739.18
847.487	13592.07
847.869	13608.37
848.252	13819.41
848.634	14086.2
849.016	14295.2
849.398	14397.04
849.78	15073.11
850.162	15076.56
850.544	15403.74
850.926	15892.05
851.307	15813.75
851.689	16037.68
852.071	16398.64
852.452	16655.15
852.834	16637.65
853.215	16961.79
853.597	17085.97
853.978	17317.14
854.359	17679.11
854.741	16893.03
855.122	16811.91
855.503	16587.82
855.884	16698.15
856.265	16646.72
856.646	16746.24
857.026	16433.67
857.407	16380.67
857.788	16508.88
858.169	16733.43
858.549	16061.34
858.93	16557.81
859.31	16599.98
859.69	16768.8
860.071	16444.57
860.451	16271.68
860.831	15682.9
861.211	16605.26
861.591	17030.55
861.971	17006.09
862.351	17162.68
862.731	17466.87
863.111	17682.23
863.491	17949.83
863.87	18639.32
864.25	18917.23
864.629	18610.92
865.009	19015.62
865.388	19702.45
865.768	21125.51
866.147	21040.68
866.526	19886.5
866.905	20121
867.284	21225.22
867.663	20146.51
868.042	19305.63
868.421	19242.49
868.8	19551.1
869.179	19736.35
869.558	18572.33
869.936	17109
870.315	17405.31
870.693	17824.74
871.072	19223.07
871.45	18323.1
871.828	18557.49
872.207	19517.35
872.585	19227.34
872.963	19741.96
873.341	19077.56
873.719	18859.93
874.097	18633.59
874.475	18994.26
874.853	19428.45
875.23	18622.15
875.608	19398.4
875.986	20981.39
876.363	20059.94
876.741	20670.55
877.118	20160.86
877.495	21148.73
877.873	21508.28
878.25	22634.08
878.627	21702.9
879.004	22004.46
879.381	21889.5
879.758	21313.49
880.135	19843.1
880.512	20978.96
880.889	20417.42
881.265	20203.52
881.642	20027.96
882.019	20353.62
882.395	19949.15
882.772	20749.84
883.148	19846.97
883.524	19774.54
883.901	19663.02
884.277	19960.57
884.653	19843.49
885.029	20428.67
885.405	22636.84
885.781	22463.3
886.157	21542.35
886.532	21799.26
886.908	21781.55
887.284	24228.2
887.659	25026.91
888.035	25806.24
888.411	26466.13
888.786	26814.45
889.161	27742.96
889.537	27232.6
889.912	28109.04
890.287	28087.03
890.662	28815.42
891.037	28297.54
891.412	26393.85
891.787	26127.71
892.162	25221.5
892.536	25813.55
892.911	24847.01
893.286	24313.75
893.66	23328.9
894.035	23917.67
894.409	26040.9
894.784	25002.54
895.158	25409.35
895.532	26897.22
895.906	27634.74
896.281	28282.9
896.655	27829.99
897.029	31797.57
897.402	33122.6
897.776	36868.47
898.15	36747.63
898.524	36355.61
898.898	36809.72
899.271	41244.55
899.645	35729.39
900.018	34289.86
900.392	35536.53
900.765	35808.59
901.138	33140.41
901.511	32634.34
901.884	29964.84
902.258	27632.64
902.631	28546.28
903.003	32852.24
903.376	29629.28
903.749	33229.99
904.122	35583.6
904.495	39206.87
904.867	39729.78
905.24	34490.2
905.612	32104.45
905.985	32823.34
906.357	34336.81
906.729	32776.33
907.102	28006.61
907.474	26938.7
907.846	27106.77
908.218	26764.84
908.59	23656.66
908.962	22866.32
909.334	24629.02
909.705	25872.31
910.077	25118.53
910.449	26128.29
910.82	26857.16
911.192	29550.54
911.563	30716.06
911.935	32876.26
912.306	32890.2
912.677	33965.15
913.048	33670.33
913.419	36506.77
913.79	36724.02
914.161	39387.96
914.532	37672.2
914.903	34623.8
915.274	32891.68
915.645	32412.19
916.015	28537.61
916.386	27233.14
916.756	28975.79
917.127	29868.45
917.497	26688.54
917.868	29064.75
918.238	27623.56
918.608	28418.38
918.978	28997.46
919.348	30718.51
919.718	31722.93
920.088	30541.41
920.458	31722.98
920.828	33382.29
921.198	31644.19
921.567	33808.93
921.937	26165.96
922.306	26400.26
922.676	28466.99
923.045	23781.11
923.415	22586.89
923.784	20575.59
924.153	21162.72
924.522	21152.17
924.891	19887.21
925.26	21301.08
925.629	20819.18
925.998	23938.28
926.367	23383.76
926.736	22282.1
927.104	26517.43
927.473	28523.01
927.842	34441.38
928.21	34108.11
928.578	35842.02
928.947	33900.17
929.315	34123.88
929.683	40002.83
930.051	40324.63
930.42	46795.75
930.788	39990.84
931.156	39672.58
931.523	37196.45
931.891	34374.97
932.259	33032.78
932.627	38263.63
932.994	54112.74
933.362	44738.8
933.729	38848.1
934.097	37188.91
934.464	31502.41
934.831	36369.61
935.199	35882.51
935.566	34772.87
935.933	35342
936.3	42820.81
936.667	33381.87
937.034	30161.94
937.401	29836.88
937.767	25769.15
938.134	22943.13
938.501	32364.91
938.867	34482.91
939.234	58315.55
939.6	49799.84
939.967	54723.49
940.333	36638.67
940.699	31138.79
941.065	24958.79
941.431	32728.22
941.798	31530.13
942.163	41427.48
942.529	25871.88
942.895	23832.02
943.261	15422.43
943.627	20236.34
943.992	17711.99
944.358	17723.16
944.723	17804.81
945.089	17378.46
945.454	16074.09
945.82	17170.4
946.185	16498.21
946.55	19113.26
946.915	17131.74
947.28	20084.05
947.645	17666.71
948.01	16321.78
948.375	17022.72
948.74	20409.36
949.104	23758.6
949.469	34258.86
949.834	60460.9
950.198	57317.88
950.562	34367.89
950.927	28653.38
951.291	34488.9
951.655	29375.22
952.02	27553.35
952.384	20835.89
952.748	18150.26
953.112	17707.36
953.476	15383.52
953.839	14227.16
954.203	14089.06
954.567	17604.65
954.931	27699.79
955.294	23674.7
955.658	23817.99
956.021	40518.65
956.385	68686.78
956.748	101353.76
957.111	157058.71
957.474	176456.78
957.837	198819.48
958.2	150391.65
958.563	54078.26
958.926	36581.6
959.289	55563.85
959.652	62138.78
960.015	46601.28
960.377	66880.77
960.74	76365.62
961.102	131826.97
961.465	141433.89
961.827	75918.35
962.189	145629.56
962.552	100987.94
962.914	80931.39
963.276	52488.44
963.638	43394.46
964	42965.17
964.362	29056.28
964.724	28058.54
965.085	20023.92
965.447	16433.38
965.809	18680.2
966.17	18711.69
966.532	20267.83
966.893	18588.92
967.255	16922.58
967.616	19952.09
967.977	15981.62
968.338	17474.31
968.699	14359.77
969.061	14368.05
969.421	14484.98
969.782	16280.95
970.143	13753.36
970.504	14250.3
970.865	16213.79
971.225	16584.08
971.586	16234.62
971.946	23140.28
972.307	20051.83
972.667	26218.09
973.027	26988.97
973.388	32682.72
973.748	22209.27
974.108	24189.92
974.468	32725.65
974.828	25247.55
975.188	19435.16
975.548	17854.26
975.907	14999.02
976.267	16835.66
976.627	14148.34
976.986	14659
977.346	13980.72
977.705	13439.86
978.064	12241.04
978.424	10179.88
978.783	10505.38
979.142	11995.01
979.501	11480.61
979.86	12141.89
980.219	11679.89
980.578	15056.21
980.937	16872.97
981.296	15032.6
981.654	15468.63
982.013	24024.04
982.371	31185.7
982.73	29152.77
983.088	32972.37
983.447	35181.63
983.805	50247.93
984.163	105181.62
984.521	116792.73
984.879	171235.78
985.237	-278244.94
985.595	268921.89
985.953	66952.93
986.311	38651.74
986.669	22432.67
987.026	19363.36
987.384	26034.69
987.741	26895.95
988.099	19209.22
988.456	15317.84
988.814	14363.44
989.171	12509.01
989.528	12325.71
989.885	13017.94
990.242	10323.8
990.599	12873.63
990.956	10526.79
991.313	7369.12
991.67	6056.3
992.027	6443.92
992.383	5742.19
992.74	5032.99
993.096	5276
993.453	5454.89
993.809	5660.08
994.165	7528.85
994.522	6922.63
994.878	7622.43
995.234	9555.96
995.59	9427.9
995.946	8900.18
996.302	10132.8
996.658	11716.9
997.013	12919.18
997.369	15349.05
997.725	19639.81
998.08	12750.55
998.436	19625.75
998.791	27156.09
999.147	27153.7
999.502	29595.33
999.857	21498.28
1000.212	34994.98
1000.567	49765.47
1000.922	28667.76
1001.277	18275.83
1001.632	13539.04
1001.987	17408.09
1002.342	12482.46
1002.696	9990.37
1003.051	7979.35
1003.406	9712.32
1003.76	9694
1004.114	9588.81
1004.469	8073
1004.823	6690.79
1005.177	7204.97
1005.531	5709.54
1005.885	5071.35
1006.239	5728.15
1006.593	7161.23
1006.947	9565.01
1007.301	7156.34
1007.655	7790.94
1008.008	5702.77
1008.362	6403.75
1008.715	9146.94
1009.069	8287.76
1009.422	12525.25
1009.776	25082.6
1010.129	16565.38
1010.482	13862.87
1010.835	11732.25
1011.188	24342.83
1011.541	22893.44
1011.894	-140149.9
1012.247	413387.4
1012.6	28179.3
1012.952	17811.68
1013.305	9129.83
1013.657	6601.73
1014.01	6284.92
1014.362	5178.8
1014.715	4603.73
1015.067	4021.31
1015.419	3933.35
1015.771	3490.47
1016.123	3104.59
1016.475	3191.75
1016.827	3416.91
1017.179	3678.53
1017.531	3699.31
1017.883	3764.64
1018.234	3660.03
1018.586	4625.87
1018.938	4909.29
1019.289	6783.34
1019.64	7715.15
1019.992	7187.24
1020.343	6567.52
1020.694	5207.32
1021.045	4595.67
1021.396	5238.77
1021.747	5631.11
1022.098	6729.99
1022.449	4896.52
1022.8	4548
1023.151	3166.43
1023.501	2822.65
1023.852	3045.06
1024.202	3174.44
1024.553	3447.9
1024.903	3390.74
1025.253	2911.54
1025.604	2624.51
1025.954	3261.27
1026.304	3946.74
1026.654	4603.53
1027.004	6749.54
1027.354	10902.66
1027.703	10395.85
1028.053	13610.93
1028.403	19909.77
1028.753	28706.74
1029.102	38907.25
1029.452	199155.31
1029.801	8536.02
1030.15	5526.63
1030.499	4653.68
897.758	2746.95
901.051	2706.38
904.343	2743.41
907.636	2743.02
910.928	2807.78
914.22	2712.74
917.511	2722.96
920.803	2790.41
924.094	2812.45
927.384	2789.93
930.675	2751.99
933.965	2702.52
937.255	2711.63
940.544	2678.19
943.834	2607.93
947.123	2554.55
950.411	2654.56
953.7	2624.46
956.988	2589.26
960.276	2529.67
963.563	2617.56
966.851	2611.9
970.138	2672.14
973.424	2660.87
976.711	2611.64
979.997	2756.36
983.283	2788.48
986.568	2690.08
989.853	2712.4
993.138	2737.79
996.423	2820.22
999.708	2753.99
1002.992	2828.28
1006.275	2650.94
1009.559	2702.26
1012.842	2817.61
1016.125	2750.76
1019.408	2729.67
1022.69	2822.21
1025.972	2838.31
1029.254	2814.28
1032.536	2741.87
1035.817	2771.76
1039.098	2706.16
1042.379	2866.89
1045.659	2861.75
1048.939	2792.89
1052.219	2814.85
1055.498	2830.72
1058.778	2811.95
1062.057	2797.86
1065.335	2817.63
1068.614	2839.7
1071.892	2817.93
1075.17	2898.82
1078.447	2888.38
1081.724	2877.84
1085.001	2915.26
1088.278	2888.97
1091.554	2902.53
1094.83	2901.13
1098.106	2926.07
1101.382	2975.62
1104.657	2975.23
1107.932	2968.68
1111.206	2932.21
1114.481	2887.28
1117.755	2891.87
1121.029	2872.7
1124.302	2924.31
1127.575	2871.43
1130.848	2856.61
1134.121	2814.39
1137.393	2763.35
1140.665	2830.83
1143.937	2806.98
1147.208	2768.14
1150.48	2804.79
1153.75	2790.13
1157.021	2826.18
1160.291	2795.19
1163.561	2839.33
1166.831	2834.53
1170.101	2868.77
1173.37	2845.4
1176.639	2787.84
1179.907	2848.88
1183.176	2854.01
1186.444	2862.71
1189.711	2891.2
1192.979	2901.71
1196.246	2858.32
1199.513	2876.08
1202.78	2871.32
1206.046	2882.25
1209.312	2905.95
1212.578	2934.04
1215.843	2884.2
1219.108	2858.13
1222.373	2881.86
1225.638	2845.15
1228.902	2825.44
1232.166	2789.08
1235.43	2772.94
1238.693	2797.33
1241.956	2794.16
1245.219	2833.55
1248.482	2824.56
1251.744	2819.28
1255.006	2975.32
1258.268	2929.41
1261.529	2870.1
1264.79	2879.31
1268.051	2990.37
1271.312	3006.61
1274.572	2963.55
1277.832	2954.67
1281.092	2949.38
1284.351	2920.78
1287.61	2898.55
1290.869	2804.86
1294.128	2779.43
1297.386	2876.33
1300.644	2863.42
1303.902	2873.11
1307.159	2727.62
1310.416	2787.15
1313.673	2810.68
1316.93	2789.55
1320.186	2839.8
1323.442	2883.56
1326.697	2872.56
1329.953	2867.19
1333.208	2887.76
1336.463	2868.98
1339.717	2803.8
1342.972	2944.64
1346.226	2924.56
1349.479	2852.8
1352.733	2820.72
1355.986	2846.33
1359.238	2821.31
1362.491	2821.7
1365.743	2826.73
1368.995	2821.89
1372.247	2833.35
1375.498	2859.87
1378.749	2869.66
1382	2822.51
1385.251	2879.46
1388.501	2843.37
1391.751	2824.39
1395	2796.8
1398.25	2832.61
1401.499	2836.26
1404.748	2757.46
1407.996	2752.49
1411.244	2734.46
1414.492	2714.77
1417.74	2692.39
1420.987	2702.16
1424.234	2758.75
1427.481	2739.56
1430.728	2801.7
1433.974	2774.28
1437.22	2790.05
1440.465	2795.46
1443.711	2751.1
1446.956	2789.11
1450.201	2780.56
1453.445	2824.75
1456.689	2800.98
1459.933	2814.69
1463.177	2846.86
1466.42	2817.54
1469.663	2796.81
1472.906	2788.11
1476.148	2872.17
1479.391	2824.67
1482.633	2797.4
1485.874	2807.48
1489.115	2789.7
1492.356	2802.12
1495.597	2776.07
1498.838	2780.34
1502.078	2744.08
1505.318	2691.53
1508.557	2736.25
1511.797	2704.83
1515.036	2785.05
1518.274	2777.41
1521.513	2748.52
1524.751	2774.05
1527.989	2784.99
1531.227	2797.02
1534.464	2787.25
1537.701	2816.7
1540.938	2835.7
1544.174	2787.08
1547.41	2787.8
1550.646	2830.94
1553.882	2863.11
1557.117	2920.39
1560.352	2937.41
1563.587	2890.3
1566.821	2848.96
1570.055	2887.4
1573.289	2853.5
1576.523	2934.38
1579.756	2941.79
1582.989	2958.53
1586.222	2920.58
1589.454	2956.74
1592.686	2927.27
1595.918	2951.48
1599.15	2939.61
1602.381	3021.2
1605.612	2971.25
1608.843	3071.29
1612.073	2979.97
1615.303	2963.33
1618.533	2954.36
1621.762	2953.93
1624.992	2947.03
1628.221	2930.58
1631.449	2915.28
1634.678	2979.08
1637.906	2930.33
1641.134	2974.01
1644.361	2924.85
1647.588	2914.07
1650.815	2930.24
1654.042	2911.58
1657.269	2945.37
1660.495	2892.72
1663.72	2905.77
1666.946	2866.77
1670.171	2802.71
1673.396	2779.99
1676.621	2770.61
1679.845	2795.26
1683.069	2819.45
1686.293	2865.11
1689.517	2832.14
1692.74	2755.41
1695.963	2787.4
1699.185	2811.52
1702.408	2789.67
1705.63	2834.67
1708.852	2843.2
1712.073	2814.24
1715.294	2795.25
1718.515	2858.34
1721.736	2802.33
1724.956	2797.53
1728.176	2824.14
1731.396	2846.92
1734.616	2836.42
1737.835	2859.92
1741.054	2842.34
1744.272	2837.35
1747.491	2864.25
1750.709	2924.05
1753.927	2820.44
1757.144	2869.75
1760.361	2909.62
1763.578	2905.76
1766.795	2843.7
1770.011	2852.41
1773.227	2897.6
1776.443	2930.65
1779.658	2971.86
1782.874	2919.54
1786.089	2892.59
1789.303	2895.07
1792.518	2902.01
1795.732	2889.43
1798.945	2896.7
1802.159	2951.76
1805.372	2845.87
1808.585	2828.7
1811.797	2828.3
1815.01	2885.95
1818.222	2880.91
1821.434	2845.09
1824.645	2909.24
1827.856	2887.7
1831.067	2922.94
1834.278	2886.36
1837.488	2865.01
1840.698	3021.91
1843.908	2941.64
1847.117	2904
1850.326	2776.89
1853.535	2890.02
1856.744	2927.52
1859.952	2835.81
1863.16	2839.16
1866.368	2864.28
1869.575	2965.36
1872.782	2852.12
1875.989	2789.84
1879.196	2879.78
1882.402	2874.34
1885.608	2915.88
1888.814	2810.84
1892.019	2704.47
1895.224	2759.99
1898.429	2740.72
1901.634	2716.4
1904.838	2694.56
1908.042	2743.06
1911.246	2751.68
1914.449	2677.8
1917.652	2675.73
1920.855	2659.75
1924.058	2715.04
1927.26	2747.94
1930.462	2776.88
1933.664	2802.67
1936.865	2739.98
1940.066	2744.42
1943.267	2692.65
1946.467	2707.71
1949.668	2736.04
1952.868	2802.75
1956.067	2778.22
1959.267	2706.83
1962.466	2736.46
1965.665	2721.54
1968.863	2714.53
1972.061	2731.77
1975.259	2732.97
1978.457	2812.17
1981.654	2769.64
1984.852	2769.86
1988.048	2699.6
1991.245	2704.5
1994.441	2789.89
1997.637	2779.4
2000.833	2762.63
2004.028	2801.81
2007.223	2858.77
2010.418	2830.85
2013.613	2794.7
2016.807	2760.11
2020.001	2773.3
2023.194	2818.8
2026.388	2792.67
2029.581	2737.9
2032.774	2785.85
2035.966	2787.63
2039.158	2720.93
2042.35	2745.36
2045.542	2675.34
2048.733	2776.67
2051.924	2808.14
2055.115	2834.28
2058.306	2774.7
2061.496	2838.16
2064.686	2904.23
2067.875	2817.63
2071.065	2834.36
2074.254	2862.8
2077.442	2812.63
2080.631	2905.49
2083.819	2789.99
2087.007	2768.33
2090.195	2738.6
2093.382	2776.53
2096.569	2754.51
2099.756	2706.08
2102.942	2726.78
2106.128	2729.79
2109.314	2724.8
2112.5	2685.63
2115.685	2660.09
2118.87	2671.48
2122.055	2737.98
2125.239	2701.4
2128.424	2674.54
2131.608	2784.06
2134.791	2768.41
2137.974	2830.31
2141.157	2816.7
2144.34	2759.94
2147.523	2780.63
2150.705	2794.53
2153.887	2777.53
2157.068	2721.74
2160.25	2726.4
2163.431	2767.59
2166.611	2709.68
2169.792	2720.87
2172.972	2611.81
2176.152	2695.62
2179.331	2734.37
2182.511	2712.39
2185.69	2739.61
2188.868	2731.85
2192.047	2793.46
2195.225	2778.09
2198.403	2726.84
2201.58	2721.42
2204.758	2721.52
2207.935	2807.19
2211.111	2688.81
2214.288	2670.81
2217.464	2710.25
2220.64	2687.64
2223.815	2744.42
2226.991	2659.79
2230.166	2681.25
2233.34	2710.86
2236.515	2738.35
2239.689	2811.44
2242.863	2753.8
2246.036	2813.72
2249.209	2814.01
2252.382	2853.26
2255.555	2836.14
2258.727	2769.12
2261.9	2814
2265.071	2803.85
2268.243	2804.43
2271.414	2732.02
2274.585	2689.93
2277.756	2757.46
2280.926	2712.96
2284.096	2758.4
2287.266	2658.92
2290.436	2716.64
2293.605	2748.15
2296.774	2774.37
2299.942	2799.76
2303.111	2815.3
2306.279	2863.23
2309.447	2853.72
2312.614	2829.36
2315.781	2846.63
2318.948	2814.93
2322.115	2854.04
2325.281	2755.39
2328.447	2777.31
2331.613	2753.96
2334.779	2724.97
2337.944	2732.81
2341.109	2728.69
2344.274	2706.04
2347.438	2671.14
2350.602	2697.24
2353.766	2717.15
2356.929	2701.73
2360.092	2746.92
2363.255	2694.83
2366.418	2621.83
2369.58	2741.82
2372.742	2510.64
2375.904	2530.62
2379.066	2503.48
2382.227	2543.23
2385.388	2505.73
2388.548	2424.77
2391.709	2484.54
2394.869	2459.05
2398.029	2566.98
2401.188	2583.61
2404.347	2513.05
2407.506	2665.26
2410.665	2694.4
2413.823	2706.07
2416.981	2657.91
2420.139	2693.44
2423.296	2747.24
2426.453	2718.53
2429.61	2744.23
2432.767	2671.66
2435.923	2708.29
2439.079	2671.04
2442.235	2722.72
2445.391	2645.07
2448.546	2671.42
2451.701	2725.21
2454.855	2691.94
2458.009	2748.09
2461.163	2753.21
2464.317	2708.7
2467.471	2743.45
2470.624	2786.31
2473.777	2756.51
2476.929	2770.06
2480.082	2794.47
2483.234	2757.25
2486.385	2711.64
2489.537	2704.13
2492.688	2658.8
2495.839	2675.12
2498.989	2686.79
2502.14	2667.8
2505.29	2647.53
2508.439	2677.25
2511.589	2597.58
2514.738	2611.38
2517.887	2645.66
2521.035	2705.45
2524.183	2692.47
2527.331	2672
2530.479	2643.67
2533.627	2654.35
