Data from N_2_DEC_NC_4N_Splice17_12-25-18-407.txt Node
Date: Sat Mar 14 12:25:18 EDT 2020
User: sa697716
Spectrometer: FLMS03696
Trigger mode: 0
Integration Time (sec): 3.180400E-1
Scans to average: 20
Electric dark correction enabled: true
Nonlinearity correction enabled: true
Boxcar width: 5
XAxis mode: Wavelengths
Number of Pixels in Spectrum: 2048
>>>>>Begin Spectral Data<<<<<
187.83	-412733.97
188.298	2914.31
188.766	1451.58
189.233	1288.03
189.701	1925.76
190.169	2594.35
190.636	1008.95
191.104	746.22
191.571	145.75
192.039	-49.05
192.506	-97.11
192.974	326.09
193.441	-537.29
193.908	-235.42
194.375	-128.85
194.842	41.01
195.31	120.14
195.777	153.11
196.244	347.53
196.711	452.23
197.177	545.25
197.644	760.04
198.111	1315.01
198.578	1890.61
199.045	1552.49
199.511	2545.43
199.978	2911.56
200.445	2469.09
200.911	2734.75
201.378	3028.36
201.844	2723.53
202.31	4669.82
202.777	4900
203.243	2752.88
203.709	2598.84
204.176	3054.76
204.642	2505.88
205.108	2348.42
205.574	1900.73
206.04	1748.64
206.506	1628.63
206.972	1542.54
207.438	1490.91
207.903	1691.5
208.369	1458.12
208.835	1456.11
209.301	1520.87
209.766	1560.66
210.232	1543.95
210.697	1915.73
211.163	2357.05
211.628	3587.64
212.094	3015.07
212.559	3737.84
213.024	2336.28
213.49	2861.3
213.955	2785.19
214.42	2705.84
214.885	2520.9
215.35	2436.1
215.815	2361.54
216.28	2488.46
216.745	2017.04
217.21	2166.47
217.675	1960.52
218.14	2193.86
218.604	2439.48
219.069	2785.15
219.534	2934.05
219.998	3406.3
220.463	4090
220.927	5001.11
221.392	4732.28
221.856	4792.8
222.32	6023.07
222.785	7449.81
223.249	9352.2
223.713	10436.28
224.177	10418.19
224.642	13321.28
225.106	16367.14
225.57	17926.06
226.034	13334.12
226.497	20209.64
226.961	18222.26
227.425	21225.54
227.889	23499.18
228.353	23495.26
228.816	48471.02
229.28	46284.26
229.744	39080.48
230.207	23726.4
230.671	23296.84
231.134	38478.08
231.597	44343.17
232.061	44286.88
232.524	43099.33
232.987	29608.8
233.45	26622.06
233.914	23826.02
234.377	24368
234.84	22225.57
235.303	26152.94
235.766	29171.02
236.229	30063.81
236.691	18861.73
237.154	21140.75
237.617	15901.36
238.08	16273.72
238.542	18985.9
239.005	13575.11
239.468	13468.94
239.93	12700.43
240.393	11545
240.855	10117.29
241.317	10354.55
241.78	12604.58
242.242	13016.33
242.704	14048.05
243.166	12229.06
243.629	11115.17
244.091	12775.69
244.553	13973.19
245.015	15002.41
245.477	19390.06
245.939	28371.86
246.4	30071.78
246.862	29174.14
247.324	27480.53
247.786	30659.41
248.247	40141.43
248.709	41369.94
249.17	30875.52
249.632	29099.39
250.093	33651.12
250.555	29016.16
251.016	17689.87
251.477	16757.67
251.939	18063.94
252.4	18935
252.861	22483.78
253.322	20867.52
253.783	24794.87
254.244	32141.1
254.705	25311.49
255.166	22498.25
255.627	22101.18
256.088	31151.64
256.549	33064.48
257.009	28433.86
257.47	34443.15
257.931	28021.82
258.391	21008.5
258.852	21634.42
259.312	22658.57
259.773	27944.3
260.233	23610.23
260.694	19937.73
261.154	22606.14
261.614	18150.06
262.074	16230.63
262.534	16841.5
262.994	15866.57
263.455	21112.07
263.915	17762.67
264.374	16710.3
264.834	18222.2
265.294	20173.44
265.754	20866.62
266.214	19715.18
266.673	18445.17
267.133	23244.5
267.593	23051.25
268.052	28168.38
268.512	24458.56
268.971	29522.37
269.431	32383.16
269.89	28964.07
270.349	43376.78
270.809	48251.64
271.268	43368.71
271.727	97128.13
272.186	62864.95
272.645	47113.58
273.104	33964.11
273.563	49190.44
274.022	38593.68
274.481	32804.93
274.94	25272.78
275.399	18760.71
275.857	21837.96
276.316	29494.13
276.775	26230.32
277.233	25808.48
277.692	24156.13
278.15	27338.57
278.609	28094.09
279.067	26000.95
279.525	24153.45
279.984	31174.03
280.442	37434.03
280.9	36919.62
281.358	24279.23
281.816	22644.36
282.274	22192.23
282.732	22926.03
283.19	23017.44
283.648	19871.79
284.106	21157.02
284.564	21495.63
285.021	19961.6
285.479	14882.36
285.937	13542.51
286.394	11875.62
286.852	12204.95
287.309	12817.76
287.767	12371.25
288.224	11759.99
288.682	12903.06
289.139	14156.91
289.596	12943.4
290.053	13411.56
290.511	16909.53
290.968	20456.02
291.425	27717.89
291.882	23084.67
292.339	20067.86
292.796	19876.87
293.252	18686.04
293.709	14817.69
294.166	13281.33
294.623	14664.17
295.079	14047.08
295.536	14104.92
295.992	12791.87
296.449	12655.32
296.905	13143.9
297.362	12615.47
297.818	13254.19
298.274	13766.89
298.731	14012.7
299.187	13825.19
299.643	14830.99
300.099	17950.35
300.555	19673.83
301.011	16435.12
301.467	15836.54
301.923	18472.6
302.379	18005.34
302.835	17692.97
303.291	17683.54
303.746	20129.76
304.202	25449.02
304.658	25550.23
305.113	17176.66
305.569	16816.23
306.024	17930.07
306.479	17034.66
306.935	14382.78
307.39	15695.64
307.845	14484.09
308.301	14599.38
308.756	14206.05
309.211	13698.68
309.666	14034.63
310.121	17429.56
310.576	17677.41
311.031	17524.97
311.486	20062.96
311.94	20029.76
312.395	26760.98
312.85	50355.69
313.305	246718.28
313.759	1278545.61
314.214	92538.94
314.668	73322.86
315.123	61553.58
315.577	22076.98
316.032	19644.26
316.486	24601.72
316.94	19395.67
317.394	13524.95
317.849	10477.62
318.303	9916.85
318.757	9355.8
319.211	10328.03
319.665	9042.96
320.119	9149.31
320.572	13103.85
321.026	12230.12
321.48	10173.7
321.934	11078.1
322.387	11077.56
322.841	11992.43
323.295	10809.33
323.748	12406.15
324.202	12573.32
324.655	15088.71
325.108	21114.22
325.562	14916.54
326.015	17723.93
326.468	13418.01
326.921	15003.97
327.374	13991.36
327.827	14580.02
328.28	16486.93
328.733	11070.11
329.186	9751.29
329.639	9290.91
330.092	7824.72
330.545	7455.46
330.997	7525.47
331.45	8220.13
331.903	9651.6
332.355	16588.42
332.808	16090.14
333.26	13250.81
333.713	14369.79
334.165	14487.95
334.617	19300.59
335.069	15540.85
335.522	28054.04
335.974	30976.91
336.426	28251.2
336.878	19499.7
337.33	9890.38
337.782	9653.97
338.234	12119.94
338.686	14471.23
339.137	17082.48
339.589	16086.42
340.041	12613.39
340.493	10836.17
340.944	11087.94
341.396	11960.68
341.847	10095.58
342.299	11932.53
342.75	14619.07
343.201	12715.75
343.653	14609.33
344.104	17954.2
344.555	14113.99
345.006	21976.76
345.457	16886.45
345.908	13424.29
346.359	12646.73
346.81	10274.57
347.261	10807.86
347.712	10580.05
348.163	11367.9
348.613	11558.25
349.064	10783.48
349.515	9442.41
349.965	9678.89
350.416	11652.61
350.866	12783.6
351.317	14402.25
351.767	23847.77
352.217	30120.06
352.668	25050.55
353.118	22919.85
353.568	22046.73
354.018	17433.33
354.468	18405.41
354.918	13221.24
355.368	11535.05
355.818	16280.31
356.268	46813.66
356.718	196022.93
357.168	48773.59
357.617	24506.59
358.067	27201.39
358.517	25528.12
358.966	29984.2
359.416	33694.6
359.865	36372.32
360.315	43180.43
360.764	20195.2
361.213	11301.05
361.663	10679.92
362.112	13185.25
362.561	21247.99
363.01	16037.93
363.459	13465.39
363.908	14554.07
364.357	12366.38
364.806	20844.97
365.255	14369.68
365.703	13212.39
366.152	13260.78
366.601	10796.25
367.05	8767.04
367.498	7984.77
367.947	8345.58
368.395	8678.8
368.844	7693.89
369.292	9234.05
369.74	6415.98
370.189	9836.19
370.637	11469.35
371.085	9889.88
371.533	12026.77
371.981	11575.31
372.429	11037.96
372.877	11488.82
373.325	9625.46
373.773	9800.27
374.221	8740.38
374.669	10755.65
375.116	9255.8
375.564	9345.02
376.012	10446.02
376.459	8605.91
376.907	10282.68
377.354	12394.55
377.801	11608.17
378.249	13357.45
378.696	17028.85
379.143	20565.79
379.591	22039.94
380.038	37391.7
380.485	27037.22
380.932	29209.28
381.379	26736.27
381.826	19751.38
382.273	14035.07
382.72	12195.55
383.166	11875.22
383.613	7695.21
384.06	6933.61
384.506	8006.42
384.953	5866.71
385.4	5895.39
385.846	5154.99
386.292	5012.67
386.739	4881.44
387.185	4814.7
387.631	4827.68
388.078	4696.78
388.524	5035.64
388.97	4662.13
389.416	3901.3
389.862	4154
390.308	3943.44
390.754	4011.73
391.2	4365.43
391.645	4483.79
392.091	4331.49
392.537	4203.4
392.983	4205.15
393.428	4165.48
393.874	4482.07
394.319	4515.8
394.765	4309.62
395.21	4439.98
395.655	4186.45
396.101	3932.38
396.546	3570.79
396.991	3594.37
397.436	3347.04
397.881	3254.42
398.326	3089.74
398.771	2936.78
399.216	2572.65
399.661	2327.99
400.106	2333.01
400.551	2401.02
400.995	2162.76
401.44	2141.1
401.885	2017.73
402.329	2048.14
402.774	1972.27
403.218	1919.86
403.663	1853.27
404.107	1910.61
404.551	1928.08
404.995	1770.17
405.44	1707.58
405.884	1730.92
406.328	1676.76
406.772	1677.92
407.216	1531.64
407.66	1479.15
408.104	1404.57
408.547	1319.38
408.991	1276.86
409.435	1229.95
409.879	1219.58
410.322	1207.03
410.766	1173.76
411.209	1125.63
411.653	1081.62
412.096	1059.67
412.54	1061.6
412.983	1054.66
413.426	1060.69
413.869	1062.65
414.312	1045.52
414.756	1007.06
415.199	960.54
415.642	934.67
416.085	933.71
416.527	928.24
416.97	944.32
417.413	899.1
417.856	890.14
418.298	879.97
418.741	872.96
419.184	870.95
419.626	905.02
420.069	904.17
420.511	908.89
420.953	891.27
421.396	882.39
421.838	859.62
422.28	877.79
422.722	884.52
423.164	895.39
423.606	882.14
424.048	879.15
424.49	835.43
424.932	833.18
425.374	821.83
425.816	833.38
426.258	850.28
426.699	859.24
427.141	848.58
427.582	858.17
428.024	855.01
428.465	847.77
428.907	827.86
429.348	819.32
429.789	820.16
430.231	804.49
430.672	814.85
431.113	797.04
431.554	787.78
431.995	766.92
432.436	743.51
432.877	728.16
433.318	720.05
433.759	717.24
434.2	717.04
434.64	707.45
435.081	708.3
435.522	672.89
435.962	648.63
436.403	635.04
436.843	644.97
437.284	631.54
437.724	613.97
438.164	613
438.604	598.69
439.045	579.32
439.485	559.19
439.925	549.39
440.365	536.18
440.805	532.4
441.245	528.2
441.685	510.09
442.125	506.13
442.564	510.61
443.004	501.85
443.444	504.43
443.883	506.33
444.323	502.94
444.762	503.13
445.202	512.08
445.641	523.87
446.081	521.59
446.52	526.96
446.959	525.05
447.398	516.55
447.837	512.81
448.276	505.15
448.716	511.46
449.154	518.23
449.593	509.87
450.032	510.76
450.471	499.84
450.91	502.69
451.349	505.2
451.787	504.38
452.226	512.51
452.664	513.36
453.103	515.09
453.541	515.83
453.98	517.63
454.418	522.98
454.856	516.07
455.295	517.53
455.733	521.84
456.171	525.17
456.609	527.55
457.047	527.11
457.485	536.88
457.923	540.7
458.361	533.52
458.798	534.88
459.236	534.08
459.674	538.01
460.111	541.24
460.549	537.24
460.987	534.32
461.424	532.26
461.862	531.92
462.299	523.14
462.736	521.66
463.173	523.8
463.611	519.91
464.048	519.15
464.485	524
464.922	518.66
465.359	515.41
465.796	512.73
466.233	510.33
466.67	506.89
467.106	507.95
467.543	503.48
467.98	497.21
468.416	485.15
468.853	481.22
469.29	466.41
469.726	463.32
470.162	452.03
470.599	443.66
471.035	438.74
471.471	427.25
471.907	423.35
472.344	420.69
472.78	423.23
473.216	427.27
473.652	422.83
474.088	422.22
474.523	421.07
474.959	424.65
475.395	422.61
475.831	421.69
476.266	424.72
476.702	424.37
477.138	420.72
477.573	419.43
478.008	418.27
478.444	421.66
478.879	427.68
479.314	429.29
479.75	429.55
480.185	431.02
480.62	434.61
481.055	437.08
481.49	441.19
481.925	448.2
482.36	457.56
482.795	470.26
483.229	482.22
483.664	492.64
484.099	495.64
484.534	504.42
484.968	511.46
485.403	513.73
485.837	513.93
486.271	513.85
486.706	515.09
487.14	508.9
487.574	503.22
488.009	499.86
488.443	495.98
488.877	503.27
489.311	506.79
489.745	513.6
490.179	520.7
490.613	533.23
491.046	539.68
491.48	546.04
491.914	550.06
492.348	556.53
492.781	562.72
493.215	567.06
493.648	570.36
494.082	578.29
494.515	582.73
494.948	592.93
495.382	600
495.815	608.45
496.248	617.22
496.681	632.1
497.114	646.18
497.547	659.69
497.98	676.54
498.413	687.87
498.846	701.37
499.279	713.78
499.711	722.39
500.144	730.86
500.577	746.03
501.009	762.06
501.442	778.27
501.874	785.5
502.306	793.35
502.739	807.38
503.171	827.67
503.603	837.12
504.036	854.13
504.468	867.24
504.9	885.23
505.332	897.74
505.764	909.49
506.196	922.55
506.627	944.03
507.059	964.37
507.491	979.49
507.923	984.61
508.354	1007.02
508.786	1023.27
509.217	1047.27
509.649	1068.45
510.08	1095.08
510.512	1117.42
510.943	1139.15
511.374	1157.43
511.805	1185.42
512.237	1211.32
512.668	1249.72
513.099	1284.45
513.53	1319.18
513.961	1345.43
514.391	1384.66
514.822	1424.51
515.253	1468.95
515.684	1499.93
516.114	1535.42
516.545	1561.23
516.975	1592.27
517.406	1616.08
517.836	1621
518.267	1630.58
518.697	1654.21
519.127	1660.47
519.558	1670.25
519.988	1675.48
520.418	1688.76
520.848	1709.53
521.278	1720.26
521.708	1737.55
522.138	1751.72
522.567	1787.83
522.997	1816.36
523.427	1833.39
523.857	1852.91
524.286	1865.43
524.716	1882.35
525.145	1904.07
525.575	1916.76
526.004	1933.54
526.433	1929.5
526.863	1929.53
527.292	1916.29
527.721	1922.84
528.15	1929.82
528.579	1929.32
529.008	1940.17
529.437	1966.07
529.866	1980.98
530.295	1999.91
530.724	2012.91
531.152	2043.33
531.581	2059.35
532.01	2079.37
532.438	2088.01
532.867	2103.84
533.295	2125.96
533.723	2132.07
534.152	2129.35
534.58	2129.17
535.008	2109.95
535.436	2111.49
535.865	2120.46
536.293	2137.12
536.721	2154.61
537.149	2183.36
537.576	2185.89
538.004	2199.21
538.432	2210.94
538.86	2209.09
539.287	2215.96
539.715	2232.57
540.143	2236.19
540.57	2230.79
540.998	2226.14
541.425	2199.76
541.852	2176.05
542.28	2172.94
542.707	2154.17
543.134	2135.44
543.561	2129.8
543.988	2121.02
544.415	2119.89
544.842	2113.42
545.269	2106.32
545.696	2108.57
546.123	2123.3
546.549	2110.65
546.976	2096.71
547.403	2094.83
547.829	2097.28
548.256	2099.92
548.682	2095.95
549.108	2086.94
549.535	2085.23
549.961	2086.27
550.387	2070.51
550.813	2063.9
551.24	2071.03
551.666	2071.05
552.092	2059.55
552.518	2052.88
552.943	2044.67
553.369	2052.78
553.795	2059.06
554.221	2060.26
554.646	2057.86
555.072	2070.21
555.498	2075.88
555.923	2085.92
556.349	2104.72
556.774	2116.86
557.199	2117.33
557.625	2124.6
558.05	2117.44
558.475	2130.41
558.9	2131.36
559.325	2121.39
559.75	2113.47
560.175	2106.7
560.6	2100.91
561.025	2098.59
561.449	2100.18
561.874	2107.62
562.299	2113.68
562.723	2123.82
563.148	2112.36
563.572	2116.77
563.997	2129.46
564.421	2137.16
564.846	2138.1
565.27	2143.62
565.694	2141.44
566.118	2156.02
566.542	2167.08
566.966	2161.42
567.39	2157.42
567.814	2146.28
568.238	2147.99
568.662	2155.5
569.086	2160.22
569.509	2171.22
569.933	2153.02
570.357	2146.61
570.78	2122.65
571.204	2106.84
571.627	2094.43
572.05	2093.35
572.474	2093.93
572.897	2078.16
573.32	2070.02
573.743	2058.9
574.166	2038.32
574.589	2040.48
575.012	2031.77
575.435	2032.43
575.858	2022.67
576.281	2010.53
576.704	1991.81
577.126	1977.73
577.549	1965.95
577.972	1954.17
578.394	1941.14
578.817	1932.03
579.239	1909.26
579.661	1893.19
580.084	1872.7
580.506	1857.23
580.928	1851.52
581.35	1838.05
581.772	1832.84
582.194	1817.83
582.616	1803.3
583.038	1788.64
583.46	1775.57
583.882	1770.71
584.303	1776.3
584.725	1771.38
585.147	1773.29
585.568	1786.38
585.99	1801.12
586.411	1808.62
586.833	1825.13
587.254	1826.81
587.675	1843.23
588.096	1858.76
588.518	1853.86
588.939	1834.16
589.36	1832.59
589.781	1821.62
590.202	1789.05
590.623	1779.89
591.043	1778.13
591.464	1764.05
591.885	1760.12
592.305	1753.08
592.726	1737.94
593.147	1740.42
593.567	1733.81
593.987	1725.42
594.408	1718.28
594.828	1716.12
595.248	1708.99
595.669	1686.4
596.089	1677.94
596.509	1669.38
596.929	1654.06
597.349	1654.56
597.769	1641.95
598.189	1634.49
598.608	1635.08
599.028	1638.37
599.448	1638.98
599.867	1623.36
600.287	1618.51
600.706	1613.38
601.126	1602.41
601.545	1601.08
601.965	1598.35
602.384	1591.72
602.803	1595.33
603.222	1589.82
603.641	1580.69
604.061	1575.01
604.48	1570.01
604.898	1579.65
605.317	1585.1
605.736	1586.06
606.155	1581.48
606.574	1570.76
606.992	1576.51
607.411	1570.2
607.829	1560.76
608.248	1557
608.666	1554.04
609.085	1553.26
609.503	1541.19
609.921	1532.99
610.339	1535.97
610.758	1534.15
611.176	1527.51
611.594	1516.66
612.012	1511.17
612.43	1513.46
612.847	1519.75
613.265	1519.79
613.683	1522.82
614.101	1524.38
614.518	1518.46
614.936	1505.46
615.353	1487.19
615.771	1482.85
616.188	1481.26
616.606	1476.61
617.023	1467.61
617.44	1449.7
617.857	1440.59
618.274	1429.79
618.691	1421.53
619.108	1410.15
619.525	1401.42
619.942	1408.73
620.359	1411.82
620.776	1405.17
621.192	1400.2
621.609	1396.75
622.026	1403.58
622.442	1409.59
622.859	1413.34
623.275	1405.18
623.691	1411.16
624.108	1424.43
624.524	1440.18
624.94	1439.58
625.356	1450.5
625.772	1464.21
626.188	1476.79
626.604	1479.47
627.02	1474.55
627.436	1471.92
627.852	1478.77
628.268	1491.84
628.683	1481.05
629.099	1471.19
629.514	1465.17
629.93	1469.99
630.345	1474.96
630.761	1469.79
631.176	1471.78
631.591	1465.02
632.007	1458.87
632.422	1456.52
632.837	1444.23
633.252	1440.18
633.667	1428.75
634.082	1418.25
634.497	1402.6
634.911	1380.51
635.326	1376.41
635.741	1358.1
636.155	1346.64
636.57	1346.32
636.984	1344.87
637.399	1346.06
637.813	1345.95
638.228	1342.27
638.642	1344.89
639.056	1331.62
639.47	1330.4
639.884	1319.23
640.298	1310.16
640.712	1306.7
641.126	1291.77
641.54	1279.4
641.954	1270.55
642.368	1253.91
642.781	1243.58
643.195	1222.69
643.609	1221.63
644.022	1211.88
644.436	1203.8
644.849	1186.36
645.262	1169.24
645.676	1167.05
646.089	1158.77
646.502	1139.34
646.915	1130.71
647.328	1110.39
647.741	1104.15
648.154	1086.26
648.567	1079.61
648.98	1062.42
649.393	1060.2
649.805	1052.23
650.218	1040.93
650.631	1021.95
651.043	1012.25
651.456	1003.26
651.868	999.15
652.28	1014.28
652.693	1024.58
653.105	1027.21
653.517	1035.52
653.929	1031.89
654.341	1035.36
654.753	1019.03
655.165	1020.58
655.577	1012.97
655.989	1002.93
656.401	991.55
656.813	951.25
657.224	927.06
657.636	893.91
658.047	869.89
658.459	845.75
658.87	831.17
659.282	813.68
659.693	788.38
660.104	768.85
660.515	750.59
660.926	741.68
661.338	731.9
661.749	718.98
662.159	705.23
662.57	693.51
662.981	683.55
663.392	671.04
663.803	667.91
664.213	659.57
664.624	650.52
665.035	646.52
665.445	628.56
665.855	617.29
666.266	607.11
666.676	599.73
667.086	588.71
667.497	582.88
667.907	572.31
668.317	561.5
668.727	556.36
669.137	552.09
669.547	546.18
669.956	544.93
670.366	542.68
670.776	539.75
671.186	539.52
671.595	538.93
672.005	538.33
672.414	537.06
672.824	534.35
673.233	533.64
673.642	533.96
674.052	535.74
674.461	536.48
674.87	539.42
675.279	537.03
675.688	537.41
676.097	539.26
676.506	538.09
676.915	547.39
677.323	549.53
677.732	550.23
678.141	550.94
678.549	544.14
678.958	544.61
679.366	544.74
679.775	549.89
680.183	561.64
680.592	568.23
681	576.51
681.408	576.63
681.816	587.21
682.224	598.88
682.632	613.62
683.04	642.73
683.448	669.73
683.856	702.78
684.264	740.84
684.671	776.18
685.079	821.11
685.487	870.23
685.894	936.13
686.302	994.05
686.709	1045.73
687.116	1106.97
687.524	1162.72
687.931	1211.65
688.338	1257.3
688.745	1297.97
689.152	1342.57
689.559	1397.81
689.966	1452.92
690.373	1487.34
690.78	1541.06
691.187	1616.25
691.593	1673.68
692	1725.34
692.407	1797.54
692.813	1884.04
693.22	1953.4
693.626	2023.47
694.032	2080.92
694.439	2163.08
694.845	2229.11
695.251	2311.56
695.657	2383.54
696.063	2490.59
696.469	2568.73
696.875	2640.71
697.281	2678.82
697.687	2729.45
698.093	2770.67
698.498	2847.68
698.904	2908.96
699.31	2998.99
699.715	3059.22
700.12	3153.43
700.526	3168.04
700.931	3238.06
701.337	3289.81
701.742	3322.13
702.147	3405.25
702.552	3432.88
702.957	3492.95
703.362	3508.77
703.767	3533.87
704.172	3572.15
704.577	3515.14
704.981	3560.15
705.386	3572.59
705.791	3559.94
706.195	3633.78
706.6	3638.91
707.004	3719.6
707.408	3683.4
707.813	3706.77
708.217	3691.37
708.621	3689.17
709.025	3788.57
709.43	3785.33
709.834	3843.24
710.237	3911.36
710.641	3891.22
711.045	3909.61
711.449	3899.76
711.853	3923.88
712.256	3963.98
712.66	3998
713.064	4073.1
713.467	4112.93
713.87	4224.97
714.274	4267.69
714.677	4376.85
715.08	4539.87
715.484	4709.21
715.887	4910.9
716.29	5111.76
716.693	5320.21
717.096	5556.97
717.499	5684.82
717.901	5702.38
718.304	5725.51
718.707	5745.84
719.109	5634.03
719.512	5596.24
719.915	5455.11
720.317	5392.32
720.719	5430.63
721.122	5396.8
721.524	5341.99
721.926	5295.52
722.328	5394.93
722.731	5380.91
723.133	5405.88
723.535	5599.52
723.937	5616.22
724.338	5663.96
724.74	5704.05
725.142	5632.61
725.544	5627.39
725.945	5653.55
726.347	5646.52
726.748	5635.49
727.15	5644.88
727.551	5602.57
727.952	5569.18
728.354	5537.32
728.755	5534.11
729.156	5489.08
729.557	5478.01
729.958	5353.07
730.359	5292.61
730.76	5270.21
731.161	5206.17
731.562	5178.21
731.962	5181.16
732.363	5115.63
732.763	5049.5
733.164	5084.39
733.564	5015.85
733.965	4919.7
734.365	4881.78
734.766	4908.4
735.166	4870.74
735.566	4816.58
735.966	4790.13
736.366	4783.49
736.766	4720.06
737.166	4747.91
737.566	4704.93
737.966	4676.46
738.365	4713.15
738.765	4708.54
739.165	4632.92
739.564	4604.71
739.964	4647.09
740.363	4600.1
740.763	4592.45
741.162	4581.44
741.561	4551.19
741.96	4503.87
742.36	4521.03
742.759	4525.7
743.158	4562.22
743.557	4578.51
743.955	4615.66
744.354	4570.58
744.753	4627.11
745.152	4588.44
745.55	4641.88
745.949	4634
746.348	4635.64
746.746	4654.19
747.144	4614.51
747.543	4592.04
747.941	4638.56
748.339	4572.5
748.737	4564.98
749.136	4553.62
749.534	4616.41
749.932	4589.25
750.33	4613.22
750.727	4666.57
751.125	4642.61
751.523	4624.81
751.921	4668.3
752.318	4633.84
752.716	4688.48
753.113	4701.55
753.511	4728.29
753.908	4728.56
754.305	4710.43
754.703	4768.63
755.1	4827.49
755.497	4884.41
755.894	5073.16
756.291	5246.99
756.688	5569.6
757.085	5998.28
757.482	6601.56
757.878	7259.76
758.275	7855.78
758.672	8677.54
759.068	9345.87
759.465	10295.73
759.861	11523.15
760.258	12948.67
760.654	13679.73
761.05	13570.51
761.447	12948.44
761.843	12053.34
762.239	11126.45
762.635	10710.91
763.031	10308.35
763.427	9733.26
763.822	9134.28
764.218	8535.06
764.614	7751.74
765.01	7230.54
765.405	6890.24
765.801	6634.22
766.196	6308.19
766.592	6127.1
766.987	5818.04
767.382	5608.74
767.778	5521.46
768.173	5393.83
768.568	5322.05
768.963	5201.48
769.358	5217.7
769.753	5174.31
770.148	5090.78
770.542	5088.02
770.937	5055.14
771.332	5143.43
771.726	5162.44
772.121	5100.69
772.515	5150.69
772.91	5135.65
773.304	5203.36
773.699	5139.77
774.093	5189.86
774.487	5245.62
774.881	5285.86
775.275	5281.63
775.669	5240.03
776.063	5283.54
776.457	5315.44
776.851	5245.45
777.245	5238.71
777.638	5272.35
778.032	5384.7
778.425	5354.7
778.819	5398.03
779.212	5357.91
779.606	5321.21
779.999	5343.71
780.392	5327.18
780.786	5411.14
781.179	5429.15
781.572	5470.14
781.965	5482.05
782.358	5425.65
782.751	5476.89
783.143	5428.12
783.536	5498.23
783.929	5540.67
784.322	5651.69
784.714	5682.79
785.107	5677.69
785.499	5749.05
785.891	5730.57
786.284	5712.14
786.676	5851.61
787.068	5833.64
787.46	5886.09
787.852	5908.73
788.245	5990.77
788.636	6018.95
789.028	6084.59
789.42	6124.82
789.812	6134.31
790.204	6228.6
790.595	6324.39
790.987	6129.65
791.378	6152.39
791.77	6274.9
792.161	6403.34
792.553	6458.38
792.944	6350.3
793.335	6283.97
793.726	6350.11
794.117	6435.25
794.508	6566.49
794.899	6536.3
795.29	6676.2
795.681	6728.18
796.072	6591.23
796.463	6416.12
796.853	6426.32
797.244	6578.95
797.634	6612.46
798.025	6612.24
798.415	6624.71
798.806	6709.55
799.196	6791.99
799.586	6843.21
799.976	6808.7
800.366	7032.03
800.756	7258.91
801.146	7216.24
801.536	7237.52
801.926	7304.64
802.316	7328.88
802.706	7397.03
803.095	7277.76
803.485	7378.2
803.874	7416.2
804.264	7666.79
804.653	7641.26
805.043	7784.78
805.432	7892.46
805.821	7899.68
806.21	7922.5
806.599	8041.31
806.988	8088.05
807.377	8195.21
807.766	8321.49
808.155	8598.71
808.544	8341.59
808.933	8357.54
809.321	8340.11
809.71	8627.88
810.098	8782.58
810.487	9228.79
810.875	9694.1
811.264	9709.97
811.652	9991.66
812.04	10134.86
812.428	10291.57
812.816	11035.32
813.204	11443.09
813.592	11977.56
813.98	12303.31
814.368	12212.39
814.756	12682.44
815.144	12601.1
815.531	13063.36
815.919	12986.29
816.306	13278.58
816.694	12975.22
817.081	13024.16
817.469	13361.54
817.856	13357.64
818.243	13617.94
818.63	13997.07
819.017	13582.81
819.404	13650.69
819.791	14016.18
820.178	14618.29
820.565	14862.65
820.952	15772.93
821.339	15305.18
821.725	15476.94
822.112	14757.61
822.498	14722.91
822.885	14849.5
823.271	14761.41
823.657	15165.09
824.044	15165.64
824.43	15232.62
824.816	15204.89
825.202	14781.41
825.588	15767.11
825.974	15793.52
826.36	16296.65
826.746	16328.74
827.132	16679.57
827.517	16660.75
827.903	15902.01
828.289	15946.12
828.674	15197.48
829.06	15090.83
829.445	15473.85
829.83	15815.47
830.216	16267.24
830.601	16624.55
830.986	16228.85
831.371	16096.85
831.756	16638.33
832.141	16220.25
832.526	16206.17
832.911	16476.27
833.295	16370.5
833.68	16825.85
834.065	16223.29
834.449	15340.95
834.834	15265.84
835.218	15258.61
835.603	15588.12
835.987	15382.67
836.371	16186.67
836.755	16089.83
837.139	16477.14
837.524	16706.12
837.908	16535.54
838.291	16594.73
838.675	16658.79
839.059	16863.97
839.443	16858.23
839.827	16630.65
840.21	17091.79
840.594	16949.24
840.977	17156.16
841.361	17135.67
841.744	17501.66
842.127	17345.56
842.511	17583.23
842.894	18160.54
843.277	18525.4
843.66	19046.44
844.043	19134.35
844.426	18351.41
844.809	18047.98
845.191	18075.65
845.574	17631.14
845.957	17278.86
846.339	17174.54
846.722	16666.96
847.104	16742.24
847.487	16573.43
847.869	16583.01
848.252	16848.91
848.634	17174.87
849.016	17439.12
849.398	17559.5
849.78	18385.9
850.162	18388.64
850.544	18791.75
850.926	19403.15
851.307	19315.29
851.689	19603.84
852.071	20049.93
852.452	20366.01
852.834	20339.1
853.215	20716.48
853.597	20865.18
853.978	21157.33
854.359	21605.86
854.741	20648.81
855.122	20555.64
855.503	20268.74
855.884	20385.62
856.265	20327.15
856.646	20443.57
857.026	20066.04
857.407	20004.54
857.788	20153.7
858.169	20419.03
858.549	19592.18
858.93	20189.5
859.31	20239.03
859.69	20438.21
860.071	20041.58
860.451	19827.69
860.831	19106.12
861.211	20228.15
861.591	20760.2
861.971	20735.83
862.351	20926.61
862.731	21301.92
863.111	21561.48
863.491	21873.87
863.87	22722.41
864.25	23056.86
864.629	22671.58
865.009	23168.48
865.388	24004.8
865.768	25720.78
866.147	25618.74
866.526	24202.19
866.905	24486.75
867.284	25863.24
867.663	24555.41
868.042	23539.57
868.421	23469.24
868.8	23856.47
869.179	24085.73
869.558	22666.75
869.936	20892.74
870.315	21263.3
870.693	21774.72
871.072	23473.66
871.45	22347.75
871.828	22641.78
872.207	23801.81
872.585	23440.07
872.963	24073.01
873.341	23237.61
873.719	22967.94
874.097	22691.67
874.475	23128.51
874.853	23661.21
875.23	22688.14
875.608	23642.95
875.986	25563.75
876.363	24451.59
876.741	25189.83
877.118	24566.06
877.495	25779.52
877.873	26202.59
878.25	27572.69
878.627	26450.22
879.004	26813.61
879.381	26683.91
879.758	25981.84
880.135	24189.33
880.512	25569.48
880.889	24899.59
881.265	24642.73
881.642	24431.83
882.019	24841.76
882.395	24329.81
882.772	25300.45
883.148	24206.28
883.524	24105.85
883.901	23964.98
884.277	24332.81
884.653	24185.44
885.029	24883.42
885.405	27555.59
885.781	27348.59
886.157	26222.51
886.532	26552.66
886.908	26533.72
887.284	29508.5
887.659	30476.34
888.035	31439.35
888.411	32251.98
888.786	32674.81
889.161	33810.98
889.537	33182.26
889.912	34257.95
890.287	34232.08
890.662	35107.97
891.037	34476.73
891.412	32147.12
891.787	31830.05
892.162	30706.64
892.536	31413.08
892.911	30219.99
893.286	29580.12
893.66	28386.34
894.035	29094.49
894.409	31686.12
894.784	30411.37
895.158	30904.96
895.532	32739.68
895.906	33624.97
896.281	34414
896.655	33862.04
897.029	38712.17
897.402	40315.91
897.776	44884.33
898.15	44747.12
898.524	44256.28
898.898	44842.48
899.271	50218.73
899.645	43498.35
900.018	41795.55
900.392	43353.07
900.765	43707.09
901.138	40458.54
901.511	39843.98
901.884	36581.07
902.258	33731.8
902.631	34850.91
903.003	40115.04
903.376	36194.6
903.749	40584.07
904.122	43419.69
904.495	47801.63
904.867	48411.99
905.24	42021.04
905.612	39105.06
905.985	39983.22
906.357	41788.78
906.729	39891.84
907.102	34066.73
907.474	32763.87
907.846	32957.28
908.218	32530.32
908.59	28739.32
908.962	27793.44
909.334	29917.11
909.705	31436.22
910.077	30528.64
910.449	31794.58
910.82	32676.41
911.192	35959.73
911.563	37356.81
911.935	39990.72
912.306	40035
912.677	41355.68
913.048	40939.04
913.419	44407.34
913.79	44656.58
914.161	47879.85
914.532	45762.86
914.903	42063.64
915.274	39945.94
915.645	39354.93
916.015	34629.24
916.386	33014.16
916.756	35121.53
917.127	36242.82
917.497	32397.29
917.868	35257.69
918.238	33497.75
918.608	34455.01
918.978	35169.37
919.348	37241.9
919.718	38469.46
920.088	37049.39
920.458	38516.04
920.828	40540.37
921.198	38412.2
921.567	41049.46
921.937	31791.47
922.306	32088.58
922.676	34607.97
923.045	28875.19
923.415	27431.05
923.784	24996.81
924.153	25711.17
924.522	25671
924.891	24144.13
925.26	25864.76
925.629	25249.95
925.998	29025.99
926.367	28337.54
926.736	26984.89
927.104	32121.55
927.473	34532.03
927.842	41667.01
928.21	41269.84
928.578	43389.89
928.947	41029.34
929.315	41273.71
929.683	48406.78
930.051	48780.67
930.42	56655.78
930.788	48420.97
931.156	48087.83
931.523	45081.02
931.891	41693.07
932.259	40046.66
932.627	46419.12
932.994	65679.32
933.362	54306.37
933.729	47150.45
934.097	45147.36
934.464	38204.67
934.831	44114.8
935.199	43509.79
935.566	42219.4
935.933	42831.91
936.3	51885.59
936.667	40392.57
937.034	36449.8
937.401	36063.86
937.767	31130.38
938.134	27709.9
938.501	39103.52
938.867	41703.26
939.234	70503.17
939.6	60172.91
939.967	66231.86
940.333	44323.26
940.699	37754.51
941.065	30296.48
941.431	39698.66
941.798	38300.64
942.163	50350.32
942.529	31447.42
942.895	28905.51
943.261	18690.18
943.627	24515.71
943.992	21455.86
944.358	21489.97
944.723	21563.73
945.089	21003.58
945.454	19419.14
945.82	20731.82
946.185	19930.48
946.55	23081.63
946.915	20735.33
947.28	24346.41
947.645	21423.44
948.01	19779.13
948.375	20621.91
948.74	24698.29
949.104	28844.81
949.469	41664.1
949.834	73599.31
950.198	69729.86
950.562	41792.06
950.927	34782.18
951.291	41795.78
951.655	35587.01
952.02	33409.62
952.384	25259.94
952.748	22039.77
953.112	21485.12
953.476	18675.2
953.839	17271.14
954.203	17105.74
954.567	21417.19
954.931	33737.71
955.294	28866.1
955.658	29058.77
956.021	49403.35
956.385	83854.33
956.748	123515.16
957.111	191487.53
957.474	215052.91
957.837	242085.4
958.2	183199.19
958.563	65847.51
958.926	44495.76
959.289	67538.6
959.652	75408.49
960.015	56641.2
960.377	81224.09
960.74	92842.49
961.102	160257.63
961.465	172089.09
961.827	92172.14
962.189	176719.73
962.552	122479.74
962.914	98226.71
963.276	63729.49
963.638	52726.06
964	52162.13
964.362	35256.46
964.724	34056.54
965.085	24307.97
965.447	19938.6
965.809	22738.57
966.17	22772.18
966.532	24647.53
966.893	22604.1
967.255	20584.27
967.616	24291.31
967.977	19470.69
968.338	21281.69
968.699	17470.56
969.061	17453.17
969.421	17564.63
969.782	19700.37
970.143	16637.23
970.504	17245.85
970.865	19616.63
971.225	20052.62
971.586	19609.1
971.946	27943.9
972.307	24242.19
972.667	31696.33
973.027	32658.75
973.388	39572.84
973.748	26927.03
974.108	29326.99
974.468	39651.44
974.828	30581.86
975.188	23523.07
975.548	21632.46
975.907	18161.92
976.267	20372.76
976.627	17147.51
976.986	17770.27
977.346	16954.77
977.705	16298.18
978.064	14834.58
978.424	12369.93
978.783	12798.98
979.142	14609.09
979.501	13966.82
979.86	14772.9
980.219	14238.36
980.578	18360.53
980.937	20569.37
981.296	18329.02
981.654	18869.18
982.013	29371.67
982.371	38056.2
982.73	35494.78
983.088	40219.66
983.447	42997.66
983.805	61438.71
984.163	128578.24
984.521	142574.4
984.879	208925.69
985.237	-339890.02
985.595	327548.46
985.953	81641.2
986.311	47197.52
986.669	27419.32
987.026	23671.42
987.384	31759.93
987.741	32829.16
988.099	23410.95
988.456	18660
988.814	17478.78
989.171	15198.53
989.528	15007.98
989.885	15784.36
990.242	12499.86
990.599	15585.43
990.956	12749.86
991.313	8932.59
991.67	7332.33
992.027	7784.51
992.383	6926.26
992.74	6071.3
993.096	6365.59
993.453	6602.6
993.809	6857.19
994.165	9118.63
994.522	8343.34
994.878	9190.98
995.234	11521.7
995.59	11355.96
995.946	10737.25
996.302	12227.89
996.658	14156.01
997.013	15590.74
997.369	18485.28
997.725	23700.88
998.08	15349.72
998.436	23712
998.791	32716.23
999.147	32656.14
999.502	35685.92
999.857	25963.05
1000.212	42363.46
1000.567	60294.3
1000.922	34831.93
1001.277	22115.44
1001.632	16401.44
1001.987	21105.78
1002.342	15123.21
1002.696	12089.99
1003.051	9640.58
1003.406	11647.61
1003.76	11591.16
1004.114	11430.25
1004.469	9586.37
1004.823	7925.66
1005.177	8560.05
1005.531	6768.84
1005.885	6016.17
1006.239	6771
1006.593	8490.41
1006.947	11372.89
1007.301	8552.9
1007.655	9321.86
1008.008	6859.16
1008.362	7714.85
1008.715	11013.78
1009.069	10002.08
1009.422	15072.19
1009.776	30287.19
1010.129	20189.41
1010.482	16913.58
1010.835	14298.16
1011.188	29790.18
1011.541	28060.17
1011.894	-170773.51
1012.247	503006.36
1012.6	34232.02
1012.952	21598.52
1013.305	11120
1013.657	7998.88
1014.01	7554.7
1014.362	6212.94
1014.715	5536.57
1015.067	4806.57
1015.419	4701.03
1015.771	4172.72
1016.123	3715.13
1016.475	3806.85
1016.827	4040.87
1017.179	4345.73
1017.531	4376.9
1017.883	4473.92
1018.234	4319.41
1018.586	5454.94
1018.938	5774.93
1019.289	7968.94
1019.64	9144.09
1019.992	8489.24
1020.343	7791.18
1020.694	6173.16
1021.045	5448.06
1021.396	6220.77
1021.747	6692.41
1022.098	8030.07
1022.449	5814.35
1022.8	5422.83
1023.151	3768.34
1023.501	3327.22
1023.852	3635.03
1024.202	3767.22
1024.553	4169.34
1024.903	4085.73
1025.253	3512.33
1025.604	3155.37
1025.954	3917.21
1026.304	4774.27
1026.654	5537.42
1027.004	8122.47
1027.354	13193.15
1027.703	12396.75
1028.053	16229.13
1028.403	23535.82
1028.753	34226.61
1029.102	46403.57
1029.452	238453.29
1029.801	10310.99
1030.15	6657.44
1030.499	5663.96
897.758	2583.72
901.051	2540.16
904.343	2574.54
907.636	2576.4
910.928	2639.62
914.22	2551.3
917.511	2557.58
920.803	2621.67
924.094	2635.46
927.384	2622.87
930.675	2585.89
933.965	2540.59
937.255	2553.49
940.544	2520.3
943.834	2472.63
947.123	2415.36
950.411	2509.18
953.7	2482.87
956.988	2451.36
960.276	2393.94
963.563	2470.51
966.851	2469.32
970.138	2523.52
973.424	2516.42
976.711	2469.68
979.997	2583.08
983.283	2620.96
986.568	2531.39
989.853	2545.37
993.138	2571.43
996.423	2652.44
999.708	2592.35
1002.992	2648.21
1006.275	2500.19
1009.559	2537.97
1012.842	2645.47
1016.125	2583.89
1019.408	2564.19
1022.69	2648.6
1025.972	2667.7
1029.254	2642.85
1032.536	2580.93
1035.817	2603.19
1039.098	2551.91
1042.379	2678.46
1045.659	2685.19
1048.939	2621.83
1052.219	2639.69
1055.498	2647.27
1058.778	2631.07
1062.057	2615.2
1065.335	2639.57
1068.614	2653.89
1071.892	2643.34
1075.17	2715.66
1078.447	2708.24
1081.724	2694.85
1085.001	2730.57
1088.278	2705.52
1091.554	2719.24
1094.83	2717.08
1098.106	2744.54
1101.382	2785.61
1104.657	2788.48
1107.932	2779.79
1111.206	2748.26
1114.481	2705.81
1117.755	2710.29
1121.029	2691.28
1124.302	2746.01
1127.575	2697.78
1130.848	2684.85
1134.121	2649.09
1137.393	2600.86
1140.665	2668.25
1143.937	2644.13
1147.208	2603.82
1150.48	2644.2
1153.75	2631.49
1157.021	2659.92
1160.291	2631.69
1163.561	2678.67
1166.831	2666.48
1170.101	2697.23
1173.37	2670.35
1176.639	2615.84
1179.907	2672.85
1183.176	2678.94
1186.444	2688.46
1189.711	2715.47
1192.979	2730.61
1196.246	2683.02
1199.513	2700.32
1202.78	2699.27
1206.046	2708.24
1209.312	2732.03
1212.578	2756.08
1215.843	2711.88
1219.108	2686.89
1222.373	2709.9
1225.638	2673.2
1228.902	2657.52
1232.166	2625.61
1235.43	2607.38
1238.693	2631.54
1241.956	2627.33
1245.219	2669.75
1248.482	2659.11
1251.744	2653.65
1255.006	2795.32
1258.268	2748.72
1261.529	2696.5
1264.79	2702.6
1268.051	2804.33
1271.312	2820.77
1274.572	2782.74
1277.832	2771.13
1281.092	2762.4
1284.351	2739.13
1287.61	2718.89
1290.869	2638.79
1294.128	2617.26
1297.386	2699.28
1300.644	2687.21
1303.902	2698.46
1307.159	2561.86
1310.416	2616.16
1313.673	2642.73
1316.93	2628.21
1320.186	2670.54
1323.442	2712.58
1326.697	2706.03
1329.953	2693.64
1333.208	2718.41
1336.463	2697.86
1339.717	2640.25
1342.972	2767.37
1346.226	2741.72
1349.479	2676.95
1352.733	2647.82
1355.986	2669.66
1359.238	2646.37
1362.491	2645.71
1365.743	2650.42
1368.995	2646.78
1372.247	2659.29
1375.498	2683.15
1378.749	2701.39
1382	2658.76
1385.251	2710.91
1388.501	2672.31
1391.751	2659.16
1395	2628.3
1398.25	2661.67
1401.499	2670.58
1404.748	2601.96
1407.996	2588.28
1411.244	2575.14
1414.492	2557.59
1417.74	2536.26
1420.987	2544.31
1424.234	2599.36
1427.481	2576.59
1430.728	2636.5
1433.974	2609.06
1437.22	2621.74
1440.465	2620.79
1443.711	2592.76
1446.956	2626.83
1450.201	2610.45
1453.445	2656.61
1456.689	2635.41
1459.933	2647.22
1463.177	2680.22
1466.42	2652.63
1469.663	2634.2
1472.906	2629.48
1476.148	2696.4
1479.391	2669.89
1482.633	2635.85
1485.874	2649.28
1489.115	2637.62
1492.356	2640.39
1495.597	2619.37
1498.838	2620.94
1502.078	2591.56
1505.318	2544.73
1508.557	2585.81
1511.797	2569.42
1515.036	2624.75
1518.274	2617.45
1521.513	2585.43
1524.751	2607.67
1527.989	2621.1
1531.227	2634.12
1534.464	2630.77
1537.701	2646.64
1540.938	2664.2
1544.174	2617.26
1547.41	2614.66
1550.646	2653.44
1553.882	2691.22
1557.117	2745.74
1560.352	2758.3
1563.587	2718.64
1566.821	2678.8
1570.055	2710.72
1573.289	2682.98
1576.523	2754.49
1579.756	2764.71
1582.989	2782.86
1586.222	2744.08
1589.454	2781.46
1592.686	2754.31
1595.918	2779.05
1599.15	2769.67
1602.381	2841.32
1605.612	2800
1608.843	2896.9
1612.073	2815.74
1615.303	2797.63
1618.533	2788.5
1621.762	2789.72
1624.992	2775.48
1628.221	2767.15
1631.449	2751.81
1634.678	2801.54
1637.906	2757.03
1641.134	2796.8
1644.361	2754.38
1647.588	2739
1650.815	2757.62
1654.042	2735.88
1657.269	2766.7
1660.495	2720.14
1663.72	2740.82
1666.946	2705.07
1670.171	2654.2
1673.396	2627.54
1676.621	2613.39
1679.845	2630.75
1683.069	2650.77
1686.293	2689.56
1689.517	2664.51
1692.74	2598.03
1695.963	2626.33
1699.185	2642.9
1702.408	2618.22
1705.63	2657.24
1708.852	2671.12
1712.073	2645.1
1715.294	2632.51
1718.515	2690.55
1721.736	2640.48
1724.956	2631.03
1728.176	2654.85
1731.396	2676.51
1734.616	2664.2
1737.835	2692.93
1741.054	2673.92
1744.272	2665.57
1747.491	2692.67
1750.709	2743.67
1753.927	2654.79
1757.144	2696.64
1760.361	2741.06
1763.578	2732.98
1766.795	2676.98
1770.011	2678.42
1773.227	2717.16
1776.443	2752.27
1779.658	2796.78
1782.874	2741.17
1786.089	2719.93
1789.303	2721.29
1792.518	2728.29
1795.732	2716.12
1798.945	2725.1
1802.159	2774.37
1805.372	2683.92
1808.585	2669.41
1811.797	2671.22
1815.01	2715.17
1818.222	2720.96
1821.434	2703.66
1824.645	2760.23
1827.856	2747
1831.067	2783.21
1834.278	2736.73
1837.488	2718.47
1840.698	2865.37
1843.908	2792.99
1847.117	2756.52
1850.326	2649.12
1853.535	2744.08
1856.744	2758.22
1859.952	2676.58
1863.16	2678.67
1866.368	2696.3
1869.575	2803.28
1872.782	2690.26
1875.989	2627.12
1879.196	2705.26
1882.402	2696.26
1885.608	2735.14
1888.814	2643.11
1892.019	2543.52
1895.224	2594.43
1898.429	2573.34
1901.634	2553.74
1904.838	2528.58
1908.042	2577.61
1911.246	2588.18
1914.449	2525.14
1917.652	2516.32
1920.855	2501.34
1924.058	2546.69
1927.26	2583.36
1930.462	2609.78
1933.664	2638.89
1936.865	2574.66
1940.066	2584.66
1943.267	2533.48
1946.467	2545.64
1949.668	2571.52
1952.868	2640.01
1956.067	2617.88
1959.267	2553.17
1962.466	2579.39
1965.665	2562.67
1968.863	2556.73
1972.061	2574.57
1975.259	2570.89
1978.457	2649.41
1981.654	2604.18
1984.852	2607.14
1988.048	2545.36
1991.245	2548.38
1994.441	2633.4
1997.637	2612.41
2000.833	2595.22
2004.028	2634.29
2007.223	2690.27
2010.418	2668.28
2013.613	2626.09
2016.807	2603.34
2020.001	2609.28
2023.194	2646.57
2026.388	2621.58
2029.581	2567.03
2032.774	2619.28
2035.966	2623.88
2039.158	2557.88
2042.35	2580.46
2045.542	2513.22
2048.733	2608.85
2051.924	2631.23
2055.115	2654.65
2058.306	2603.65
2061.496	2662.94
2064.686	2725.6
2067.875	2639.18
2071.065	2652.56
2074.254	2677.3
2077.442	2630.42
2080.631	2716.39
2083.819	2616.15
2087.007	2596.83
2090.195	2570.23
2093.382	2601.66
2096.569	2581.31
2099.756	2535.82
2102.942	2564.52
2106.128	2572.48
2109.314	2563.7
2112.5	2530.14
2115.685	2505.15
2118.87	2515.12
2122.055	2580.05
2125.239	2546.64
2128.424	2525.93
2131.608	2622.87
2134.791	2603.55
2137.974	2658.15
2141.157	2643.9
2144.34	2598.62
2147.523	2610.99
2150.705	2627.02
2153.887	2605.58
2157.068	2558.65
2160.25	2558.91
2163.431	2591.03
2166.611	2539.29
2169.792	2556.87
2172.972	2453.64
2176.152	2528.29
2179.331	2563.98
2182.511	2547.1
2185.69	2574.75
2188.868	2568.24
2192.047	2619.94
2195.225	2613.67
2198.403	2564.42
2201.58	2556.24
2204.758	2555.16
2207.935	2636.43
2211.111	2525.54
2214.288	2509.26
2217.464	2549.63
2220.64	2517.8
2223.815	2573.11
2226.991	2496.84
2230.166	2515.99
2233.34	2550.39
2236.515	2572.59
2239.689	2638.76
2242.863	2586.83
2246.036	2645.76
2249.209	2641.52
2252.382	2675.83
2255.555	2666.86
2258.727	2605.03
2261.9	2644.08
2265.071	2636.04
2268.243	2635.28
2271.414	2571.5
2274.585	2538.03
2277.756	2601.1
2280.926	2556.22
2284.096	2596.09
2287.266	2504.58
2290.436	2559.97
2293.605	2589.25
2296.774	2617.18
2299.942	2635.03
2303.111	2652.79
2306.279	2700.04
2309.447	2687.42
2312.614	2663.79
2315.781	2684.49
2318.948	2655.89
2322.115	2693.98
2325.281	2593.73
2328.447	2613.48
2331.613	2587.8
2334.779	2564.44
2337.944	2564.52
2341.109	2564.67
2344.274	2545.89
2347.438	2509.32
2350.602	2537.3
2353.766	2552.14
2356.929	2538.75
2360.092	2582.16
2363.255	2534
2366.418	2473.54
2369.58	2579.7
2372.742	2381.47
2375.904	2392.18
2379.066	2371.86
2382.227	2408.03
2385.388	2368.72
2388.548	2298.62
2391.709	2351.2
2394.869	2329.2
2398.029	2421.2
2401.188	2433.8
2404.347	2372.28
2407.506	2504.66
2410.665	2536.63
2413.823	2537.21
2416.981	2496.79
2420.139	2525.1
2423.296	2574.51
2426.453	2547.05
2429.61	2570.34
2432.767	2510.63
2435.923	2547.96
2439.079	2511.45
2442.235	2557.43
2445.391	2483.14
2448.546	2516.61
2451.701	2563.91
2454.855	2538.83
2458.009	2587.6
2461.163	2585.88
2464.317	2550.66
2467.471	2583.15
2470.624	2620.71
2473.777	2590.23
2476.929	2602.76
2480.082	2630.44
2483.234	2595.21
2486.385	2545.32
2489.537	2539.26
2492.688	2505.9
2495.839	2523.23
2498.989	2533.48
2502.14	2519.48
2505.29	2504.09
2508.439	2528.37
2511.589	2457.27
2514.738	2465.84
2517.887	2496.5
2521.035	2565.33
2524.183	2543.51
2527.331	2523.59
2530.479	2503.2
2533.627	2512.55
