Data from N_2_DIV_OH_2N_Splice17_12-21-35-790.txt Node
Date: Sat Mar 14 12:21:35 EDT 2020
User: sa697716
Spectrometer: FLMS03696
Trigger mode: 0
Integration Time (sec): 3.180400E-1
Scans to average: 20
Electric dark correction enabled: true
Nonlinearity correction enabled: true
Boxcar width: 5
XAxis mode: Wavelengths
Number of Pixels in Spectrum: 2048
>>>>>Begin Spectral Data<<<<<
187.83	-347309.29
188.298	2533.97
188.766	1317.33
189.233	1225.82
189.701	1654.68
190.169	2183.71
190.636	823.52
191.104	674.86
191.571	78.44
192.039	-75.73
192.506	-120.02
192.974	288.97
193.441	-434.64
193.908	31.41
194.375	27.17
194.842	43.48
195.31	133.36
195.777	179.43
196.244	410.94
196.711	493.18
197.177	654.5
197.644	940.01
198.111	1655.01
198.578	2320.29
199.045	1837.2
199.511	3014.28
199.978	3552.97
200.445	3013.43
200.911	3340.22
201.378	3745.02
201.844	3413.96
202.31	5775.58
202.777	6022.36
203.243	3314.53
203.709	3173.16
204.176	3811.32
204.642	3142.15
205.108	2910.99
205.574	2372.16
206.04	2173.12
206.506	2043.44
206.972	1937.63
207.438	1885.83
207.903	2144.39
208.369	1888.42
208.835	1868.67
209.301	1939.06
209.766	1989.61
210.232	1983.48
210.697	2446.45
211.163	3044.92
211.628	4583.04
212.094	3804.53
212.559	4638.26
213.024	2856.02
213.49	3459.13
213.955	3368.46
214.42	3292.77
214.885	3053.12
215.35	2914.55
215.815	2782.15
216.28	2908.26
216.745	2350.33
217.21	2516.97
217.675	2288.87
218.14	2562.6
218.604	2837.87
219.069	3191.39
219.534	3316.74
219.998	3803.33
220.463	4553.45
220.927	5560.9
221.392	5188.21
221.856	5231.05
222.32	6557.28
222.785	8078.75
223.249	10118.57
223.713	11224.61
224.177	11186.21
224.642	14282.35
225.106	17607.77
225.57	19211.69
226.034	14237.4
226.497	21651.9
226.961	19519.77
227.425	22733.1
227.889	25154.97
228.353	25163.08
228.816	51962.78
229.28	49740.22
229.744	41922.73
230.207	25393.4
230.671	24954.37
231.134	41210.9
231.597	47416.96
232.061	47307.27
232.524	46052.11
232.987	31676.63
233.45	28430.55
233.914	25455.39
234.377	26104.38
234.84	23865.78
235.303	28116.92
235.766	31356.55
236.229	32379.46
236.691	20399.05
237.154	22899.47
237.617	17216.01
238.08	17633.22
238.542	20654.23
239.005	14770.38
239.468	14636.5
239.93	13808.82
240.393	12546.2
240.855	11003.35
241.317	11270.33
241.78	13694.41
242.242	14165.59
242.704	15292.67
243.166	13302.24
243.629	12078.61
244.091	13891.5
244.553	15212.51
245.015	16338.67
245.477	21130.74
245.939	30953.13
246.4	32819.95
246.862	31876.33
247.324	29990.01
247.786	33551.17
248.247	43971.43
248.709	45284.38
249.17	33854.85
249.632	31862.17
250.093	36875.44
250.555	31793.41
251.016	19389.26
251.477	18374.55
251.939	19801.9
252.4	20761.05
252.861	24645.67
253.322	22879.95
253.783	27205.83
254.244	35269.7
254.705	27811.62
255.166	24698.08
255.627	24312.99
256.088	34271.22
256.549	36374.33
257.009	31307.58
257.47	37957.88
257.931	30852.71
258.391	23105.83
258.852	23788.3
259.312	24925.41
259.773	30731.41
260.233	25965.73
260.694	21888.39
261.154	24772.16
261.614	19851.17
262.074	17733.4
262.534	18407.61
262.994	17326.53
263.455	23061.02
263.915	19391.49
264.374	18244.75
264.834	19869.07
265.294	21992.1
265.754	22754.47
266.214	21499.71
266.673	20139.07
267.133	25355.16
267.593	25151.05
268.052	30803.66
268.512	26774.3
268.971	32322.94
269.431	35401.13
269.89	31711.41
270.349	47483.02
270.809	52905.8
271.268	47566.38
271.727	106655.82
272.186	69119.44
272.645	51797.65
273.104	37335.77
273.563	54035.43
274.022	42454.78
274.481	36143.69
274.94	27824.6
275.399	20706.41
275.857	24098.68
276.316	32596.95
276.775	28995.1
277.233	28570.22
277.692	26738.21
278.15	30253.82
278.609	31124.64
279.067	28818.58
279.525	26772.25
279.984	34593.27
280.442	41522.43
280.9	40958.3
281.358	26954.42
281.816	25157.9
282.274	24663.52
282.732	25490.39
283.19	25601.15
283.648	22128.01
284.106	23582.58
284.564	24004.14
285.021	22277.12
285.479	16628.98
285.937	15138.13
286.394	13316.75
286.852	13693.4
287.309	14404.41
287.767	13943.28
288.224	13291.64
288.682	14584.63
289.139	16013.15
289.596	14637.71
290.053	15221
290.511	19182.93
290.968	23237.12
291.425	31444.53
291.882	26169.81
292.339	22735.5
292.796	22531.97
293.252	21197.91
293.709	16813.54
294.166	15063.27
294.623	16637.45
295.079	15957.51
295.536	16053.52
295.992	14573.69
296.449	14412.86
296.905	14983.63
297.362	14372.06
297.818	15115.31
298.274	15680.11
298.731	15999.81
299.187	15807.35
299.643	16975.52
300.099	20531.41
300.555	22492.63
301.011	18808.04
301.467	18155.13
301.923	21240.65
302.379	20770.83
302.835	20385.8
303.291	20433.2
303.746	23220.82
304.202	29380.01
304.658	29535.35
305.113	19872.07
305.569	19462.56
306.024	20755.48
306.479	19742.19
306.935	16656.87
307.39	18204.3
307.845	16827.2
308.301	16946.06
308.756	16546.4
309.211	15950.89
309.666	16330.78
310.121	20306.87
310.576	20643.39
311.031	20482.93
311.486	23501.93
311.94	23516.42
312.395	31404.29
312.85	58996.01
313.305	289492.71
313.759	1499268.59
314.214	108602.49
314.668	86115.67
315.123	72390.67
315.577	25975.96
316.032	23111.31
316.486	28957.79
316.94	22834.79
317.394	15936.4
317.849	12404.11
318.303	11713.74
318.757	11058.77
319.211	12248.9
319.665	10720.74
320.119	10832.75
320.572	15512.64
321.026	14475.38
321.48	12026.52
321.934	13102.27
322.387	13091.46
322.841	14159.27
323.295	12755.25
323.748	14664.72
324.202	14873.46
324.655	17896.03
325.108	25063.22
325.562	17742.05
326.015	21133
326.468	16011.34
326.921	17939.39
327.374	16752.57
327.827	17463.18
328.28	19788.23
328.733	13289.58
329.186	11680.57
329.639	11117.46
330.092	9354.89
330.545	8913.63
330.997	9002.48
331.45	9834.16
331.903	11519.04
332.355	19827.55
332.808	19222.48
333.26	15872.17
333.713	17238.64
334.165	17376.28
334.617	23198.63
335.069	18783.29
335.522	33958.89
335.974	37561.45
336.426	34397.68
336.878	23836.06
337.33	12110.63
337.782	11845.93
338.234	14852.68
338.686	17769.13
339.137	21072.81
339.589	19874.84
340.041	15568.96
340.493	13378.1
340.944	13686.71
341.396	14731.78
341.847	12377.81
342.299	14583.03
342.75	17782.7
343.201	15532.95
343.653	17832.65
344.104	21900.59
344.555	17230.55
345.006	26792.47
345.457	20560.9
345.908	16358.68
346.359	15394.09
346.81	12539.68
347.261	13210.42
347.712	13009.79
348.163	13936.33
348.613	14136.46
349.064	13195.19
349.515	11556.31
349.965	11868.13
350.416	14261.07
350.866	15664.85
351.317	17665.34
351.767	29211.84
352.217	36930.76
352.668	30734.76
353.118	28110.36
353.568	27075.85
354.018	21429.96
354.468	22592.66
354.918	16213.01
355.368	14207.97
355.818	20039.03
356.268	57650.04
356.718	241906.17
357.168	60331.14
357.617	30178.33
358.067	33610.33
358.517	31522.93
358.966	36997.46
359.416	41569.17
359.865	44869.76
360.315	53472.21
360.764	25032.99
361.213	14052.1
361.663	13306.6
362.112	16372.78
362.561	26516.83
363.01	20047.09
363.459	16861.23
363.908	18219.03
364.357	15467.24
364.806	26196.81
365.255	18030.97
365.703	16531.4
366.152	16564.11
366.601	13464.24
367.05	10967.38
367.498	9966.4
367.947	10416
368.395	10854.64
368.844	9649.95
369.292	11651.39
369.74	8058.76
370.189	12341.92
370.637	14474.47
371.085	12527.2
371.533	15282.35
371.981	14758.96
372.429	14135.83
372.877	14755.41
373.325	12388.78
373.773	12655.1
374.221	11275.32
374.669	14046.26
375.116	12182.83
375.564	12335.45
376.012	13870.31
376.459	11481.47
376.907	13766.07
377.354	16664.81
377.801	15640.58
378.249	18076.21
378.696	23229.58
379.143	28337.98
379.591	30328.63
380.038	51716.99
380.485	37575.11
380.932	40660.94
381.379	37447.63
381.826	27749.4
382.273	19861.31
382.72	17423.73
383.166	17055.02
383.613	11118.76
384.06	10076.02
384.506	11707.55
384.953	8605.71
385.4	8709.04
385.846	7671.28
386.292	7499.51
386.739	7362.65
387.185	7299.27
387.631	7332.57
388.078	7150.49
388.524	7664.63
388.97	7114.01
389.416	5973.51
389.862	6392.58
390.308	6076.53
390.754	6207.83
391.2	6769.63
391.645	6967.97
392.091	6697.18
392.537	6512.45
392.983	6548.37
393.428	6472.11
393.874	6962.38
394.319	7005.61
394.765	6661.46
395.21	6874.48
395.655	6450.73
396.101	6056.57
396.546	5467.79
396.991	5533.55
397.436	5147.01
397.881	4980.76
398.326	4729.63
398.771	4471.71
399.216	3911.15
399.661	3519.08
400.106	3508.75
400.551	3592.7
400.995	3218.56
401.44	3182.77
401.885	2984.26
402.329	3005.83
402.774	2876.66
403.218	2777.04
403.663	2669.45
404.107	2740.76
404.551	2757.55
404.995	2524.27
405.44	2428.22
405.884	2461.06
406.328	2378.54
406.772	2367.85
407.216	2155.93
407.66	2077.66
408.104	1968.88
408.547	1840.93
408.991	1777.08
409.435	1707.94
409.879	1679.92
410.322	1656.8
410.766	1598.77
411.209	1519.43
411.653	1456.53
412.096	1426.4
412.54	1428.62
412.983	1418.92
413.426	1423.46
413.869	1422.21
414.312	1393.74
414.756	1342.14
415.199	1281.21
415.642	1245.04
416.085	1245.59
416.527	1239.34
416.97	1254.41
417.413	1189.82
417.856	1177.21
418.298	1166.41
418.741	1156.34
419.184	1154.16
419.626	1198.8
420.069	1196.53
420.511	1200.97
420.953	1174.27
421.396	1160.47
421.838	1130.77
422.28	1154.73
422.722	1159.73
423.164	1173.85
423.606	1153.69
424.048	1152.09
424.49	1097.99
424.932	1090.68
425.374	1074.46
425.816	1092.54
426.258	1114.28
426.699	1127.21
427.141	1112.03
427.582	1126.88
428.024	1119.11
428.465	1112.49
428.907	1082.99
429.348	1068.75
429.789	1072.62
430.231	1050.11
430.672	1065.56
431.113	1038.71
431.554	1024.2
431.995	998.73
432.436	963.84
432.877	943.35
433.318	929.5
433.759	927.43
434.2	929.27
434.64	918.36
435.081	921.86
435.522	873.89
435.962	843.19
436.403	824.98
436.843	835.26
437.284	819.7
437.724	798.66
438.164	800.57
438.604	783.94
439.045	754.19
439.485	723.71
439.925	709
440.365	691.52
440.805	684.04
441.245	677.74
441.685	655.75
442.125	650.94
442.564	655.37
443.004	640.07
443.444	638.23
443.883	642.35
444.323	637.53
444.762	640.71
445.202	650.44
445.641	664.62
446.081	660.86
446.52	666.19
446.959	660.94
447.398	648.49
447.837	643.44
448.276	634.47
448.716	639.11
449.154	645.79
449.593	631.75
450.032	631.45
450.471	619.38
450.91	620.92
451.349	621.64
451.787	619.92
452.226	627.89
452.664	628.58
453.103	629.72
453.541	630.33
453.98	630.2
454.418	633.25
454.856	623.29
455.295	622.85
455.733	629.14
456.171	632.1
456.609	633.34
457.047	632.91
457.485	641.61
457.923	644.38
458.361	635.36
458.798	637.19
459.236	635.08
459.674	638.65
460.111	641.15
460.549	633.88
460.987	631.12
461.424	627.59
461.862	625.92
462.299	616.62
462.736	614.27
463.173	615.29
463.611	609.73
464.048	610.14
464.485	616.27
464.922	610.85
465.359	608.7
465.796	601.67
466.233	599.24
466.67	594.36
467.106	593.35
467.543	588.37
467.98	582.26
468.416	567.16
468.853	562.01
469.29	545.1
469.726	539.07
470.162	523.11
470.599	515.44
471.035	510.34
471.471	497.72
471.907	494.25
472.344	490.43
472.78	491.34
473.216	496.55
473.652	491.22
474.088	489.42
474.523	488.34
474.959	494.08
475.395	489.22
475.831	486.03
476.266	487.15
476.702	485.08
477.138	479.87
477.573	478.31
478.008	477.29
478.444	478.69
478.879	483.56
479.314	484.55
479.75	483.95
480.185	486.6
480.62	490.81
481.055	493.78
481.49	497.84
481.925	504.04
482.36	513.14
482.795	526.45
483.229	541.01
483.664	551.9
484.099	555.78
484.534	563.84
484.968	570.13
485.403	571.67
485.837	570.64
486.271	570.27
486.706	572.7
487.14	566.28
487.574	558.92
488.009	554.69
488.443	550.77
488.877	556.32
489.311	559.29
489.745	566.18
490.179	572.92
490.613	586.16
491.046	592.14
491.48	597.48
491.914	600.14
492.348	605.83
492.781	611.25
493.215	615.46
493.648	618.63
494.082	624.84
494.515	628.09
494.948	637.51
495.382	643.47
495.815	650.15
496.248	658.64
496.681	673.58
497.114	687.7
497.547	699.89
497.98	715.13
498.413	724.94
498.846	738.39
499.279	750.39
499.711	758.85
500.144	765.96
500.577	781.19
501.009	796
501.442	810.09
501.874	816.39
502.306	823.12
502.739	836.22
503.171	855.61
503.603	864.95
504.036	878.73
504.468	889.5
504.9	905.74
505.332	918.43
505.764	928.8
506.196	941.05
506.627	961.69
507.059	982.16
507.491	997.1
507.923	1001.8
508.354	1024.44
508.786	1042.88
509.217	1069.09
509.649	1091.85
510.08	1118.65
510.512	1143.28
510.943	1166.73
511.374	1184.89
511.805	1213.25
512.237	1240.64
512.668	1283.01
513.099	1318.96
513.53	1355.77
513.961	1384.08
514.391	1426.27
514.822	1469.49
515.253	1515.49
515.684	1551.05
516.114	1591.59
516.545	1621.44
516.975	1657.37
517.406	1683.58
517.836	1691.84
518.267	1703.17
518.697	1728.72
519.127	1739.01
519.558	1751.46
519.988	1759.8
520.418	1774.71
520.848	1798.59
521.278	1811.64
521.708	1815.69
522.138	1832.95
522.567	1873.76
522.997	1908.45
523.427	1930.63
523.857	1952.72
524.286	1967.83
524.716	1989.13
525.145	2014.28
525.575	2029.91
526.004	2051.39
526.433	2065.64
526.863	2068.6
527.292	2056.67
527.721	2064.5
528.15	2074.07
528.579	2076.84
529.008	2091.84
529.437	2123.41
529.866	2143.13
530.295	2165.93
530.724	2181.88
531.152	2217.46
531.581	2236.52
532.01	2260.52
532.438	2272.46
532.867	2292.14
533.295	2316.47
533.723	2325.94
534.152	2322.44
534.58	2323.11
535.008	2305.27
535.436	2308.75
535.865	2319.45
536.293	2338.29
536.721	2360.88
537.149	2394.83
537.576	2398.91
538.004	2416.62
538.432	2427.17
538.86	2425.26
539.287	2435.12
539.715	2453.7
540.143	2459.74
540.57	2457.13
540.998	2454.78
541.425	2425.45
541.852	2398.05
542.28	2397.02
542.707	2376.29
543.134	2358.94
543.561	2355.21
543.988	2345.78
544.415	2345.51
544.842	2339.23
545.269	2329.49
545.696	2332.23
546.123	2348.35
546.549	2336.4
546.976	2318.96
547.403	2318.93
547.829	2322.56
548.256	2325.77
548.682	2321.49
549.108	2312.85
549.535	2310.61
549.961	2312.62
550.387	2294.84
550.813	2287.8
551.24	2296.01
551.666	2298.41
552.092	2286
552.518	2278.55
552.943	2270.21
553.369	2280.17
553.795	2285.91
554.221	2287.54
554.646	2283.75
555.072	2297.38
555.498	2303.94
555.923	2316.38
556.349	2336.55
556.774	2348.15
557.199	2347.83
557.625	2356.11
558.05	2348.03
558.475	2362.84
558.9	2361.43
559.325	2352.01
559.75	2343.51
560.175	2334.98
560.6	2324.56
561.025	2321.18
561.449	2323.06
561.874	2331.05
562.299	2335.99
562.723	2345.89
563.148	2330.97
563.572	2336.11
563.997	2347.53
564.421	2355.64
564.846	2356.19
565.27	2362.16
565.694	2358.13
566.118	2372.65
566.542	2381
566.966	2373.62
567.39	2367.72
567.814	2355.06
568.238	2354.55
568.662	2361.39
569.086	2364.64
569.509	2374.57
569.933	2354.13
570.357	2343.16
570.78	2315.66
571.204	2299.96
571.627	2286.28
572.05	2283.23
572.474	2280.69
572.897	2264.48
573.32	2253.72
573.743	2240.27
574.166	2215.42
574.589	2215.46
575.012	2207.42
575.435	2206.18
575.858	2193.95
576.281	2177.2
576.704	2155.79
577.126	2141.92
577.549	2128.14
577.972	2115.48
578.394	2101.17
578.817	2091.46
579.239	2066.56
579.661	2047.87
580.084	2026.11
580.506	2007.59
580.928	2003.14
581.35	1988.74
581.772	1981.08
582.194	1963.56
582.616	1947.08
583.038	1928.77
583.46	1915.8
583.882	1912.12
584.303	1917.59
584.725	1910.73
585.147	1911.48
585.568	1924.36
585.99	1939.23
586.411	1946.03
586.833	1963.61
587.254	1965.66
587.675	1984.09
588.096	1999.28
588.518	1992.24
588.939	1970.29
589.36	1967.98
589.781	1956.33
590.202	1919.35
590.623	1907.04
591.043	1905.19
591.464	1887.74
591.885	1881.94
592.305	1873.2
592.726	1854.37
593.147	1854.4
593.567	1846.38
593.987	1835.72
594.408	1828.9
594.828	1826.08
595.248	1818.61
595.669	1794.77
596.089	1785.68
596.509	1777.48
596.929	1759.66
597.349	1761.31
597.769	1749.27
598.189	1741.44
598.608	1741.92
599.028	1743.1
599.448	1743.44
599.867	1727.15
600.287	1721.64
600.706	1716.33
601.126	1703.41
601.545	1701.06
601.965	1698.65
602.384	1691.85
602.803	1695.15
603.222	1689.61
603.641	1681.02
604.061	1676.04
604.48	1670.94
604.898	1680.91
605.317	1685.91
605.736	1687.19
606.155	1684.48
606.574	1673
606.992	1678.56
607.411	1671.47
607.829	1660.55
608.248	1656.46
608.666	1652.47
609.085	1651.05
609.503	1639.21
609.921	1631.87
610.339	1634.76
610.758	1632.96
611.176	1626.03
611.594	1613.54
612.012	1609.37
612.43	1614.15
612.847	1622.15
613.265	1622.84
613.683	1627.17
614.101	1628.79
614.518	1623.28
614.936	1610.37
615.353	1591.05
615.771	1586.27
616.188	1586.38
616.606	1580.51
617.023	1570.59
617.44	1552.77
617.857	1544.03
618.274	1534.12
618.691	1524.8
619.108	1512.64
619.525	1504.01
619.942	1512.14
620.359	1514.32
620.776	1507.48
621.192	1503.52
621.609	1499.76
622.026	1506.52
622.442	1512.88
622.859	1515.83
623.275	1507.07
623.691	1513.58
624.108	1526.72
624.524	1543
624.94	1543.64
625.356	1555.91
625.772	1571.25
626.188	1585.83
626.604	1586.42
627.02	1581.28
627.436	1579.14
627.852	1588.26
628.268	1602.02
628.683	1591.59
629.099	1581.41
629.514	1576.17
629.93	1580.23
630.345	1584.36
630.761	1579.3
631.176	1584.1
631.591	1575.75
632.007	1567
632.422	1562.76
632.837	1547.96
633.252	1544.31
633.667	1529.73
634.082	1516.09
634.497	1497.8
634.911	1472.69
635.326	1466.24
635.741	1441.97
636.155	1427.47
636.57	1424.78
636.984	1420.2
637.399	1418.86
637.813	1413.47
638.228	1409.27
638.642	1409.55
639.056	1394.07
639.47	1389.9
639.884	1375.07
640.298	1364.04
640.712	1356.73
641.126	1338.13
641.54	1324
641.954	1312.59
642.368	1293.98
642.781	1277.76
643.195	1253.67
643.609	1248.84
644.022	1236.58
644.436	1226.79
644.849	1207.93
645.262	1190.73
645.676	1187.59
646.089	1176.81
646.502	1155.89
646.915	1145.57
647.328	1125.23
647.741	1119.76
648.154	1102.92
648.567	1095.58
648.98	1077.39
649.393	1076.06
649.805	1070.26
650.218	1060.43
650.631	1041.88
651.043	1033.83
651.456	1026.87
651.868	1026.17
652.28	1041.75
652.693	1053.03
653.105	1059.47
653.517	1069.38
653.929	1069.05
654.341	1072.81
654.753	1059.37
655.165	1065.55
655.577	1062.13
655.989	1055.18
656.401	1044.84
656.813	1005.87
657.224	983.66
657.636	951.23
658.047	930.28
658.459	906.42
658.87	893.99
659.282	878.95
659.693	854.33
660.104	835.67
660.515	818.79
660.926	812.66
661.338	804.25
661.749	794.14
662.159	781.89
662.57	773.52
662.981	765.63
663.392	755.04
663.803	754.18
664.213	748.08
664.624	739.8
665.035	738.63
665.445	722.13
665.855	713.61
666.266	703.02
666.676	697.77
667.086	686.65
667.497	683.89
667.907	676.14
668.317	665.12
668.727	661.07
669.137	659.79
669.547	656.22
669.956	657.8
670.366	658.24
670.776	658.46
671.186	661.16
671.595	662.9
672.005	663.77
672.414	663.88
672.824	663.91
673.233	666.58
673.642	667.98
674.052	670.02
674.461	671.97
674.87	675.33
675.279	674.02
675.688	676.03
676.097	678.33
676.506	676.83
676.915	689.24
677.323	692.62
677.732	691.88
678.141	694.71
678.549	687.41
678.958	688.14
679.366	690.56
679.775	698.04
680.183	710.92
680.592	720.4
681	730.06
681.408	728.11
681.816	739.08
682.224	752.69
682.632	766.83
683.04	800.84
683.448	831.46
683.856	868.36
684.264	909.85
684.671	949.68
685.079	999.65
685.487	1055.29
685.894	1131.34
686.302	1197.56
686.709	1254.88
687.116	1321.31
687.524	1380.79
687.931	1435.33
688.338	1484.14
688.745	1529.66
689.152	1580.99
689.559	1643.63
689.966	1706.36
690.373	1742.37
690.78	1802.44
691.187	1889.47
691.593	1958.14
692	2018.09
692.407	2102.31
692.813	2204.07
693.22	2287.19
693.626	2371.49
694.032	2439.29
694.439	2538.91
694.845	2618.95
695.251	2718.25
695.657	2808.71
696.063	2939.1
696.469	3037.29
696.875	3129.18
697.281	3182.31
697.687	3245.05
698.093	3299.31
698.498	3398.08
698.904	3475.83
699.31	3593.72
699.715	3674.58
700.12	3794.11
700.526	3819.65
700.931	3910.6
701.337	3976.82
701.742	4020.34
702.147	4129.96
702.552	4166.93
702.957	4244.42
703.362	4270.95
703.767	4306.97
704.172	4359.01
704.577	4296.04
704.981	4356.32
705.386	4377.56
705.791	4367.2
706.195	4464.42
706.6	4472.11
707.004	4574.74
707.408	4534.66
707.813	4566.09
708.217	4548.46
708.621	4549.25
709.025	4671.54
709.43	4670.68
709.834	4745.98
710.237	4833.01
710.641	4809.01
711.045	4839.62
711.449	4830.56
711.853	4863.08
712.256	4915.58
712.66	4961.96
713.064	5053.81
713.467	5106.26
713.87	5247.99
714.274	5305.21
714.677	5443.01
715.08	5648.12
715.484	5858.79
715.887	6115.47
716.29	6370.06
716.693	6634.27
717.096	6938.64
717.499	7106.42
717.901	7137.81
718.304	7171.45
718.707	7194.81
719.109	7063.38
719.512	7020.36
719.915	6845.46
720.317	6771.02
720.719	6826.67
721.122	6787.3
721.524	6720.35
721.926	6667.38
722.328	6789.76
722.731	6773.79
723.133	6811.51
723.535	7055
723.937	7079.23
724.338	7142.99
724.74	7193.41
725.142	7090.28
725.544	7083.51
725.945	7110.44
726.347	7103.46
726.748	7091.99
727.15	7106.26
727.551	7055.16
727.952	7017.43
728.354	6982.31
728.755	6982.13
729.156	6927.71
729.557	6932.57
729.958	6779.54
730.359	6710.76
730.76	6683.71
731.161	6609.46
731.562	6578.74
731.962	6583.32
732.363	6500.8
732.763	6415.76
733.164	6462.28
733.564	6376.58
733.965	6250.37
734.365	6204.7
734.766	6241.24
735.166	6192.95
735.566	6121.52
735.966	6086.25
736.366	6078.81
736.766	6001.92
737.166	6042.29
737.566	5985.61
737.966	5953.93
738.365	6003.13
738.765	5998.72
739.165	5905.8
739.564	5872.07
739.964	5927.28
740.363	5869.65
740.763	5866.98
741.162	5851.41
741.561	5810.5
741.96	5755.08
742.36	5779.98
742.759	5784.33
743.158	5829.77
743.557	5846.35
743.955	5896.96
744.354	5841.95
744.753	5913.82
745.152	5861.06
745.55	5929.19
745.949	5922.2
746.348	5923.67
746.746	5943.5
747.144	5895.4
747.543	5867.29
747.941	5928.6
748.339	5840.13
748.737	5830.41
749.136	5819.35
749.534	5899.3
749.932	5864.57
750.33	5891.95
750.727	5960.75
751.125	5929.66
751.523	5912.41
751.921	5964.63
752.318	5922.66
752.716	5996.44
753.113	6010.47
753.511	6041.22
753.908	6042.15
754.305	6019.25
754.703	6095.75
755.1	6171.47
755.497	6243.5
755.894	6478.82
756.291	6702.67
756.688	7111.94
757.085	7656.17
757.482	8427.35
757.878	9265.52
758.275	10023.5
758.672	11068.5
759.068	11924.25
759.465	13139.36
759.861	14713.22
760.258	16530.58
760.654	17472.17
761.05	17328.09
761.447	16540.25
761.843	15394.67
762.239	14216.2
762.635	13684.64
763.031	13176.99
763.427	12438.48
763.822	11666.61
764.218	10897.78
764.614	9902.22
765.01	9236.11
765.405	8807.2
765.801	8479.88
766.196	8064.68
766.592	7835.24
766.987	7442.8
767.382	7176.17
767.778	7060.74
768.173	6895.23
768.568	6805.68
768.963	6651.23
769.358	6673.54
769.753	6613.62
770.148	6511.4
770.542	6512.03
770.937	6470.97
771.332	6585.86
771.726	6610.45
772.121	6535.9
772.515	6605.55
772.91	6585.51
773.304	6674.76
773.699	6593.65
774.093	6664.84
774.487	6732.88
774.881	6787.27
775.275	6785.06
775.669	6732.56
776.063	6788.24
776.457	6830.89
776.851	6740.56
777.245	6734.9
777.638	6775.13
778.032	6918.26
778.425	6870.2
778.819	6921.47
779.212	6867.2
779.606	6812.96
779.999	6837.96
780.392	6818.41
780.786	6927.33
781.179	6951.63
781.572	7004.45
781.965	7022.17
782.358	6950.58
782.751	7023.58
783.143	6964.77
783.536	7057.28
783.929	7113.3
784.322	7256.74
784.714	7294.77
785.107	7280.64
785.499	7369.07
785.891	7340.98
786.284	7315.84
786.676	7492.85
787.068	7466.99
787.46	7530.21
787.852	7554.89
788.245	7661.38
788.636	7695.57
789.028	7777.46
789.42	7832.77
789.812	7842.03
790.204	7963.35
790.595	8086.26
790.987	7844.53
791.378	7871
791.77	8035.3
792.161	8203.72
792.553	8269.73
792.944	8130.85
793.335	8051.65
793.726	8139.07
794.117	8251.96
794.508	8421.4
794.899	8383.02
795.29	8555.16
795.681	8628.53
796.072	8452.28
796.463	8215.73
796.853	8228.39
797.244	8423.45
797.634	8460.44
798.025	8459.08
798.415	8475.4
798.806	8583.64
799.196	8688.21
799.586	8751.19
799.976	8703.27
800.366	8989.54
800.756	9294.37
801.146	9248.72
801.536	9283.95
801.926	9375.28
802.316	9407.97
802.706	9493.75
803.095	9346.77
803.485	9477.43
803.874	9527.28
804.264	9851.12
804.653	9814.67
805.043	9992.63
805.432	10126.86
805.821	10129.73
806.21	10157.94
806.599	10305.47
806.988	10363.03
807.377	10499.77
807.766	10662.22
808.155	11019.48
808.544	10693.47
808.933	10711.13
809.321	10683.44
809.71	11048.92
810.098	11250.23
810.487	11823.22
810.875	12418.09
811.264	12448.94
811.652	12798.46
812.04	12980.44
812.428	13179.87
812.816	14125.83
813.204	14644.89
813.592	15338.1
813.98	15759.93
814.368	15634.39
814.756	16223.53
815.144	16124.04
815.531	16697.59
815.919	16604.71
816.306	16977.21
816.694	16589.47
817.081	16654.21
817.469	17083.34
817.856	17083.03
818.243	17423.75
818.63	17922.02
819.017	17403.71
819.404	17479.7
819.791	17956.79
820.178	18727.73
820.565	19035.48
820.952	20191.79
821.339	19578.89
821.725	19810.02
822.112	18877.3
822.498	18814.18
822.885	18971.05
823.271	18851.27
823.657	19373.79
824.044	19377.61
824.43	19468.06
824.816	19433.23
825.202	18893.83
825.588	20152.14
825.974	20169.22
826.36	20807.21
826.746	20851.38
827.132	21285.11
827.517	21254.45
827.903	20278.59
828.289	20321.13
828.674	19344.32
829.06	19207.32
829.445	19701.93
829.83	20151.99
830.216	20743.46
830.601	21195.93
830.986	20684.75
831.371	20519.84
831.756	21210.66
832.141	20682.09
832.526	20678.7
832.911	21036.07
833.295	20902.16
833.68	21483.02
834.065	20711.65
834.449	19583.05
834.834	19498.67
835.218	19498.08
835.603	19916.35
835.987	19661.86
836.371	20702.92
836.755	20579.15
837.139	21080.37
837.524	21388.95
837.908	21167.06
838.291	21244.31
838.675	21329.36
839.059	21586.97
839.443	21584.14
839.827	21307.74
840.21	21905.23
840.594	21718.32
840.977	21972.05
841.361	21945.03
841.744	22407.01
842.127	22218.56
842.511	22521.68
842.894	23261.04
843.277	23730.52
843.66	24403.55
844.043	24509.69
844.426	23503.68
844.809	23117.82
845.191	23156.39
845.574	22590.55
845.957	22133.67
846.339	21998.32
846.722	21350.69
847.104	21435.95
847.487	21228.92
847.869	21242.22
848.252	21585.84
848.634	21995.77
849.016	22321.34
849.398	22477.18
849.78	23534.2
850.162	23544.18
850.544	24053.24
850.926	24828.17
851.307	24724.88
851.689	25073.5
852.071	25633.05
852.452	26035.61
852.834	26008.62
853.215	26515.16
853.597	26705.93
853.978	27079.73
854.359	27644.41
854.741	26421.41
855.122	26294.37
855.503	25938.68
855.884	26105.33
856.265	26029.56
856.646	26175.91
857.026	25695.29
857.407	25596.56
857.788	25795.34
858.169	26134.63
858.549	25074.55
858.93	25840.36
859.31	25905.1
859.69	26149.67
860.071	25644.88
860.451	25376.25
860.831	24452.43
861.211	25870.28
861.591	26555.81
861.971	26524.53
862.351	26772.12
862.731	27255.93
863.111	27575.45
863.491	27983.73
863.87	29074.15
864.25	29504.96
864.629	29004.46
865.009	29639.27
865.388	30708.08
865.768	32904.74
866.147	32777.28
866.526	30959.73
866.905	31318.63
867.284	33091.63
867.663	31419.02
868.042	30116.7
868.421	30011.79
868.8	30516.31
869.179	30812.66
869.558	29023.5
869.936	26741.74
870.315	27211.71
870.693	27862.42
871.072	30062.87
871.45	28631.85
871.828	29002.66
872.207	30485.25
872.585	30025.21
872.963	30845.78
873.341	29781.22
873.719	29421.63
874.097	29073.2
874.475	29630.1
874.853	30317.48
875.23	29058.04
875.608	30272.69
875.986	32738.32
876.363	31311.13
876.741	32256.38
877.118	31438.9
877.495	32985.45
877.873	33539.12
878.25	35286.95
878.627	33844.98
879.004	34309.04
879.381	34129.6
879.758	33234.19
880.135	30943.05
880.512	32721.45
880.889	31877.1
881.265	31541.62
881.642	31289.15
882.019	31810.6
882.395	31183.81
882.772	32415.76
883.148	31011.68
883.524	30897.97
883.901	30720.97
884.277	31180.81
884.653	30982.16
885.029	31859.64
885.405	35285.04
885.781	34996.95
886.157	33564.35
886.532	33963.46
886.908	33945.17
887.284	37744.9
887.659	38951.42
888.035	40165.14
888.411	41200.79
888.786	41755.22
889.161	43211.43
889.537	42423.08
889.912	43789.51
890.287	43745.72
890.662	44876.11
891.037	44069.66
891.412	41111.64
891.787	40719.15
892.162	39302.82
892.536	40239.79
892.911	38718.88
893.286	37906.77
893.66	36375.71
894.035	37306.89
894.409	40631.44
894.784	38997.52
895.158	39649.72
895.532	41988.77
895.906	43124.57
896.281	44125.17
896.655	43404.81
897.029	49597.26
897.402	51647.22
897.776	57494.15
898.15	57292.06
898.524	56659.91
898.898	57392.64
899.271	64248.48
899.645	55655.81
900.018	53488.35
900.392	55473
900.765	55940.3
901.138	51771.54
901.511	50974.04
901.884	46780.46
902.258	43153.55
902.631	44588.95
903.003	51330.72
903.376	46328.58
903.749	51928.32
904.122	55551.95
904.495	61165.12
904.867	61923.18
905.24	53759.26
905.612	50076.77
905.985	51216.88
906.357	53550.4
906.729	51125.17
907.102	43685.4
907.474	41998.51
907.846	42279.26
908.218	41738.43
908.59	36869.54
908.962	35652.91
909.334	38390.58
909.705	40310.37
910.077	39171.5
910.449	40772.06
910.82	41896.52
911.192	46096.04
911.563	47914.99
911.935	51273.83
912.306	51350.46
912.677	53040.88
913.048	52498.94
913.419	56980.1
913.79	57313
914.161	61428.62
914.532	58704.69
914.903	53962.48
915.274	51227.44
915.645	50457.18
916.015	44403.19
916.386	42321.17
916.756	45057.39
917.127	46493.89
917.497	41522.41
917.868	45192.71
918.238	42935.81
918.608	44162.49
918.978	45076.22
919.348	47733.81
919.718	49308.81
920.088	47496.92
920.458	49332.05
920.828	51912.59
921.198	49196.32
921.567	52563.38
921.937	40692.23
922.306	41081.42
922.676	44300.3
923.045	36941.35
923.415	35089.72
923.784	31960.68
924.153	32855.68
924.522	32832.54
924.891	30868.52
925.26	33066.01
925.629	32284.72
925.998	37117.99
926.367	36237.59
926.736	34504.21
927.104	41119.02
927.473	44214.81
927.842	53400.87
928.21	52898.72
928.578	55592.84
928.947	52557.31
929.315	52898.5
929.683	62054.41
930.051	62524.64
930.42	72587.83
930.788	62069.79
931.156	61562.1
931.523	57665.09
931.891	53255.4
932.259	51123.64
932.627	59232.9
932.994	83828.4
933.362	69221.82
933.729	60047.04
934.097	57491.48
934.464	48626.03
934.831	56100.43
935.199	55323.97
935.566	53706.35
935.933	54512.07
936.3	66057.2
936.667	51440.2
937.034	46344.53
937.401	45858.67
937.767	39584.98
938.134	35227.17
938.501	49735.41
938.867	52997.63
939.234	89558.25
939.6	76322.34
939.967	83916.85
940.333	56158.17
940.699	47798.91
941.065	38364.13
941.431	50273.35
941.798	48443.99
942.163	63617.12
942.529	39711.14
942.895	36547.05
943.261	23633.74
943.627	31028.36
943.992	27174.03
944.358	27211.99
944.723	27298
945.089	26625.66
945.454	24596.25
945.82	26294.87
946.185	25287.02
946.55	29270.24
946.915	26260.88
947.28	30838.67
947.645	27155.01
948.01	25039.94
948.375	26116.58
948.74	31341.51
949.104	36518.27
949.469	52795.41
949.834	93291.19
950.198	88361.77
950.562	52941.76
950.927	44093.02
951.291	53070.6
951.655	45202.71
952.02	42533.45
952.384	32138.42
952.748	27955.3
953.112	27283.62
953.476	23737.69
953.839	21957.33
954.203	21733.72
954.567	27219.95
954.931	42885.79
955.294	36663.83
955.658	36903.88
956.021	62723.09
956.385	106476.51
956.748	157270.23
957.111	244231.62
957.474	274012.67
957.837	308425.83
958.2	233524.25
958.563	83934.31
958.926	56759.83
959.289	86216.93
959.652	96271.22
960.015	72185.09
960.377	103588.96
960.74	118057.11
961.102	203758.68
961.465	218713.54
961.827	117095.63
962.189	224628.84
962.552	155848.11
962.914	125079.53
963.276	81048.58
963.638	67017.5
964	66425.22
964.362	44899.62
964.724	43471.69
965.085	31005.08
965.447	25443.59
965.809	29030.15
966.17	29093.77
966.532	31488.83
966.893	28857.65
967.255	26291.87
967.616	31058.4
967.977	24866.24
968.338	27170.33
968.699	22318.13
969.061	22306.42
969.421	22439.77
969.782	25176.59
970.143	21258.82
970.504	22004.03
970.865	25028.24
971.225	25573.78
971.586	25001.82
971.946	35663.92
972.307	30942.18
972.667	40496.88
973.027	41711.08
973.388	50603.21
973.748	34398.74
974.108	37464.88
974.468	50764.2
974.828	39079.45
975.188	30089.76
975.548	27639.5
975.907	23198.97
976.267	26010.42
976.627	21816.01
976.986	22632.52
977.346	21562.93
977.705	20755.13
978.064	18900.96
978.424	15706.21
978.783	16264.79
979.142	18574.61
979.501	17760.71
979.86	18754.04
980.219	18078.44
980.578	23335.51
980.937	26127.31
981.296	23287.25
981.654	23975.73
982.013	37322.74
982.371	48459.42
982.73	45299.37
983.088	51286.55
983.447	54832.75
983.805	78429.97
984.163	163925.64
984.521	181884.32
984.879	266580.76
985.237	-433625.42
985.595	417826.97
985.953	103777.68
986.311	59912.7
986.669	34787.2
987.026	30005.97
987.384	40397.98
987.741	41748
988.099	29828.29
988.456	23802.29
988.814	22269.56
989.171	19368.59
989.528	19110.04
989.885	20196.75
990.242	16010.16
990.599	19909.08
990.956	16270.12
991.313	11381.19
991.67	9347.71
992.027	9886.74
992.383	8772.04
992.74	7685.96
993.096	8055.4
993.453	8350.63
993.809	8655.3
994.165	11521.13
994.522	10545.94
994.878	11649.29
995.234	14586.49
995.59	14385.32
995.946	13653.7
996.302	15590.51
996.658	18057.12
997.013	19926.08
997.369	23595.89
997.725	30142.62
998.08	19523.94
998.436	30176.11
998.791	41598.5
999.147	41542.92
999.502	45325.88
999.857	32914.13
1000.212	53625.71
1000.567	76261.92
1000.922	43976.8
1001.277	27950.98
1001.632	20795.87
1001.987	26803.82
1002.342	19209.63
1002.696	15376.82
1003.051	12260.36
1003.406	14859.79
1003.76	14826.45
1004.114	14608.48
1004.469	12257.13
1004.823	10149.19
1005.177	10964.58
1005.531	8691.89
1005.885	7706.72
1006.239	8688.38
1006.593	10859.08
1006.947	14549.62
1007.301	10917.71
1007.655	11885.92
1008.008	8717.04
1008.362	9813.31
1008.715	14010.92
1009.069	12732.67
1009.422	19115.37
1009.776	38320.51
1010.129	25484.15
1010.482	21338.5
1010.835	18033.59
1011.188	37581.19
1011.541	35427.44
1011.894	-216604.86
1012.247	638604.27
1012.6	43357.77
1012.952	27306.99
1013.305	14087.82
1013.657	10157.34
1014.01	9611.85
1014.362	7925.59
1014.715	7036.84
1015.067	6113.42
1015.419	5962.97
1015.771	5288.48
1016.123	4693.33
1016.475	4823.43
1016.827	5150.14
1017.179	5513.12
1017.531	5564.66
1017.883	5689.39
1018.234	5484.36
1018.586	6930.53
1018.938	7309.6
1019.289	10106.07
1019.64	11583.98
1019.992	10815.06
1020.343	9898.39
1020.694	7818.78
1021.045	6949.91
1021.396	7926.59
1021.747	8481.28
1022.098	10175.03
1022.449	7359.38
1022.8	6866.38
1023.151	4744.93
1023.501	4197.17
1023.852	4566.1
1024.202	4749.22
1024.553	5218.3
1024.903	5064.17
1025.253	4318.92
1025.604	3902.84
1025.954	4863.65
1026.304	5929.52
1026.654	6912.21
1027.004	10187.49
1027.354	16509.48
1027.703	15526.63
1028.053	20460.55
1028.403	29796.41
1028.753	43473.02
1029.102	59481.15
1029.452	305958.76
1029.801	13202.29
1030.15	8558.15
1030.499	7261.44
897.758	2535.85
901.051	2488.65
904.343	2522.31
907.636	2524.18
910.928	2589.01
914.22	2499.97
917.511	2506.23
920.803	2566.59
924.094	2579.97
927.384	2566.49
930.675	2533.31
933.965	2488.93
937.255	2502.36
940.544	2469.01
943.834	2429.05
947.123	2368.24
950.411	2464.29
953.7	2438.87
956.988	2410.44
960.276	2352.38
963.563	2426.55
966.851	2423.56
970.138	2478.85
973.424	2473.5
976.711	2426.76
979.997	2533.64
983.283	2574.48
986.568	2486.56
989.853	2497.38
993.138	2526.02
996.423	2607.64
999.708	2548.64
1002.992	2605.81
1006.275	2462.08
1009.559	2495.56
1012.842	2604.5
1016.125	2543.19
1019.408	2522.47
1022.69	2603.1
1025.972	2624.85
1029.254	2599.18
1032.536	2540.56
1035.817	2564.99
1039.098	2515.33
1042.379	2635.23
1045.659	2644.11
1048.939	2584.22
1052.219	2598.13
1055.498	2607.05
1058.778	2595.43
1062.057	2578.71
1065.335	2601.94
1068.614	2617.83
1071.892	2604.62
1075.17	2676.21
1078.447	2666.23
1081.724	2659.88
1085.001	2694.33
1088.278	2672.88
1091.554	2683.94
1094.83	2680.58
1098.106	2709.35
1101.382	2750.08
1104.657	2752.88
1107.932	2746.46
1111.206	2713.77
1114.481	2673.26
1117.755	2675.44
1121.029	2658.54
1124.302	2711.83
1127.575	2668.98
1130.848	2657.65
1134.121	2622.12
1137.393	2573.85
1140.665	2638.53
1143.937	2618.55
1147.208	2574.55
1150.48	2620.93
1153.75	2606.44
1157.021	2628.86
1160.291	2604.27
1163.561	2650.01
1166.831	2634.22
1170.101	2665.52
1173.37	2637.76
1176.639	2585.25
1179.907	2639.77
1183.176	2650.93
1186.444	2656.44
1189.711	2685.24
1192.979	2701.22
1196.246	2653.75
1199.513	2671.08
1202.78	2671.06
1206.046	2679.49
1209.312	2703.31
1212.578	2728.23
1215.843	2683.7
1219.108	2657.29
1222.373	2680.07
1225.638	2644.82
1228.902	2631.33
1232.166	2594.18
1235.43	2578.89
1238.693	2598.65
1241.956	2593.96
1245.219	2638.21
1248.482	2625.74
1251.744	2620.05
1255.006	2761.49
1258.268	2713.97
1261.529	2661.29
1264.79	2664.73
1268.051	2772.05
1271.312	2782.97
1274.572	2751.35
1277.832	2741.43
1281.092	2729.68
1284.351	2707.07
1287.61	2687.56
1290.869	2609.01
1294.128	2590.67
1297.386	2670.29
1300.644	2661.03
1303.902	2671.65
1307.159	2533.36
1310.416	2587.74
1313.673	2614.1
1316.93	2601.2
1320.186	2642.09
1323.442	2683.58
1326.697	2676.16
1329.953	2660.92
1333.208	2686.35
1336.463	2664.95
1339.717	2606.72
1342.972	2735.35
1346.226	2711.2
1349.479	2646.77
1352.733	2620.28
1355.986	2638.5
1359.238	2617.2
1362.491	2617.77
1365.743	2621.17
1368.995	2615.17
1372.247	2626.08
1375.498	2649.92
1378.749	2672.27
1382	2623.2
1385.251	2673.6
1388.501	2632.51
1391.751	2620.71
1395	2588.18
1398.25	2620.04
1401.499	2630.27
1404.748	2563.66
1407.996	2548.56
1411.244	2533.89
1414.492	2514.86
1417.74	2492.65
1420.987	2501.34
1424.234	2556.84
1427.481	2532.1
1430.728	2591.26
1433.974	2564.3
1437.22	2574.94
1440.465	2574.5
1443.711	2550.38
1446.956	2582.05
1450.201	2564.78
1453.445	2612.78
1456.689	2591.45
1459.933	2603.38
1463.177	2640.45
1466.42	2610.39
1469.663	2593.85
1472.906	2593.27
1476.148	2656.27
1479.391	2633.68
1482.633	2601.47
1485.874	2614.43
1489.115	2604.56
1492.356	2606.87
1495.597	2584.78
1498.838	2584.58
1502.078	2558.86
1505.318	2512.82
1508.557	2554.78
1511.797	2540.66
1515.036	2592.85
1518.274	2583.73
1521.513	2554.33
1524.751	2573.61
1527.989	2591.31
1531.227	2606.66
1534.464	2606.96
1537.701	2620.16
1540.938	2638.35
1544.174	2591.68
1547.41	2587.98
1550.646	2627.64
1553.882	2670.94
1557.117	2722.67
1560.352	2737.28
1563.587	2694.93
1566.821	2655.92
1570.055	2686.39
1573.289	2660.57
1576.523	2734.92
1579.756	2744.38
1582.989	2765.17
1586.222	2723.41
1589.454	2758.41
1592.686	2738.84
1595.918	2766.04
1599.15	2757.48
1602.381	2824.31
1605.612	2787.22
1608.843	2885.63
1612.073	2796.64
1615.303	2779.72
1618.533	2774.98
1621.762	2773.61
1624.992	2759.23
1628.221	2747.43
1631.449	2731.99
1634.678	2781.46
1637.906	2738.87
1641.134	2776.42
1644.361	2735.52
1647.588	2724.14
1650.815	2741.71
1654.042	2715.21
1657.269	2748.14
1660.495	2703.57
1663.72	2719.99
1666.946	2686.84
1670.171	2637.85
1673.396	2611.71
1676.621	2596.9
1679.845	2610.48
1683.069	2627.17
1686.293	2666.59
1689.517	2643.02
1692.74	2579.6
1695.963	2606.16
1699.185	2627.73
1702.408	2598.62
1705.63	2639.02
1708.852	2651.6
1712.073	2623.98
1715.294	2614.26
1718.515	2673.07
1721.736	2624.06
1724.956	2611.58
1728.176	2634.63
1731.396	2658.73
1734.616	2645.44
1737.835	2676.94
1741.054	2651.84
1744.272	2644.93
1747.491	2676.54
1750.709	2722.59
1753.927	2636.7
1757.144	2675.77
1760.361	2723.53
1763.578	2712.49
1766.795	2656.56
1770.011	2656.08
1773.227	2693.06
1776.443	2731.27
1779.658	2777.1
1782.874	2717.78
1786.089	2697.75
1789.303	2699.6
1792.518	2704.75
1795.732	2690.43
1798.945	2701.88
1802.159	2748.21
1805.372	2660.15
1808.585	2648.37
1811.797	2646.78
1815.01	2688.01
1818.222	2694.58
1821.434	2674.18
1824.645	2729.32
1827.856	2717.93
1831.067	2755.08
1834.278	2704.9
1837.488	2685.4
1840.698	2828.93
1843.908	2755.7
1847.117	2721.22
1850.326	2617.64
1853.535	2709.43
1856.744	2724.48
1859.952	2640.36
1863.16	2644.84
1866.368	2660.55
1869.575	2764.5
1872.782	2652.29
1875.989	2588.23
1879.196	2662.11
1882.402	2650.71
1885.608	2687.71
1888.814	2599.63
1892.019	2499.14
1895.224	2549.4
1898.429	2524.09
1901.634	2503.16
1904.838	2482.93
1908.042	2528.17
1911.246	2538.73
1914.449	2478.02
1917.652	2472.38
1920.855	2454.59
1924.058	2497.09
1927.26	2535.9
1930.462	2562.97
1933.664	2591.17
1936.865	2532.91
1940.066	2538.76
1943.267	2490.42
1946.467	2500.19
1949.668	2525.71
1952.868	2593.33
1956.067	2573.97
1959.267	2507.61
1962.466	2533.7
1965.665	2518.62
1968.863	2515.61
1972.061	2524.76
1975.259	2522.68
1978.457	2601.14
1981.654	2560.88
1984.852	2560.77
1988.048	2499.73
1991.245	2498.06
1994.441	2583.63
1997.637	2562.44
2000.833	2541.71
2004.028	2579.16
2007.223	2638.96
2010.418	2618.34
2013.613	2574.07
2016.807	2550.65
2020.001	2560.25
2023.194	2595.92
2026.388	2575.4
2029.581	2520.93
2032.774	2573.31
2035.966	2582.53
2039.158	2518.24
2042.35	2540.48
2045.542	2470.37
2048.733	2568.71
2051.924	2584.85
2055.115	2606.28
2058.306	2555.99
2061.496	2613.66
2064.686	2677.09
2067.875	2586.67
2071.065	2597.98
2074.254	2621.63
2077.442	2574.96
2080.631	2662.31
2083.819	2563.07
2087.007	2546.01
2090.195	2520.18
2093.382	2552.9
2096.569	2534.45
2099.756	2487.63
2102.942	2521.51
2106.128	2529.02
2109.314	2519.84
2112.5	2489.69
2115.685	2462.15
2118.87	2471.99
2122.055	2536.61
2125.239	2506.11
2128.424	2483.35
2131.608	2575.12
2134.791	2558.95
2137.974	2610.17
2141.157	2595.22
2144.34	2552.25
2147.523	2562.37
2150.705	2579.19
2153.887	2556.23
2157.068	2512.61
2160.25	2509.3
2163.431	2540.95
2166.611	2492.93
2169.792	2510.73
2172.972	2409.75
2176.152	2481.84
2179.331	2514.26
2182.511	2500.76
2185.69	2529.3
2188.868	2524.89
2192.047	2574.3
2195.225	2570.56
2198.403	2521.22
2201.58	2513.37
2204.758	2505.74
2207.935	2587.84
2211.111	2481.04
2214.288	2467.84
2217.464	2504.22
2220.64	2469.24
2223.815	2521.54
2226.991	2446.65
2230.166	2466.47
2233.34	2499.59
2236.515	2517.08
2239.689	2587.84
2242.863	2532.47
2246.036	2591.04
2249.209	2585.78
2252.382	2617.57
2255.555	2611.73
2258.727	2554.26
2261.9	2590.96
2265.071	2583.54
2268.243	2584.08
2271.414	2522.48
2274.585	2487.79
2277.756	2554.3
2280.926	2505.65
2284.096	2543.49
2287.266	2455.19
2290.436	2507.27
2293.605	2536.33
2296.774	2566.03
2299.942	2580.18
2303.111	2596.17
2306.279	2646.92
2309.447	2632.36
2312.614	2606.45
2315.781	2630.2
2318.948	2601.93
2322.115	2639.97
2325.281	2543.69
2328.447	2559.98
2331.613	2532.56
2334.779	2511.55
2337.944	2512.75
2341.109	2510.65
2344.274	2497.27
2347.438	2462.94
2350.602	2486.64
2353.766	2501.73
2356.929	2489.55
2360.092	2531.85
2363.255	2485.05
2366.418	2429.39
2369.58	2531.13
2372.742	2341.3
2375.904	2350.19
2379.066	2328.78
2382.227	2360.33
2385.388	2324.49
2388.548	2257.25
2391.709	2307.51
2394.869	2287.11
2398.029	2377.35
2401.188	2385.54
2404.347	2326.7
2407.506	2452.75
2410.665	2483.6
2413.823	2484.16
2416.981	2448.22
2420.139	2475.2
2423.296	2524.68
2426.453	2496.67
2429.61	2519.59
2432.767	2460.69
2435.923	2499.92
2439.079	2459.38
2442.235	2505.4
2445.391	2434.14
2448.546	2465.57
2451.701	2514.16
2454.855	2491.55
2458.009	2534.41
2461.163	2534.13
2464.317	2496.12
2467.471	2528.84
2470.624	2563.26
2473.777	2539.09
2476.929	2549.32
2480.082	2577.96
2483.234	2544.24
2486.385	2492.45
2489.537	2485.59
2492.688	2453.73
2495.839	2471.91
2498.989	2483.95
2502.14	2469.23
2505.29	2458.96
2508.439	2479.78
2511.589	2408.87
2514.738	2415.36
2517.887	2444.61
2521.035	2511.8
2524.183	2489.46
2527.331	2472.48
2530.479	2451.16
2533.627	2459.13
