Data from N_2_DEC_VA_2N_Splice17_12-06-54-406.txt Node
Date: Sat Mar 14 12:06:54 EDT 2020
User: sa697716
Spectrometer: FLMS03696
Trigger mode: 0
Integration Time (sec): 3.180400E-1
Scans to average: 20
Electric dark correction enabled: true
Nonlinearity correction enabled: true
Boxcar width: 5
XAxis mode: Wavelengths
Number of Pixels in Spectrum: 2048
>>>>>Begin Spectral Data<<<<<
187.83	-364094.33
188.298	2609.14
188.766	1383.27
189.233	1273.24
189.701	1776.45
190.169	2470.45
190.636	943.38
191.104	824.22
191.571	194.59
192.039	43.12
192.506	45.62
192.974	576.93
193.441	-703.47
193.908	-192.94
194.375	-58.89
194.842	62.27
195.31	169.85
195.777	193.65
196.244	461.94
196.711	623.25
197.177	791.71
197.644	1123.27
198.111	1925.43
198.578	2667.75
199.045	2157.48
199.511	3558.99
199.978	4135.48
200.445	3488.54
200.911	3858.33
201.378	4343.57
201.844	3925.89
202.31	6756.29
202.777	7043.34
203.243	3920.47
203.709	3740.52
204.176	4455.82
204.642	3664.25
205.108	3424.47
205.574	2828.53
206.04	2592.52
206.506	2409.01
206.972	2270.92
207.438	2186.38
207.903	2478.74
208.369	2175.4
208.835	2173.44
209.301	2271.34
209.766	2329.22
210.232	2293.77
210.697	2807.13
211.163	3463.13
211.628	5280.97
212.094	4421.95
212.559	5416.83
213.024	3373.64
213.49	4110.67
213.955	4016.53
214.42	3964.1
214.885	3700.16
215.35	3568.67
215.815	3423.32
216.28	3641.07
216.745	2975.02
217.21	3218.92
217.675	2972.43
218.14	3358.53
218.604	3759.23
219.069	4298.1
219.534	4484.4
219.998	5247.48
220.463	6369.41
220.927	7925.82
221.392	7482.42
221.856	7597.28
222.32	9623.33
222.785	11887.89
223.249	15016.25
223.713	16823.09
224.177	16820.17
224.642	21679.05
225.106	26690.84
225.57	29217.11
226.034	21655.04
226.497	32961.94
226.961	29701.19
227.425	34611.39
227.889	38396.87
228.353	38360.48
228.816	79133.96
229.28	75561.41
229.744	63668.39
230.207	38626.79
230.671	37976.97
231.134	62861.9
231.597	72404.09
232.061	72406.93
232.524	70398.09
232.987	48443.9
233.45	43523.59
233.914	38959.66
234.377	39960.98
234.84	36473.23
235.303	43034.1
235.766	47960.89
236.229	49487.05
236.691	31114.39
237.154	34921.97
237.617	26259.46
238.08	26880.37
238.542	31446.66
239.005	22477.39
239.468	22293.45
239.93	21017.26
240.393	19067.5
240.855	16719.05
241.317	17119.13
241.78	20845.44
242.242	21512.57
242.704	23178.23
243.166	20146.47
243.629	18249.49
244.091	20998.96
244.553	22963.72
245.015	24628.03
245.477	31822.66
245.939	46604.59
246.4	49332.18
246.862	47873.54
247.324	45126.28
247.786	50489.13
248.247	66077.13
248.709	68229.66
249.17	50963.5
249.632	47926.71
250.093	55457.3
250.555	47835.1
251.016	29118.6
251.477	27634.16
251.939	29765.93
252.4	31186.02
252.861	37058.89
253.322	34475.71
253.783	41012.14
254.244	53121.95
254.705	41885.23
255.166	37255.17
255.627	36642.25
256.088	51658.95
256.549	54868.32
257.009	47285.18
257.47	57390.55
257.931	46716.05
258.391	34987.35
258.852	36063.76
259.312	37821.56
259.773	46739.93
260.233	39466.77
260.694	33277.11
261.154	37777.02
261.614	30281.77
262.074	27086.52
262.534	28124.5
262.994	26487.95
263.455	35295.53
263.915	29730.84
264.374	28030.95
264.834	30585.28
265.294	33907.79
265.754	35139.72
266.214	33238.42
266.673	31140.49
267.133	39277.03
267.593	38963.64
268.052	47672.35
268.512	41422.28
268.971	49868.5
269.431	54602.84
269.89	48894.84
270.349	73269.05
270.809	81595.45
271.268	73317.74
271.727	164469.39
272.186	106505.36
272.645	79795.05
273.104	57602.56
273.563	83442.73
274.022	65662.2
274.481	55845.75
274.94	42990.6
275.399	31985.67
275.857	37260.4
276.316	50408.72
276.775	44855.11
277.233	44148.98
277.692	41316.94
278.15	46709.7
278.609	48018.15
279.067	44428.59
279.525	41281.57
279.984	53321.87
280.442	63993.78
280.9	63071.69
281.358	41473.86
281.816	38628.91
282.274	37837.1
282.732	39145.21
283.19	39355.07
283.648	33968.76
284.106	36210.83
284.564	36808.52
285.021	34149.21
285.479	25456.18
285.937	23163.42
286.394	20340.46
286.852	20939.27
287.309	21993
287.767	21226.16
288.224	20182.51
288.682	22136.96
289.139	24278.31
289.596	22196.95
290.053	23062.09
290.511	29091.5
290.968	35241
291.425	47741.69
291.882	39677.29
292.339	34503.65
292.796	34211.58
293.252	32182.62
293.709	25555.96
294.166	22891.48
294.623	25292.68
295.079	24256.2
295.536	24361.39
295.992	22107.8
296.449	21858.18
296.905	22707.46
297.362	21765.01
297.818	22901.89
298.274	23758.06
298.731	24214.78
299.187	23962.29
299.643	25733.29
300.099	31098.83
300.555	34111.86
301.011	28502.5
301.467	27443.56
301.923	32148.2
302.379	31404.07
302.835	30828.39
303.291	30871.81
303.746	35110.68
304.202	44338.17
304.658	44489.41
305.113	29956.5
305.569	29324.59
306.024	31295.87
306.479	29823.19
306.935	25130.92
307.39	27451.99
307.845	25362.72
308.301	25491.23
308.756	24845.85
309.211	23946.34
309.666	24556.84
310.121	30469.25
310.576	30966.73
311.031	30726.82
311.486	35227.7
311.94	35186.9
312.395	47015.2
312.85	88357.91
313.305	434979.95
313.759	2249911.73
314.214	163121.57
314.668	129112.34
315.123	108427.77
315.577	38889.05
316.032	34577.63
316.486	43347.35
316.94	34205.27
317.394	23828.51
317.849	18511.37
318.303	17499.12
318.757	16523.3
319.211	18236.04
319.665	15954.77
320.119	16160
320.572	23166.3
321.026	21625.33
321.48	17990.36
321.934	19622.57
322.387	19679.71
322.841	21244.11
323.295	19073.29
323.748	21961.96
324.202	22273.66
324.655	26781.91
325.108	37387.41
325.562	26378.79
326.015	31339.06
326.468	23667.3
326.921	26455.36
327.374	24636.45
327.827	25659.07
328.28	29094.54
328.733	19496.51
329.186	17159.31
329.639	16328.7
330.092	13761.78
330.545	13106.22
330.997	13232.18
331.45	14462.48
331.903	16944.28
332.355	29160.26
332.808	28319.78
333.26	23362.88
333.713	25373.57
334.165	25567.85
334.617	34164.67
335.069	27643.66
335.522	50095.44
335.974	55446.46
336.426	50644.75
336.878	35126.6
337.33	17836.27
337.782	17438
338.234	21823.42
338.686	26117.92
339.137	30954.14
339.589	29207.23
340.041	22882.23
340.493	19641.87
340.944	20093.45
341.396	21652.96
341.847	18199.66
342.299	21435.06
342.75	26135.04
343.201	22854.24
343.653	26236.3
344.104	32242.21
344.555	25350.87
345.006	39476.37
345.457	30175.45
345.908	23970.78
346.359	22533.11
346.81	18329.2
347.261	19307.35
347.712	19009.95
348.163	20390.97
348.613	20637.44
349.064	19261.88
349.515	16857.49
349.965	17256.53
350.416	20767.93
350.866	22803.16
351.317	25788.82
351.767	42686.94
352.217	53972.91
352.668	44807.9
353.118	41053.77
353.568	39674.37
354.018	31372.89
354.468	33080.01
354.918	23734.2
355.368	20820.84
355.818	29398.84
356.268	84581.89
356.718	354482.91
357.168	88166.16
357.617	44271.79
358.067	49270.66
358.517	46050.37
358.966	54050.47
359.416	60593.68
359.865	65512.15
360.315	78001.5
360.764	36519.38
361.213	20471.53
361.663	19406.55
362.112	24005.56
362.561	38796.18
363.01	29225.06
363.459	24690.32
363.908	26689.35
364.357	22718.78
364.806	38445.25
365.255	26444.86
365.703	24188.08
366.152	24251.85
366.601	19658.14
367.05	15959.36
367.498	14484.54
367.947	15158.25
368.395	15719.4
368.844	13920.59
369.292	16765.44
369.74	11587.43
370.189	17743.78
370.637	20804.83
371.085	17954.53
371.533	21929.18
371.981	21146.58
372.429	20206.24
372.877	21088.5
373.325	17688.09
373.773	18074.39
374.221	16151.68
374.669	20055.67
375.116	17392.52
375.564	17576.7
376.012	19680.64
376.459	16230.91
376.907	19460.97
377.354	23614.79
377.801	22115.55
378.249	25513.74
378.696	32749.81
379.143	39826.48
379.591	42685.46
380.038	72603.25
380.485	52754.49
380.932	57401.1
381.379	52797.8
381.826	39079.71
382.273	27943.66
382.72	24565.8
383.166	24109.88
383.613	15742.33
384.06	14266.82
384.506	16641.17
384.953	12303.78
385.4	12486.85
385.846	11011.02
386.292	10830.02
386.739	10697.88
387.185	10682.32
387.631	10774.58
388.078	10538.95
388.524	11368.06
388.97	10601.98
389.416	8911.53
389.862	9546.19
390.308	9110.87
390.754	9332.98
391.2	10216.75
391.645	10531.78
392.091	10109.34
392.537	9844.44
392.983	9948.88
393.428	9832.07
393.874	10595.6
394.319	10690.81
394.765	10217.37
395.21	10595.3
395.655	10001.02
396.101	9411.38
396.546	8542.39
396.991	8690.59
397.436	8110.91
397.881	7871.99
398.326	7510.2
398.771	7133.4
399.216	6271.83
399.661	5664.4
400.106	5647
400.551	5785.59
400.995	5199.07
401.44	5145.18
401.885	4835.81
402.329	4887.68
402.774	4680.69
403.218	4513.22
403.663	4349.21
404.107	4460.95
404.551	4486.29
404.995	4110.9
405.44	3962.37
405.884	4024.98
406.328	3894.76
406.772	3875.85
407.216	3524.73
407.66	3407.54
408.104	3236.74
408.547	3023.61
408.991	2920.49
409.435	2810.4
409.879	2766.58
410.322	2723.03
410.766	2620.89
411.209	2483.96
411.653	2381.39
412.096	2325.32
412.54	2322.21
412.983	2304.95
413.426	2307.38
413.869	2304.04
414.312	2255.06
414.756	2170.71
415.199	2068.25
415.642	2004.24
416.085	2000.94
416.527	1985.38
416.97	2014.02
417.413	1907.62
417.856	1887.12
418.298	1865.11
418.741	1851.92
419.184	1846.56
419.626	1924.27
420.069	1923.32
420.511	1929.99
420.953	1891.61
421.396	1870.88
421.838	1823.94
422.28	1861.29
422.722	1865.15
423.164	1889.78
423.606	1854.19
424.048	1846.59
424.49	1747.24
424.932	1735.32
425.374	1711.68
425.816	1734.95
426.258	1762.75
426.699	1775.69
427.141	1743.75
427.582	1765.42
428.024	1755.12
428.465	1743.44
428.907	1696.19
429.348	1675.28
429.789	1668.42
430.231	1625.24
430.672	1645.13
431.113	1601.99
431.554	1577.55
431.995	1537.49
432.436	1480.4
432.877	1442.59
433.318	1416.06
433.759	1410.4
434.2	1410.64
434.64	1396.46
435.081	1403.53
435.522	1331.85
435.962	1288
436.403	1260.31
436.843	1282.37
437.284	1258.93
437.724	1229.52
438.164	1237.85
438.604	1216.41
439.045	1171.45
439.485	1126.09
439.925	1105.57
440.365	1082.38
440.805	1074.01
441.245	1064.05
441.685	1030.8
442.125	1028.15
442.564	1040.89
443.004	1020.57
443.444	1023.41
443.883	1030.13
444.323	1032.66
444.762	1044.09
445.202	1066.02
445.641	1090.56
446.081	1094.26
446.52	1109.98
446.959	1108.54
447.398	1087.83
447.837	1085.15
448.276	1074.45
448.716	1095.37
449.154	1113.62
449.593	1095.25
450.032	1099.26
450.471	1086.83
450.91	1096.49
451.349	1099.48
451.787	1101.22
452.226	1124.28
452.664	1128.54
453.103	1135.44
453.541	1139.1
453.98	1138.84
454.418	1150.73
454.856	1132.79
455.295	1134.67
455.733	1144.37
456.171	1154.11
456.609	1156.61
457.047	1159.31
457.485	1175.63
457.923	1178.85
458.361	1163.53
458.798	1170.29
459.236	1167.02
459.674	1179.96
460.111	1187.33
460.549	1176.53
460.987	1173.57
461.424	1171.95
461.862	1165.88
462.299	1150.26
462.736	1147.2
463.173	1152.18
463.611	1136.14
464.048	1132.83
464.485	1141.22
464.922	1131.15
465.359	1127.32
465.796	1104.51
466.233	1095.53
466.67	1084.07
467.106	1079.43
467.543	1070.89
467.98	1059.35
468.416	1035.63
468.853	1027.95
469.29	997.79
469.726	986.78
470.162	961.32
470.599	957.18
471.035	950.83
471.471	930.17
471.907	927.05
472.344	923.02
472.78	926.01
473.216	939.16
473.652	930.69
474.088	930.74
474.523	929.12
474.959	938.71
475.395	930.95
475.831	925.97
476.266	932.47
476.702	933.23
477.138	923.69
477.573	920.8
478.008	917.72
478.444	921.73
478.879	928.49
479.314	932.09
479.75	932.5
480.185	938.22
480.62	948.26
481.055	953.99
481.49	961.29
481.925	975.7
482.36	991.95
482.795	1020.74
483.229	1051.6
483.664	1075.87
484.099	1083.33
484.534	1102.78
484.968	1115.09
485.403	1120.69
485.837	1123
486.271	1124.09
486.706	1129.83
487.14	1123.67
487.574	1110.43
488.009	1103.63
488.443	1099.05
488.877	1113.95
489.311	1121.77
489.745	1140.35
490.179	1156.54
490.613	1181.55
491.046	1197.3
491.48	1212.26
491.914	1219.22
492.348	1234.45
492.781	1249.43
493.215	1260.19
493.648	1269.7
494.082	1286.85
494.515	1294.89
494.948	1315.6
495.382	1334.24
495.815	1351.05
496.248	1369.25
496.681	1402.43
497.114	1434.25
497.547	1462.06
497.98	1493.77
498.413	1514.87
498.846	1542.65
499.279	1569.09
499.711	1587.13
500.144	1600.86
500.577	1629.1
501.009	1660.83
501.442	1687.7
501.874	1698.34
502.306	1712.01
502.739	1733.5
503.171	1771.56
503.603	1785.67
504.036	1813.91
504.468	1833.77
504.9	1865.76
505.332	1888.18
505.764	1901.78
506.196	1924.16
506.627	1960.31
507.059	1991.58
507.491	2019.03
507.923	2018.16
508.354	2053.28
508.786	2078.1
509.217	2118.03
509.649	2149.26
510.08	2190.45
510.512	2225.13
510.943	2255.86
511.374	2278.76
511.805	2322.27
512.237	2361.41
512.668	2429.06
513.099	2483.74
513.53	2536.89
513.961	2574.62
514.391	2636.67
514.822	2698.51
515.253	2768.9
515.684	2815.26
516.114	2867.62
516.545	2900.97
516.975	2945.22
517.406	2972.7
517.836	2968.01
518.267	2969.12
518.697	2993.31
519.127	2990.27
519.558	2993.44
519.988	2989.55
520.418	2999.23
520.848	3023.52
521.278	3029.31
521.708	3008.41
522.138	3020.8
522.567	3071.57
522.997	3110.48
523.427	3130.78
523.857	3152.72
524.286	3162.75
524.716	3180.52
525.145	3205.18
525.575	3215.3
526.004	3233.93
526.433	3249.59
526.863	3241.73
527.292	3210.95
527.721	3212.97
528.15	3217.14
528.579	3209.61
529.008	3221.28
529.437	3257.37
529.866	3276.84
530.295	3303.97
530.724	3318.95
531.152	3365.79
531.581	3385.36
532.01	3414.28
532.438	3424.85
532.867	3446.54
533.295	3478.06
533.723	3486.2
534.152	3478.82
534.58	3474.98
535.008	3440.81
535.436	3441.13
535.865	3453.44
536.293	3479.7
536.721	3508.05
537.149	3555.52
537.576	3558.95
538.004	3581.43
538.432	3596.41
538.86	3592.48
539.287	3605.91
539.715	3632.96
540.143	3641.17
540.57	3633.86
540.998	3625.08
541.425	3580.61
541.852	3540.03
542.28	3537.14
542.707	3506.1
543.134	3477.86
543.561	3468.16
543.988	3451.95
544.415	3449.49
544.842	3437.55
545.269	3422.98
545.696	3424.7
546.123	3447.45
546.549	3427.52
546.976	3400.57
547.403	3398.55
547.829	3402.71
548.256	3407.49
548.682	3400.75
549.108	3384.19
549.535	3383.65
549.961	3386.86
550.387	3364.83
550.813	3353.66
551.24	3365.11
551.666	3367.77
552.092	3349.45
552.518	3336.54
552.943	3323.46
553.369	3338.27
553.795	3348.92
554.221	3350.9
554.646	3346.14
555.072	3364.31
555.498	3376.43
555.923	3394.56
556.349	3424.28
556.774	3443.14
557.199	3448.8
557.625	3462.96
558.05	3454.23
558.475	3479.08
558.9	3478.75
559.325	3465.68
559.75	3458.12
560.175	3449.22
560.6	3441.21
561.025	3442.11
561.449	3449.38
561.874	3465.64
562.299	3481.05
562.723	3499.18
563.148	3486.97
563.572	3502.77
563.997	3527.59
564.421	3546.58
564.846	3556
565.27	3569.97
565.694	3574.04
566.118	3604.58
566.542	3624.86
566.966	3619.29
567.39	3617.82
567.814	3604.37
568.238	3610.79
568.662	3632.45
569.086	3645.92
569.509	3670.71
569.933	3649.05
570.357	3644.09
570.78	3610.54
571.204	3592.72
571.627	3582
572.05	3588.61
572.474	3595.08
572.897	3579.21
573.32	3571.24
573.743	3558.99
574.166	3527.12
574.589	3537.15
575.012	3528.91
575.435	3535.48
575.858	3525.47
576.281	3508.49
576.704	3483.09
577.126	3466.2
577.549	3450.22
577.972	3436.65
578.394	3422.61
578.817	3411.3
579.239	3377.59
579.661	3354.97
580.084	3325.39
580.506	3302.93
580.928	3300.18
581.35	3282.72
581.772	3277.98
582.194	3254.59
582.616	3232.7
583.038	3207.87
583.46	3194.11
583.882	3190.92
584.303	3206.06
584.725	3203.02
585.147	3204.24
585.568	3229.03
585.99	3258.1
586.411	3275.33
586.833	3309.51
587.254	3316.33
587.675	3350.49
588.096	3379.54
588.518	3370.83
588.939	3335.4
589.36	3332.65
589.781	3321.45
590.202	3259.89
590.623	3242.11
591.043	3238.81
591.464	3214.12
591.885	3207.71
592.305	3195.5
592.726	3167.64
593.147	3171.61
593.567	3164.56
593.987	3150.39
594.408	3141.57
594.828	3144.36
595.248	3133.58
595.669	3093.83
596.089	3079.72
596.509	3068.04
596.929	3042.48
597.349	3045.67
597.769	3026.45
598.189	3012.69
598.608	3016.29
599.028	3021.95
599.448	3023.5
599.867	2998.33
600.287	2993.77
600.706	2986.1
601.126	2965.22
601.545	2961.43
601.965	2959.94
602.384	2950.96
602.803	2959.75
603.222	2951.27
603.641	2939.76
604.061	2931.69
604.48	2927.12
604.898	2947.02
605.317	2961.05
605.736	2969.31
606.155	2966.45
606.574	2950.41
606.992	2965.1
607.411	2956.56
607.829	2944.05
608.248	2939.57
608.666	2941.35
609.085	2942.56
609.503	2927.57
609.921	2915.6
610.339	2924.04
610.758	2927.04
611.176	2921.32
611.594	2904.81
612.012	2903.08
612.43	2910.78
612.847	2929.65
613.265	2933.1
613.683	2947.46
614.101	2953.37
614.518	2950.94
614.936	2933.8
615.353	2906.19
615.771	2902.87
616.188	2909.09
616.606	2904.05
617.023	2893.96
617.44	2865.91
617.857	2857.08
618.274	2841.58
618.691	2829.89
619.108	2812.34
619.525	2801.41
619.942	2817.34
620.359	2826
620.776	2815.95
621.192	2809.28
621.609	2806.61
622.026	2822.49
622.442	2835.86
622.859	2845.84
623.275	2834.2
623.691	2848.06
624.108	2874.98
624.524	2909.65
624.94	2910.17
625.356	2935.07
625.772	2965.71
626.188	2994.83
626.604	2999.95
627.02	2991.6
627.436	2987.78
627.852	3002.25
628.268	3030.67
628.683	3011.58
629.099	2993.22
629.514	2985.15
629.93	2993.64
630.345	3004.9
630.761	2996.45
631.176	3005.47
631.591	2989.83
632.007	2974.08
632.422	2972.32
632.837	2948.6
633.252	2942.75
633.667	2920.87
634.082	2900.42
634.497	2870.38
634.911	2824.61
635.326	2818.04
635.741	2779.4
636.155	2759.59
636.57	2763.53
636.984	2762.14
637.399	2762.72
637.813	2762.89
638.228	2758.77
638.642	2767.59
639.056	2744.22
639.47	2744.5
639.884	2722.27
640.298	2705.61
640.712	2699.91
641.126	2670.11
641.54	2649.08
641.954	2638.7
642.368	2607.1
642.781	2582.33
643.195	2539.4
643.609	2536.12
644.022	2519.34
644.436	2507.98
644.849	2478.38
645.262	2451.17
645.676	2451.18
646.089	2434.85
646.502	2396.1
646.915	2380.79
647.328	2342.91
647.741	2334.35
648.154	2302.86
648.567	2289.26
648.98	2256.17
649.393	2254.03
649.805	2241.1
650.218	2222.54
650.631	2185.06
651.043	2168.04
651.456	2152.82
651.868	2152.91
652.28	2190.34
652.693	2220.19
653.105	2236.75
653.517	2256.83
653.929	2255.47
654.341	2266.66
654.753	2236.86
655.165	2251.62
655.577	2244.89
655.989	2233.14
656.401	2216.03
656.813	2132.46
657.224	2085.32
657.636	2022.53
658.047	1976.87
658.459	1931.67
658.87	1909.22
659.282	1880.68
659.693	1828.66
660.104	1789.94
660.515	1755.27
660.926	1742.08
661.338	1729.3
661.749	1708.42
662.159	1678.34
662.57	1661.77
662.981	1642.26
663.392	1616.31
663.803	1614.73
664.213	1601.13
664.624	1583.12
665.035	1577.78
665.445	1541.14
665.855	1514.85
666.266	1487.44
666.676	1472.4
667.086	1444.51
667.497	1431.56
667.907	1409.77
668.317	1380.11
668.727	1359.53
669.137	1352.06
669.547	1337.84
669.956	1334.1
670.366	1328.66
670.776	1322.11
671.186	1322.12
671.595	1320.81
672.005	1320.93
672.414	1313.39
672.824	1304.98
673.233	1309.93
673.642	1307.72
674.052	1307.58
674.461	1305.42
674.87	1308.96
675.279	1300.62
675.688	1299.92
676.097	1300.19
676.506	1291.57
676.915	1314.63
677.323	1319.73
677.732	1318.4
678.141	1319.6
678.549	1305.57
678.958	1309.05
679.366	1314.2
679.775	1331.72
680.183	1355.48
680.592	1374.88
681	1397.63
681.408	1400.4
681.816	1429.19
682.224	1462.45
682.632	1499.23
683.04	1575.54
683.448	1644.64
683.856	1727.25
684.264	1821.83
684.671	1917.4
685.079	2029.96
685.487	2149.91
685.894	2309.99
686.302	2450.84
686.709	2571.33
687.116	2710.68
687.524	2824.26
687.931	2924.16
688.338	3011.69
688.745	3088.24
689.152	3167.03
689.559	3264.91
689.966	3359.89
690.373	3399.64
690.78	3477.93
691.187	3602.54
691.593	3687.84
692	3757.52
692.407	3868.08
692.813	3998.8
693.22	4092.3
693.626	4189.54
694.032	4255.4
694.439	4374.32
694.845	4455.39
695.251	4568.85
695.657	4660.18
696.063	4815.91
696.469	4919.01
696.875	5004.7
697.281	5034.63
697.687	5076.6
698.093	5104.56
698.498	5202.26
698.904	5263.41
699.31	5383.04
699.715	5446.75
700.12	5566.7
700.526	5549.85
700.931	5629.52
701.337	5677.52
701.742	5688.08
702.147	5797.09
702.552	5807.57
702.957	5871.5
703.362	5867.86
703.767	5877.96
704.172	5909.75
704.577	5790.2
704.981	5837.39
705.386	5828.84
705.791	5780.28
706.195	5873.25
706.6	5854.8
707.004	5953.67
707.408	5867.47
707.813	5875.38
708.217	5821.41
708.621	5794.75
709.025	5924.82
709.43	5893.52
709.834	5959.5
710.237	6041.73
710.641	5990.55
711.045	5995.99
711.449	5960.29
711.853	5976.53
712.256	6019.76
712.66	6053.23
713.064	6145.2
713.467	6182.72
713.87	6332.07
714.274	6377.27
714.677	6520.73
715.08	6742.45
715.484	6975.5
715.887	7254.24
716.29	7533.43
716.693	7817.14
717.096	8149.19
717.499	8315.74
717.901	8327.03
718.304	8342.19
718.707	8353.21
719.109	8179.07
719.512	8112.79
719.915	7887.73
720.317	7787.25
720.719	7830.91
721.122	7771.52
721.524	7680.45
721.926	7600.65
722.328	7727.51
722.731	7695.26
723.133	7719.98
723.535	7981.39
723.937	7993
724.338	8053.28
724.74	8094.91
725.142	7948.81
725.544	7929.74
725.945	7943.19
726.347	7925.84
726.748	7904.81
727.15	7912.6
727.551	7844.84
727.952	7794.77
728.354	7743.28
728.755	7732.28
729.156	7664.32
729.557	7675.29
729.958	7495.06
730.359	7417.89
730.76	7384.85
731.161	7291.69
731.562	7247.86
731.962	7247.83
732.363	7147.76
732.763	7051.16
733.164	7094.29
733.564	6993.76
733.965	6853.7
734.365	6799.77
734.766	6830.49
735.166	6770.2
735.566	6688.47
735.966	6645.92
736.366	6632.7
736.766	6545.46
737.166	6585.06
737.566	6523.96
737.966	6484.52
738.365	6534.55
738.765	6523.29
739.165	6420.63
739.564	6380.8
739.964	6439.46
740.363	6374.1
740.763	6367.51
741.162	6345.3
741.561	6297.23
741.96	6230.9
742.36	6256.87
742.759	6262.84
743.158	6314.97
743.557	6333.58
743.955	6385.41
744.354	6319.75
744.753	6394.88
745.152	6335
745.55	6410.1
745.949	6399.17
746.348	6401.12
746.746	6419.02
747.144	6359.23
747.543	6326.63
747.941	6388.72
748.339	6292.22
748.737	6281.44
749.136	6268.96
749.534	6358.83
749.932	6320.53
750.33	6351.12
750.727	6424.99
751.125	6389.82
751.523	6368.53
751.921	6423.76
752.318	6378
752.716	6455.4
753.113	6476.14
753.511	6509.04
753.908	6505.97
754.305	6477.76
754.703	6561.26
755.1	6642.24
755.497	6724.71
755.894	6981.62
756.291	7221.8
756.688	7659.79
757.085	8248.83
757.482	9070.29
757.878	9969.54
758.275	10782.78
758.672	11910.45
759.068	12821.76
759.465	14122.52
759.861	15801.23
760.258	17742.9
760.654	18746.42
761.05	18588.02
761.447	17733.32
761.843	16513.48
762.239	15250.1
762.635	14675.04
763.031	14123.82
763.427	13329.14
763.822	12499.77
764.218	11681.6
764.614	10620.16
765.01	9903.55
765.405	9444.02
765.801	9101.53
766.196	8657.32
766.592	8411.82
766.987	7996.61
767.382	7713.17
767.778	7594.87
768.173	7416.8
768.568	7318.13
768.963	7150.4
769.358	7174.84
769.753	7113.76
770.148	6995.46
770.542	6990.17
770.937	6945.74
771.332	7062.78
771.726	7088.4
772.121	7004.82
772.515	7080.78
772.91	7061.29
773.304	7156.32
773.699	7071.57
774.093	7145.17
774.487	7222.28
774.881	7280.86
775.275	7276.6
775.669	7221.48
776.063	7282.52
776.457	7329.34
776.851	7231.9
777.245	7222.11
777.638	7265.93
778.032	7420.09
778.425	7373.12
778.819	7425.34
779.212	7368.36
779.606	7314.1
779.999	7344.98
780.392	7321.14
780.786	7433.51
781.179	7456.6
781.572	7515.85
781.965	7533.24
782.358	7454.73
782.751	7529.06
783.143	7469.97
783.536	7570.65
783.929	7629.87
784.322	7780.37
784.714	7820.01
785.107	7814.81
785.499	7911.49
785.891	7874.82
786.284	7851.02
786.676	8044
787.068	8017.33
787.46	8084.87
787.852	8106.1
788.245	8220.26
788.636	8259.59
789.028	8352.1
789.42	8402.01
789.812	8415.94
790.204	8545.55
790.595	8675.96
790.987	8410.45
791.378	8437.15
791.77	8611.34
792.161	8795.03
792.553	8865.27
792.944	8714.32
793.335	8622.66
793.726	8721.21
794.117	8837.68
794.508	9023.74
794.899	8979.44
795.29	9167.95
795.681	9246.4
796.072	9054.25
796.463	8794.65
796.853	8804.26
797.244	9011.17
797.634	9051.12
798.025	9046.88
798.415	9062.67
798.806	9179.15
799.196	9294.78
799.586	9357.83
799.976	9306.18
800.366	9607.75
800.756	9942.57
801.146	9889.31
801.536	9926.93
801.926	10025.1
802.316	10059.18
802.706	10154.42
803.095	9990.17
803.485	10122.64
803.874	10177.25
804.264	10521.86
804.653	10482.4
805.043	10666.57
805.432	10811.23
805.821	10814.12
806.21	10841.35
806.599	10994.17
806.988	11051.41
807.377	11193.62
807.766	11366.89
808.155	11742.76
808.544	11392.33
808.933	11416.74
809.321	11391.85
809.71	11788.97
810.098	12000.61
810.487	12617.45
810.875	13260.48
811.264	13293.16
811.652	13672.39
812.04	13866.91
812.428	14081.27
812.816	15093.27
813.204	15650.34
813.592	16388.71
813.98	16829.4
814.368	16699.53
814.756	17328.07
815.144	17211.46
815.531	17827.01
815.919	17734.82
816.306	18128.37
816.694	17721.13
817.081	17793.34
817.469	18238.12
817.856	18227.96
818.243	18579.58
818.63	19100.97
819.017	18543.2
819.404	18627.34
819.791	19127.97
820.178	19937.31
820.565	20267.31
820.952	21485.6
821.339	20829.28
821.725	21083.04
822.112	20097.72
822.498	20050.91
822.885	20219.23
823.271	20091.24
823.657	20643.66
824.044	20650.86
824.43	20743.68
824.816	20700.85
825.202	20129.01
825.588	21466.44
825.974	21482.64
826.36	22157.39
826.746	22203.27
827.132	22672.74
827.517	22633.06
827.903	21599.56
828.289	21650.36
828.674	20623.34
829.06	20488.9
829.445	21015.84
829.83	21492.44
830.216	22122.11
830.601	22605.97
830.986	22059.41
831.371	21885.54
831.756	22626.58
832.141	22053.07
832.526	22047.04
832.911	22423.74
833.295	22269.37
833.68	22888.51
834.065	22068.62
834.449	20870.74
834.834	20777.87
835.218	20775.2
835.603	21219.72
835.987	20940.55
836.371	22051.23
836.755	21905.78
837.139	22434.96
837.524	22762.78
837.908	22523.5
838.291	22608.64
838.675	22693.78
839.059	22970.48
839.443	22959.15
839.827	22660.9
840.21	23301.27
840.594	23094.26
840.977	23365.53
841.361	23334.82
841.744	23831.73
842.127	23634.41
842.511	23963.85
842.894	24758.63
843.277	25261.34
843.66	25977.03
844.043	26081.04
844.426	25019.24
844.809	24612.96
845.191	24668.79
845.574	24065.66
845.957	23579.86
846.339	23437.4
846.722	22736.85
847.104	22821.56
847.487	22597.69
847.869	22615.26
848.252	22978.71
848.634	23410.82
849.016	23770.24
849.398	23931.87
849.78	25057.91
850.162	25078.01
850.544	25618.94
850.926	26462.6
851.307	26350.96
851.689	26716.07
852.071	27316.33
852.452	27750.21
852.834	27726.02
853.215	28243.98
853.597	28452.08
853.978	28835.66
854.359	29419.88
854.741	28118.06
855.122	27978.97
855.503	27594.16
855.884	27776.42
856.265	27698.19
856.646	27866.09
857.026	27350.24
857.407	27263.86
857.788	27468.18
858.169	27843.3
858.549	26717.27
858.93	27541.4
859.31	27606.13
859.69	27881.53
860.071	27341.17
860.451	27055.52
860.831	26064.15
861.211	27585.25
861.591	28308.57
861.971	28271.85
862.351	28542.81
862.731	29068.73
863.111	29415.66
863.491	29844.94
863.87	31001.5
864.25	31461.57
864.629	30922.34
865.009	31611.53
865.388	32748.79
865.768	35095.04
866.147	34950.17
866.526	33001.15
866.905	33375.52
867.284	35239.53
867.663	33462.41
868.042	32069.22
868.421	31957.14
868.8	32495.8
869.179	32790.75
869.558	30863.05
869.936	28442.66
870.315	28952.32
870.693	29654.11
871.072	31999.63
871.45	30485.8
871.828	30863.83
872.207	32450.23
872.585	31969.82
872.963	32838.63
873.341	31711.79
873.719	31327.68
874.097	30942.24
874.475	31532.11
874.853	32250.69
875.23	30879.77
875.608	32163.11
875.986	34798.57
876.363	33271.88
876.741	34273.79
877.118	33404.36
877.495	35039.01
877.873	35638.97
878.25	37523.81
878.627	35996.31
879.004	36504
879.381	36343.91
879.758	35387.54
880.135	32942.49
880.512	34828.96
880.889	33906.16
881.265	33565.94
881.642	33296.89
882.019	33851.31
882.395	33149.8
882.772	34448.74
883.148	32961.55
883.524	32832.32
883.901	32646.06
884.277	33151.4
884.653	32953
885.029	33908.05
885.405	37531.66
885.781	37253.69
886.157	35736.41
886.532	36187.59
886.908	36176.32
887.284	40233.16
887.659	41545.18
888.035	42838.16
888.411	43949.73
888.786	44518.44
889.161	46063.07
889.537	45232.84
889.912	46667.81
890.287	46628.14
890.662	47816.62
891.037	46956.34
891.412	43768.79
891.787	43327.26
892.162	41819.3
892.536	42774.6
892.911	41173.69
893.286	40301.01
893.66	38668.43
894.035	39656.87
894.409	43178.78
894.784	41438.68
895.158	42122.72
895.532	44618.34
895.906	45837.33
896.281	46922.29
896.655	46182.45
897.029	52764.78
897.402	54942.4
897.776	61154.61
898.15	60928.08
898.524	60283.73
898.898	61095.61
899.271	68415.46
899.645	59269.67
900.018	56940.57
900.392	59048.13
900.765	59536.18
901.138	55108.97
901.511	54277.39
901.884	49829.36
902.258	45982.98
902.631	47495.27
903.003	54672.56
903.376	49333.79
903.749	55323.41
904.122	59226.92
904.495	65219.36
904.867	66039.84
905.24	57321.65
905.612	53383.79
905.985	54595.36
906.357	57081.48
906.729	54489.26
907.102	46527.91
907.474	44746.68
907.846	45034.91
908.218	44431.59
908.59	39234.1
908.962	37924.82
909.334	40845.55
909.705	42885.2
910.077	41647.79
910.449	43349.93
910.82	44566.28
911.192	49042.46
911.563	50953.75
911.935	54518.22
912.306	54584.06
912.677	56405.13
913.048	55845.33
913.419	60589.95
913.79	60916.06
914.161	65300.5
914.532	62358.41
914.903	57282.92
915.274	54385.13
915.645	53579.91
916.015	47156.24
916.386	44978.15
916.756	47859.61
917.127	49386.37
917.497	44121.65
917.868	48070.82
918.238	45686.69
918.608	47040.22
918.978	48029.05
919.348	50897.84
919.718	52598.81
920.088	50634.21
920.458	52583.21
920.828	55341.28
921.198	52445.6
921.567	56027.84
921.937	43370.09
922.306	43792.46
922.676	47211.19
923.045	39371.61
923.415	37384.36
923.784	34038.77
924.153	35013.39
924.522	34962.48
924.891	32848.09
925.26	35190.53
925.629	34357.35
925.998	39494.72
926.367	38523.82
926.736	36668.34
927.104	43676.83
927.473	46958.43
927.842	56711.91
928.21	56158.83
928.578	59047.53
928.947	55848.73
929.315	56173.03
929.683	65869.12
930.051	66399.38
930.42	77160.59
930.788	65961.81
931.156	65470.99
931.523	61369.17
931.891	56693.17
932.259	54452.37
932.627	63089.55
932.994	89274.16
933.362	73754.97
933.729	64037.34
934.097	61296.24
934.464	51857.76
934.831	59866.4
935.199	59002.45
935.566	57208.03
935.933	58045.72
936.3	70319.1
936.667	54782.44
937.034	49369.83
937.401	48867.72
937.767	42198.13
938.134	37560.47
938.501	52971.22
938.867	56428.45
939.234	95416.85
939.6	81403.6
939.967	89572.61
940.333	59916.77
940.699	50968.29
941.065	40930.81
941.431	53638.78
941.798	51691.89
942.163	67885.95
942.529	42421.1
942.895	39039.9
943.261	25246.99
943.627	33112.79
943.992	28962.71
944.358	29025.53
944.723	29131.85
945.089	28392.72
945.454	26232.65
945.82	28002.19
946.185	26919.57
946.55	31188.9
946.915	28006.97
947.28	32863.35
947.645	28960.21
948.01	26742.49
948.375	27858.34
948.74	33441.81
949.104	39057.13
949.469	56462.38
949.834	99798.45
950.198	94499.46
950.562	56588.17
950.927	47138.6
951.291	56736.74
951.655	48323
952.02	45418.6
952.384	34365.06
952.748	29887.61
953.112	29113.54
953.476	25310.55
953.839	23409.57
954.203	23155.4
954.567	28977.76
954.931	45661.9
955.294	39082.74
955.658	39330.54
956.021	66853.89
956.385	113433.18
956.748	167443.7
957.111	259991.21
957.474	291877.73
957.837	328976.27
958.2	249414.05
958.563	89744.28
958.926	60667.21
959.289	91993.28
959.652	102740.4
960.015	77089.78
960.377	110617.78
960.74	126273.45
961.102	217865.23
961.465	233962.44
961.827	125031.32
962.189	239864.31
962.552	166236.7
962.914	133472.1
963.276	86621.39
963.638	71657.64
964	71033.05
964.362	48008.47
964.724	46454.74
965.085	33170.01
965.447	27204.4
965.809	31081.47
966.17	31141.7
966.532	33730.87
966.893	30914.67
967.255	28170.23
967.616	33260.7
967.977	26601.24
968.338	29078.45
968.699	23869.73
969.061	23844.65
969.421	24000.7
969.782	26918.1
970.143	22716.31
970.504	23516.15
970.865	26697.81
971.225	27247.05
971.586	26647.43
971.946	38042.2
972.307	33027.35
972.667	43194
973.027	44515.89
973.388	53966.66
973.748	36684.81
974.108	39946.33
974.468	54073.11
974.828	41704.07
975.188	32124.96
975.548	29497.29
975.907	24748.14
976.267	27760.69
976.627	23329.35
976.986	24173.23
977.346	23061.76
977.705	22209.03
978.064	20240.79
978.424	16840.88
978.783	17450.04
979.142	19921.54
979.501	19065.5
979.86	20155.48
980.219	19425.06
980.578	25047.81
980.937	28073.29
981.296	25029.88
981.654	25734.69
982.013	40066.33
982.371	51964.39
982.73	48528.87
983.088	54935.66
983.447	58667.16
983.805	83924.8
984.163	175320.25
984.521	194753.29
984.879	285474.3
985.237	-463918.9
985.595	447180.14
985.953	111068.69
986.311	64197.03
986.669	37265.75
987.026	32186.03
987.384	43297.21
987.741	44733.04
988.099	31936.11
988.456	25440.77
988.814	23795.47
989.171	20675.85
989.528	20435.13
989.885	21578.7
990.242	17094.44
990.599	21293.79
990.956	17412.24
991.313	12171.65
991.67	9996.42
992.027	10561.01
992.383	9384.83
992.74	8234.6
993.096	8646.55
993.453	8961.28
993.809	9291.96
994.165	12360.13
994.522	11301.26
994.878	12460.11
995.234	15643.77
995.59	15427.22
995.946	14663.87
996.302	16738.1
996.658	19371.49
997.013	21345.43
997.369	25275.47
997.725	32349.88
998.08	20984.8
998.436	32418.39
998.791	44725.78
999.147	44618.82
999.502	48691.3
999.857	35479.71
1000.212	57767.15
1000.567	82200.35
1000.922	47421.38
1001.277	30109.54
1001.632	22324.83
1001.987	28754.33
1002.342	20610.01
1002.696	16468.19
1003.051	13148.71
1003.406	15941.97
1003.76	15857.86
1004.114	15637.78
1004.469	13153.94
1004.823	10882.05
1005.177	11767.52
1005.531	9333.01
1005.885	8266.81
1006.239	9332.06
1006.593	11699.44
1006.947	15643.74
1007.301	11724.11
1007.655	12747.27
1008.008	9367.65
1008.362	10510.23
1008.715	14998.54
1009.069	13638.71
1009.422	20450.03
1009.776	41035.72
1010.129	27238.04
1010.482	22767.93
1010.835	19255.69
1011.188	40107.9
1011.541	37819.95
1011.894	-231682.29
1012.247	683383.02
1012.6	46475.71
1012.952	29250.91
1013.305	15127.8
1013.657	10897.47
1014.01	10333.11
1014.362	8534.87
1014.715	7563.97
1015.067	6591.02
1015.419	6440.32
1015.771	5682.31
1016.123	5030.73
1016.475	5171.2
1016.827	5505.77
1017.179	5913.6
1017.531	5980.68
1017.883	6124.9
1018.234	5874.79
1018.586	7414.49
1018.938	7791.11
1019.289	10762.18
1019.64	12352.73
1019.992	11549.24
1020.343	10587.51
1020.694	8364.44
1021.045	7414.96
1021.396	8437.23
1021.747	9010.81
1022.098	10905.26
1022.449	7943.28
1022.8	7408.39
1023.151	5167.2
1023.501	4551.76
1023.852	4955.3
1024.202	5143.91
1024.553	5649.24
1024.903	5508.45
1025.253	4704.49
1025.604	4223.34
1025.954	5228.98
1026.304	6380.02
1026.654	7465.74
1027.004	10946.22
1027.354	17830.41
1027.703	16710.1
1028.053	21978.09
1028.403	32125.81
1028.753	46683.64
1029.102	63994.81
1029.452	331672.01
1029.801	14377.79
1030.15	9293.79
1030.499	7881.44
897.758	2242.12
901.051	2174.48
904.343	2210.02
907.636	2218.13
910.928	2279.59
914.22	2197.8
917.511	2200.42
920.803	2255.12
924.094	2254.01
927.384	2256.53
930.675	2218.97
933.965	2180.46
937.255	2212.37
940.544	2178.35
943.834	2178.29
947.123	2119.08
950.411	2210.51
953.7	2191.98
956.988	2173.02
960.276	2110.51
963.563	2161.85
966.851	2174.67
970.138	2217.82
973.424	2218.79
976.711	2173.37
979.997	2222.15
983.283	2266.91
986.568	2195.46
989.853	2186.53
993.138	2216.43
996.423	2300.82
999.708	2257.64
1002.992	2291.25
1006.275	2199.06
1009.559	2205.71
1012.842	2306.46
1016.125	2258.38
1019.408	2238.35
1022.69	2298.35
1025.972	2334.2
1029.254	2307.79
1032.536	2268.65
1035.817	2280.76
1039.098	2247.99
1042.379	2305.73
1045.659	2335.07
1048.939	2280.9
1052.219	2289.86
1055.498	2283.3
1058.778	2282.76
1062.057	2256.48
1065.335	2281.48
1068.614	2295.53
1071.892	2290.68
1075.17	2346.75
1078.447	2351.47
1081.724	2345.53
1085.001	2373.64
1088.278	2350.98
1091.554	2359.79
1094.83	2351.32
1098.106	2391.68
1101.382	2422.98
1104.657	2422.86
1107.932	2421.71
1111.206	2398.38
1114.481	2352.37
1117.755	2352.15
1121.029	2343.97
1124.302	2408.5
1127.575	2369.83
1130.848	2367.09
1134.121	2336.33
1137.393	2297.46
1140.665	2361.04
1143.937	2339.72
1147.208	2287.68
1150.48	2345.8
1153.75	2334.55
1157.021	2340.69
1160.291	2314.75
1163.561	2374
1166.831	2340.44
1170.101	2368.59
1173.37	2327.64
1176.639	2280.01
1179.907	2325.77
1183.176	2351.07
1186.444	2351.62
1189.711	2378.72
1192.979	2401.72
1196.246	2354.28
1199.513	2368.79
1202.78	2374.56
1206.046	2382.89
1209.312	2411.81
1212.578	2430.92
1215.843	2396.5
1219.108	2361.43
1222.373	2386.82
1225.638	2356.99
1228.902	2348.96
1232.166	2304.68
1235.43	2291.45
1238.693	2315.36
1241.956	2306.94
1245.219	2356.58
1248.482	2337.86
1251.744	2336.94
1255.006	2464.81
1258.268	2411.3
1261.529	2366.23
1264.79	2364.92
1268.051	2468.76
1271.312	2478.53
1274.572	2448.43
1277.832	2438.5
1281.092	2417.58
1284.351	2408.63
1287.61	2392.92
1290.869	2324.56
1294.128	2320.58
1297.386	2370.18
1300.644	2363.99
1303.902	2374.77
1307.159	2237.96
1310.416	2291.54
1313.673	2320.22
1316.93	2319.1
1320.186	2351.34
1323.442	2386.52
1326.697	2384.45
1329.953	2357.06
1333.208	2392.88
1336.463	2366.5
1339.717	2324.61
1342.972	2433.64
1346.226	2406.64
1349.479	2350.46
1352.733	2329.12
1355.986	2334.05
1359.238	2312.88
1362.491	2321.5
1365.743	2320.89
1368.995	2311.3
1372.247	2324.67
1375.498	2344.8
1378.749	2385.06
1382	2333.63
1385.251	2373.45
1388.501	2323.44
1391.751	2324.53
1395	2287.93
1398.25	2312.47
1401.499	2334.24
1404.748	2284.36
1407.996	2258.38
1411.244	2245.88
1414.492	2232.04
1417.74	2212.8
1420.987	2217.48
1424.234	2278.95
1427.481	2238.97
1430.728	2298.82
1433.974	2274.16
1437.22	2274.61
1440.465	2270.78
1443.711	2269.04
1446.956	2295.16
1450.201	2266.07
1453.445	2310.72
1456.689	2297.45
1459.933	2310.69
1463.177	2354.51
1466.42	2325.33
1469.663	2309.27
1472.906	2323.85
1476.148	2374.29
1479.391	2349.84
1482.633	2324.2
1485.874	2350.56
1489.115	2357.77
1492.356	2343.57
1495.597	2322.29
1498.838	2314.8
1502.078	2300.1
1505.318	2269.51
1508.557	2306.21
1511.797	2304.85
1515.036	2349.47
1518.274	2321.74
1521.513	2276.72
1524.751	2290.53
1527.989	2316.79
1531.227	2335.2
1534.464	2352.2
1537.701	2346.59
1540.938	2360.39
1544.174	2308.38
1547.41	2298.45
1550.646	2336.38
1553.882	2388.66
1557.117	2447.89
1560.352	2456.84
1563.587	2418.27
1566.821	2383.86
1570.055	2397.57
1573.289	2379.41
1576.523	2441.5
1579.756	2453.85
1582.989	2477.44
1586.222	2439.49
1589.454	2468.13
1592.686	2452.27
1595.918	2480.09
1599.15	2477.28
1602.381	2525.27
1605.612	2507.13
1608.843	2604.82
1612.073	2525.87
1615.303	2513.01
1618.533	2512.71
1621.762	2508.06
1624.992	2482.94
1628.221	2485.05
1631.449	2470.29
1634.678	2497.5
1637.906	2465.86
1641.134	2494.65
1644.361	2457.72
1647.588	2443.71
1650.815	2466.92
1654.042	2427.11
1657.269	2458.4
1660.495	2436.02
1663.72	2421.2
1666.946	2391.17
1670.171	2362.85
1673.396	2335.22
1676.621	2316.46
1679.845	2314.73
1683.069	2323.52
1686.293	2355.5
1689.517	2345.53
1692.74	2294.06
1695.963	2318.08
1699.185	2359.77
1702.408	2330.35
1705.63	2360.56
1708.852	2377.53
1712.073	2346.63
1715.294	2356.48
1718.515	2400.3
1721.736	2356.96
1724.956	2334.92
1728.176	2356.12
1731.396	2378.52
1734.616	2363.75
1737.835	2400.9
1741.054	2370.36
1744.272	2360.34
1747.491	2403.92
1750.709	2428.92
1753.927	2373.79
1757.144	2398.37
1760.361	2459.07
1763.578	2434.23
1766.795	2381.7
1770.011	2369.15
1773.227	2395.29
1776.443	2440.29
1779.658	2485.44
1782.874	2420.15
1786.089	2411.25
1789.303	2414.29
1792.518	2411.83
1795.732	2396.42
1798.945	2412.81
1802.159	2454.36
1805.372	2395.46
1808.585	2389.96
1811.797	2388.33
1815.01	2410.34
1818.222	2433.31
1821.434	2389.6
1824.645	2433.25
1827.856	2442.59
1831.067	2474.71
1834.278	2409.54
1837.488	2392.07
1840.698	2517.81
1843.908	2455.61
1847.117	2423.97
1850.326	2345.23
1853.535	2407.05
1856.744	2442.73
1859.952	2361.72
1863.16	2362.26
1866.368	2374.13
1869.575	2489.4
1872.782	2369.59
1875.989	2297.52
1879.196	2348.93
1882.402	2337.39
1885.608	2370.91
1888.814	2307.25
1892.019	2210.53
1895.224	2260.72
1898.429	2226.87
1901.634	2208.81
1904.838	2181.32
1908.042	2236.31
1911.246	2248.5
1914.449	2207.95
1917.652	2189.23
1920.855	2168.43
1924.058	2194.79
1927.26	2239.93
1930.462	2262.89
1933.664	2299.52
1936.865	2241.84
1940.066	2257.16
1943.267	2202.2
1946.467	2213.24
1949.668	2233.55
1952.868	2303.95
1956.067	2294.3
1959.267	2234.47
1962.466	2258.08
1965.665	2240.82
1968.863	2234.86
1972.061	2238.65
1975.259	2232.8
1978.457	2308.82
1981.654	2268.4
1984.852	2271.46
1988.048	2223.13
1991.245	2213.8
1994.441	2302.47
1997.637	2260.22
2000.833	2243.41
2004.028	2280.49
2007.223	2344.57
2010.418	2331.71
2013.613	2282.58
2016.807	2275.81
2020.001	2268.74
2023.194	2293.25
2026.388	2276.14
2029.581	2217.84
2032.774	2285
2035.966	2295.38
2039.158	2239.03
2042.35	2258.32
2045.542	2183.73
2048.733	2267.45
2051.924	2260.46
2055.115	2280.02
2058.306	2242.84
2061.496	2297.48
2064.686	2354.73
2067.875	2258.84
2071.065	2260.96
2074.254	2280.86
2077.442	2234.28
2080.631	2319.08
2083.819	2247.29
2087.007	2240.51
2090.195	2223.68
2093.382	2241.89
2096.569	2225.18
2099.756	2183.58
2102.942	2230.4
2106.128	2243.5
2109.314	2230.52
2112.5	2214.35
2115.685	2181.65
2118.87	2189.84
2122.055	2252.78
2125.239	2230.42
2128.424	2216.57
2131.608	2279.52
2134.791	2264.3
2137.974	2303.08
2141.157	2293.7
2144.34	2264.77
2147.523	2255.89
2150.705	2282.73
2153.887	2250.1
2157.068	2219.48
2160.25	2201.85
2163.431	2223.8
2166.611	2193.39
2169.792	2211.67
2172.972	2122.77
2176.152	2174.67
2179.331	2202.53
2182.511	2205.61
2185.69	2227.58
2188.868	2231.67
2192.047	2268.23
2195.225	2283.47
2198.403	2233.64
2201.58	2217.86
2204.758	2207.34
2207.935	2282.9
2211.111	2195.54
2214.288	2184.74
2217.464	2217.73
2220.64	2173.32
2223.815	2223.52
2226.991	2154.79
2230.166	2171.65
2233.34	2212.24
2236.515	2228.18
2239.689	2291.58
2242.863	2240.24
2246.036	2294.41
2249.209	2275.24
2252.382	2296.09
2255.555	2306.77
2258.727	2255.29
2261.9	2284.17
2265.071	2273.16
2268.243	2271.56
2271.414	2217.52
2274.585	2201.57
2277.756	2260.89
2280.926	2215.63
2284.096	2247.45
2287.266	2175.53
2290.436	2218.93
2293.605	2239.23
2296.774	2276.63
2299.942	2283.01
2303.111	2298.31
2306.279	2351.3
2309.447	2334.45
2312.614	2306.32
2315.781	2329.56
2318.948	2308.54
2322.115	2343.86
2325.281	2246.83
2328.447	2254.34
2331.613	2224.23
2334.779	2215.24
2337.944	2211.64
2341.109	2210.67
2344.274	2199.4
2347.438	2168.16
2350.602	2192.36
2353.766	2198.65
2356.929	2188.1
2360.092	2224.59
2363.255	2195.51
2366.418	2159.41
2369.58	2230.23
2372.742	2096.08
2375.904	2093.72
2379.066	2078.01
2382.227	2103.08
2385.388	2063.42
2388.548	2011.94
2391.709	2055.49
2394.869	2042.67
2398.029	2098.43
2401.188	2096.27
2404.347	2055.73
2407.506	2140.51
2410.665	2178.25
2413.823	2164.06
2416.981	2142.22
2420.139	2160.55
2423.296	2203.91
2426.453	2175.42
2429.61	2195.86
2432.767	2163.9
2435.923	2204.32
2439.079	2153.49
2442.235	2189.86
2445.391	2130.61
2448.546	2174.77
2451.701	2209.7
2454.855	2203.15
2458.009	2233.31
2461.163	2223.3
2464.317	2194.38
2467.471	2221.7
2470.624	2251.57
2473.777	2240.71
2476.929	2254.95
2480.082	2277.91
2483.234	2250.25
2486.385	2191.05
2489.537	2185.54
2492.688	2171.92
2495.839	2188.24
2498.989	2204.49
2502.14	2190.95
2505.29	2181.47
2508.439	2204.45
2511.589	2144.87
2514.738	2143.48
2517.887	2168.02
2521.035	2241.55
2524.183	2205.41
2527.331	2192.58
2530.479	2185.76
2533.627	2187.99
