Data from N_2_DEC_ON_6N_Splice17_12-14-43-220.txt Node
Date: Sat Mar 14 12:14:43 EDT 2020
User: sa697716
Spectrometer: FLMS03696
Trigger mode: 0
Integration Time (sec): 3.180400E-1
Scans to average: 20
Electric dark correction enabled: true
Nonlinearity correction enabled: true
Boxcar width: 5
XAxis mode: Wavelengths
Number of Pixels in Spectrum: 2048
>>>>>Begin Spectral Data<<<<<
187.83	-233615.66
188.298	1699.57
188.766	885.61
189.233	778.75
189.701	1133.67
190.169	1499.25
190.636	551.97
191.104	400.28
191.571	8.85
192.039	-133.85
192.506	-156.5
192.974	203.52
193.441	-520.71
193.908	-168.77
194.375	-86.85
194.842	-15.61
195.31	-11.56
195.777	98.38
196.244	272.86
196.711	350.84
197.177	430.18
197.644	602.52
198.111	1052.72
198.578	1478.26
199.045	1160.03
199.511	1903.39
199.978	2195.05
200.445	1883.23
200.911	2077.46
201.378	2279.43
201.844	2036.58
202.31	3490.74
202.777	3646.22
203.243	2000.83
203.709	1912.5
204.176	2290.57
204.642	1907.83
205.108	1794.86
205.574	1431.58
206.04	1296.67
206.506	1210.46
206.972	1142.82
207.438	1098.23
207.903	1234.33
208.369	1097.53
208.835	1100.92
209.301	1151.85
209.766	1162.22
210.232	1152.87
210.697	1428.4
211.163	1740.12
211.628	2603.41
212.094	2172.05
212.559	2683.99
213.024	1684.48
213.49	2043.1
213.955	1950.49
214.42	1884.26
214.885	1753.88
215.35	1661.84
215.815	1638.14
216.28	1749.77
216.745	1421.39
217.21	1523.46
217.675	1339.21
218.14	1457.96
218.604	1568.28
219.069	1739.14
219.534	1784.1
219.998	1983.94
220.463	2314.64
220.927	2698.36
221.392	2443.85
221.856	2426.65
222.32	2935.57
222.785	3566.33
223.249	4416.87
223.713	4840.47
224.177	4811.74
224.642	6047.96
225.106	7382.95
225.57	7993.68
226.034	5941.57
226.497	9008.41
226.961	8110.2
227.425	9449.37
227.889	10419.6
228.353	10320.92
228.816	21203.59
229.28	20095.92
229.744	16879.27
230.207	10292.11
230.671	10116.95
231.134	16575.19
231.597	19118.6
232.061	18940.04
232.524	18347.21
232.987	12655.82
233.45	11418.73
233.914	10236.44
234.377	10449.09
234.84	9563.93
235.303	11214.3
235.766	12473.96
236.229	12906.84
236.691	8092.71
237.154	9108.1
237.617	6880.47
238.08	7024.4
238.542	8197.45
239.005	5874.78
239.468	5857.95
239.93	5526.79
240.393	5027.26
240.855	4428.22
241.317	4528.82
241.78	5515.14
242.242	5721.25
242.704	6208.88
243.166	5424.19
243.629	4952.86
244.091	5697.91
244.553	6243.16
245.015	6720.45
245.477	8678.5
245.939	12704.49
246.4	13480.13
246.862	13093.68
247.324	12335.3
247.786	13772.17
248.247	17971.83
248.709	18478.27
249.17	13852.64
249.632	13103.53
250.093	15228.19
250.555	13174.23
251.016	8061.88
251.477	7661.22
251.939	8273.93
252.4	8653.56
252.861	10247.16
253.322	9589.39
253.783	11399.42
254.244	14757.46
254.705	11569.82
255.166	10243.22
255.627	10065.45
256.088	14196.76
256.549	15066.11
257.009	12981.16
257.47	15747.07
257.931	12819.16
258.391	9584.44
258.852	9869.15
259.312	10313.46
259.773	12715
260.233	10763.58
260.694	9084.12
261.154	10265
261.614	8259.71
262.074	7357.68
262.534	7626.84
262.994	7187.62
263.455	9519.19
263.915	8018.03
264.374	7543.36
264.834	8227.84
265.294	9095.25
265.754	9417.65
266.214	8869.09
266.673	8262.81
267.133	10421.23
267.593	10314.87
268.052	12601.19
268.512	10948.25
268.971	13220.91
269.431	14474.3
269.89	12951.33
270.349	19400.17
270.809	21607.64
271.268	19484.84
271.727	43630.45
272.186	28166.26
272.645	21102.03
273.104	15156.07
273.563	21910.62
274.022	17117.92
274.481	14596.15
274.94	11235.6
275.399	8331.08
275.857	9660.56
276.316	13008.9
276.775	11589.44
277.233	11442.3
277.692	10743.19
278.15	12176.14
278.609	12585.56
279.067	11671.49
279.525	10841.85
279.984	14010.56
280.442	16854.74
280.9	16712.83
281.358	11021.77
281.816	10300.55
282.274	10079.55
282.732	10393.9
283.19	10468.62
283.648	9010.88
284.106	9594.24
284.564	9773.97
285.021	9082.68
285.479	6765.97
285.937	6118.35
286.394	5411.71
286.852	5564.51
287.309	5855.24
287.767	5692.62
288.224	5426.85
288.682	5963.39
289.139	6564.39
289.596	6021.27
290.053	6255.37
290.511	7883.58
290.968	9593.45
291.425	12924.19
291.882	10809.84
292.339	9417.25
292.796	9305.39
293.252	8752.28
293.709	6981.3
294.166	6271.16
294.623	6923.25
295.079	6628.21
295.536	6690.89
295.992	6075.62
296.449	6023.86
296.905	6253.84
297.362	6022.33
297.818	6340.37
298.274	6604.18
298.731	6707.37
299.187	6618.78
299.643	7087.61
300.099	8596.31
300.555	9406.11
301.011	7865.32
301.467	7638.4
301.923	8899.8
302.379	8679.33
302.835	8535.02
303.291	8538.31
303.746	9750.17
304.202	12372.06
304.658	12417.22
305.113	8359.53
305.569	8217.96
306.024	8791.11
306.479	8339.6
306.935	7064.43
307.39	7707.66
307.845	7133.48
308.301	7217.9
308.756	7019.87
309.211	6766.99
309.666	6961.64
310.121	8682.91
310.576	8788.41
311.031	8714.75
311.486	9943.36
311.94	9955.29
312.395	13347.33
312.85	25127.48
313.305	122869.54
313.759	641938.7
314.214	46543.1
314.668	36985.42
315.123	31282.35
315.577	11328.41
316.032	10083.3
316.486	12680.05
316.94	10023.35
317.394	6998.53
317.849	5429.14
318.303	5144.73
318.757	4860.44
319.211	5384.72
319.665	4719.87
320.119	4768.32
320.572	6791.43
321.026	6372.93
321.48	5310.69
321.934	5774.67
322.387	5793.45
322.841	6304.62
323.295	5707.31
323.748	6526.09
324.202	6636.85
324.655	8002.72
325.108	11233.71
325.562	7980.29
326.015	9479.04
326.468	7188.87
326.921	8057.24
327.374	7525.6
327.827	7835.84
328.28	8869.18
328.733	5997.11
329.186	5275.52
329.639	5028.15
330.092	4225.05
330.545	4032.86
330.997	4061.62
331.45	4445.42
331.903	5216.13
332.355	8970.75
332.808	8719.63
333.26	7177.9
333.713	7782.81
334.165	7828.36
334.617	10409.33
335.069	8386
335.522	15107.33
335.974	16833.74
336.426	15336.78
336.878	10604.47
337.33	5386.82
337.782	5257.24
338.234	6659.08
338.686	7972.33
339.137	9469.07
339.589	8958.23
340.041	7037.63
340.493	6066.81
340.944	6200.08
341.396	6721.31
341.847	5688.57
342.299	6753.51
342.75	8283.36
343.201	7173.67
343.653	8234.69
344.104	10106.44
344.555	7951.05
345.006	12322.77
345.457	9507.69
345.908	7542.51
346.359	7084.74
346.81	5762.41
347.261	6037.43
347.712	5919.13
348.163	6354.7
348.613	6464.71
349.064	6057
349.515	5308.58
349.965	5470.66
350.416	6579.1
350.866	7219.24
351.317	8144.77
351.767	13548.66
352.217	17156.27
352.668	14285.17
353.118	13079.3
353.568	12593.71
354.018	9983.1
354.468	10579.52
354.918	7622.52
355.368	6683.15
355.818	9501.23
356.268	27378.5
356.718	115201.65
357.168	28842.82
357.617	14502.52
358.067	16147.39
358.517	15102.88
358.966	17725.08
359.416	19931.63
359.865	21489.44
360.315	25479.05
360.764	11871.33
361.213	6662.31
361.663	6271.53
362.112	7723.91
362.561	12465.18
363.01	9443.81
363.459	7991.15
363.908	8666.67
364.357	7360.05
364.806	12407.85
365.255	8560.88
365.703	7921.56
366.152	7957.97
366.601	6465.66
367.05	5271.15
367.498	4806.95
367.947	5009.32
368.395	5206.69
368.844	4625.44
369.292	5540.57
369.74	3867.84
370.189	5908.03
370.637	6906.05
371.085	5937.65
371.533	7232.7
371.981	6936.4
372.429	6632.95
372.877	6920.05
373.325	5800.91
373.773	5899.85
374.221	5256.57
374.669	6519.98
375.116	5668.86
375.564	5723.44
376.012	6443.77
376.459	5346.08
376.907	6391.81
377.354	7724.51
377.801	7240.67
378.249	8389.35
378.696	10707.89
379.143	13099.88
379.591	13944.33
380.038	23532.11
380.485	17110.54
380.932	18404.51
381.379	16947.22
381.826	12599.24
382.273	8993.53
382.72	7865.95
383.166	7662.77
383.613	5013.07
384.06	4526.05
384.506	5255.86
384.953	3878.55
385.4	3904.97
385.846	3451.28
386.292	3348.72
386.739	3280.69
387.185	3248.59
387.631	3258.08
388.078	3193.81
388.524	3419.08
388.97	3167.62
389.416	2658.6
389.862	2848.02
390.308	2709.63
390.754	2759.37
391.2	3017.36
391.645	3094.89
392.091	3004.92
392.537	2934.65
392.983	2925.58
393.428	2917.29
393.874	3151.18
394.319	3196.13
394.765	3058.36
395.21	3161.18
395.655	2988.21
396.101	2812.62
396.546	2556.23
396.991	2570.39
397.436	2393.86
397.881	2336.64
398.326	2211.77
398.771	2102.09
399.216	1837.65
399.661	1656.52
400.106	1651.97
400.551	1699.4
400.995	1529.6
401.44	1518.58
401.885	1433.17
402.329	1449.76
402.774	1395.38
403.218	1360.58
403.663	1315.78
404.107	1360.16
404.551	1374.51
404.995	1266.09
405.44	1219.58
405.884	1235.09
406.328	1193.56
406.772	1190.78
407.216	1087.84
407.66	1049.06
408.104	994.74
408.547	929.12
408.991	899.08
409.435	863.94
409.879	856.44
410.322	847.14
410.766	823.27
411.209	786.77
411.653	757.71
412.096	747.64
412.54	748.35
412.983	743.31
413.426	749.63
413.869	749.29
414.312	739.21
414.756	711.98
415.199	680.22
415.642	661.77
416.085	663.84
416.527	659.43
416.97	668.85
417.413	637.8
417.856	631.8
418.298	624.16
418.741	619.3
419.184	615.74
419.626	638.83
420.069	639.89
420.511	644.08
420.953	633.75
421.396	628
421.838	611.59
422.28	625.25
422.722	631.66
423.164	638.95
423.606	629.05
424.048	629.88
424.49	600.16
424.932	596.95
425.374	588.23
425.816	594.13
426.258	605.17
426.699	612.55
427.141	605.86
427.582	610.38
428.024	608.17
428.465	605.02
428.907	591.55
429.348	582.78
429.789	583.7
430.231	572.99
430.672	580.62
431.113	565.34
431.554	553.67
431.995	539.01
432.436	524.35
432.877	513.46
433.318	506.97
433.759	504.05
434.2	506.8
434.64	500.76
435.081	502.48
435.522	480.14
435.962	464.46
436.403	457.04
436.843	462.55
437.284	451.24
437.724	437.65
438.164	435.46
438.604	424.48
439.045	409.14
439.485	396.09
439.925	387.18
440.365	375.86
440.805	370.72
441.245	368.05
441.685	353.96
442.125	350.75
442.564	353.84
443.004	346.7
443.444	347.17
443.883	348.37
444.323	342.15
444.762	340.51
445.202	345.47
445.641	353.58
446.081	350
446.52	355.03
446.959	355.49
447.398	348.99
447.837	346.91
448.276	341.35
448.716	345.37
449.154	349.41
449.593	344.58
450.032	345.11
450.471	338.87
450.91	339.23
451.349	339.86
451.787	337.15
452.226	342.86
452.664	343.99
453.103	345
453.541	342.93
453.98	343.42
454.418	344.66
454.856	339.09
455.295	338.3
455.733	342.84
456.171	344
456.609	345.12
457.047	344.56
457.485	350.1
457.923	350.56
458.361	346.22
458.798	347.36
459.236	347.76
459.674	350.41
460.111	352.39
460.549	348.64
460.987	346.16
461.424	344.43
461.862	343.76
462.299	337.43
462.736	339.69
463.173	340.22
463.611	338.6
464.048	338.66
464.485	340.8
464.922	336.81
465.359	334.17
465.796	336.27
466.233	334.57
466.67	332.28
467.106	332.9
467.543	328.04
467.98	325.03
468.416	315.58
468.853	312.94
469.29	303.78
469.726	300.95
470.162	294.22
470.599	286.24
471.035	282.08
471.471	275
471.907	272.34
472.344	270.95
472.78	272.2
473.216	274.68
473.652	270.78
474.088	270.18
474.523	270.26
474.959	271.49
475.395	268.66
475.831	268.74
476.266	269.95
476.702	268.69
477.138	266.41
477.573	265.24
478.008	265.5
478.444	267.06
478.879	270.54
479.314	271.67
479.75	272.38
480.185	273.54
480.62	275.63
481.055	276.78
481.49	279.34
481.925	282.68
482.36	288.85
482.795	295.2
483.229	302.54
483.664	307.95
484.099	309.38
484.534	314.19
484.968	318.45
485.403	318.75
485.837	318.45
486.271	318.47
486.706	318.78
487.14	314.5
487.574	310.61
488.009	308.76
488.443	306.52
488.877	311.24
489.311	312.71
489.745	316.82
490.179	321.1
490.613	329.06
491.046	332.4
491.48	335.99
491.914	338.5
492.348	342.81
492.781	346.57
493.215	349.48
493.648	350.26
494.082	354.47
494.515	356.63
494.948	362.8
495.382	365.45
495.815	369.4
496.248	374.28
496.681	382.49
497.114	390.12
497.547	396.86
497.98	406.55
498.413	413.45
498.846	421.42
499.279	427.93
499.711	432.01
500.144	436.61
500.577	445.83
501.009	454.72
501.442	463.18
501.874	467.88
502.306	472.14
502.739	480.47
503.171	491.2
503.603	496.36
504.036	505.15
504.468	512.69
504.9	522.25
505.332	529.72
505.764	536.42
506.196	544.21
506.627	556.37
507.059	568.71
507.491	576.93
507.923	581.1
508.354	594.85
508.786	605.43
509.217	620.34
509.649	634.47
510.08	650.07
510.512	665.22
510.943	679.12
511.374	690.55
511.805	707.3
512.237	724.04
512.668	747.85
513.099	769.02
513.53	791
513.961	808.68
514.391	833.64
514.822	860.57
515.253	888.1
515.684	909.23
516.114	932.44
516.545	951.42
516.975	971.37
517.406	987.27
517.836	992.48
518.267	1000.4
518.697	1016.16
519.127	1021.87
519.558	1029.27
519.988	1034
520.418	1043.15
520.848	1058.66
521.278	1066.6
521.708	1092.55
522.138	1103.26
522.567	1127.54
522.997	1147.95
523.427	1161.2
523.857	1175.47
524.286	1184.45
524.716	1197.6
525.145	1213.79
525.575	1223.06
526.004	1235.47
526.433	1222.44
526.863	1225.25
527.292	1219.85
527.721	1225.69
528.15	1230.88
528.579	1232.98
529.008	1242.64
529.437	1259.52
529.866	1269.84
530.295	1282.83
530.724	1293.54
531.152	1314.6
531.581	1324.95
532.01	1338.7
532.438	1345.07
532.867	1355.52
533.295	1369.72
533.723	1374.67
534.152	1374.88
534.58	1375.83
535.008	1364.51
535.436	1366.46
535.865	1372
536.293	1384.03
536.721	1396.17
537.149	1415.54
537.576	1419.28
538.004	1429.41
538.432	1435.54
538.86	1434.57
539.287	1440.52
539.715	1451.74
540.143	1453.34
540.57	1451.79
540.998	1448.93
541.425	1431.7
541.852	1416.48
542.28	1415.27
542.707	1403.05
543.134	1392.83
543.561	1388.98
543.988	1382.97
544.415	1382.64
544.842	1378.16
545.269	1372.75
545.696	1373.89
546.123	1382.78
546.549	1373.79
546.976	1363.74
547.403	1363.63
547.829	1365.13
548.256	1366.36
548.682	1363.87
549.108	1358.55
549.535	1357.44
549.961	1358.12
550.387	1347.88
550.813	1344.86
551.24	1350.44
551.666	1350.5
552.092	1342.35
552.518	1337.39
552.943	1332.7
553.369	1337.32
553.795	1340.9
554.221	1343.21
554.646	1340.44
555.072	1348.44
555.498	1352.02
555.923	1358.5
556.349	1370.02
556.774	1376.12
557.199	1376.4
557.625	1380.91
558.05	1376.23
558.475	1383.27
558.9	1381.29
559.325	1375.25
559.75	1369.85
560.175	1363.46
560.6	1357.8
561.025	1354.99
561.449	1354.54
561.874	1357.12
562.299	1358.79
562.723	1363.01
563.148	1354.83
563.572	1356.81
563.997	1363.27
564.421	1365.75
564.846	1365.6
565.27	1367.21
565.694	1364.76
566.118	1373.01
566.542	1378.47
566.966	1373.06
567.39	1368.31
567.814	1359.23
568.238	1357.53
568.662	1360.24
569.086	1361.55
569.509	1365.96
569.933	1353.87
570.357	1347.8
570.78	1330.95
571.204	1320.67
571.627	1313.02
572.05	1311.96
572.474	1310.29
572.897	1300.55
573.32	1293.86
573.743	1285.73
574.166	1271.22
574.589	1269.64
575.012	1262.24
575.435	1260.6
575.858	1252.42
576.281	1242.22
576.704	1228.37
577.126	1219.01
577.549	1208.74
577.972	1199.96
578.394	1191.22
578.817	1184.71
579.239	1169.79
579.661	1159.09
580.084	1147.82
580.506	1137.05
580.928	1132.79
581.35	1123.71
581.772	1119.19
582.194	1109.19
582.616	1098.69
583.038	1087.3
583.46	1078.03
583.882	1075.29
584.303	1076.39
584.725	1070.37
585.147	1072.68
585.568	1079.89
585.99	1088.47
586.411	1093.24
586.833	1103.66
587.254	1105.2
587.675	1113.97
588.096	1122.58
588.518	1117.37
588.939	1106.45
589.36	1106.24
589.781	1096.05
590.202	1077.01
590.623	1070.3
591.043	1068.1
591.464	1058
591.885	1054.78
592.305	1050.72
592.726	1040.48
593.147	1041.94
593.567	1038.27
593.987	1032.55
594.408	1028.43
594.828	1025.39
595.248	1020.91
595.669	1006.85
596.089	1002.34
596.509	996.93
596.929	986.95
597.349	987.58
597.769	980.25
598.189	975.65
598.608	975.87
599.028	977.37
599.448	977.37
599.867	967.41
600.287	963.84
600.706	959.9
601.126	953.41
601.545	952.77
601.965	951.46
602.384	947.36
602.803	948.61
603.222	943.72
603.641	937.87
604.061	934.41
604.48	931.53
604.898	936.26
605.317	938.84
605.736	939.4
606.155	936.02
606.574	929.34
606.992	931.78
607.411	927.64
607.829	921.35
608.248	918.83
608.666	916.15
609.085	914.48
609.503	907.27
609.921	902.59
610.339	902.87
610.758	901.77
611.176	896.08
611.594	888.95
612.012	884.98
612.43	886.49
612.847	888.83
613.265	889.36
613.683	891.97
614.101	892.28
614.518	887.86
614.936	879.54
615.353	869.41
615.771	867.12
616.188	866.13
616.606	863.34
617.023	857.85
617.44	847.94
617.857	841.25
618.274	834.92
618.691	830.75
619.108	823.99
619.525	819.03
619.942	822.56
620.359	823.42
620.776	819.63
621.192	816.36
621.609	814.94
622.026	819.16
622.442	823.08
622.859	823.59
623.275	818.04
623.691	820.93
624.108	828.99
624.524	837.88
624.94	837.64
625.356	843.94
625.772	851.79
626.188	858.04
626.604	859.02
627.02	856.04
627.436	855.27
627.852	860.61
628.268	869.55
628.683	862.88
629.099	856.42
629.514	852.93
629.93	855.13
630.345	857.97
630.761	855.13
631.176	857.7
631.591	853.86
632.007	849.54
632.422	846.57
632.837	838.37
633.252	836.87
633.667	829.69
634.082	823.38
634.497	814.04
634.911	801.15
635.326	797.12
635.741	784.33
636.155	775.74
636.57	775.41
636.984	773.96
637.399	773.4
637.813	770.89
638.228	768.31
638.642	768.65
639.056	760.7
639.47	758.82
639.884	752.57
640.298	745.76
640.712	743.89
641.126	734.33
641.54	726.96
641.954	720.18
642.368	711.31
642.781	706.11
643.195	693.76
643.609	692.22
644.022	685.71
644.436	680.54
644.849	671.41
645.262	662.4
645.676	660.01
646.089	654.88
646.502	645.64
646.915	639.12
647.328	626.22
647.741	624.09
648.154	614.48
648.567	612.58
648.98	603.73
649.393	602.76
649.805	597.98
650.218	592.13
650.631	581.9
651.043	575.75
651.456	571.18
651.868	570.09
652.28	576.39
652.693	581.73
653.105	582.5
653.517	586.49
653.929	584.19
654.341	586.83
654.753	579.02
655.165	580.05
655.577	577.44
655.989	573.13
656.401	566.05
656.813	545.47
657.224	532.4
657.636	514.85
658.047	503.79
658.459	491.93
658.87	483.98
659.282	475.19
659.693	462.84
660.104	453.29
660.515	443.54
660.926	439.51
661.338	435.7
661.749	430.96
662.159	424.2
662.57	418.92
662.981	413.16
663.392	406.67
663.803	406.06
664.213	401.41
664.624	396.78
665.035	395.85
665.445	387.66
665.855	382.44
666.266	376.69
666.676	373.42
667.086	366.3
667.497	366.25
667.907	363.22
668.317	357.91
668.727	358.08
669.137	356.24
669.547	354.54
669.956	354.62
670.366	354.1
670.776	354.4
671.186	355.17
671.595	356.78
672.005	356.55
672.414	355.44
672.824	355.09
673.233	353.99
673.642	355.78
674.052	357.25
674.461	359.46
674.87	362.23
675.279	361.85
675.688	362.39
676.097	365.33
676.506	364.82
676.915	371.74
677.323	373.9
677.732	373.66
678.141	373.92
678.549	369.23
678.958	368.99
679.366	369.41
679.775	371.38
680.183	379.76
680.592	383.14
681	387.4
681.408	385.92
681.816	390.76
682.224	397.54
682.632	405.98
683.04	424.48
683.448	439.31
683.856	458.31
684.264	481.15
684.671	499.66
685.079	524.78
685.487	552.23
685.894	588.76
686.302	620.93
686.709	649.53
687.116	683.11
687.524	712.99
687.931	740.94
688.338	766.1
688.745	786.77
689.152	811.13
689.559	842.8
689.966	876.59
690.373	897.18
690.78	928.77
691.187	974.12
691.593	1009.81
692	1041.03
692.407	1086.75
692.813	1140.7
693.22	1186.13
693.626	1232.84
694.032	1270.53
694.439	1324.83
694.845	1368.05
695.251	1423.79
695.657	1472.89
696.063	1542.96
696.469	1599.09
696.875	1650.84
697.281	1682.28
697.687	1720.27
698.093	1754.11
698.498	1811.79
698.904	1857.23
699.31	1926.21
699.715	1974.63
700.12	2044.92
700.526	2065.02
700.931	2119.4
701.337	2162.85
701.742	2193.19
702.147	2260.03
702.552	2287.6
702.957	2336.51
703.362	2357.71
703.767	2383.8
704.172	2418.13
704.577	2389.16
704.981	2428.13
705.386	2445.83
705.791	2443
706.195	2501.21
706.6	2511.89
707.004	2573.08
707.408	2554.02
707.813	2577.59
708.217	2573.4
708.621	2580.13
709.025	2656.77
709.43	2661.42
709.834	2707.13
710.237	2763.23
710.641	2757.47
711.045	2776.4
711.449	2776.82
711.853	2803.68
712.256	2838.64
712.66	2869.34
713.064	2928.65
713.467	2962.63
713.87	3050.14
714.274	3089.62
714.677	3177.93
715.08	3300.97
715.484	3430.94
715.887	3587.78
716.29	3739.85
716.693	3899.31
717.096	4082.46
717.499	4184.08
717.901	4206.68
718.304	4232.66
718.707	4255.62
719.109	4175.84
719.512	4153.78
719.915	4054.19
720.317	4013.04
720.719	4046.93
721.122	4026.73
721.524	3993.53
721.926	3965.19
722.328	4043.72
722.731	4036.8
723.133	4058.49
723.535	4208.23
723.937	4226.5
724.338	4268.02
724.74	4300.14
725.142	4264.83
725.544	4265.8
725.945	4288.05
726.347	4283.76
726.748	4280.05
727.15	4291.47
727.551	4264.58
727.952	4244.65
728.354	4224.12
728.755	4226.36
729.156	4194.92
729.557	4177.28
729.958	4083.69
730.359	4041.2
730.76	4030.57
731.161	3984.13
731.562	3966.68
731.962	3970.34
732.363	3922.13
732.763	3875.55
733.164	3903.86
733.564	3854.43
733.965	3783.47
734.365	3757.35
734.766	3778.11
735.166	3748.56
735.566	3708.84
735.966	3688.95
736.366	3686.5
736.766	3641.13
737.166	3663.15
737.566	3631.86
737.966	3613.57
738.365	3643.24
738.765	3641.94
739.165	3585.85
739.564	3566.23
739.964	3600.09
740.363	3565.99
740.763	3563.49
741.162	3553.78
741.561	3530.37
741.96	3495.62
742.36	3509.59
742.759	3513.69
743.158	3541.98
743.557	3554.22
743.955	3585.06
744.354	3551.61
744.753	3594.46
745.152	3561.85
745.55	3602.36
745.949	3596.59
746.348	3598.75
746.746	3611.3
747.144	3582.32
747.543	3566.11
747.941	3602.85
748.339	3550.37
748.737	3544.57
749.136	3538.75
749.534	3589.51
749.932	3569.71
750.33	3588.91
750.727	3628.25
751.125	3610.41
751.523	3597.12
751.921	3630.41
752.318	3604.05
752.716	3646.66
753.113	3655.31
753.511	3674.39
753.908	3673.67
754.305	3663.55
754.703	3711.67
755.1	3759.62
755.497	3805.99
755.894	3950.45
756.291	4085.56
756.688	4336.97
757.085	4671.12
757.482	5140.61
757.878	5650.8
758.275	6117.05
758.672	6751.78
759.068	7264.91
759.465	8004.75
759.861	8960.56
760.258	10066.52
760.654	10639.79
761.05	10554.39
761.447	10078.32
761.843	9386.15
762.239	8672.04
762.635	8346.29
763.031	8038.25
763.427	7591.32
763.822	7119.56
764.218	6654.51
764.614	6050.56
765.01	5639.4
765.405	5377.14
765.801	5175.91
766.196	4921.31
766.592	4777.84
766.987	4537.69
767.382	4371.3
767.778	4305.88
768.173	4207.57
768.568	4149.49
768.963	4057.64
769.358	4074.07
769.753	4040.07
770.148	3977.62
770.542	3979.98
770.937	3959.3
771.332	4030.95
771.726	4050.26
772.121	4005.3
772.515	4046.39
772.91	4038.73
773.304	4089.38
773.699	4041.59
774.093	4081.05
774.487	4125.24
774.881	4155.58
775.275	4151.13
775.669	4116.34
776.063	4149.4
776.457	4174.36
776.851	4116.25
777.245	4109.26
777.638	4135.01
778.032	4222.25
778.425	4193.71
778.819	4224.49
779.212	4192.28
779.606	4160.19
779.999	4175.36
780.392	4160.78
780.786	4221.75
781.179	4241.1
781.572	4274.51
781.965	4280.82
782.358	4235.99
782.751	4279.87
783.143	4243.36
783.536	4296.71
783.929	4329.38
784.322	4417.01
784.714	4437.62
785.107	4431.78
785.499	4483.49
785.891	4465.07
786.284	4452.65
786.676	4559.44
787.068	4545.47
787.46	4582.67
787.852	4599.19
788.245	4666.07
788.636	4688.85
789.028	4744.9
789.42	4779.44
789.812	4788.5
790.204	4860.4
790.595	4938.65
790.987	4790.72
791.378	4810.14
791.77	4908.88
792.161	5012.67
792.553	5053.26
792.944	4969.72
793.335	4917.44
793.726	4969.98
794.117	5033.43
794.508	5138.07
794.899	5111.52
795.29	5220.41
795.681	5261.24
796.072	5153.84
796.463	5018.94
796.853	5025.45
797.244	5144.46
797.634	5172.15
798.025	5173.11
798.415	5187.17
798.806	5255.07
799.196	5323.65
799.586	5359.11
799.976	5331.94
800.366	5508.35
800.756	5685.34
801.146	5652.3
801.536	5673.42
801.926	5723.81
802.316	5741.02
802.706	5793.86
803.095	5703.87
803.485	5779.25
803.874	5811.8
804.264	6007.16
804.653	5984.43
805.043	6093.85
805.432	6177.21
805.821	6180.91
806.21	6197.48
806.599	6291.06
806.988	6327.31
807.377	6406.13
807.766	6502.03
808.155	6716.15
808.544	6518.04
808.933	6531.47
809.321	6517.11
809.71	6747.6
810.098	6863.69
810.487	7215.72
810.875	7578.84
811.264	7595.37
811.652	7819.71
812.04	7934.27
812.428	8053.87
812.816	8632.9
813.204	8949.55
813.592	9366.76
813.98	9616.14
814.368	9549.45
814.756	9911.6
815.144	9850.75
815.531	10206.34
815.919	10140.62
816.306	10372.7
816.694	10145.1
817.081	10178.86
817.469	10439.55
817.856	10435.94
818.243	10641.32
818.63	10929.27
819.017	10606.1
819.404	10646.75
819.791	10925.29
820.178	11389.96
820.565	11575.79
820.952	12279.34
821.339	11917.05
821.725	12051.01
822.112	11489.53
822.498	11461.31
822.885	11562.63
823.271	11491.32
823.657	11810.82
824.044	11816.85
824.43	11871.71
824.816	11853.65
825.202	11523.71
825.588	12293.24
825.974	12311.9
826.36	12697.22
826.746	12716.1
827.132	12990.52
827.517	12972.63
827.903	12377.83
828.289	12413.6
828.674	11823.38
829.06	11739.01
829.445	12038.52
829.83	12303.95
830.216	12669.17
830.601	12955.15
830.986	12650.06
831.371	12547.03
831.756	12970.39
832.141	12653.13
832.526	12646.1
832.911	12863.19
833.295	12777.83
833.68	13136.19
834.065	12668.67
834.449	11966.88
834.834	11916.06
835.218	11920.29
835.603	12180.77
835.987	12021.16
836.371	12649.42
836.755	12577.93
837.139	12885.41
837.524	13078.29
837.908	12945.37
838.291	12997.89
838.675	13058.97
839.059	13217.45
839.443	13209.19
839.827	13036.18
840.21	13412.73
840.594	13303.39
840.977	13458.94
841.361	13445.24
841.744	13718.83
842.127	13594.44
842.511	13773.87
842.894	14229.85
843.277	14514.16
843.66	14922.36
844.043	14987.62
844.426	14368.96
844.809	14133.83
845.191	14159.28
845.574	13814.09
845.957	13546.8
846.339	13471.57
846.722	13078.99
847.104	13123.88
847.487	12993.73
847.869	13005.25
848.252	13220.64
848.634	13477.34
849.016	13679.52
849.398	13774.02
849.78	14408.24
850.162	14405.25
850.544	14715.39
850.926	15189.15
851.307	15132.56
851.689	15347.79
852.071	15686.98
852.452	15920.37
852.834	15906.06
853.215	16208.78
853.597	16320.83
853.978	16555.96
854.359	16906.14
854.741	16153.23
855.122	16080
855.503	15861.31
855.884	15957.03
856.265	15915.07
856.646	16004.45
857.026	15701.52
857.407	15648.13
857.788	15768.32
858.169	15988.71
858.549	15350.57
858.93	15820.12
859.31	15858.61
859.69	16010.37
860.071	15698.65
860.451	15529.12
860.831	14967.42
861.211	15841.32
861.591	16259.08
861.971	16237.78
862.351	16371.82
862.731	16653.73
863.111	16859.16
863.491	17106.25
863.87	17767.52
864.25	18044.94
864.629	17748.79
865.009	18130.82
865.388	18775.6
865.768	20112.95
866.147	20029.92
866.526	18913.21
866.905	19131.55
867.284	20201.71
867.663	19181.88
868.042	18389.73
868.421	18323.16
868.8	18623.88
869.179	18818.72
869.558	17723.41
869.936	16337.83
870.315	16630.42
870.693	17041.64
871.072	18386.23
871.45	17522.19
871.828	17738.09
872.207	18637.82
872.585	18358.84
872.963	18851.17
873.341	18197.16
873.719	17981.75
874.097	17768.01
874.475	18108.62
874.853	18523.87
875.23	17750.25
875.608	18492.84
875.986	20001.96
876.363	19137.71
876.741	19725.93
877.118	19233.2
877.495	20188.04
877.873	20523.53
878.25	21588.16
878.627	20712.47
879.004	21012.94
879.381	20927.56
879.758	20372.41
880.135	18975.15
880.512	20061.53
880.889	19530.04
881.265	19333.54
881.642	19171.1
882.019	19504.93
882.395	19125.3
882.772	19890.18
883.148	19027.31
883.524	18939.08
883.901	18837.99
884.277	19124.76
884.653	19011.67
885.029	19564.8
885.405	21685.4
885.781	21526.43
886.157	20639.31
886.532	20889.99
886.908	20882.74
887.284	23224.24
887.659	23994.76
888.035	24739.97
888.411	25378.1
888.786	25707.49
889.161	26585.85
889.537	26095.71
889.912	26916.33
890.287	26896.51
890.662	27585.41
891.037	27081.34
891.412	25262.03
891.787	24999.54
892.162	24127.09
892.536	24699.95
892.911	23778.9
893.286	23281.78
893.66	22342.5
894.035	22922.02
894.409	24956.97
894.784	23957.99
895.158	24356.72
895.532	25795.33
895.906	26514.55
896.281	27124.58
896.655	26676.3
897.029	30478.27
897.402	31740.79
897.776	35325.43
898.15	35194.21
898.524	34816.76
898.898	35270.1
899.271	39464.49
899.645	34171.15
900.018	32808.85
900.392	34018.25
900.765	34294.98
901.138	31740.34
901.511	31267.44
901.884	28691.91
902.258	26461.98
902.631	27331.59
903.003	31446.6
903.376	28379.15
903.749	31828.3
904.122	34064.55
904.495	37514.93
904.867	37979.21
905.24	32965.26
905.612	30671.35
905.985	31366.2
906.357	32804.95
906.729	31312.31
907.102	26761.18
907.474	25728.76
907.846	25896.79
908.218	25552.9
908.59	22592.6
908.962	21852.37
909.334	23527.51
909.705	24719.59
910.077	24016.87
910.449	24997.05
910.82	25697.76
911.192	28266.21
911.563	29380.85
911.935	31421.91
912.306	31451.16
912.677	32456.91
913.048	32130.47
913.419	34862.01
913.79	35059.07
914.161	37552.8
914.532	35892.23
914.903	32974.35
915.274	31321.96
915.645	30869.59
916.015	27173.63
916.386	25925.96
916.756	27605.17
917.127	28485.38
917.497	25445.63
917.868	27700.85
918.238	26344.87
918.608	27095.33
918.978	27646.76
919.348	29279.22
919.718	30248.44
920.088	29148.98
920.458	30282.38
920.828	31869.01
921.198	30214.08
921.567	32293.38
921.937	24992.71
922.306	25216.1
922.676	27198.98
923.045	22723.05
923.415	21590.46
923.784	19668.44
924.153	20221.2
924.522	20206.52
924.891	19003.65
925.26	20366.5
925.629	19880.07
925.998	22864.87
926.367	22332.06
926.736	21267.07
927.104	25327.62
927.473	27212.79
927.842	32867.16
928.21	32529.61
928.578	34205.66
928.947	32357.46
929.315	32526.21
929.683	38175.33
930.051	38498.98
930.42	44680.35
930.788	38205.18
931.156	37898.55
931.523	35550.46
931.891	32832.09
932.259	31543.99
932.627	36516.14
932.994	51618.31
933.362	42683.14
933.729	37070.99
934.097	35472.5
934.464	30054.19
934.831	34683.77
935.199	34201.62
935.566	33182.92
935.933	33616.48
936.3	40757.58
936.667	31773.76
937.034	28709.81
937.401	28389.27
937.767	24491.9
938.134	21807.68
938.501	30724.67
938.867	32706.21
939.234	55315.88
939.6	47152.65
939.967	52023.2
940.333	34797.79
940.699	29594.19
941.065	23696.15
941.431	31081.53
941.798	30005.92
942.163	39375.57
942.529	24583.17
942.895	22645.1
943.261	14634.27
943.627	19205.08
943.992	16835.41
944.358	16838.93
944.723	16925.13
945.089	16514.64
945.454	15260.18
945.82	16255.35
946.185	15626.9
946.55	18124.53
946.915	16278.03
947.28	19121.02
947.645	16838.42
948.01	15524.51
948.375	16217.94
948.74	19440.78
949.104	22667.64
949.469	32706.9
949.834	57806.11
950.198	54794.97
950.562	32856.3
950.927	27343.29
951.291	32871.86
951.655	28029.45
952.02	26320.89
952.384	19914.28
952.748	17330.95
953.112	16915.71
953.476	14717.13
953.839	13607
954.203	13470.03
954.567	16850.7
954.931	26531.38
955.294	22707.67
955.658	22792.07
956.021	38754.92
956.385	65596.16
956.748	96763.06
957.111	149966.69
957.474	168346.73
957.837	189812.81
958.2	143682.09
958.563	51656.54
958.926	34926.96
959.289	53032.26
959.652	59306.78
960.015	44523.28
960.377	63937.04
960.74	73021.91
961.102	125980.59
961.465	135382.07
961.827	72538.65
962.189	139205.71
962.552	96582.87
962.914	77438.05
963.276	50191.9
963.638	41506.91
964	41078.87
964.362	27782.88
964.724	26840.05
965.085	19166.59
965.447	15710.48
965.809	17868.43
966.17	17884.93
966.532	19357.32
966.893	17782.96
967.255	16193.86
967.616	19083.29
967.977	15288.2
968.338	16680.46
968.699	13717.34
969.061	13717.17
969.421	13804.59
969.782	15510.05
970.143	13092.54
970.504	13554.74
970.865	15385.06
971.225	15722.98
971.586	15402.09
971.946	21944.51
972.307	19049.43
972.667	24878
973.027	25598.66
973.388	31046.37
973.748	21110.89
974.108	23002.44
974.468	31101.34
974.828	24010.61
975.188	18489.67
975.548	16979.19
975.907	14262.06
976.267	16010.69
976.627	13454.54
976.986	13941.76
977.346	13294.27
977.705	12787.51
978.064	11646.91
978.424	9687.36
978.783	10009.92
979.142	11429.23
979.501	10932.16
979.86	11574.18
980.219	11157.23
980.578	14410.77
980.937	16160.26
981.296	14401.72
981.654	14812.31
982.013	23067.02
982.371	29948.62
982.73	27978.17
983.088	31633.33
983.447	33827.08
983.805	48277.07
984.163	100925.31
984.521	111947.7
984.879	163757.41
985.237	-266576.55
985.595	257483.57
985.953	64013.68
986.311	36944.7
986.669	21483.54
987.026	18553.57
987.384	24930.78
987.741	25803.77
988.099	18450.72
988.456	14725.48
988.814	13816.69
989.171	12019.96
989.528	11842.24
989.885	12483.64
990.242	9920.84
990.599	12348.39
990.956	10102.24
991.313	7057.81
991.67	5791.22
992.027	6151.72
992.383	5461.26
992.74	4788.84
993.096	5024.66
993.453	5203.37
993.809	5404.23
994.165	7194.28
994.522	6597.08
994.878	7270.49
995.234	9145.11
995.59	9022.99
995.946	8517.3
996.302	9720.89
996.658	11247.52
997.013	12363.79
997.369	14684.33
997.725	18782.77
998.08	12133.9
998.436	18681.75
998.791	25771.38
999.147	25645.9
999.502	27935.38
999.857	20271.64
1000.212	33005.36
1000.567	46862.26
1000.922	27059.35
1001.277	17169.93
1001.632	12739.08
1001.987	16442.93
1002.342	11793.67
1002.696	9443.07
1003.051	7573.62
1003.406	9172.69
1003.76	9146.3
1004.114	9027.87
1004.469	7605.98
1004.823	6296.19
1005.177	6824.66
1005.531	5404.79
1005.885	4787.68
1006.239	5414.6
1006.593	6789.41
1006.947	9081.72
1007.301	6802.09
1007.655	7425.29
1008.008	5456.28
1008.362	6112.44
1008.715	8720.21
1009.069	7916.18
1009.422	11912.49
1009.776	23902.03
1010.129	15809.73
1010.482	13191.79
1010.835	11104.69
1011.188	23159.68
1011.541	21793.31
1011.894	-132664.87
1012.247	391967.99
1012.6	26604.51
1012.952	16766.02
1013.305	8665.38
1013.657	6265.7
1014.01	5928.77
1014.362	4906.55
1014.715	4392.1
1015.067	3832.58
1015.419	3737.86
1015.771	3308.41
1016.123	2946.42
1016.475	3035.42
1016.827	3227.27
1017.179	3477.83
1017.531	3488.53
1017.883	3565.31
1018.234	3446.68
1018.586	4319.27
1018.938	4575.07
1019.289	6332.61
1019.64	7269.34
1019.992	6751.65
1020.343	6182.44
1020.694	4916.93
1021.045	4324.45
1021.396	4952.72
1021.747	5343.45
1022.098	6416.56
1022.449	4692.49
1022.8	4368.45
1023.151	3034.02
1023.501	2689.31
1023.852	2925.88
1024.202	3037.5
1024.553	3323.04
1024.903	3247.73
1025.253	2775.51
1025.604	2492.59
1025.954	3084.63
1026.304	3726.17
1026.654	4345.62
1027.004	6359.86
1027.354	10275.47
1027.703	9705.65
1028.053	12634.09
1028.403	18331.87
1028.753	26383.38
1029.102	35787.65
1029.452	183116.65
1029.801	7863.48
1030.15	5089.72
1030.499	4271.16
897.758	2404.14
901.051	2348.59
904.343	2382.16
907.636	2387.21
910.928	2449.77
914.22	2363.24
917.511	2368.95
920.803	2423.61
924.094	2432.06
927.384	2423.42
930.675	2387.89
933.965	2347.64
937.255	2366.17
940.544	2329.42
943.834	2307.92
947.123	2244.28
950.411	2336.82
953.7	2314.51
956.988	2290.07
960.276	2229.49
963.563	2292.33
966.851	2295.27
970.138	2344.13
973.424	2341.44
976.711	2298.09
979.997	2376.52
983.283	2422.02
986.568	2341.57
989.853	2345.84
993.138	2372.73
996.423	2455.02
999.708	2402.06
1002.992	2444.2
1006.275	2327.3
1009.559	2347.33
1012.842	2452.44
1016.125	2396.99
1019.408	2376.49
1022.69	2446.55
1025.972	2471.49
1029.254	2445.49
1032.536	2392.9
1035.817	2414.51
1039.098	2375.97
1042.379	2464.91
1045.659	2485.4
1048.939	2424.5
1052.219	2438.43
1055.498	2442.41
1058.778	2434.06
1062.057	2411.52
1065.335	2437.11
1068.614	2449.73
1071.892	2437.82
1075.17	2501.71
1078.447	2496.78
1081.724	2490.01
1085.001	2521.1
1088.278	2497.82
1091.554	2505.82
1094.83	2500.78
1098.106	2532.87
1101.382	2569.06
1104.657	2572.58
1107.932	2569.3
1111.206	2540.02
1114.481	2497.54
1117.755	2497.06
1121.029	2485.36
1124.302	2540.49
1127.575	2498.2
1130.848	2490.24
1134.121	2456.73
1137.393	2412.97
1140.665	2471.99
1143.937	2450.35
1147.208	2406.19
1150.48	2454.17
1153.75	2440.87
1157.021	2459.84
1160.291	2431.09
1163.561	2482.4
1166.831	2462.77
1170.101	2490.31
1173.37	2458.65
1176.639	2410.2
1179.907	2460.05
1183.176	2476.12
1186.444	2477.51
1189.711	2506.67
1192.979	2521.46
1196.246	2480.49
1199.513	2493.05
1202.78	2493.86
1206.046	2504.91
1209.312	2530.53
1212.578	2552.63
1215.843	2513.43
1219.108	2481.75
1222.373	2507.7
1225.638	2475.27
1228.902	2463.54
1232.166	2424.52
1235.43	2412.73
1238.693	2433.93
1241.956	2429.13
1245.219	2472.26
1248.482	2458.46
1251.744	2455.5
1255.006	2590.33
1258.268	2542.36
1261.529	2492.07
1264.79	2495.97
1268.051	2596.23
1271.312	2607.96
1274.572	2577.09
1277.832	2564.2
1281.092	2549.69
1284.351	2532.89
1287.61	2514.73
1290.869	2440.94
1294.128	2428.72
1297.386	2495.09
1300.644	2485.39
1303.902	2499.09
1307.159	2361.76
1310.416	2415.42
1313.673	2440.87
1316.93	2435.06
1320.186	2472.5
1323.442	2509.21
1326.697	2505.98
1329.953	2487.18
1333.208	2516.14
1336.463	2496.9
1339.717	2444.74
1342.972	2566.56
1346.226	2541.57
1349.479	2483.61
1352.733	2457.58
1355.986	2474.51
1359.238	2453.91
1362.491	2456.53
1365.743	2457.16
1368.995	2452.73
1372.247	2464.72
1375.498	2487.46
1378.749	2513.45
1382	2469.11
1385.251	2514.6
1388.501	2471.94
1391.751	2461.62
1395	2430.81
1398.25	2460.25
1401.499	2477.65
1404.748	2416.14
1407.996	2399.39
1411.244	2386.99
1414.492	2369.82
1417.74	2351.13
1420.987	2357.07
1424.234	2414.26
1427.481	2387.66
1430.728	2444.08
1433.974	2420.1
1437.22	2425.66
1440.465	2423.81
1443.711	2404.71
1446.956	2431.3
1450.201	2416.61
1453.445	2454.62
1456.689	2437.73
1459.933	2451.73
1463.177	2486.92
1466.42	2460.67
1469.663	2440.55
1472.906	2445.02
1476.148	2500.79
1479.391	2494.64
1482.633	2465.71
1485.874	2478.74
1489.115	2477.87
1492.356	2471.47
1495.597	2448.25
1498.838	2444.68
1502.078	2421.84
1505.318	2383.96
1508.557	2422.66
1511.797	2414.06
1515.036	2442.55
1518.274	2427.27
1521.513	2392.43
1524.751	2410.27
1527.989	2427.33
1531.227	2442.88
1534.464	2444.56
1537.701	2451.13
1540.938	2466.23
1544.174	2417.63
1547.41	2411.93
1550.646	2449.33
1553.882	2493.17
1557.117	2543.65
1560.352	2554.5
1563.587	2516.88
1566.821	2479.32
1570.055	2506.73
1573.289	2481.04
1576.523	2547.8
1579.756	2557.15
1582.989	2574.6
1586.222	2537.48
1589.454	2567.98
1592.686	2548.75
1595.918	2575.09
1599.15	2566.63
1602.381	2627.52
1605.612	2595.7
1608.843	2693.24
1612.073	2609.6
1615.303	2595.93
1618.533	2593.65
1621.762	2594.07
1624.992	2576.4
1628.221	2572.08
1631.449	2557.57
1634.678	2600.11
1637.906	2559.36
1641.134	2592.71
1644.361	2552.99
1647.588	2543.25
1650.815	2562.28
1654.042	2534.55
1657.269	2559.36
1660.495	2526.22
1663.72	2531.06
1666.946	2497.97
1670.171	2456.68
1673.396	2432.25
1676.621	2415.72
1679.845	2424.51
1683.069	2438.96
1686.293	2472.72
1689.517	2454.42
1692.74	2398.61
1695.963	2423
1699.185	2450.78
1702.408	2423.71
1705.63	2460.38
1708.852	2476.01
1712.073	2448.8
1715.294	2446.4
1718.515	2497.85
1721.736	2452.51
1724.956	2437.77
1728.176	2461.14
1731.396	2484.09
1734.616	2470.12
1737.835	2504.97
1741.054	2477.72
1744.272	2470.05
1747.491	2504.31
1750.709	2542.59
1753.927	2469.89
1757.144	2505.11
1760.361	2554.03
1763.578	2539.66
1766.795	2484.21
1770.011	2483.76
1773.227	2514.45
1776.443	2553.1
1779.658	2596.76
1782.874	2539.4
1786.089	2524.49
1789.303	2527.19
1792.518	2528.02
1795.732	2516.09
1798.945	2528.07
1802.159	2574.7
1805.372	2495.29
1808.585	2485.08
1811.797	2487.03
1815.01	2522.38
1818.222	2535.3
1821.434	2507.19
1824.645	2556.27
1827.856	2555.49
1831.067	2587.69
1834.278	2535.64
1837.488	2521.01
1840.698	2654.66
1843.908	2589.66
1847.117	2554.23
1850.326	2459.74
1853.535	2542.7
1856.744	2567.04
1859.952	2485.66
1863.16	2485.42
1866.368	2503.87
1869.575	2609.57
1872.782	2496.62
1875.989	2434.34
1879.196	2498.96
1882.402	2489.8
1885.608	2529.14
1888.814	2448.48
1892.019	2351.72
1895.224	2404.56
1898.429	2379.58
1901.634	2360.19
1904.838	2335.39
1908.042	2385.54
1911.246	2397.26
1914.449	2347.15
1917.652	2335.57
1920.855	2316.91
1924.058	2354.46
1927.26	2396.25
1930.462	2420.58
1933.664	2451.41
1936.865	2394.64
1940.066	2407.86
1943.267	2352.17
1946.467	2365.24
1949.668	2386.13
1952.868	2457.16
1956.067	2439.88
1959.267	2377.69
1962.466	2402.05
1965.665	2386.83
1968.863	2383.65
1972.061	2389.89
1975.259	2384.03
1978.457	2462.84
1981.654	2420.99
1984.852	2425.26
1988.048	2368.26
1991.245	2364.57
1994.441	2448.66
1997.637	2420.8
2000.833	2399.98
2004.028	2437.23
2007.223	2497.12
2010.418	2479.82
2013.613	2436.76
2016.807	2419.13
2020.001	2417.85
2023.194	2453.38
2026.388	2430.4
2029.581	2377
2032.774	2434.08
2035.966	2444.62
2039.158	2381.54
2042.35	2404.68
2045.542	2332.12
2048.733	2423.22
2051.924	2428.74
2055.115	2452.34
2058.306	2404.1
2061.496	2462.82
2064.686	2518.37
2067.875	2428.95
2071.065	2436
2074.254	2460.35
2077.442	2412.75
2080.631	2499.86
2083.819	2409.86
2087.007	2398.96
2090.195	2377.82
2093.382	2401.8
2096.569	2383.88
2099.756	2342.76
2102.942	2378.71
2106.128	2389.43
2109.314	2378.8
2112.5	2355.01
2115.685	2325.9
2118.87	2335.1
2122.055	2399.38
2125.239	2370.86
2128.424	2353.4
2131.608	2435.25
2134.791	2418.37
2137.974	2465.39
2141.157	2452.7
2144.34	2414.61
2147.523	2417.33
2150.705	2439.53
2153.887	2412.97
2157.068	2373.64
2160.25	2365.56
2163.431	2395.32
2166.611	2351.29
2169.792	2370.39
2172.972	2275.6
2176.152	2338.65
2179.331	2369.07
2182.511	2360.51
2185.69	2387.76
2188.868	2385.52
2192.047	2429.27
2195.225	2431.94
2198.403	2385.61
2201.58	2375.51
2204.758	2365.22
2207.935	2440.87
2211.111	2344.07
2214.288	2332.86
2217.464	2368.58
2220.64	2329.34
2223.815	2384.21
2226.991	2312.64
2230.166	2331.2
2233.34	2362.37
2236.515	2381.12
2239.689	2453.67
2242.863	2400.11
2246.036	2455.27
2249.209	2446.59
2252.382	2471.73
2255.555	2472.91
2258.727	2415.93
2261.9	2451.76
2265.071	2442.9
2268.243	2443.19
2271.414	2384.06
2274.585	2353.22
2277.756	2418.54
2280.926	2373.01
2284.096	2407.23
2287.266	2329.59
2290.436	2377.6
2293.605	2403.74
2296.774	2435.78
2299.942	2445.2
2303.111	2466.03
2306.279	2515.47
2309.447	2500.27
2312.614	2473.68
2315.781	2495.39
2318.948	2471.72
2322.115	2506.68
2325.281	2409.73
2328.447	2421.78
2331.613	2395.63
2334.779	2381.02
2337.944	2376.69
2341.109	2378.04
2344.274	2367.09
2347.438	2332.19
2350.602	2356.32
2353.766	2367.32
2356.929	2356.33
2360.092	2397.42
2363.255	2357.32
2366.418	2307.2
2369.58	2396.44
2372.742	2231.59
2375.904	2235.06
2379.066	2214.06
2382.227	2246.05
2385.388	2211.02
2388.548	2148.59
2391.709	2195.81
2394.869	2177.37
2398.029	2255.09
2401.188	2258.83
2404.347	2207.8
2407.506	2315.99
2410.665	2349.45
2413.823	2345.45
2416.981	2314.46
2420.139	2336.22
2423.296	2380.3
2426.453	2353
2429.61	2378.18
2432.767	2330.95
2435.923	2367.43
2439.079	2325.47
2442.235	2364.07
2445.391	2298.85
2448.546	2334.1
2451.701	2374.8
2454.855	2359.83
2458.009	2400.21
2461.163	2394.6
2464.317	2357.53
2467.471	2386.77
2470.624	2422.62
2473.777	2399.72
2476.929	2415.08
2480.082	2438.82
2483.234	2407.81
2486.385	2356.08
2489.537	2349.63
2492.688	2327.03
2495.839	2345.58
2498.989	2359.1
2502.14	2344.3
2505.29	2330.79
2508.439	2357.77
2511.589	2291.02
2514.738	2297.01
2517.887	2323.65
2521.035	2392.77
2524.183	2367.48
2527.331	2350.41
2530.479	2335.21
2533.627	2341.54
