Data from N_2_DEC_NC_4N_Splice17_12-25-33-856.txt Node
Date: Sat Mar 14 12:25:33 EDT 2020
User: sa697716
Spectrometer: FLMS03696
Trigger mode: 0
Integration Time (sec): 3.180400E-1
Scans to average: 20
Electric dark correction enabled: true
Nonlinearity correction enabled: true
Boxcar width: 5
XAxis mode: Wavelengths
Number of Pixels in Spectrum: 2048
>>>>>Begin Spectral Data<<<<<
187.83	-337248.86
188.298	2505.15
188.766	1397.63
189.233	1212.02
189.701	1635.61
190.169	2396.13
190.636	926.37
191.104	783.09
191.571	144.16
192.039	-43.59
192.506	-14.1
192.974	460.08
193.441	-738.85
193.908	-37.47
194.375	-21.2
194.842	12.99
195.31	232.86
195.777	232.39
196.244	467.64
196.711	495.03
197.177	617.01
197.644	839.26
198.111	1421.51
198.578	2019.28
199.045	1604.74
199.511	2604.34
199.978	2999.36
200.445	2538.14
200.911	2797.31
201.378	3103.8
201.844	2795.28
202.31	4728.11
202.777	4943.89
203.243	2729.36
203.709	2584.04
204.176	3072.05
204.642	2531.57
205.108	2384.5
205.574	1938
206.04	1757.28
206.506	1643.67
206.972	1555.73
207.438	1509.51
207.903	1717.51
208.369	1500.7
208.835	1502.41
209.301	1572
209.766	1595.13
210.232	1563.75
210.697	1907.52
211.163	2353.15
211.628	3539.03
212.094	3007.06
212.559	3674.02
213.024	2296.52
213.49	2828.4
213.955	2729.83
214.42	2658.35
214.885	2505.25
215.35	2416.55
215.815	2358.53
216.28	2483.63
216.745	2033.16
217.21	2193.31
217.675	2008.25
218.14	2251.68
218.604	2492.11
219.069	2834.07
219.534	2968.41
219.998	3414.16
220.463	4129.58
220.927	5039.73
221.392	4730.57
221.856	4781.22
222.32	5998.91
222.785	7395.34
223.249	9293.55
223.713	10364
224.177	10381.06
224.642	13316.43
225.106	16352.05
225.57	17806.52
226.034	13250.22
226.497	20180.18
226.961	18180.3
227.425	21165.56
227.889	23506.94
228.353	23455.87
228.816	48337.59
229.28	46169.01
229.744	38812.58
230.207	23631.8
230.671	23195.88
231.134	38270.38
231.597	44095.59
232.061	43998.69
232.524	42823.52
232.987	29482.79
233.45	26508.61
233.914	23757.25
234.377	24341.07
234.84	22244.01
235.303	26174.53
235.766	29223.19
236.229	30166.57
236.691	18988.07
237.154	21307.62
237.617	15997.7
238.08	16335.18
238.542	19089.53
239.005	13633.51
239.468	13500.65
239.93	12732.22
240.393	11559.2
240.855	10137.68
241.317	10387.2
241.78	12592.07
242.242	13008.27
242.704	14056.38
243.166	12231.75
243.629	11110.53
244.091	12796.3
244.553	14005.42
245.015	15021.5
245.477	19377.22
245.939	28364.74
246.4	30010.69
246.862	29170.4
247.324	27456.92
247.786	30673.81
248.247	40151.11
248.709	41293.4
249.17	30825.72
249.632	29013.1
250.093	33627.02
250.555	29033.6
251.016	17679.3
251.477	16742.43
251.939	18043.23
252.4	18897.24
252.861	22406.94
253.322	20796.22
253.783	24762.78
254.244	32049.54
254.705	25224.04
255.166	22360.19
255.627	21966.36
256.088	30962.27
256.549	32880.28
257.009	28286.02
257.47	34294.82
257.931	27899.8
258.391	20894.68
258.852	21528.16
259.312	22563.19
259.773	27869.4
260.233	23594.46
260.694	19918.64
261.154	22585.98
261.614	18110.88
262.074	16198.14
262.534	16838.21
262.994	15887.17
263.455	21133.8
263.915	17794.07
264.374	16744.16
264.834	18237.46
265.294	20164.48
265.754	20864.13
266.214	19699.32
266.673	18434.98
267.133	23206.08
267.593	22990.78
268.052	28070.91
268.512	24389.07
268.971	29350.82
269.431	32147.87
269.89	28762.96
270.349	43115.02
270.809	48025.9
271.268	43171.07
271.727	96789.82
272.186	62670.06
272.645	46902.94
273.104	33792.54
273.563	48894.57
274.022	38456.63
274.481	32695.15
274.94	25189.01
275.399	18704.88
275.857	21750.84
276.316	29380.6
276.775	26110.79
277.233	25675.38
277.692	24059.18
278.15	27207.85
278.609	28005.35
279.067	25887.52
279.525	24043.49
279.984	31012.42
280.442	37252.88
280.9	36745.09
281.358	24166.11
281.816	22537.02
282.274	22094.97
282.732	22816.21
283.19	22950.56
283.648	19791.92
284.106	21090.4
284.564	21440.73
285.021	19926.07
285.479	14828.42
285.937	13462.05
286.394	11826.44
286.852	12152.58
287.309	12780.52
287.767	12358.89
288.224	11741.5
288.682	12874.43
289.139	14102.88
289.596	12901.42
290.053	13371.22
290.511	16834.29
290.968	20406.6
291.425	27626.62
291.882	22987.01
292.339	19955.93
292.796	19755.97
293.252	18585.66
293.709	14759.45
294.166	13226.93
294.623	14591.18
295.079	13984.85
295.536	14055.95
295.992	12766.67
296.449	12624.31
296.905	13107.65
297.362	12562.4
297.818	13187.12
298.274	13673.56
298.731	13893.42
299.187	13735
299.643	14744.49
300.099	17841.06
300.555	19555.03
301.011	16321.73
301.467	15739.21
301.923	18409.54
302.379	17973.46
302.835	17642.01
303.291	17666.29
303.746	20139.47
304.202	25419.81
304.658	25526.84
305.113	17144.79
305.569	16792.92
306.024	17889.33
306.479	16990.86
306.935	14330.08
307.39	15635.49
307.845	14433.03
308.301	14536.14
308.756	14167.59
309.211	13663.18
309.666	13977.38
310.121	17362.94
310.576	17634.13
311.031	17490.25
311.486	20001.37
311.94	19935.11
312.395	26636.46
312.85	50092.68
313.305	245393.68
313.759	1269216.55
314.214	91833.68
314.668	72807.18
315.123	61183.73
315.577	21913.55
316.032	19495.96
316.486	24425.29
316.94	19328.75
317.394	13453.76
317.849	10446.85
318.303	9871.64
318.757	9286.39
319.211	10254.29
319.665	8972.02
320.119	9077.44
320.572	12999.83
321.026	12111.95
321.48	10091.85
321.934	10971.55
322.387	10999.37
322.841	11879.86
323.295	10703.45
323.748	12337.05
324.202	12525.41
324.655	15036.53
325.108	20985.41
325.562	14828.08
326.015	17633.71
326.468	13327.75
326.921	14902.55
327.374	13902.89
327.827	14493.8
328.28	16399.66
328.733	11003.55
329.186	9666.07
329.639	9208.02
330.092	7761.44
330.545	7391
330.997	7461.07
331.45	8157.9
331.903	9556.36
332.355	16401.84
332.808	15935.42
333.26	13129.42
333.713	14252.73
334.165	14341.61
334.617	19096.59
335.069	15423
335.522	27879.84
335.974	30850.04
336.426	28171.79
336.878	19507.08
337.33	9895.81
337.782	9626.92
338.234	12081.2
338.686	14411.8
339.137	17079.07
339.589	16124.84
340.041	12670.71
340.493	10871.88
340.944	11147.96
341.396	11997.53
341.847	10105.22
342.299	11932.52
342.75	14620.71
343.201	12746.07
343.653	14647.74
344.104	18003.97
344.555	14147.39
345.006	21878.66
345.457	16776.01
345.908	13294.14
346.359	12513.43
346.81	10171.73
347.261	10704.03
347.712	10508.26
348.163	11254.14
348.613	11408.07
349.064	10649.79
349.515	9324.92
349.965	9588.53
350.416	11524.4
350.866	12634.99
351.317	14245.62
351.767	23660.86
352.217	29932.27
352.668	24875.66
353.118	22757.25
353.568	21889.83
354.018	17297.23
354.468	18251.41
354.918	13093.03
355.368	11465.4
355.818	16192.39
356.268	46611.08
356.718	194584.42
357.168	48397.57
357.617	24291.54
358.067	27085.35
358.517	25480.87
358.966	29908.91
359.416	33539.78
359.865	36202.01
360.315	43199.36
360.764	20180.91
361.213	11301.04
361.663	10658.23
362.112	13149.55
362.561	21185.18
363.01	15945.48
363.459	13368.62
363.908	14424.47
364.357	12281.56
364.806	20786.07
365.255	14245.22
365.703	13073.6
366.152	13107.21
366.601	10695.34
367.05	8675.55
367.498	7902.18
367.947	8259.02
368.395	8598.02
368.844	7651.45
369.292	9191.93
369.74	6330.54
370.189	9693.48
370.637	11345.46
371.085	9766.39
371.533	11853.57
371.981	11426.28
372.429	10908.16
372.877	11346.75
373.325	9491.28
373.773	9621.89
374.221	8554.96
374.669	10624.1
375.116	9197.94
375.564	9285.06
376.012	10436.52
376.459	8612.53
376.907	10284.44
377.354	12382.31
377.801	11580.85
378.249	13301.27
378.696	17053.81
379.143	20622.62
379.591	22011.46
380.038	37177.94
380.485	26788.78
380.932	28784.6
381.379	26398.42
381.826	19463.33
382.273	13847.77
382.72	12063.11
383.166	11804.91
383.613	7660.02
384.06	6927.3
384.506	8017.82
384.953	5881.72
385.4	5920.24
385.846	5189.92
386.292	5045.05
386.739	4933.91
387.185	4871.16
387.631	4882.92
388.078	4737.58
388.524	5061.57
388.97	4673.03
389.416	3892.99
389.862	4145.63
390.308	3937.03
390.754	4004.12
391.2	4343.01
391.645	4450.48
392.091	4285.17
392.537	4164.39
392.983	4179.35
393.428	4130.66
393.874	4449.03
394.319	4502.85
394.765	4297.63
395.21	4421.85
395.655	4168.63
396.101	3916.89
396.546	3546.66
396.991	3582.63
397.436	3324.22
397.881	3219.34
398.326	3051.48
398.771	2892.92
399.216	2531.57
399.661	2287.96
400.106	2297.89
400.551	2364.86
400.995	2135.07
401.44	2119.06
401.885	2000.91
402.329	2034.12
402.774	1956.6
403.218	1908.15
403.663	1840.87
404.107	1896.89
404.551	1918.14
404.995	1759.43
405.44	1693.17
405.884	1719.57
406.328	1664.23
406.772	1660.12
407.216	1516.87
407.66	1470.4
408.104	1394.11
408.547	1313.13
408.991	1273.66
409.435	1225.62
409.879	1216.23
410.322	1204.51
410.766	1169.36
411.209	1118
411.653	1075.97
412.096	1058.6
412.54	1061.15
412.983	1057.75
413.426	1062.8
413.869	1064.11
414.312	1047
414.756	1007.95
415.199	961.51
415.642	935.11
416.085	937.93
416.527	930.89
416.97	943.15
417.413	895.62
417.856	885.23
418.298	873.31
418.741	863.27
419.184	860.89
419.626	895.01
420.069	895.13
420.511	899.07
420.953	880.13
421.396	874.95
421.838	852.04
422.28	871.18
422.722	879.32
423.164	892.51
423.606	880.85
424.048	878.05
424.49	838.26
424.932	837.16
425.374	825.51
425.816	839.33
426.258	853.37
426.699	862.66
427.141	851.73
427.582	861.82
428.024	859.5
428.465	853.32
428.907	833.23
429.348	821.02
429.789	820.2
430.231	805.03
430.672	817.84
431.113	800.69
431.554	789.19
431.995	769.28
432.436	744.6
432.877	728.08
433.318	718.11
433.759	715.4
434.2	716.56
434.64	709.3
435.081	709.16
435.522	671.42
435.962	647.19
436.403	635.7
436.843	644.89
437.284	629.56
437.724	612.84
438.164	614.94
438.604	602.22
439.045	581.04
439.485	561.54
439.925	551.98
440.365	538.88
440.805	532.24
441.245	526.58
441.685	507.74
442.125	504.87
442.564	508.46
443.004	499.33
443.444	500.26
443.883	503.24
444.323	498.26
444.762	499.64
445.202	508.26
445.641	519.76
446.081	519.18
446.52	526.46
446.959	525.18
447.398	515.23
447.837	510.98
448.276	504.12
448.716	510.76
449.154	517.17
449.593	508.85
450.032	509.85
450.471	502.93
450.91	504.09
451.349	505.64
451.787	506.04
452.226	515.17
452.664	517.27
453.103	519.55
453.541	519.35
453.98	521.65
454.418	525.57
454.856	518.12
455.295	518.06
455.733	524.01
456.171	527.03
456.609	529.03
457.047	530.3
457.485	537.81
457.923	540.75
458.361	534.31
458.798	535.64
459.236	535.66
459.674	539.87
460.111	542.82
460.549	538.46
460.987	536.91
461.424	534.08
461.862	532.42
462.299	525.59
462.736	525.54
463.173	527.08
463.611	523.51
464.048	522.12
464.485	526.96
464.922	522.26
465.359	519.02
465.796	515.92
466.233	512.93
466.67	509.59
467.106	508.66
467.543	502.7
467.98	497.15
468.416	483.73
468.853	480.04
469.29	466.28
469.726	462.06
470.162	450.32
470.599	441.93
471.035	438.14
471.471	427.08
471.907	423.83
472.344	421.08
472.78	423.1
473.216	428.46
473.652	424.24
474.088	422.93
474.523	421.57
474.959	426.43
475.395	423.3
475.831	422.02
476.266	425.12
476.702	425.25
477.138	421.53
477.573	420.59
478.008	419.54
478.444	421.55
478.879	426.59
479.314	429.21
479.75	429.9
480.185	432.56
480.62	436.19
481.055	438.66
481.49	442.64
481.925	449.65
482.36	458.74
482.795	472.72
483.229	486.29
483.664	497.33
484.099	499.66
484.534	507.42
484.968	513.17
485.403	515.22
485.837	515.25
486.271	515.67
486.706	516.94
487.14	511.73
487.574	504.33
488.009	501.13
488.443	498.07
488.877	504.91
489.311	508.28
489.745	516.26
490.179	523.48
490.613	536.2
491.046	541.84
491.48	548.59
491.914	551.67
492.348	558.64
492.781	564.46
493.215	568.36
493.648	572.61
494.082	580.2
494.515	583.42
494.948	593.54
495.382	600.41
495.815	608.94
496.248	617.65
496.681	632.69
497.114	646.93
497.547	661.13
497.98	677.5
498.413	687.49
498.846	701.14
499.279	714.63
499.711	723.77
500.144	732.15
500.577	747.06
501.009	763.87
501.442	780.01
501.874	787.54
502.306	794.98
502.739	809.73
503.171	830.52
503.603	840.73
504.036	856.51
504.468	867.98
504.9	885.56
505.332	899.04
505.764	910.18
506.196	923.84
506.627	944.34
507.059	964.3
507.491	978.51
507.923	983.76
508.354	1005.36
508.786	1022.17
509.217	1047.55
509.649	1067.84
510.08	1093.84
510.512	1116.58
510.943	1137.35
511.374	1155.58
511.805	1183.13
512.237	1209.93
512.668	1249.33
513.099	1284.04
513.53	1318.91
513.961	1345.96
514.391	1386.36
514.822	1426.51
515.253	1469.97
515.684	1502.32
516.114	1538.1
516.545	1565
516.975	1596.69
517.406	1619.21
517.836	1623.14
518.267	1631.47
518.697	1653.6
519.127	1659.52
519.558	1669.68
519.988	1675.55
520.418	1688.96
520.848	1709.43
521.278	1719.46
521.708	1736.05
522.138	1751.12
522.567	1787.45
522.997	1817.37
523.427	1834.52
523.857	1854.96
524.286	1866.48
524.716	1883.43
525.145	1904.01
525.575	1916.82
526.004	1933.51
526.433	1928.69
526.863	1928.05
527.292	1915.6
527.721	1921.23
528.15	1928.06
528.579	1927.65
529.008	1939.84
529.437	1965.5
529.866	1980.82
530.295	1999.65
530.724	2013.14
531.152	2044.48
531.581	2060.98
532.01	2081.63
532.438	2091.17
532.867	2106.86
533.295	2126.67
533.723	2132.14
534.152	2129.27
534.58	2128.99
535.008	2110.2
535.436	2112.29
535.865	2120.18
536.293	2137.31
536.721	2154.73
537.149	2183.82
537.576	2187.43
538.004	2203.17
538.432	2212.42
538.86	2208.97
539.287	2216.79
539.715	2233.9
540.143	2237.71
540.57	2232.61
540.998	2227.52
541.425	2200.45
541.852	2175.73
542.28	2172.46
542.707	2152.69
543.134	2136.94
543.561	2133.13
543.988	2124.07
544.415	2122.12
544.842	2114.8
545.269	2107.84
545.696	2108.66
546.123	2123.31
546.549	2111.38
546.976	2097.96
547.403	2097.12
547.829	2098.87
548.256	2100.02
548.682	2094.44
549.108	2085.54
549.535	2084.74
549.961	2085.29
550.387	2070.35
550.813	2063.66
551.24	2070.2
551.666	2069.82
552.092	2059.18
552.518	2051.37
552.943	2044.52
553.369	2053.31
553.795	2058.74
554.221	2060
554.646	2057.27
555.072	2069.34
555.498	2075.03
555.923	2085.06
556.349	2102.66
556.774	2112.3
557.199	2115.05
557.625	2122.42
558.05	2116.45
558.475	2130.33
558.9	2128.49
559.325	2119.38
559.75	2112.29
560.175	2106.32
560.6	2099.53
561.025	2097.81
561.449	2099.41
561.874	2106.08
562.299	2112.41
562.723	2121.68
563.148	2110.89
563.572	2117.37
563.997	2130.52
564.421	2137.79
564.846	2139.29
565.27	2145.6
565.694	2144.6
566.118	2160.23
566.542	2169.88
566.966	2162.93
567.39	2157.51
567.814	2145.37
568.238	2145.23
568.662	2151.42
569.086	2156.34
569.509	2166.12
569.933	2149.29
570.357	2142.05
570.78	2118.36
571.204	2102.99
571.627	2091.89
572.05	2091.19
572.474	2091.95
572.897	2078.6
573.32	2071.37
573.743	2060.61
574.166	2039.64
574.589	2041.28
575.012	2031.5
575.435	2029.73
575.858	2020.42
576.281	2006.94
576.704	1988.19
577.126	1973.8
577.549	1961.38
577.972	1949.28
578.394	1936.91
578.817	1927.72
579.239	1904.34
579.661	1889.55
580.084	1871.33
580.506	1856.39
580.928	1852.69
581.35	1840.13
581.772	1834.51
582.194	1818.06
582.616	1802.79
583.038	1786.63
583.46	1775.15
583.882	1772.82
584.303	1777.78
584.725	1772.66
585.147	1773.06
585.568	1785.95
585.99	1800.28
586.411	1809.24
586.833	1826.56
587.254	1829.04
587.675	1844.6
588.096	1859.21
588.518	1851.47
588.939	1831.39
589.36	1829.44
589.781	1819.43
590.202	1784.31
590.623	1773.85
591.043	1771.16
591.464	1757.48
591.885	1752.87
592.305	1746.44
592.726	1730.24
593.147	1732.98
593.567	1726.51
593.987	1717.48
594.408	1711.28
594.828	1710.17
595.248	1703.87
595.669	1681.39
596.089	1672.78
596.509	1665.75
596.929	1650.02
597.349	1650.84
597.769	1638.45
598.189	1631.94
598.608	1634.15
599.028	1635.31
599.448	1635.74
599.867	1621.11
600.287	1616.39
600.706	1611.98
601.126	1599.89
601.545	1599.57
601.965	1597.9
602.384	1591.68
602.803	1594.99
603.222	1588.41
603.641	1580.14
604.061	1574.42
604.48	1569.62
604.898	1578.94
605.317	1583.91
605.736	1586.33
606.155	1581.5
606.574	1571.28
606.992	1576.13
607.411	1569.07
607.829	1558.85
608.248	1555.69
608.666	1552.68
609.085	1550.48
609.503	1538.31
609.921	1530.41
610.339	1531.15
610.758	1529.69
611.176	1523.05
611.594	1511.01
612.012	1506.17
612.43	1508.84
612.847	1513.77
613.265	1513.3
613.683	1516.81
614.101	1518.02
614.518	1511.96
614.936	1499.52
615.353	1481.94
615.771	1476.2
616.188	1476.56
616.606	1471.04
617.023	1462.22
617.44	1445.75
617.857	1437.08
618.274	1426.94
618.691	1418.9
619.108	1407.61
619.525	1400.62
619.942	1406.83
620.359	1408.88
620.776	1402.04
621.192	1397.74
621.609	1394.67
622.026	1401.93
622.442	1408.7
622.859	1411.93
623.275	1402.96
623.691	1407.62
624.108	1419.78
624.524	1434.03
624.94	1433.74
625.356	1445.08
625.772	1460.05
626.188	1473.58
626.604	1474.64
627.02	1470.24
627.436	1467.15
627.852	1475.52
628.268	1489.36
628.683	1478.62
629.099	1469.93
629.514	1464.85
629.93	1467.95
630.345	1472.71
630.761	1466.96
631.176	1470.69
631.591	1462.42
632.007	1455.55
632.422	1452.29
632.837	1440.12
633.252	1436.77
633.667	1424.97
634.082	1413.57
634.497	1398.5
634.911	1375.63
635.326	1371.32
635.741	1351.44
636.155	1341.03
636.57	1341.05
636.984	1341.58
637.399	1342.63
637.813	1342.19
638.228	1340.28
638.642	1344.67
639.056	1331.97
639.47	1330.75
639.884	1320.52
640.298	1311.75
640.712	1307.8
641.126	1292.88
641.54	1279.22
641.954	1270.25
642.368	1253.67
642.781	1242.22
643.195	1220.6
643.609	1219.2
644.022	1209.85
644.436	1202.09
644.849	1186.08
645.262	1170.74
645.676	1169.65
646.089	1162.76
646.502	1142.83
646.915	1134.2
647.328	1112.13
647.741	1105.49
648.154	1087.67
648.567	1081.52
648.98	1063.88
649.393	1060.09
649.805	1051.67
650.218	1040.34
650.631	1019.68
651.043	1011.26
651.456	1001.96
651.868	999.48
652.28	1014.18
652.693	1024.84
653.105	1027.11
653.517	1033.64
653.929	1030.88
654.341	1032.91
654.753	1016.86
655.165	1019.41
655.577	1012.71
655.989	1003.25
656.401	991.21
656.813	950.68
657.224	925.66
657.636	893.18
658.047	870.31
658.459	845.97
658.87	831.42
659.282	813.69
659.693	788.3
660.104	768.15
660.515	749.41
660.926	742.33
661.338	733.63
661.749	721.81
662.159	707.06
662.57	696.75
662.981	686.8
663.392	674.27
663.803	671.45
664.213	663.19
664.624	653
665.035	649.04
665.445	629.92
665.855	617.71
666.266	605.3
666.676	597.85
667.086	585.83
667.497	580.8
667.907	571.62
668.317	560.39
668.727	555.27
669.137	551.63
669.547	546.54
669.956	545.44
670.366	544.49
670.776	544.1
671.186	544.84
671.595	544.51
672.005	543.92
672.414	542.01
672.824	539.62
673.233	539.87
673.642	539.45
674.052	541.12
674.461	542.42
674.87	544
675.279	541.78
675.688	541.27
676.097	542.62
676.506	540.57
676.915	549.65
677.323	551.93
677.732	550.27
678.141	552.28
678.549	546.22
678.958	546.35
679.366	547.86
679.775	552.18
680.183	563.16
680.592	570.52
681	578.44
681.408	578.67
681.816	589.65
682.224	601.47
682.632	616.01
683.04	645.07
683.448	670.8
683.856	704.88
684.264	742.66
684.671	780.15
685.079	823.71
685.487	873.53
685.894	939.57
686.302	998.05
686.709	1051.37
687.116	1112.9
687.524	1168.37
687.931	1219.41
688.338	1262.3
688.745	1303.03
689.152	1345.48
689.559	1400.99
689.966	1454.84
690.373	1488.61
690.78	1540.9
691.187	1615.35
691.593	1671.47
692	1721.89
692.407	1793.13
692.813	1880.05
693.22	1950.41
693.626	2022.4
694.032	2080.36
694.439	2164.46
694.845	2228.58
695.251	2309.93
695.657	2380.61
696.063	2486.77
696.469	2564.66
696.875	2637.93
697.281	2676.88
697.687	2723.95
698.093	2764.97
698.498	2842.92
698.904	2903.14
699.31	2996.92
699.715	3060.64
700.12	3156.44
700.526	3171.27
700.931	3242.44
701.337	3293.59
701.742	3327.06
702.147	3414.75
702.552	3443.45
702.957	3503.84
703.362	3521.75
703.767	3543.93
704.172	3582.42
704.577	3525.84
704.981	3572.61
705.386	3585.94
705.791	3574.37
706.195	3647.09
706.6	3652.1
707.004	3730.7
707.408	3692.69
707.813	3714.98
708.217	3700.28
708.621	3697.11
709.025	3795.59
709.43	3793.07
709.834	3850.69
710.237	3918.28
710.641	3898.06
711.045	3916.24
711.449	3905.68
711.853	3931.15
712.256	3972.85
712.66	4009.03
713.064	4082.3
713.467	4121.82
713.87	4231.51
714.274	4275.67
714.677	4382.7
715.08	4545.57
715.484	4715.32
715.887	4919.72
716.29	5120.85
716.693	5326.16
717.096	5564.55
717.499	5693.42
717.901	5714.28
718.304	5736.8
718.707	5754.63
719.109	5647.55
719.512	5608.89
719.915	5464.73
720.317	5402.81
720.719	5442.06
721.122	5409.31
721.524	5356.45
721.926	5309.73
722.328	5405.53
722.731	5390.14
723.133	5415
723.535	5604.15
723.937	5622.3
724.338	5674.05
724.74	5711.7
725.142	5641.86
725.544	5634.9
725.945	5654.81
726.347	5650.39
726.748	5640.59
727.15	5656.09
727.551	5616.7
727.952	5584.75
728.354	5551.4
728.755	5546.17
729.156	5500.16
729.557	5487.87
729.958	5362.23
730.359	5306
730.76	5284.6
731.161	5223
731.562	5195.04
731.962	5194.68
732.363	5132.27
732.763	5068.96
733.164	5102.16
733.564	5035.63
733.965	4938.42
734.365	4903.12
734.766	4928.76
735.166	4887.08
735.566	4829.46
735.966	4802.14
736.366	4794.31
736.766	4730.57
737.166	4759.29
737.566	4718.88
737.966	4691.3
738.365	4725.79
738.765	4720.85
739.165	4646.21
739.564	4618.73
739.964	4662.31
740.363	4614.72
740.763	4613.05
741.162	4600.76
741.561	4568.42
741.96	4522.06
742.36	4539.53
742.759	4546.02
743.158	4583.86
743.557	4597.24
743.955	4635.71
744.354	4591.48
744.753	4647.66
745.152	4606.25
745.55	4660.79
745.949	4653.16
746.348	4654.6
746.746	4670.27
747.144	4631.18
747.543	4606
747.941	4653.73
748.339	4584.97
748.737	4576.96
749.136	4567.83
749.534	4630.75
749.932	4602.39
750.33	4628.7
750.727	4680.66
751.125	4656.41
751.523	4638.51
751.921	4681.35
752.318	4647.75
752.716	4704.48
753.113	4717.73
753.511	4739.98
753.908	4740
754.305	4722.25
754.703	4779.15
755.1	4839.71
755.497	4899.11
755.894	5085.79
756.291	5260.24
756.688	5582.8
757.085	6012.91
757.482	6617.16
757.878	7279.47
758.275	7876.35
758.672	8697.88
759.068	9365.06
759.465	10315.81
759.861	11547.13
760.258	12975.89
760.654	13716.82
761.05	13602.62
761.447	12985.39
761.843	12091.07
762.239	11165.74
762.635	10744.05
763.031	10342.03
763.427	9761.94
763.822	9151.69
764.218	8548.65
764.614	7766.33
765.01	7242.95
765.405	6907.33
765.801	6649.82
766.196	6320.16
766.592	6138.02
766.987	5829.58
767.382	5618.27
767.778	5531.68
768.173	5407.69
768.568	5335.2
768.963	5212.09
769.358	5228.23
769.753	5180.56
770.148	5097.82
770.542	5096.2
770.937	5064.23
771.332	5154.05
771.726	5175.93
772.121	5114.82
772.515	5165.32
772.91	5152.15
773.304	5221.61
773.699	5157.58
774.093	5210.01
774.487	5261.62
774.881	5304.07
775.275	5301.03
775.669	5260.96
776.063	5303.88
776.457	5341.97
776.851	5270.41
777.245	5264.02
777.638	5298.57
778.032	5413.28
778.425	5379.26
778.819	5424.04
779.212	5382.99
779.606	5341.19
779.999	5358.72
780.392	5343.61
780.786	5420.08
781.179	5437.03
781.572	5477.47
781.965	5492.28
782.358	5431.74
782.751	5487.15
783.143	5437.23
783.536	5508.48
783.929	5553.01
784.322	5667.52
784.714	5696.72
785.107	5692.99
785.499	5767.19
785.891	5745.12
786.284	5722.74
786.676	5863.24
787.068	5843.32
787.46	5896.86
787.852	5916.85
788.245	6000.17
788.636	6029.31
789.028	6095.02
789.42	6135.42
789.812	6141.08
790.204	6235.09
790.595	6335.38
790.987	6142.94
791.378	6165.19
791.77	6289.1
792.161	6419.57
792.553	6470.73
792.944	6360.34
793.335	6293.32
793.726	6361.28
794.117	6452.02
794.508	6583.85
794.899	6553.3
795.29	6693.19
795.681	6749.86
796.072	6612.47
796.463	6432.12
796.853	6443.46
797.244	6595.7
797.634	6627.98
798.025	6627.37
798.415	6635.72
798.806	6723.88
799.196	6803.97
799.586	6855.72
799.976	6814.11
800.366	7035.44
800.756	7265.26
801.146	7226.77
801.536	7254.52
801.926	7320.6
802.316	7345.84
802.706	7414.93
803.095	7294.1
803.485	7392.05
803.874	7425.7
804.264	7679.03
804.653	7657.22
805.043	7804.58
805.432	7907.66
805.821	7905.11
806.21	7929.79
806.599	8046.57
806.988	8094.38
807.377	8201.04
807.766	8328
808.155	8605.96
808.544	8352.07
808.933	8362.82
809.321	8339.13
809.71	8627.66
810.098	8786.68
810.487	9237.52
810.875	9701.45
811.264	9723.71
811.652	10002.35
812.04	10140.63
812.428	10299.34
812.816	11040.97
813.204	11440.11
813.592	11977.04
813.98	12304.33
814.368	12215.69
814.756	12683.39
815.144	12607.84
815.531	13058.4
815.919	12986.92
816.306	13288.65
816.694	12986.86
817.081	13033.51
817.469	13378.38
817.856	13383.67
818.243	13654.81
818.63	14040.35
819.017	13631.61
819.404	13694.04
819.791	14069.19
820.178	14671.02
820.565	14916.16
820.952	15826.08
821.339	15357.01
821.725	15541.18
822.112	14810.43
822.498	14765.58
822.885	14885.49
823.271	14790.29
823.657	15201.94
824.044	15205.48
824.43	15277.13
824.816	15249.77
825.202	14828.52
825.588	15821.68
825.974	15842.53
826.36	16351.57
826.746	16381.18
827.132	16718.87
827.517	16697.43
827.903	15930.42
828.289	15969.57
828.674	15211.29
829.06	15111.87
829.445	15500.38
829.83	15841.2
830.216	16295.32
830.601	16650.3
830.986	16253.21
831.371	16128.53
831.756	16673.04
832.141	16261.79
832.526	16257.69
832.911	16534.94
833.295	16413.83
833.68	16863.49
834.065	16262.87
834.449	15380.5
834.834	15307.78
835.218	15307.24
835.603	15640.1
835.987	15429.08
836.371	16226.3
836.755	16122.05
837.139	16502.54
837.524	16744.43
837.908	16567.95
838.291	16622.92
838.675	16687.76
839.059	16889.84
839.443	16874.53
839.827	16652.6
840.21	17116.07
840.594	16977.07
840.977	17177.45
841.361	17163.2
841.744	17517
842.127	17366.55
842.511	17605.57
842.894	18183.66
843.277	18547.09
843.66	19074.51
844.043	19152.02
844.426	18376.46
844.809	18073.89
845.191	18105.69
845.574	17657.02
845.957	17311.17
846.339	17216.34
846.722	16712.18
847.104	16774.64
847.487	16610.39
847.869	16626.24
848.252	16898.9
848.634	17211.74
849.016	17467.05
849.398	17581.74
849.78	18408.4
850.162	18409.62
850.544	18806.12
850.926	19410.87
851.307	19332.32
851.689	19609.45
852.071	20039.05
852.452	20356.21
852.834	20341.2
853.215	20737.82
853.597	20898.69
853.978	21184.73
854.359	21633.41
854.741	20673.29
855.122	20569.09
855.503	20284.67
855.884	20406.34
856.265	20355.41
856.646	20466.29
857.026	20085.46
857.407	20012.91
857.788	20160.62
858.169	20438.91
858.549	19618
858.93	20217.97
859.31	20276.45
859.69	20476.24
860.071	20092.93
860.451	19882.4
860.831	19163.24
861.211	20287.6
861.591	20818.23
861.971	20799.76
862.351	20989.24
862.731	21367.25
863.111	21626
863.491	21947.76
863.87	22801.52
864.25	23130.57
864.629	22742.89
865.009	23238.61
865.388	24064.95
865.768	25787.61
866.147	25692.45
866.526	24277.33
866.905	24555.67
867.284	25932.29
867.663	24609.76
868.042	23589.43
868.421	23511.38
868.8	23902.4
869.179	24129.3
869.558	22730.1
869.936	20948.85
870.315	21302.57
870.693	21810.11
871.072	23525.1
871.45	22410.43
871.828	22711.18
872.207	23878.09
872.585	23521.68
872.963	24158.87
873.341	23332.92
873.719	23051.64
874.097	22772.24
874.475	23215.75
874.853	23752.83
875.23	22757.89
875.608	23706.53
875.986	25631.51
876.363	24511.77
876.741	25256.74
877.118	24618.21
877.495	25820.24
877.873	26250.12
878.25	27635.36
878.627	26506.08
879.004	26872.81
879.381	26746.62
879.758	26037.32
880.135	24244.38
880.512	25640.07
880.889	24956.67
881.265	24709.37
881.642	24516.82
882.019	24931.12
882.395	24431.21
882.772	25392.76
883.148	24292.49
883.524	24199.95
883.901	24063.67
884.277	24416.9
884.653	24256.45
885.029	24960.37
885.405	27638.13
885.781	27416.78
886.157	26281.08
886.532	26582.44
886.908	26576.54
887.284	29565.6
887.659	30524.27
888.035	31478.69
888.411	32288.98
888.786	32708.95
889.161	33843
889.537	33220.02
889.912	34276.96
890.287	34252.35
890.662	35149.38
891.037	34508.89
891.412	32170.5
891.787	31839.96
892.162	30736.44
892.536	31459.11
892.911	30287.24
893.286	29639.09
893.66	28440.71
894.035	29174.49
894.409	31783.64
894.784	30510.75
895.158	31020.61
895.532	32859.38
895.906	33769.42
896.281	34554.46
896.655	34010.65
897.029	38859.52
897.402	40487.39
897.776	45070.74
898.15	44907.45
898.524	44398.49
898.898	44975.38
899.271	50361.79
899.645	43609.73
900.018	41875.48
900.392	43423.89
900.765	43777.06
901.138	40506.1
901.511	39879.29
901.884	36614.38
902.258	33777.83
902.631	34913.57
903.003	40181.48
903.376	36233.69
903.749	40623.61
904.122	43477.79
904.495	47859
904.867	48463.3
905.24	42070.4
905.612	39170.05
905.985	40033.25
906.357	41854.37
906.729	39930.34
907.102	34118.44
907.474	32822.89
907.846	33036.53
908.218	32630.87
908.59	28845.19
908.962	27896.94
909.334	30045.71
909.705	31549.8
910.077	30656.43
910.449	31899.33
910.82	32806.98
911.192	36079.55
911.563	37500.66
911.935	40115.23
912.306	40147.78
912.677	41451.89
913.048	41030.74
913.419	44507.12
913.79	44755.84
914.161	47964.53
914.532	45874.2
914.903	42157.99
915.274	40055.5
915.645	39462.23
916.015	34725.98
916.386	33112.07
916.756	35227.07
917.127	36333.95
917.497	32457.05
917.868	35345.67
918.238	33593.46
918.608	34548.29
918.978	35255.87
919.348	37313.3
919.718	38546.52
920.088	37176.03
920.458	38609.22
920.828	40661.49
921.198	38544.51
921.567	41187.83
921.937	31897.93
922.306	32197.64
922.676	34720.01
923.045	28969.47
923.415	27537.28
923.784	25074.66
924.153	25759.51
924.522	25736.53
924.891	24185.6
925.26	25903.22
925.629	25298.4
925.998	29089.73
926.367	28411.62
926.736	27058.27
927.104	32210.99
927.473	34623
927.842	41828.95
928.21	41449.96
928.578	43591.37
928.947	41225.06
929.315	41494.18
929.683	48668.75
930.051	49023.22
930.42	56911.72
930.788	48635.31
931.156	48287.14
931.523	45274.38
931.891	41812.48
932.259	40157.96
932.627	46535.13
932.994	65843.01
933.362	54447.83
933.729	47304.6
934.097	45310.3
934.464	38314.47
934.831	44222
935.199	43582.28
935.566	42264.98
935.933	42922.83
936.3	52035.53
936.667	40523.76
937.034	36594.57
937.401	36178.04
937.767	31229.24
938.134	27801.08
938.501	39280.55
938.867	41940.5
939.234	70998.58
939.6	60599.83
939.967	66640.78
940.333	44590.71
940.699	37964.3
941.065	30432.82
941.431	39876.81
941.798	38432.79
942.163	50465.49
942.529	31509.04
942.895	28938.85
943.261	18706.73
943.627	24522.34
943.992	21473.77
944.358	21476.81
944.723	21530.45
945.089	20974.45
945.454	19388.86
945.82	20680.32
946.185	19891.13
946.55	23060.94
946.915	20708.72
947.28	24296.96
947.645	21389.63
948.01	19739.81
948.375	20609.2
948.74	24703.49
949.104	28846.8
949.469	41659.58
949.834	73642
950.198	69784.7
950.562	41820.15
950.927	34828.64
951.291	41909.67
951.655	35701.44
952.02	33561.53
952.384	25391.84
952.748	22110.76
953.112	21551.84
953.476	18750.04
953.839	17358.67
954.203	17149.31
954.567	21434.88
954.931	33761.22
955.294	28909.28
955.658	29095.69
956.021	49424.5
956.385	83761.26
956.748	123665.71
957.111	191817.48
957.474	215262.74
957.837	242154.79
958.2	183572.78
958.563	66059.92
958.926	44658.11
959.289	67734.31
959.652	75645.33
960.015	56853.98
960.377	81585.9
960.74	93138.76
961.102	160761.38
961.465	172699.38
961.827	92522.77
962.189	177600.89
962.552	123090.55
962.914	98704.43
963.276	63978.34
963.638	52886.63
964	52334.4
964.362	35385.03
964.724	34190.51
965.085	24402.37
965.447	20013.87
965.809	22807.55
966.17	22830.25
966.532	24700.34
966.893	22664.79
967.255	20657.21
967.616	24391.64
967.977	19532.55
968.338	21315.04
968.699	17531.39
969.061	17522.11
969.421	17626.28
969.782	19771.76
970.143	16690.72
970.504	17303.93
970.865	19671.2
971.225	20100.26
971.586	19670.52
971.946	28033.22
972.307	24339.51
972.667	31783.55
973.027	32734.41
973.388	39712.76
973.748	27048.96
974.108	29456
974.468	39860.43
974.828	30756.23
975.188	23669.95
975.548	21753.93
975.907	18267.1
976.267	20512.62
976.627	17264.94
976.986	17891.67
977.346	17052.4
977.705	16401.13
978.064	14934.63
978.424	12407.58
978.783	12822.07
979.142	14630.24
979.501	13988.01
979.86	14784.94
980.219	14236.95
980.578	18338.69
980.937	20542.29
981.296	18336.21
981.654	18837.51
982.013	29315.43
982.371	38085.28
982.73	35594.96
983.088	40321.01
983.447	43090.58
983.805	61588.51
984.163	128599.53
984.521	142617.01
984.879	209086.89
985.237	-339574.48
985.595	327667.16
985.953	81487.16
986.311	47198.92
986.669	27387.24
987.026	23655.83
987.384	31807.76
987.741	32889.35
988.099	23528.48
988.456	18795.36
988.814	17603.12
989.171	15290.03
989.528	15089.44
989.885	15939.33
990.242	12592.25
990.599	15698.71
990.956	12836.91
991.313	8976.57
991.67	7372.28
992.027	7813.38
992.383	6950.52
992.74	6093.42
993.096	6400.44
993.453	6636.08
993.809	6887.13
994.165	9167.5
994.522	8402.72
994.878	9254.15
995.234	11621.73
995.59	11452.58
995.946	10828.03
996.302	12342.94
996.658	14279.12
997.013	15722.36
997.369	18659.8
997.725	23878.57
998.08	15480.21
998.436	23888.26
998.791	33016.49
999.147	32953.26
999.502	35980.33
999.857	26248.65
1000.212	42689.74
1000.567	60776.24
1000.922	35140.77
1001.277	22336.98
1001.632	16551.62
1001.987	21300.28
1002.342	15265.25
1002.696	12196.19
1003.051	9715.29
1003.406	11771.32
1003.76	11689.59
1004.114	11531.05
1004.469	9704.85
1004.823	8020.96
1005.177	8645.75
1005.531	6855.04
1005.885	6079.76
1006.239	6859.22
1006.593	8596.86
1006.947	11537.77
1007.301	8654.57
1007.655	9451.38
1008.008	6935.97
1008.362	7781.29
1008.715	11134.56
1009.069	10092
1009.422	15191.54
1009.776	30527.23
1010.129	20236.04
1010.482	16949.34
1010.835	14296.53
1011.188	29836.53
1011.541	28017.62
1011.894	-171756.11
1012.247	505094.56
1012.6	34242.37
1012.952	21641.7
1013.305	11161.38
1013.657	8048.08
1014.01	7610.38
1014.362	6261.34
1014.715	5568.68
1015.067	4830.22
1015.419	4725.55
1015.771	4183.59
1016.123	3724.1
1016.475	3831.93
1016.827	4085.15
1017.179	4391.54
1017.531	4421.72
1017.883	4526.45
1018.234	4371.78
1018.586	5532.15
1018.938	5869.87
1019.289	8106.23
1019.64	9243.56
1019.992	8641.07
1020.343	7920.05
1020.694	6269.32
1021.045	5528.6
1021.396	6327.13
1021.747	6792.41
1022.098	8135.66
1022.449	5900.15
1022.8	5483.17
1023.151	3823.3
1023.501	3400.94
1023.852	3691.84
1024.202	3827.27
1024.553	4194.75
1024.903	4110.48
1025.253	3505.98
1025.604	3152.5
1025.954	3913.25
1026.304	4754.98
1026.654	5533.24
1027.004	8100.59
1027.354	13064.67
1027.703	12314.98
1028.053	16182.99
1028.403	23552.64
1028.753	33971.69
1029.102	46083.66
1029.452	236039.77
1029.801	10173.14
1030.15	6559.45
1030.499	5534.71
897.758	2586.61
901.051	2545.47
904.343	2577.88
907.636	2578.09
910.928	2643.71
914.22	2555.1
917.511	2563.98
920.803	2625.83
924.094	2642.02
927.384	2629.22
930.675	2590.71
933.965	2545.91
937.255	2558.34
940.544	2526.98
943.834	2479.8
947.123	2420.59
950.411	2515.25
953.7	2489.65
956.988	2459.69
960.276	2398.31
963.563	2476.33
966.851	2475.25
970.138	2528.05
973.424	2520.9
976.711	2474.2
979.997	2589.58
983.283	2627.16
986.568	2536.83
989.853	2550.32
993.138	2575.76
996.423	2659
999.708	2594.92
1002.992	2654.23
1006.275	2506.81
1009.559	2543.24
1012.842	2652.28
1016.125	2588.86
1019.408	2569.55
1022.69	2653.77
1025.972	2672.35
1029.254	2648.44
1032.536	2585.88
1035.817	2609.67
1039.098	2556.82
1042.379	2687.61
1045.659	2692.55
1048.939	2628.25
1052.219	2647.24
1055.498	2656.96
1058.778	2641.69
1062.057	2626.08
1065.335	2649.47
1068.614	2664.05
1071.892	2653.39
1075.17	2724.89
1078.447	2715.39
1081.724	2705.16
1085.001	2739.48
1088.278	2716.22
1091.554	2724.59
1094.83	2721.28
1098.106	2749.14
1101.382	2790.27
1104.657	2794.24
1107.932	2786.63
1111.206	2754.12
1114.481	2712.24
1117.755	2714.46
1121.029	2697.02
1124.302	2749.83
1127.575	2705.26
1130.848	2693.95
1134.121	2657.48
1137.393	2609.1
1140.665	2675.63
1143.937	2650.06
1147.208	2611.87
1150.48	2651.01
1153.75	2640.71
1157.021	2668.4
1160.291	2638.85
1163.561	2686.18
1166.831	2672.68
1170.101	2703.86
1173.37	2676.25
1176.639	2621.96
1179.907	2680.38
1183.176	2686.02
1186.444	2693.31
1189.711	2719.67
1192.979	2735.9
1196.246	2690.31
1199.513	2706.85
1202.78	2704.29
1206.046	2713.45
1209.312	2739.41
1212.578	2762.51
1215.843	2716.95
1219.108	2690.8
1222.373	2715.22
1225.638	2678.52
1228.902	2660.5
1232.166	2628
1235.43	2609.71
1238.693	2636.08
1241.956	2631.67
1245.219	2673.5
1248.482	2663.4
1251.744	2658.52
1255.006	2802.75
1258.268	2755.85
1261.529	2703.8
1264.79	2710.24
1268.051	2814.41
1271.312	2831.14
1274.572	2793.16
1277.832	2784.24
1281.092	2772.18
1284.351	2748.57
1287.61	2729.08
1290.869	2647.21
1294.128	2626.37
1297.386	2709.32
1300.644	2698.52
1303.902	2707.7
1307.159	2569.79
1310.416	2623.55
1313.673	2647.61
1316.93	2635.85
1320.186	2679.5
1323.442	2720.34
1326.697	2712.74
1329.953	2701.19
1333.208	2725.4
1336.463	2704.13
1339.717	2645.99
1342.972	2775.37
1346.226	2751.66
1349.479	2686.03
1352.733	2656.81
1355.986	2678.16
1359.238	2656.37
1362.491	2656.43
1365.743	2660.38
1368.995	2656.09
1372.247	2669.41
1375.498	2693.77
1378.749	2711.44
1382	2668.1
1385.251	2722.07
1388.501	2679.15
1391.751	2666.85
1395	2635.32
1398.25	2669.43
1401.499	2677.67
1404.748	2607.42
1407.996	2597
1411.244	2582.85
1414.492	2563.85
1417.74	2543.03
1420.987	2549.04
1424.234	2608.27
1427.481	2584.1
1430.728	2643.57
1433.974	2615.39
1437.22	2630.22
1440.465	2631.51
1443.711	2598.66
1446.956	2632.75
1450.201	2617.38
1453.445	2662.61
1456.689	2641.61
1459.933	2654.14
1463.177	2687.34
1466.42	2658.08
1469.663	2640.76
1472.906	2634.07
1476.148	2701.59
1479.391	2674.94
1482.633	2642.01
1485.874	2654.66
1489.115	2641.81
1492.356	2646.99
1495.597	2622.63
1498.838	2626.68
1502.078	2598.97
1505.318	2550.78
1508.557	2592.44
1511.797	2573.51
1515.036	2631.78
1518.274	2622.19
1521.513	2592.92
1524.751	2614.58
1527.989	2627.29
1531.227	2642.04
1534.464	2635.94
1537.701	2651.88
1540.938	2670.83
1544.174	2623.27
1547.41	2620.96
1550.646	2659.12
1553.882	2697.61
1557.117	2752.74
1560.352	2764.98
1563.587	2724.82
1566.821	2685.38
1570.055	2718.91
1573.289	2692.88
1576.523	2763.07
1579.756	2774.57
1582.989	2792.51
1586.222	2752.76
1589.454	2790.74
1592.686	2762.92
1595.918	2788.69
1599.15	2778.44
1602.381	2849.38
1605.612	2806.76
1608.843	2903.71
1612.073	2821.47
1615.303	2802.43
1618.533	2794.44
1621.762	2795.32
1624.992	2781.96
1628.221	2770.6
1631.449	2757.65
1634.678	2807.63
1637.906	2766.86
1641.134	2803.27
1644.361	2759.13
1647.588	2747.04
1650.815	2765.6
1654.042	2742.83
1657.269	2774.97
1660.495	2727.61
1663.72	2745.82
1666.946	2710.73
1670.171	2659.85
1673.396	2632.56
1676.621	2620.3
1679.845	2636.28
1683.069	2656.35
1686.293	2694.91
1689.517	2671.61
1692.74	2604.05
1695.963	2630.27
1699.185	2651.09
1702.408	2624.92
1705.63	2664.59
1708.852	2674.26
1712.073	2649.15
1715.294	2638.1
1718.515	2695.16
1721.736	2645.87
1724.956	2636.65
1728.176	2660.78
1731.396	2685.87
1734.616	2671.63
1737.835	2700.33
1741.054	2680.5
1744.272	2675.16
1747.491	2703.65
1750.709	2754.18
1753.927	2665.52
1757.144	2706.71
1760.361	2749.11
1763.578	2741.02
1766.795	2684.46
1770.011	2685.28
1773.227	2724.73
1776.443	2759.99
1779.658	2803.51
1782.874	2747.7
1786.089	2725.82
1789.303	2726.6
1792.518	2734.18
1795.732	2721.56
1798.945	2729.33
1802.159	2780.54
1805.372	2690.21
1808.585	2674.26
1811.797	2675.42
1815.01	2722.12
1818.222	2726.95
1821.434	2710.33
1824.645	2766.09
1827.856	2752.87
1831.067	2789.53
1834.278	2745.28
1837.488	2726.18
1840.698	2873.9
1843.908	2801.5
1847.117	2765.23
1850.326	2654.52
1853.535	2751.07
1856.744	2766.29
1859.952	2683.54
1863.16	2685.61
1866.368	2704.68
1869.575	2809.1
1872.782	2693.79
1875.989	2630.6
1879.196	2711.26
1882.402	2702.62
1885.608	2742.73
1888.814	2649.83
1892.019	2547.98
1895.224	2600.08
1898.429	2580.3
1901.634	2559.26
1904.838	2536.38
1908.042	2585.24
1911.246	2596.1
1914.449	2531.03
1917.652	2523.19
1920.855	2506.27
1924.058	2551.87
1927.26	2589.49
1930.462	2616.75
1933.664	2642.37
1936.865	2581.41
1940.066	2588.65
1943.267	2538.43
1946.467	2551.89
1949.668	2575.06
1952.868	2643.6
1956.067	2622.04
1959.267	2556.32
1962.466	2582.49
1965.665	2565.14
1968.863	2560.55
1972.061	2573.76
1975.259	2574.75
1978.457	2652.71
1981.654	2608.62
1984.852	2614.36
1988.048	2551.52
1991.245	2553.5
1994.441	2640.06
1997.637	2621.53
2000.833	2604.04
2004.028	2644.52
2007.223	2703.02
2010.418	2676.93
2013.613	2635.9
2016.807	2611.74
2020.001	2615.3
2023.194	2654.9
2026.388	2631.42
2029.581	2575.43
2032.774	2626.46
2035.966	2631.57
2039.158	2564.55
2042.35	2589.97
2045.542	2519.95
2048.733	2617.32
2051.924	2637.64
2055.115	2663.44
2058.306	2610.01
2061.496	2669.57
2064.686	2731.98
2067.875	2645.4
2071.065	2659.77
2074.254	2686.46
2077.442	2636.86
2080.631	2725.58
2083.819	2623.69
2087.007	2605.39
2090.195	2578.63
2093.382	2609.19
2096.569	2589
2099.756	2544.67
2102.942	2571.78
2106.128	2579.1
2109.314	2567.75
2112.5	2534.93
2115.685	2510.12
2118.87	2520
2122.055	2585.59
2125.239	2552.83
2128.424	2532.07
2131.608	2629.72
2134.791	2612.54
2137.974	2668.66
2141.157	2653.14
2144.34	2607.97
2147.523	2621.5
2150.705	2637.52
2153.887	2615.62
2157.068	2568.01
2160.25	2567.18
2163.431	2602.89
2166.611	2551.22
2169.792	2566.57
2172.972	2462.36
2176.152	2537.9
2179.331	2574.24
2182.511	2554.21
2185.69	2583.54
2188.868	2578.25
2192.047	2631.47
2195.225	2625.41
2198.403	2573.48
2201.58	2563.92
2204.758	2563.13
2207.935	2645.03
2211.111	2533.72
2214.288	2516.88
2217.464	2559.17
2220.64	2528.12
2223.815	2579.88
2226.991	2501.94
2230.166	2520.57
2233.34	2552.82
2236.515	2575.8
2239.689	2643.13
2242.863	2590.75
2246.036	2648.95
2249.209	2645.94
2252.382	2678.88
2255.555	2668.91
2258.727	2609.85
2261.9	2648.92
2265.071	2640.87
2268.243	2642.12
2271.414	2578.25
2274.585	2542.34
2277.756	2606.23
2280.926	2560.96
2284.096	2601.94
2287.266	2511.2
2290.436	2563.54
2293.605	2592.49
2296.774	2621.11
2299.942	2639.61
2303.111	2658.15
2306.279	2706.51
2309.447	2693.66
2312.614	2669.14
2315.781	2690.42
2318.948	2661.75
2322.115	2700.02
2325.281	2601.27
2328.447	2620.92
2331.613	2595.22
2334.779	2571.88
2337.944	2571.98
2341.109	2570.07
2344.274	2551.33
2347.438	2517.66
2350.602	2544.23
2353.766	2558.88
2356.929	2545.55
2360.092	2587.77
2363.255	2540.77
2366.418	2480.56
2369.58	2587.91
2372.742	2387.34
2375.904	2399.08
2379.066	2379.45
2382.227	2413.35
2385.388	2375.36
2388.548	2304.96
2391.709	2356.98
2394.869	2337.78
2398.029	2430.58
2401.188	2441.36
2404.347	2379.76
2407.506	2512.6
2410.665	2544.11
2413.823	2545.05
2416.981	2504.27
2420.139	2535.43
2423.296	2582.38
2426.453	2555.37
2429.61	2579.94
2432.767	2517.62
2435.923	2556.63
2439.079	2517.92
2442.235	2565.7
2445.391	2493.04
2448.546	2525.57
2451.701	2571.65
2454.855	2544.61
2458.009	2595.61
2461.163	2594.25
2464.317	2554.72
2467.471	2587.91
2470.624	2623.7
2473.777	2595.94
2476.929	2608.23
2480.082	2635.91
2483.234	2601.09
2486.385	2552.72
2489.537	2546.56
2492.688	2512.4
2495.839	2532.35
2498.989	2544.15
2502.14	2528.22
2505.29	2514.36
2508.439	2537.33
2511.589	2464.49
2514.738	2472
2517.887	2502.95
2521.035	2571.31
2524.183	2550.41
2527.331	2529.84
2530.479	2506.15
2533.627	2515.24
