Data from N_3_DEC_OH_4N_Splice17_13-34-57-460.txt Node
Date: Sat Mar 14 13:34:57 EDT 2020
User: sa697716
Spectrometer: FLMS03696
Trigger mode: 0
Integration Time (sec): 3.180400E-1
Scans to average: 20
Electric dark correction enabled: true
Nonlinearity correction enabled: true
Boxcar width: 5
XAxis mode: Wavelengths
Number of Pixels in Spectrum: 2048
>>>>>Begin Spectral Data<<<<<
187.83	-399611.13
188.298	2946.41
188.766	1580.94
189.233	1466.41
189.701	2139.34
190.169	2962.27
190.636	1089.26
191.104	859.69
191.571	147.78
192.039	-72.66
192.506	-52.09
192.974	666.63
193.441	-1040.24
193.908	-253.44
194.375	-13.65
194.842	115.25
195.31	294.05
195.777	215.61
196.244	479.59
196.711	569
197.177	696.77
197.644	985.13
198.111	1699.33
198.578	2394.38
199.045	1912.54
199.511	3084.49
199.978	3584.99
200.445	3015.14
200.911	3342.5
201.378	3731.31
201.844	3386.08
202.31	5816.25
202.777	6034.91
203.243	3339.83
203.709	3172.62
204.176	3776.15
204.642	3136.81
205.108	2911.46
205.574	2380.18
206.04	2171.57
206.506	2033.52
206.972	1916.7
207.438	1842.79
207.903	2103.94
208.369	1864.62
208.835	1864.6
209.301	1960.34
209.766	1991.65
210.232	1983.4
210.697	2458.88
211.163	3029.46
211.628	4555.43
212.094	3831.57
212.559	4717.92
213.024	2942.11
213.49	3598.07
213.955	3524.14
214.42	3439.09
214.885	3224.4
215.35	3123.01
215.815	3038.17
216.28	3260.6
216.745	2680.67
217.21	2909.71
217.675	2697.69
218.14	3059.69
218.604	3453.88
219.069	3991.14
219.534	4222.58
219.998	4940.15
220.463	6014.05
220.927	7455.23
221.392	7051.35
221.856	7171.55
222.32	9099.45
222.785	11263.84
223.249	14255.7
223.713	15950.77
224.177	15951.88
224.642	20509.15
225.106	25317.43
225.57	27743.02
226.034	20669.71
226.497	31551.28
226.961	28552.83
227.425	33287.4
227.889	36963.58
228.353	36938.6
228.816	76247.48
229.28	73032.26
229.744	61663.67
230.207	37511.5
230.671	36941.03
231.134	61082.1
231.597	70408.23
232.061	70340.61
232.524	68606
232.987	47313.36
233.45	42587.33
233.914	38227.7
234.377	39154.1
234.84	35825.09
235.303	42245.59
235.766	47135.86
236.229	48723.43
236.691	30684.69
237.154	34523.11
237.617	25998.59
238.08	26628.51
238.542	31181.14
239.005	22285.84
239.468	22121.16
239.93	20846.97
240.393	18955.37
240.855	16634.34
241.317	17031.54
241.78	20742.42
242.242	21438.59
242.704	23113.47
243.166	20114.52
243.629	18283.66
244.091	21071.3
244.553	23100.81
245.015	24832.41
245.477	32117.12
245.939	47132.07
246.4	50038.89
246.862	48622.29
247.324	45855.76
247.786	51379.43
248.247	67459.76
248.709	69682.06
249.17	52184.91
249.632	49184.96
250.093	57089.82
250.555	49339.88
251.016	30103.77
251.477	28567.4
251.939	30869.37
252.4	32416.34
252.861	38567.98
253.322	35857.5
253.783	42686.7
254.244	55364.15
254.705	43715.09
255.166	38876.97
255.627	38319.41
256.088	54080.08
256.549	57505.94
257.009	49567.68
257.47	60171.34
257.931	49023.65
258.391	36794.05
258.852	37987.86
259.312	39872.85
259.773	49295.05
260.233	41726.78
260.694	35209.54
261.154	39955.43
261.614	32083.11
262.074	28710.06
262.534	29852.71
262.994	28171.53
263.455	37579.69
263.915	31676.4
264.374	29874.19
264.834	32646.6
265.294	36209.75
265.754	37548.27
266.214	35616.29
266.673	33442.63
267.133	42239.17
267.593	41951.74
268.052	51387.78
268.512	44746.68
268.971	54021.23
269.431	59250.12
269.89	53114.47
270.349	79718.51
270.809	88980.72
271.268	79996.39
271.727	179465.81
272.186	116334.06
272.645	87335.19
273.104	63085.44
273.563	91354.72
274.022	71869.71
274.481	61239.13
274.94	47208.95
275.399	35119.45
275.857	40933.96
276.316	55409.3
276.775	49343.14
277.233	48611.41
277.692	45512.43
278.15	51491.03
278.609	52974.06
279.067	49068.3
279.525	45598.76
279.984	58932.3
280.442	70859.74
280.9	69852.03
281.358	45955.8
281.816	42870.49
282.274	41995.42
282.732	43418.1
283.19	43626.78
283.648	37682.81
284.106	40145.46
284.564	40832.09
285.021	37861.23
285.479	28206.87
285.937	25664.43
286.394	22520.32
286.852	23184.34
287.309	24385.99
287.767	23558.61
288.224	22422.66
288.682	24613.62
289.139	27014.67
289.596	24726.96
290.053	25723.79
290.511	32476.22
290.968	39393.04
291.425	53570.45
291.882	44575.3
292.339	38810.89
292.796	38525.2
293.252	36324.47
293.709	28870.62
294.166	25892.81
294.623	28613.92
295.079	27464.17
295.536	27611.85
295.992	25078.32
296.449	24781.51
296.905	25763.4
297.362	24710.25
297.818	26007.72
298.274	27005.31
298.731	27507.78
299.187	27240.38
299.643	29263.44
300.099	35364.14
300.555	38789.88
301.011	32411.39
301.467	31233.47
301.923	36564.62
302.379	35697.49
302.835	35083.82
303.291	35092.65
303.746	39972.63
304.202	50461.14
304.658	50680.08
305.113	34098.74
305.569	33408.7
306.024	35612.75
306.479	33955.31
306.935	28618.7
307.39	31283.7
307.845	28866.15
308.301	29056.09
308.756	28323.75
309.211	27288.05
309.666	27940.78
310.121	34671.24
310.576	35169.97
311.031	34892.41
311.486	39914.45
311.94	39936.27
312.395	53384.53
312.85	100492.25
313.305	493688.93
313.759	2552009.53
314.214	184993.36
314.668	146761.46
315.123	123457.01
315.577	44263.79
316.032	39404.35
316.486	49454.92
316.94	39004.04
317.394	27159.65
317.849	21093.27
318.303	19975.95
318.757	18876.4
319.211	20873.18
319.665	18269.46
320.119	18513.42
320.572	26583.48
321.026	24836.18
321.48	20644.51
321.934	22509.46
322.387	22546.75
322.841	24344.74
323.295	21881.28
323.748	25212.44
324.202	25580.38
324.655	30698.09
325.108	42871.01
325.562	30291.97
326.015	36015.28
326.468	27223.41
326.921	30442.39
327.374	28387.96
327.827	29540.57
328.28	33399.92
328.733	22371.34
329.186	19668.37
329.639	18745.08
330.092	15795
330.545	15028.48
330.997	15140.97
331.45	16547.95
331.903	19366.9
332.355	33317.26
332.808	32376.07
333.26	26730.77
333.713	29016.42
334.165	29224.53
334.617	39006.86
335.069	31503.85
335.522	56973.13
335.974	63010.8
336.426	57550.17
336.878	39873.49
337.33	20215.33
337.782	19744.39
338.234	24734.19
338.686	29587.06
339.137	35054.34
339.589	32978.05
340.041	25841.78
340.493	22231.56
340.944	22811.82
341.396	24607.34
341.847	20680.75
342.299	24404.65
342.75	29787
343.201	26028.44
343.653	29914.63
344.104	36799.19
344.555	29042.05
345.006	45277.29
345.457	34619.86
345.908	27509.49
346.359	25859.03
346.81	21087.04
347.261	22234.24
347.712	21891.65
348.163	23473.28
348.613	23773.66
349.064	22184.4
349.515	19409.16
349.965	19919.05
350.416	24010.18
350.866	26350.43
351.317	29772.11
351.767	49326.42
352.217	62343.36
352.668	51791.82
353.118	47452.39
353.568	45766
354.018	36212.9
354.468	38190.18
354.918	27348.47
355.368	23935.89
355.818	33817.68
356.268	97468.78
356.718	407639.01
357.168	101542.95
357.617	50954.83
358.067	56793.66
358.517	53223.17
358.966	62380.5
359.416	69936.14
359.865	75541.3
360.315	89864.03
360.764	42028.29
361.213	23534.4
361.663	22345.69
362.112	27557.88
362.561	44531.73
363.01	33548.57
363.459	28223.06
363.908	30528.07
364.357	25905.69
364.806	43810.57
365.255	30118.47
365.703	27559.17
366.152	27575.75
366.601	22325.06
367.05	18090.05
367.498	16416.55
367.947	17135.32
368.395	17803.1
368.844	15760.02
369.292	19023.93
369.74	13140.41
370.189	20134.46
370.637	23565.64
371.085	20312.03
371.533	24691.4
371.981	23815.94
372.429	22714.92
372.877	23643.96
373.325	19780.31
373.773	20145.6
374.221	17924.67
374.669	22194.43
375.116	19151.27
375.564	19287.15
376.012	21571.22
376.459	17807.17
376.907	21246.19
377.354	25614.66
377.801	23854.82
378.249	27419.47
378.696	34993
379.143	42317.08
379.591	45078.32
380.038	76280.81
380.485	55079.36
380.932	59405.33
381.379	54153.16
381.826	39845.57
382.273	28324.39
382.72	24744.65
383.166	24088.51
383.613	15628.24
384.06	14066.02
384.506	16279.23
384.953	11930.74
385.4	11998.18
385.846	10509.61
386.292	10243.94
386.739	10018.97
387.185	9895.76
387.631	9886.01
388.078	9586.22
388.524	10220.38
388.97	9433.99
389.416	7856.45
389.862	8344.58
390.308	7901.65
390.754	8008.88
391.2	8688.99
391.645	8905.45
392.091	8531.05
392.537	8264.13
392.983	8283.14
393.428	8163.6
393.874	8752.81
394.319	8805.36
394.765	8373.05
395.21	8614.33
395.655	8087.56
396.101	7583.33
396.546	6844.33
396.991	6901.02
397.436	6406.5
397.881	6191.69
398.326	5864.96
398.771	5555.59
399.216	4850.87
399.661	4363.2
400.106	4352.62
400.551	4463.47
400.995	4001.59
401.44	3956.94
401.885	3721.29
402.329	3762.75
402.774	3606.13
403.218	3497.59
403.663	3363.27
404.107	3460.23
404.551	3484.32
404.995	3196.07
405.44	3072.37
405.884	3120.65
406.328	3020.28
406.772	3006.43
407.216	2735.78
407.66	2642.99
408.104	2505.36
408.547	2346.41
408.991	2266.4
409.435	2181.16
409.879	2143.97
410.322	2116.4
410.766	2040.4
411.209	1934.75
411.653	1856.21
412.096	1817.39
412.54	1817.96
412.983	1804.49
413.426	1808.13
413.869	1805.26
414.312	1773.04
414.756	1709.9
415.199	1629.27
415.642	1580.79
416.085	1583.9
416.527	1571.48
416.97	1591.83
417.413	1508.64
417.856	1492.59
418.298	1474.33
418.741	1461.62
419.184	1452.35
419.626	1509.36
420.069	1507.51
420.511	1515.83
420.953	1484.13
421.396	1470.14
421.838	1434.36
422.28	1466.32
422.722	1470.46
423.164	1491.53
423.606	1467.6
424.048	1466.45
424.49	1394.7
424.932	1386.7
425.374	1365.12
425.816	1383.57
426.258	1408.2
426.699	1421.49
427.141	1397.39
427.582	1418.12
428.024	1409.97
428.465	1400.3
428.907	1363.03
429.348	1345.33
429.789	1343.19
430.231	1314.42
430.672	1333.73
431.113	1302.18
431.554	1282.49
431.995	1251.71
432.436	1206.67
432.877	1178.28
433.318	1158.17
433.759	1151.96
434.2	1150.73
434.64	1138.96
435.081	1141.8
435.522	1081.62
435.962	1042.73
436.403	1018.48
436.843	1030.09
437.284	1008.38
437.724	982.33
438.164	983.94
438.604	963.17
439.045	926.04
439.485	888.86
439.925	870.82
440.365	848.68
440.805	838.87
441.245	829.25
441.685	800.24
442.125	794.63
442.564	799.06
443.004	783.38
443.444	781.74
443.883	784.38
444.323	779.62
444.762	781.55
445.202	792.98
445.641	809.12
446.081	806.93
446.52	815.77
446.959	810.21
447.398	793.2
447.837	784.46
448.276	772.92
448.716	782.26
449.154	792.26
449.593	777.07
450.032	778.69
450.471	765.84
450.91	768.63
451.349	768.12
451.787	767.85
452.226	781.22
452.664	783.33
453.103	788.02
453.541	788.29
453.98	788.4
454.418	793.94
454.856	781.38
455.295	780.15
455.733	787.07
456.171	792.29
456.609	791.83
457.047	793.12
457.485	805.53
457.923	805.91
458.361	795.62
458.798	798
459.236	796.49
459.674	802.34
460.111	805.87
460.549	797.13
460.987	793.96
461.424	791.12
461.862	785.62
462.299	772.62
462.736	771.9
463.173	773.76
463.611	765.05
464.048	762.93
464.485	768.77
464.922	760.93
465.359	756.34
465.796	748.28
466.233	743.61
466.67	737.79
467.106	735.19
467.543	727.92
467.98	719.09
468.416	700.36
468.853	694.45
469.29	673.55
469.726	666.99
470.162	651.45
470.599	641.99
471.035	636.25
471.471	622.19
471.907	620.3
472.344	616.35
472.78	618.8
473.216	627.08
473.652	620.63
474.088	620.57
474.523	620.22
474.959	626.14
475.395	622.58
475.831	620.3
476.266	624.16
476.702	623.58
477.138	619.44
477.573	619.97
478.008	619.17
478.444	623.62
478.879	631.05
479.314	635.15
479.75	636.06
480.185	639.12
480.62	646.09
481.055	650.59
481.49	656.94
481.925	667.39
482.36	679.21
482.795	699.51
483.229	720.25
483.664	735.87
484.099	739.45
484.534	752.41
484.968	761
485.403	764.45
485.837	765
486.271	764.4
486.706	767.66
487.14	760.56
487.574	749.61
488.009	743.55
488.443	738.4
488.877	748.71
489.311	752.79
489.745	763.29
490.179	772.81
490.613	788.93
491.046	797.58
491.48	805.06
491.914	809.23
492.348	818.51
492.781	826.91
493.215	832.44
493.648	836.03
494.082	845.44
494.515	850.07
494.948	862.6
495.382	872
495.815	882.1
496.248	892.38
496.681	912
497.114	930.51
497.547	946.41
497.98	967.34
498.413	979.93
498.846	998.02
499.279	1012.97
499.711	1023.02
500.144	1030.75
500.577	1047.71
501.009	1066.76
501.442	1084.49
501.874	1090.44
502.306	1097.65
502.739	1112.11
503.171	1135.9
503.603	1143.15
504.036	1160.93
504.468	1172.74
504.9	1192.84
505.332	1206.85
505.764	1215.81
506.196	1228.26
506.627	1251.02
507.059	1273.18
507.491	1288.76
507.923	1289.64
508.354	1312.97
508.786	1328.87
509.217	1356.51
509.649	1377.19
510.08	1404.42
510.512	1428.71
510.943	1450.79
511.374	1467.56
511.805	1495.43
512.237	1523.11
512.668	1567.1
513.099	1604.76
513.53	1642.39
513.961	1668.94
514.391	1713.15
514.822	1757.3
515.253	1805.9
515.684	1839.68
516.114	1878.56
516.545	1905.6
516.975	1936.66
517.406	1957.22
517.836	1957.8
518.267	1963.34
518.697	1984.6
519.127	1986.52
519.558	1992.92
519.988	1994.27
520.418	2004.37
520.848	2023.72
521.278	2032.46
521.708	2053.22
522.138	2068.47
522.567	2106.04
522.997	2136.25
523.427	2154.05
523.857	2174.12
524.286	2184.18
524.716	2200.54
525.145	2223.06
525.575	2235.41
526.004	2251.06
526.433	2238.47
526.863	2234.99
527.292	2219.99
527.721	2224.24
528.15	2229.46
528.579	2226.7
529.008	2239.13
529.437	2267.44
529.866	2282.15
530.295	2302.45
530.724	2316.95
531.152	2350.17
531.581	2367.61
532.01	2388.64
532.438	2399.64
532.867	2416.2
533.295	2439.47
533.723	2446.16
534.152	2442.22
534.58	2440.23
535.008	2416.38
535.436	2417.61
535.865	2425.74
536.293	2442.51
536.721	2460.92
537.149	2492.62
537.576	2495.69
538.004	2510.61
538.432	2519.32
538.86	2513.79
539.287	2522.19
539.715	2540.08
540.143	2542.39
540.57	2536.05
540.998	2529.25
541.425	2497.43
541.852	2467.89
542.28	2464.04
542.707	2440.8
543.134	2421.53
543.561	2416.32
543.988	2405.7
544.415	2404.33
544.842	2395.96
545.269	2386.74
545.696	2389.57
546.123	2406.57
546.549	2392.29
546.976	2375.42
547.403	2375.02
547.829	2378.01
548.256	2380.26
548.682	2376.59
549.108	2366.49
549.535	2366.11
549.961	2369.22
550.387	2352.79
550.813	2347.63
551.24	2357.21
551.666	2359.79
552.092	2349.49
552.518	2341.37
552.943	2335.33
553.369	2344.66
553.795	2355.11
554.221	2357.82
554.646	2355.82
555.072	2370.98
555.498	2379.15
555.923	2394.36
556.349	2415.86
556.774	2429.6
557.199	2433.94
557.625	2444.46
558.05	2439.63
558.475	2453.22
558.9	2455.08
559.325	2446.32
559.75	2440.18
560.175	2433.98
560.6	2426.89
561.025	2427.19
561.449	2431.38
561.874	2441.61
562.299	2451.11
562.723	2464.01
563.148	2453.08
563.572	2461.81
563.997	2478.88
564.421	2489.88
564.846	2493.35
565.27	2501.62
565.694	2501.27
566.118	2520.87
566.542	2535.53
566.966	2528.18
567.39	2525.65
567.814	2515.92
568.238	2518.18
568.662	2529.48
569.086	2536.99
569.509	2550.96
569.933	2533.29
570.357	2526.29
570.78	2499.9
571.204	2483.46
571.627	2473.49
572.05	2473.93
572.474	2477.81
572.897	2463.84
573.32	2455.58
573.743	2445.28
574.166	2422.47
574.589	2426.94
575.012	2419.64
575.435	2421.06
575.858	2413.04
576.281	2400.95
576.704	2382.39
577.126	2367.62
577.549	2355.51
577.972	2344.96
578.394	2333.92
578.817	2328.24
579.239	2304.36
579.661	2289.25
580.084	2271.11
580.506	2254.4
580.928	2252.2
581.35	2239.61
581.772	2237.14
582.194	2221.41
582.616	2206.25
583.038	2188.21
583.46	2175.08
583.882	2173.34
584.303	2181.97
584.725	2177.87
585.147	2182.7
585.568	2200.99
585.99	2220.47
586.411	2231.53
586.833	2254.99
587.254	2258.31
587.675	2281.89
588.096	2302.79
588.518	2296.56
588.939	2274
589.36	2272.5
589.781	2259.67
590.202	2217.45
590.623	2205.47
591.043	2203.56
591.464	2185.6
591.885	2180.31
592.305	2171.33
592.726	2151.13
593.147	2153.77
593.567	2145.74
593.987	2134.71
594.408	2128.46
594.828	2125.53
595.248	2116.82
595.669	2089.43
596.089	2079.48
596.509	2071.81
596.929	2052.62
597.349	2054.32
597.769	2039.85
598.189	2032.06
598.608	2034.1
599.028	2036.87
599.448	2038.53
599.867	2021.84
600.287	2016.07
600.706	2010.92
601.126	1997.17
601.545	1996.61
601.965	1995.34
602.384	1988.85
602.803	1992.79
603.222	1987.68
603.641	1979.19
604.061	1975.13
604.48	1969.93
604.898	1983.27
605.317	1991.07
605.736	1995.51
606.155	1993.24
606.574	1981.24
606.992	1990.46
607.411	1985.7
607.829	1975
608.248	1972.18
608.666	1969.42
609.085	1970.33
609.503	1959.62
609.921	1952.85
610.339	1957.92
610.758	1959.4
611.176	1955.36
611.594	1943.14
612.012	1939.71
612.43	1946.91
612.847	1958.12
613.265	1962.77
613.683	1972.21
614.101	1977.73
614.518	1973.97
614.936	1960.04
615.353	1939.18
615.771	1936.32
616.188	1938.15
616.606	1934.82
617.023	1924.64
617.44	1904.58
617.857	1894.42
618.274	1882.7
618.691	1872.74
619.108	1860.49
619.525	1852.95
619.942	1863.24
620.359	1867.24
620.776	1860.78
621.192	1855.62
621.609	1853.45
622.026	1863.9
622.442	1873.28
622.859	1878.03
623.275	1869.19
623.691	1877.3
624.108	1894.71
624.524	1916.38
624.94	1916.52
625.356	1932.97
625.772	1952.23
626.188	1969.85
626.604	1972.2
627.02	1966.06
627.436	1962.58
627.852	1971.85
628.268	1989.15
628.683	1975.21
629.099	1962.09
629.514	1955.37
629.93	1959.84
630.345	1967.24
630.761	1961.34
631.176	1965.1
631.591	1956.35
632.007	1946.99
632.422	1942.87
632.837	1925.38
633.252	1921.67
633.667	1905.53
634.082	1890.29
634.497	1869.49
634.911	1838.11
635.326	1831.1
635.741	1805.2
636.155	1788.99
636.57	1789.89
636.984	1789.09
637.399	1790.64
637.813	1788.61
638.228	1786.27
638.642	1792.35
639.056	1775.18
639.47	1774.32
639.884	1760.77
640.298	1749.15
640.712	1745.43
641.126	1725.5
641.54	1709.59
641.954	1699.08
642.368	1677.93
642.781	1662.55
643.195	1633.01
643.609	1630.98
644.022	1618.65
644.436	1609.1
644.849	1589.22
645.262	1569.08
645.676	1568.39
646.089	1560.46
646.502	1535.48
646.915	1525.81
647.328	1499.7
647.741	1494.93
648.154	1473.23
648.567	1468.37
648.98	1447.19
649.393	1445.94
649.805	1438.95
650.218	1426.2
650.631	1401.75
651.043	1392.76
651.456	1383.86
651.868	1384.11
652.28	1407.01
652.693	1426.63
653.105	1433.61
653.517	1446.86
653.929	1447.29
654.341	1454.84
654.753	1436.61
655.165	1443.3
655.577	1438.25
655.989	1429.78
656.401	1417.12
656.813	1365.4
657.224	1335.37
657.636	1294.14
658.047	1267.24
658.459	1238.02
658.87	1223.1
659.282	1203.43
659.693	1173.31
660.104	1150.46
660.515	1128.92
660.926	1121.28
661.338	1112.88
661.749	1100.22
662.159	1083.56
662.57	1073
662.981	1061.95
663.392	1046.67
663.803	1047.28
664.213	1037
664.624	1025.81
665.035	1023.91
665.445	1002.27
665.855	987.55
666.266	972.91
666.676	965.64
667.086	948.81
667.497	942.68
667.907	931.28
668.317	915.44
668.727	909.18
669.137	905.98
669.547	899.39
669.956	898.55
670.366	897.17
670.776	895.91
671.186	897.05
671.595	898.54
672.005	899.11
672.414	895.41
672.824	891.15
673.233	892.95
673.642	893.59
674.052	894.87
674.461	894.64
674.87	899.64
675.279	895.78
675.688	896.01
676.097	896.76
676.506	893.98
676.915	910.22
677.323	914.62
677.732	912.92
678.141	913.69
678.549	902.34
678.958	903.9
679.366	903.63
679.775	911.87
680.183	928.49
680.592	939.89
681	950.6
681.408	948.49
681.816	963.08
682.224	979.63
682.632	998.75
683.04	1043.78
683.448	1083.85
683.856	1133.81
684.264	1189.09
684.671	1241.93
685.079	1307.23
685.487	1378.07
685.894	1473.51
686.302	1558.45
686.709	1630.2
687.116	1714.87
687.524	1784.23
687.931	1844.39
688.338	1896.83
688.745	1942.48
689.152	1993.04
689.559	2056.07
689.966	2117.81
690.373	2147.2
690.78	2200.03
691.187	2285.46
691.593	2345.33
692	2395.09
692.407	2472.7
692.813	2567.89
693.22	2638.51
693.626	2710.66
694.032	2764.12
694.439	2852.29
694.845	2914.96
695.251	3000.06
695.657	3071.14
696.063	3186.47
696.469	3266.68
696.875	3338.47
697.281	3368.78
697.687	3411.02
698.093	3440.41
698.498	3519.27
698.904	3577.25
699.31	3673.17
699.715	3732.26
700.12	3831.13
700.526	3833.01
700.931	3901.55
701.337	3947.23
701.742	3969.11
702.147	4057.11
702.552	4078.4
702.957	4133.86
703.362	4137.85
703.767	4153.74
704.172	4186.47
704.577	4109.78
704.981	4150.02
705.386	4153.92
705.791	4127.38
706.195	4202.65
706.6	4196.43
707.004	4275.93
707.408	4223.39
707.813	4241.04
708.217	4213.8
708.621	4201.64
709.025	4300.77
709.43	4287.57
709.834	4345.84
710.237	4415.35
710.641	4383.25
711.045	4396.87
711.449	4377.12
711.853	4398.98
712.256	4433.69
712.66	4462.59
713.064	4534.87
713.467	4571.74
713.87	4687.72
714.274	4726.58
714.677	4837.88
715.08	5011.01
715.484	5190.05
715.887	5407.76
716.29	5617.48
716.693	5837.56
717.096	6095.71
717.499	6231.81
717.901	6245.43
718.304	6262.25
718.707	6278.12
719.109	6151.86
719.512	6102.12
719.915	5939.07
720.317	5862.1
720.719	5898.9
721.122	5857.76
721.524	5789.54
721.926	5734.44
722.328	5834.52
722.731	5815.39
723.133	5834.43
723.535	6034.83
723.937	6047.03
724.338	6096.19
724.74	6136.07
725.142	6067.41
725.544	6055.55
725.945	6080.97
726.347	6066.84
726.748	6054.37
727.15	6061.64
727.551	6016.14
727.952	5980.54
728.354	5941.54
728.755	5933.19
729.156	5878.79
729.557	5851.91
729.958	5715.86
730.359	5646.72
730.76	5624.23
731.161	5555.54
731.562	5525.01
731.962	5523.01
732.363	5448.38
732.763	5380.85
733.164	5414.84
733.564	5339.88
733.965	5234.95
734.365	5197.61
734.766	5224.71
735.166	5177.88
735.566	5116.67
735.966	5086.39
736.366	5079.82
736.766	5014.51
737.166	5044.89
737.566	4998.66
737.966	4970.67
738.365	5012.16
738.765	5002.6
739.165	4920.62
739.564	4891.9
739.964	4935.8
740.363	4886.4
740.763	4879.92
741.162	4866.69
741.561	4831.57
741.96	4782.74
742.36	4801.81
742.759	4805.95
743.158	4846.76
743.557	4865.34
743.955	4905.14
744.354	4857.2
744.753	4914.96
745.152	4871.23
745.55	4928.97
745.949	4921.09
746.348	4922.35
746.746	4939.21
747.144	4893.23
747.543	4867.87
747.941	4915.04
748.339	4842.25
748.737	4834.21
749.136	4821.45
749.534	4888.21
749.932	4854.78
750.33	4874.32
750.727	4929.91
751.125	4903.45
751.523	4888.59
751.921	4933.33
752.318	4898.99
752.716	4959.35
753.113	4970.66
753.511	4998.78
753.908	4997.21
754.305	4979.39
754.703	5044.95
755.1	5108.91
755.497	5170.2
755.894	5364.9
756.291	5548
756.688	5886.89
757.085	6338.16
757.482	6977.6
757.878	7673.48
758.275	8301.96
758.672	9169.44
759.068	9873.22
759.465	10870.43
759.861	12168.16
760.258	13673.38
760.654	14449.29
761.05	14334.21
761.447	13673.1
761.843	12732.04
762.239	11753.32
762.635	11311.94
763.031	10889.24
763.427	10279.87
763.822	9644.61
764.218	9012.29
764.614	8193.39
765.01	7643.75
765.405	7287.56
765.801	7021.87
766.196	6674.25
766.592	6485.9
766.987	6161.14
767.382	5937.62
767.778	5847.22
768.173	5714.7
768.568	5640.67
768.963	5510.15
769.358	5527.62
769.753	5479.28
770.148	5393.26
770.542	5393.97
770.937	5358
771.332	5451.59
771.726	5476.11
772.121	5412.87
772.515	5469.31
772.91	5450.85
773.304	5522.67
773.699	5456.92
774.093	5512.59
774.487	5570.16
774.881	5610.1
775.275	5606.62
775.669	5564.12
776.063	5608.95
776.457	5642.26
776.851	5562.78
777.245	5555.92
777.638	5590.11
778.032	5705.59
778.425	5666.73
778.819	5706.44
779.212	5664.24
779.606	5622.34
779.999	5642.32
780.392	5621.88
780.786	5705.43
781.179	5727.76
781.572	5775.82
781.965	5787.68
782.358	5728.03
782.751	5786.72
783.143	5740.02
783.536	5816.46
783.929	5860.22
784.322	5976.97
784.714	6006.93
785.107	6003.48
785.499	6079.32
785.891	6054.65
786.284	6036.26
786.676	6184.11
787.068	6166.15
787.46	6220.69
787.852	6241.64
788.245	6331.08
788.636	6365
789.028	6438.55
789.42	6481.23
789.812	6487.39
790.204	6583.97
790.595	6688.01
790.987	6489.5
791.378	6513.73
791.77	6645.25
792.161	6786.31
792.553	6847.79
792.944	6732.37
793.335	6661.96
793.726	6740.03
794.117	6837.33
794.508	6981.53
794.899	6950.89
795.29	7097.72
795.681	7157.12
796.072	7012.78
796.463	6829.07
796.853	6837.76
797.244	7001.84
797.634	7040.53
798.025	7040.46
798.415	7051.73
798.806	7146.69
799.196	7237.85
799.586	7291.07
799.976	7252.45
800.366	7491.07
800.756	7726.68
801.146	7683.05
801.536	7712.09
801.926	7791.74
802.316	7822.08
802.706	7900.86
803.095	7774.29
803.485	7878.33
803.874	7920.39
804.264	8191.15
804.653	8166.54
805.043	8325.49
805.432	8447.05
805.821	8455.31
806.21	8478.49
806.599	8598.1
806.988	8641.04
807.377	8760.04
807.766	8897.07
808.155	9193.07
808.544	8921.27
808.933	8941.41
809.321	8923.37
809.71	9234.22
810.098	9403.31
810.487	9880.95
810.875	10383.37
811.264	10408.99
811.652	10707.44
812.04	10856.78
812.428	11029.3
812.816	11819.98
813.204	12257.75
813.592	12830.67
813.98	13175.43
814.368	13075.65
814.756	13582.62
815.144	13502.18
815.531	13997.19
815.919	13916.6
816.306	14244.87
816.694	13922.71
817.081	13980.67
817.469	14335.74
817.856	14339.07
818.243	14622.62
818.63	15030.96
819.017	14587.78
819.404	14650.26
819.791	15046.79
820.178	15683.29
820.565	15945.01
820.952	16921.79
821.339	16416.71
821.725	16609.27
822.112	15835.88
822.498	15796.08
822.885	15935.85
823.271	15838.06
823.657	16274.63
824.044	16274.43
824.43	16359.72
824.816	16327.71
825.202	15868.82
825.588	16923.62
825.974	16942.22
826.36	17475.94
826.746	17502.69
827.132	17865.87
827.517	17840.41
827.903	17028.35
828.289	17068.93
828.674	16252.39
829.06	16134.42
829.445	16547.85
829.83	16922.12
830.216	17409.49
830.601	17783.06
830.986	17367.64
831.371	17229.67
831.756	17805.83
832.141	17349.62
832.526	17341.57
832.911	17635.9
833.295	17517.19
833.68	17990.53
834.065	17335.29
834.449	16391.11
834.834	16318.35
835.218	16305.58
835.603	16649.92
835.987	16427.33
836.371	17290.72
836.755	17168.8
837.139	17573.99
837.524	17814.4
837.908	17625.91
838.291	17684.16
838.675	17748.07
839.059	17954.16
839.443	17939.52
839.827	17695.25
840.21	18187.45
840.594	18031.86
840.977	18252.96
841.361	18229.87
841.744	18618.29
842.127	18459.31
842.511	18714.46
842.894	19323.78
843.277	19716.03
843.66	20276.32
844.043	20368.37
844.426	19534.53
844.809	19209.36
845.191	19239.3
845.574	18771.32
845.957	18396.2
846.339	18286.11
846.722	17739.91
847.104	17813.68
847.487	17626.82
847.869	17632.45
848.252	17913.97
848.634	18247.43
849.016	18519.65
849.398	18644.54
849.78	19507.75
850.162	19504.99
850.544	19928.7
850.926	20573.06
851.307	20476.4
851.689	20778.13
852.071	21244.91
852.452	21574.92
852.834	21556.07
853.215	21953.55
853.597	22110.46
853.978	22418.19
854.359	22892.5
854.741	21869.13
855.122	21768.12
855.503	21461.67
855.884	21585.55
856.265	21513.65
856.646	21624.31
857.026	21219.5
857.407	21152.26
857.788	21313.95
858.169	21601.79
858.549	20722.82
858.93	21356.92
859.31	21411.72
859.69	21640.82
860.071	21232.4
860.451	21013.41
860.831	20258.23
861.211	21452.08
861.591	22015.03
861.971	21987.48
862.351	22186.92
862.731	22591.34
863.111	22864.48
863.491	23206.61
863.87	24104.6
864.25	24456.2
864.629	24046.91
865.009	24571.66
865.388	25443.27
865.768	27274.51
866.147	27174.38
866.526	25665.41
866.905	25968.08
867.284	27411.72
867.663	26014.52
868.042	24930.86
868.421	24836.96
868.8	25248.01
869.179	25497.4
869.558	24011.55
869.936	22121.72
870.315	22505.25
870.693	23058.31
871.072	24872.73
871.45	23717.61
871.828	24031.52
872.207	25263.08
872.585	24904.15
872.963	25580.91
873.341	24692.57
873.719	24405.74
874.097	24114.89
874.475	24588.79
874.853	25149.23
875.23	24096.83
875.608	25103.32
875.986	27149.6
876.363	25960.67
876.741	26750.09
877.118	26091.87
877.495	27371.27
877.873	27819.42
878.25	29284.76
878.627	28088.61
879.004	28481.25
879.381	28340.71
879.758	27577.25
880.135	25678.72
880.512	27161.03
880.889	26430.17
881.265	26145.12
881.642	25929.62
882.019	26370.3
882.395	25839.18
882.772	26856.4
883.148	25684.7
883.524	25591.34
883.901	25454.51
884.277	25828.25
884.653	25655.96
885.029	26398.91
885.405	29238.21
885.781	29018.74
886.157	27819.17
886.532	28147.6
886.908	28135.64
887.284	31313.87
887.659	32316.5
888.035	33306.06
888.411	34146.68
888.786	34595.24
889.161	35787.94
889.537	35113.05
889.912	36225.8
890.287	36184.06
890.662	37120.04
891.037	36428.31
891.412	33930.01
891.787	33583.53
892.162	32400.64
892.536	33167.12
892.911	31912.65
893.286	31216.09
893.66	29940.51
894.035	30690.75
894.409	33422
894.784	32062.2
895.158	32593.18
895.532	34516.32
895.906	35457.54
896.281	36295.87
896.655	35699.32
897.029	40781.28
897.402	42475.21
897.776	47282.45
898.15	47128.19
898.524	46593.53
898.898	47220.49
899.271	52854.05
899.645	45797.92
900.018	43972.65
900.392	45592.98
900.765	45945.63
901.138	42522.92
901.511	41892.46
901.884	38463.83
902.258	35474.56
902.631	36654.31
903.003	42178.74
903.376	38064.97
903.749	42675.45
904.122	45695.75
904.495	50316.42
904.867	50977.03
905.24	44276.71
905.612	41199.83
905.985	42156.14
906.357	44094.66
906.729	42079.65
907.102	35907.68
907.474	34518.26
907.846	34741.55
908.218	34287.41
908.59	30294.21
908.962	29292.86
909.334	31538.36
909.705	33138.14
910.077	32157.97
910.449	33460.65
910.82	34418.77
911.192	37900.94
911.563	39383.81
911.935	42144.83
912.306	42181.05
912.677	43556.71
913.048	43142.87
913.419	46822.54
913.79	47069.16
914.161	50500.77
914.532	48298.8
914.903	44382.44
915.274	42150.58
915.645	41549.98
916.015	36566.82
916.386	34886.27
916.756	37159.01
917.127	38334.03
917.497	34229.25
917.868	37274.21
918.238	35427.45
918.608	36429.46
918.978	37191.52
919.348	39404.74
919.718	40724.66
920.088	39240.46
920.458	40770.53
920.828	42902.3
921.198	40657
921.567	43434.02
921.937	33656.07
922.306	33982.85
922.676	36669.87
923.045	30611.78
923.415	29083.18
923.784	26485.23
924.153	27235.2
924.522	27214.19
924.891	25585.17
925.26	27406.18
925.629	26770.77
925.998	30776.07
926.367	30034.25
926.736	28618.18
927.104	34073.83
927.473	36636.36
927.842	44248.16
928.21	43820.27
928.578	46060.97
928.947	43573.96
929.315	43880.29
929.683	51449.77
930.051	51850.75
930.42	60224.18
930.788	51448.89
931.156	51054.44
931.523	47873.83
931.891	44257.58
932.259	42516.8
932.627	49299.09
932.994	69715.86
933.362	57622.79
933.729	50060.16
934.097	47904.2
934.464	40561.93
934.831	46808.48
935.199	46120.47
935.566	44726.66
935.933	45273.81
936.3	54818.89
936.667	42667.27
937.034	38521.48
937.401	38064.27
937.767	32836.73
938.134	29218.46
938.501	41198.77
938.867	43910.13
939.234	74261.93
939.6	63340.16
939.967	69879.81
940.333	46806.48
940.699	39839.67
941.065	31921.68
941.431	41873.62
941.798	40434.02
942.163	53178.07
942.529	33183.82
942.895	30549.7
943.261	19784.9
943.627	25950.52
943.992	22714.35
944.358	22762.5
944.723	22842.87
945.089	22272.49
945.454	20575.18
945.82	21953.86
946.185	21080.84
946.55	24419.44
946.915	21902.7
947.28	25693.74
947.645	22618.91
948.01	20887.75
948.375	21756.97
948.74	26063.47
949.104	30430.54
949.469	43959.17
949.834	77675.01
950.198	73726.33
950.562	44228.81
950.927	36829.68
951.291	44301.95
951.655	37765.17
952.02	35422.37
952.384	26778.5
952.748	23339.95
953.112	22739.42
953.476	19785.54
953.839	18295.9
954.203	18095.83
954.567	22637.88
954.931	35645.92
955.294	30484.2
955.658	30664.2
956.021	52221.23
956.385	88512.56
956.748	130462.66
957.111	202419.41
957.474	227011.42
957.837	255703.47
958.2	193412.2
958.563	69546.03
958.926	47024.4
959.289	71324.24
959.652	79635.94
960.015	59684.98
960.377	85702.31
960.74	97862.2
961.102	168823.37
961.465	181405.8
961.827	97253.1
962.189	186611.04
962.552	129343.34
962.914	103659.74
963.276	67306.49
963.638	55594.83
964	55071.49
964.362	37224.54
964.724	35955.69
965.085	25632.73
965.447	21007.94
965.809	23920.9
966.17	23979.99
966.532	25938.68
966.893	23828.32
967.255	21661.64
967.616	25604.52
967.977	20502.78
968.338	22408.68
968.699	18435.21
969.061	18459.44
969.421	18592.48
969.782	20850.96
970.143	17610.55
970.504	18250.98
970.865	20733.36
971.225	21210.73
971.586	20732.12
971.946	29524.14
972.307	25572.13
972.667	33426.39
973.027	34433.02
973.388	41693.27
973.748	28382.34
974.108	30905.18
974.468	41797.58
974.828	32220.46
975.188	24797.54
975.548	22759.36
975.907	19108.93
976.267	21454.79
976.627	18029.44
976.986	18672.48
977.346	17797.26
977.705	17128.53
978.064	15591.35
978.424	12977.53
978.783	13408.07
979.142	15304.51
979.501	14649.83
979.86	15509.32
980.219	14949.22
980.578	19257.74
980.937	21580.89
981.296	19263.48
981.654	19809.15
982.013	30848.44
982.371	40003.65
982.73	37405.68
983.088	42411.75
983.447	45337.04
983.805	64674.02
984.163	135265.45
984.521	150345.64
984.879	220203.26
985.237	-358021
985.595	345070.21
985.953	85732.64
986.311	49512.38
986.669	28758.43
987.026	24804.29
987.384	33384.65
987.741	34574.52
988.099	24683.01
988.456	19664.6
988.814	18421.63
989.171	16023.05
989.528	15796.72
989.885	16658.41
990.242	13214.96
990.599	16446.77
990.956	13446.53
991.313	9401.28
991.67	7717.62
992.027	8207.07
992.383	7289.79
992.74	6400.43
993.096	6722.52
993.453	6964.8
993.809	7227.23
994.165	9624.36
994.522	8843.02
994.878	9743.53
995.234	12212.22
995.59	12056.06
995.946	11391.94
996.302	12995.96
996.658	14990.89
997.013	16498.05
997.369	19593.64
997.725	25119.72
998.08	16237.65
998.436	24936.21
998.791	34447.86
999.147	34405.76
999.502	37545.49
999.857	27282.43
1000.212	44527.84
1000.567	63463.57
1000.922	36578.88
1001.277	23256.65
1001.632	17213.02
1001.987	22228.24
1002.342	15961.09
1002.696	12758.8
1003.051	10183.38
1003.406	12335.17
1003.76	12285.99
1004.114	12111.37
1004.469	10193.08
1004.823	8438.08
1005.177	9118.42
1005.531	7226.87
1005.885	6404.54
1006.239	7225.62
1006.593	9060.35
1006.947	12148.3
1007.301	9118.05
1007.655	9921.95
1008.008	7279.87
1008.362	8167.5
1008.715	11687.04
1009.069	10578.54
1009.422	15972.08
1009.776	32028.89
1010.129	21295.99
1010.482	17799.72
1010.835	14999.14
1011.188	31182.71
1011.541	29494.52
1011.894	-180438.51
1012.247	530865.76
1012.6	36127.83
1012.952	22911.01
1013.305	11757.88
1013.657	8496.51
1014.01	8044.08
1014.362	6613.3
1014.715	5903.7
1015.067	5153.75
1015.419	5022.34
1015.771	4443.89
1016.123	3964.22
1016.475	4060.2
1016.827	4314.35
1017.179	4656.49
1017.531	4688.3
1017.883	4796.59
1018.234	4654.52
1018.586	5874.46
1018.938	6225.69
1019.289	8621.98
1019.64	9890.44
1019.992	9219.88
1020.343	8437.84
1020.694	6693.11
1021.045	5887.61
1021.396	6726.36
1021.747	7217.15
1022.098	8603.11
1022.449	6225.78
1022.8	5802.56
1023.151	4035.94
1023.501	3571.99
1023.852	3877.07
1024.202	4045.74
1024.553	4412.64
1024.903	4354.96
1025.253	3728.31
1025.604	3345.6
1025.954	4171.53
1026.304	5090.04
1026.654	5917.95
1027.004	8649.62
1027.354	14019.88
1027.703	13270
1028.053	17379.85
1028.403	25521.9
1028.753	36819.85
1029.102	50200.8
1029.452	259577.26
1029.801	11258.97
1030.15	7284.95
1030.499	6148.2
897.758	3283.85
901.051	3267.66
904.343	3302.67
907.636	3294.55
910.928	3363.4
914.22	3263.15
917.511	3276.91
920.803	3364.03
924.094	3411.5
927.384	3358.36
930.675	3322.1
933.965	3263.1
937.255	3254.85
940.544	3221.42
943.834	3074.87
947.123	3033.94
950.411	3141.75
953.7	3101.38
956.988	3049.72
960.276	2997.49
963.563	3120.15
966.851	3099.41
970.138	3178.12
973.424	3152.37
976.711	3102.2
979.997	3360.51
983.283	3374.75
986.568	3242.99
989.853	3291.61
993.138	3320.89
996.423	3400.52
999.708	3313.31
1002.992	3433.11
1006.275	3159.43
1009.559	3269.33
1012.842	3410.39
1016.125	3309.57
1019.408	3287.02
1022.69	3415.05
1025.972	3419.71
1029.254	3385.89
1032.536	3279.43
1035.817	3326.77
1039.098	3224.44
1042.379	3495.78
1045.659	3446.81
1048.939	3353.98
1052.219	3397.84
1055.498	3428.97
1058.778	3398.86
1062.057	3389.95
1065.335	3409.01
1068.614	3442.63
1071.892	3403.76
1075.17	3510.38
1078.447	3483.47
1081.724	3466.15
1085.001	3519.05
1088.278	3485.66
1091.554	3509.74
1094.83	3506.09
1098.106	3530.13
1101.382	3593.37
1104.657	3593.63
1107.932	3589.15
1111.206	3534.18
1114.481	3491.84
1117.755	3505.52
1121.029	3466.69
1124.302	3511.35
1127.575	3439.31
1130.848	3416.51
1134.121	3366.42
1137.393	3296.98
1140.665	3380
1143.937	3358.82
1147.208	3262.75
1150.48	3289.23
1153.75	3266.55
1157.021	3338.6
1160.291	3295.19
1163.561	3335.07
1166.831	3356.33
1170.101	3391.14
1173.37	3381.55
1176.639	3299.5
1179.907	3376.37
1183.176	3429.78
1186.444	3434.91
1189.711	3468.36
1192.979	3468.14
1196.246	3428.84
1199.513	3453.18
1202.78	3447.49
1206.046	3454.25
1209.312	3488.89
1212.578	3528.27
1215.843	3452.95
1219.108	3434.89
1222.373	3458.3
1225.638	3404.93
1228.902	3378.69
1232.166	3346.75
1235.43	3321.98
1238.693	3339.76
1241.956	3344.39
1245.219	3371.92
1248.482	3374.6
1251.744	3366.07
1255.006	3552.68
1258.268	3518.14
1261.529	3446.23
1264.79	3463
1268.051	3589.49
1271.312	3610.37
1274.572	3561.22
1277.832	3552.94
1281.092	3556.1
1284.351	3502.08
1287.61	3472.42
1290.869	3360.4
1294.128	3307.68
1297.386	3451.69
1300.644	3433.87
1303.902	3446.03
1307.159	3287.86
1310.416	3348.73
1313.673	3368.77
1316.93	3336.43
1320.186	3406.8
1323.442	3463.74
1326.697	3436.92
1329.953	3452.13
1333.208	3459.17
1336.463	3447.29
1339.717	3370.25
1342.972	3462.97
1346.226	3469.33
1349.479	3376.95
1352.733	3331
1355.986	3377.19
1359.238	3344.48
1362.491	3342.64
1365.743	3349.59
1368.995	3351.6
1372.247	3365.68
1375.498	3379.12
1378.749	3441.07
1382	3382.17
1385.251	3457.48
1388.501	3433.51
1391.751	3394.66
1395	3378.53
1398.25	3418.2
1401.499	3409.26
1404.748	3317.77
1407.996	3231.17
1411.244	3227.71
1414.492	3200.38
1417.74	3170.74
1420.987	3196.59
1424.234	3242.23
1427.481	3247.36
1430.728	3304.1
1433.974	3275.64
1437.22	3308.49
1440.465	3313.23
1443.711	3316.56
1446.956	3348.92
1450.201	3361.6
1453.445	3409.55
1456.689	3368.52
1459.933	3388.43
1463.177	3416.85
1466.42	3384.5
1469.663	3364.5
1472.906	3331.18
1476.148	3478.66
1479.391	3357.1
1482.633	3346.34
1485.874	3341.5
1489.115	3301.41
1492.356	3334.67
1495.597	3304.76
1498.838	3319.42
1502.078	3265.18
1505.318	3185.01
1508.557	3239.91
1511.797	3149.23
1515.036	3326.96
1518.274	3312.44
1521.513	3298.63
1524.751	3333.08
1527.989	3335.83
1531.227	3339.86
1534.464	3302.16
1537.701	3359.28
1540.938	3390.13
1544.174	3347.91
1547.41	3363.33
1550.646	3401.34
1553.882	3419.41
1557.117	3474.06
1560.352	3503.39
1563.587	3448.25
1566.821	3396.3
1570.055	3462.76
1573.289	3418.13
1576.523	3518.12
1579.756	3518.4
1582.989	3533.37
1586.222	3489.01
1589.454	3543.79
1592.686	3503.54
1595.918	3523.04
1599.15	3499.33
1602.381	3615.84
1605.612	3535.97
1608.843	3639.77
1612.073	3536.2
1615.303	3513.82
1618.533	3491.18
1621.762	3507.22
1624.992	3506.68
1628.221	3470.7
1631.449	3454.96
1634.678	3553.27
1637.906	3492.01
1641.134	3545.5
1644.361	3490.15
1647.588	3474.4
1650.815	3481
1654.042	3478.28
1657.269	3518.9
1660.495	3466.36
1663.72	3407.64
1666.946	3396.55
1670.171	3294.98
1673.396	3274.64
1676.621	3273.41
1679.845	3324.03
1683.069	3367.2
1686.293	3431.2
1689.517	3379.81
1692.74	3267.67
1695.963	3284.93
1699.185	3387.09
1702.408	3328.8
1705.63	3388.49
1708.852	3391.18
1712.073	3363.16
1715.294	3323.69
1718.515	3349.21
1721.736	3292.56
1724.956	3255.36
1728.176	3292.36
1731.396	3311.17
1734.616	3310.53
1737.835	3317.35
1741.054	3311.57
1744.272	3310.72
1747.491	3322.37
1750.709	3413.02
1753.927	3309.81
1757.144	3370.75
1760.361	3443.38
1763.578	3455.41
1766.795	3384.57
1770.011	3408.44
1773.227	3473.15
1776.443	3502.49
1779.658	3546.65
1782.874	3492.65
1786.089	3456.12
1789.303	3460.18
1792.518	3472.76
1795.732	3462.3
1798.945	3462.47
1802.159	3523.63
1805.372	3374.66
1808.585	3347.5
1811.797	3349.98
1815.01	3435.58
1818.222	3438.84
1821.434	3305.68
1824.645	3418.31
1827.856	3373.54
1831.067	3424.75
1834.278	3347.78
1837.488	3337.25
1840.698	3524.54
1843.908	3420.21
1847.117	3380.13
1850.326	3196.67
1853.535	3341.99
1856.744	3473.13
1859.952	3346.31
1863.16	3341.95
1866.368	3366.6
1869.575	3524.93
1872.782	3402.57
1875.989	3346.61
1879.196	3481.25
1882.402	3473.84
1885.608	3528.33
1888.814	3383.07
1892.019	3254.98
1895.224	3307.64
1898.429	3308.74
1901.634	3274.44
1904.838	3254.89
1908.042	3299.27
1911.246	3298.18
1914.449	3184.38
1917.652	3204.1
1920.855	3187.55
1924.058	3266.09
1927.26	3293.55
1930.462	3334.2
1933.664	3343.46
1936.865	3275.54
1940.066	3271.14
1943.267	3217.81
1946.467	3247.17
1949.668	3285.17
1952.868	3349.89
1956.067	3309.01
1959.267	3228.11
1962.466	3263.15
1965.665	3249.57
1968.863	3249.7
1972.061	3279.99
1975.259	3290.29
1978.457	3378.85
1981.654	3328.75
1984.852	3326.52
1988.048	3228.99
1991.245	3250.52
1994.441	3335.84
1997.637	3355.6
2000.833	3336.05
2004.028	3381.21
2007.223	3426.32
2010.418	3384.59
2013.613	3355.71
2016.807	3291.77
2020.001	3320.11
2023.194	3396.45
2026.388	3364.41
2029.581	3310.72
2032.774	3340.1
2035.966	3337.93
2039.158	3245.78
2042.35	3284.23
2045.542	3209.99
2048.733	3343.71
2051.924	3406.19
2055.115	3449.93
2058.306	3359.49
2061.496	3425.39
2064.686	3509.88
2067.875	3430.38
2071.065	3463.85
2074.254	3502.24
2077.442	3454.29
2080.631	3559.37
2083.819	3388.73
2087.007	3353.89
2090.195	3305.88
2093.382	3369.8
2096.569	3342.91
2099.756	3284.21
2102.942	3283.77
2106.128	3270.65
2109.314	3271.11
2112.5	3200.69
2115.685	3184.92
2118.87	3200.48
2122.055	3275.65
2125.239	3221.98
2128.424	3171.9
2131.608	3338.11
2134.791	3315.95
2137.974	3405.02
2141.157	3382.5
2144.34	3306.16
2147.523	3325.73
2150.705	3320.31
2153.887	3318.4
2157.068	3235.59
2160.25	3264.88
2163.431	3327.22
2166.611	3235.89
2169.792	3251.38
2172.972	3118.05
2176.152	3240.86
2179.331	3287.18
2182.511	3266.02
2185.69	3302.37
2188.868	3284.27
2192.047	3371
2195.225	3328.7
2198.403	3274.34
2201.58	3276.23
2204.758	3276.99
2207.935	3373.66
2211.111	3221.66
2214.288	3198.78
2217.464	3251.73
2220.64	3243.12
2223.815	3309.95
2226.991	3214.76
2230.166	3239.27
2233.34	3255.11
2236.515	3294.02
2239.689	3385.24
2242.863	3318.47
2246.036	3382.41
2249.209	3408.62
2252.382	3458.87
2255.555	3424.2
2258.727	3337.63
2261.9	3392.54
2265.071	3383.9
2268.243	3394.9
2271.414	3305.88
2274.585	3233.17
2277.756	3312.58
2280.926	3266.51
2284.096	3321.05
2287.266	3196.79
2290.436	3266.58
2293.605	3308.94
2296.774	3324.27
2299.942	3370.48
2303.111	3387.63
2306.279	3427.93
2309.447	3417.17
2312.614	3397.38
2315.781	3411.68
2318.948	3368.01
2322.115	3412.99
2325.281	3308.34
2328.447	3350.16
2331.613	3328.86
2334.779	3274.07
2337.944	3290.67
2341.109	3282.42
2344.274	3259.76
2347.438	3218.51
2350.602	3252.36
2353.766	3275.52
2356.929	3255.56
2360.092	3303.99
2363.255	3224.16
2366.418	3115.77
2369.58	3292.77
2372.742	2956.36
2375.904	2998.55
2379.066	2957.32
2382.227	3008.32
2385.388	2969.08
2388.548	2864.58
2391.709	2938.93
2394.869	2908.16
2398.029	3070.43
2401.188	3107.99
2404.347	3001.96
2407.506	3226.01
2410.665	3248.12
2413.823	3281.48
2416.981	3208.42
2420.139	3260.94
2423.296	3322.14
2426.453	3300.17
2429.61	3326.02
2432.767	3209.46
2435.923	3262.68
2439.079	3137.59
2442.235	3231.72
2445.391	3132.98
2448.546	3137.74
2451.701	3213.15
2454.855	3147.2
2458.009	3233.05
2461.163	3253.29
2464.317	3195.03
2467.471	3238.28
2470.624	3276.96
2473.777	3334.88
2476.929	3322.15
2480.082	3353.33
2483.234	3321.5
2486.385	3187.42
2489.537	3189.88
2492.688	3114.15
2495.839	3131.26
2498.989	3131.36
2502.14	3112.96
2505.29	3078.17
2508.439	3108.5
2511.589	3007.29
2514.738	3039.77
2517.887	3065.98
2521.035	3230.24
2524.183	3225.69
2527.331	3192.62
2530.479	3138.32
2533.627	3163.32
