Data from N_3_HIR_WI_4N_Splice17_13-11-51-378.txt Node
Date: Sat Mar 14 13:11:51 EDT 2020
User: sa697716
Spectrometer: FLMS03696
Trigger mode: 0
Integration Time (sec): 3.180400E-1
Scans to average: 20
Electric dark correction enabled: true
Nonlinearity correction enabled: true
Boxcar width: 5
XAxis mode: Wavelengths
Number of Pixels in Spectrum: 2048
>>>>>Begin Spectral Data<<<<<
187.83	-195453.83
188.298	1386.46
188.766	872.58
189.233	762.1
189.701	1139.44
190.169	1594.46
190.636	596.03
191.104	577.41
191.571	102.14
192.039	-49.1
192.506	-38.03
192.974	629.98
193.441	-1136.27
193.908	-331
194.375	-83.55
194.842	-14.11
195.31	93
195.777	148.44
196.244	410.2
196.711	472.76
197.177	602.06
197.644	849.66
198.111	1447.43
198.578	2012.34
199.045	1635.89
199.511	2680.65
199.978	3116.94
200.445	2646.55
200.911	2958.78
201.378	3281.75
201.844	2988.53
202.31	5121.48
202.777	5368.87
203.243	3008.59
203.709	2875.53
204.176	3417.48
204.642	2819.48
205.108	2639.44
205.574	2168.19
206.04	1963.78
206.506	1846.03
206.972	1749.85
207.438	1685
207.903	1910.4
208.369	1667.89
208.835	1666.09
209.301	1745.75
209.766	1786.45
210.232	1787.13
210.697	2219.12
211.163	2764.67
211.628	4212.28
212.094	3558.36
212.559	4395.99
213.024	2764.46
213.49	3405.37
213.955	3354.53
214.42	3302.64
214.885	3088.09
215.35	2979.48
215.815	2868.18
216.28	3068.63
216.745	2521.1
217.21	2772.63
217.675	2611.63
218.14	3005.65
218.604	3428.03
219.069	4002.05
219.534	4306.85
219.998	5138.82
220.463	6367.04
220.927	8013.33
221.392	7662.75
221.856	7870.49
222.32	10031.51
222.785	12451.68
223.249	15796.42
223.713	17749.1
224.177	17854.36
224.642	22983.28
225.106	28342.21
225.57	30984.35
226.034	23018.46
226.497	35055.74
226.961	31621.02
227.425	36847.19
227.889	40909.4
228.353	40938.78
228.816	84546.89
229.28	80800.12
229.744	68164.1
230.207	41394.37
230.671	40699.83
231.134	67571.9
231.597	77966.41
232.061	77953.87
232.524	76011.25
232.987	52355.17
233.45	47067.18
233.914	42225.28
234.377	43269.42
234.84	39586.69
235.303	46662.72
235.766	52099.87
236.229	53667.32
236.691	33765.48
237.154	37942.39
237.617	28501.52
238.08	29200.54
238.542	34134.78
239.005	24368.83
239.468	24162.68
239.93	22739.1
240.393	20660.15
240.855	18120.01
241.317	18575.45
241.78	22593.94
242.242	23324.83
242.704	25186.9
243.166	21903.44
243.629	19878.56
244.091	22905.44
244.553	25099.34
245.015	26981.77
245.477	34877.93
245.939	51128.64
246.4	54178.84
246.862	52640.42
247.324	49655.35
247.786	55531.99
248.247	72752.83
248.709	75148.06
249.17	56147.7
249.632	52847.49
250.093	61144.29
250.555	52734.14
251.016	32123.97
251.477	30449.11
251.939	32818.1
252.4	34369.21
252.861	40823.55
253.322	37957.07
253.783	45131.02
254.244	58486.24
254.705	46086.93
255.166	40951.73
255.627	40361.85
256.088	56828.89
256.549	60303.06
257.009	51896.18
257.47	62948.58
257.931	51251.02
258.391	38358.91
258.852	39542.04
259.312	41437.76
259.773	51168.96
260.233	43262.87
260.694	36435.23
261.154	41341.22
261.614	33161.64
262.074	29661.42
262.534	30803.14
262.994	29004.31
263.455	38624.73
263.915	32485.44
264.374	30591.92
264.834	33379.66
265.294	36978.4
265.754	38268.96
266.214	36201.98
266.673	33906.5
267.133	42737.04
267.593	42375.39
268.052	51800.28
268.512	45020.37
268.971	54257.33
269.431	59426.92
269.89	53156.42
270.349	79588.63
270.809	88621.28
271.268	79621.19
271.727	178376.24
272.186	115442.67
272.645	86553.75
273.104	62439.99
273.563	90369.41
274.022	71040.41
274.481	60355.9
274.94	46441.82
275.399	34496.43
275.857	40137.54
276.316	54196.46
276.775	48187.59
277.233	47422.61
277.692	44304.68
278.15	49997.07
278.609	51325.7
279.067	47388.58
279.525	43970.93
279.984	56757.1
280.442	68061.23
280.9	67000.21
281.358	44029.77
281.816	41001.21
282.274	40067.07
282.732	41355.17
283.19	41525.62
283.648	35828.97
284.106	38156.51
284.564	38775.54
285.021	35895.94
285.479	26736.61
285.937	24325.13
286.394	21327.07
286.852	21914.44
287.309	23030.91
287.767	22214
288.224	21122.34
288.682	23151.61
289.139	25398.2
289.596	23223.68
290.053	24118.8
290.511	30399.83
290.968	36824.15
291.425	49939.3
291.882	41524.83
292.339	36097.38
292.796	35839.93
293.252	33764.65
293.709	26771.03
294.166	23951.2
294.623	26443.24
295.079	25361.9
295.536	25474.95
295.992	23104.14
296.449	22835.16
296.905	23724.8
297.362	22710.2
297.818	23842.48
298.274	24701.23
298.731	25160.04
299.187	24879.27
299.643	26698.14
300.099	32228.98
300.555	35306.64
301.011	29468.18
301.467	28343.42
301.923	33143.64
302.379	32385.94
302.835	31802.72
303.291	31817.52
303.746	36217.1
304.202	45736.21
304.658	45849.06
305.113	30836.79
305.569	30187.37
306.024	32177.25
306.479	30640.98
306.935	25794.22
307.39	28134.36
307.845	25954.45
308.301	26091.23
308.756	25398.8
309.211	24436.88
309.666	25011.94
310.121	31014.96
310.576	31485.18
311.031	31229.25
311.486	35736.12
311.94	35708.48
312.395	47678.87
312.85	89563.32
313.305	439462.55
313.759	2270262.92
314.214	164429.89
314.668	130312.19
315.123	109395.66
315.577	39185.88
316.032	34781.83
316.486	43516.41
316.94	34258.84
317.394	23822.54
317.849	18485.04
318.303	17497.9
318.757	16505.24
319.211	18252.21
319.665	15954.39
320.119	16143.24
320.572	23115.06
321.026	21570.11
321.48	17940.47
321.934	19580.26
322.387	19626.22
322.841	21188.45
323.295	19027.54
323.748	21899.61
324.202	22166.09
324.655	26614.27
325.108	37173.91
325.562	26247.25
326.015	31223.82
326.468	23589.52
326.921	26340.85
327.374	24537.13
327.827	25535.63
328.28	28858.96
328.733	19313.74
329.186	16980.5
329.639	16167.7
330.092	13613.05
330.545	12954.56
330.997	13018.62
331.45	14198.6
331.903	16624.62
332.355	28562.3
332.808	27701.92
333.26	22858.29
333.713	24806.18
334.165	24940.94
334.617	33241.71
335.069	26820.82
335.522	48434.09
335.974	53601.76
336.426	48971.04
336.878	33910.85
337.33	17172.71
337.782	16747.85
338.234	20926.46
338.686	25025.86
339.137	29628.37
339.589	27923.75
340.041	21884.89
340.493	18797.81
340.944	19259.63
341.396	20748.43
341.847	17396.33
342.299	20552.57
342.75	25091.63
343.201	21903.51
343.653	25188.31
344.104	30987.71
344.555	24353.78
345.006	37894.6
345.457	29021.45
345.908	23072.3
346.359	21703.96
346.81	17680.99
347.261	18576.17
347.712	18290.86
348.163	19637.63
348.613	19840.32
349.064	18488.99
349.515	16168.32
349.965	16591.38
350.416	19950.88
350.866	21875.9
351.317	24644.94
351.767	40825.76
352.217	51583.35
352.668	42731.61
353.118	39093.66
353.568	37690.9
354.018	29820.64
354.468	31434.18
354.918	22492.16
355.368	19666.54
355.818	27750.88
356.268	79866.84
356.718	333530.57
357.168	82922.37
357.617	41591.28
358.067	46163.84
358.517	43232.12
358.966	50619.33
359.416	56617.95
359.865	61124.58
360.315	72682.67
360.764	33869.06
361.213	18974.92
361.663	17953.86
362.112	22175.3
362.561	35779.06
363.01	26979.58
363.459	22688.1
363.908	24498.25
364.357	20798.78
364.806	35113.44
365.255	24099.49
365.703	22029.77
366.152	22015.66
366.601	17861.38
367.05	14463.31
367.498	13140.61
367.947	13717.62
368.395	14233.47
368.844	12593.31
369.292	15152.25
369.74	10458.03
370.189	16036.3
370.637	18805.95
371.085	16226.02
371.533	19726.42
371.981	19004.37
372.429	18099.4
372.877	18839.04
373.325	15778.53
373.773	16095.21
374.221	14338.07
374.669	17773.45
375.116	15335.36
375.564	15441.3
376.012	17241.3
376.459	14187.92
376.907	16905.29
377.354	20431.78
377.801	19033.79
378.249	21811.77
378.696	27801.3
379.143	33689.3
379.591	35925.33
380.038	60639.39
380.485	43844.72
380.932	47300.62
381.379	43316.95
381.826	31970.73
382.273	22691.6
382.72	19850.71
383.166	19344.76
383.613	12544.29
384.06	11291.35
384.506	13046.09
384.953	9580.65
385.4	9630.21
385.846	8436.33
386.292	8219.84
386.739	8031.76
387.185	7943.29
387.631	7930.92
388.078	7704.33
388.524	8253.5
388.97	7629.6
389.416	6365.27
389.862	6766.04
390.308	6401.46
390.754	6507.35
391.2	7062.2
391.645	7232.14
392.091	6912.09
392.537	6684.82
392.983	6680.21
393.428	6554.76
393.874	7019.74
394.319	7042.08
394.765	6692.72
395.21	6893.74
395.655	6453.06
396.101	6033.93
396.546	5442.99
396.991	5483.9
397.436	5089.95
397.881	4921.76
398.326	4657.51
398.771	4405.57
399.216	3848.72
399.661	3458.13
400.106	3434.71
400.551	3517.98
400.995	3149.54
401.44	3113.21
401.885	2921.09
402.329	2947.25
402.774	2817.02
403.218	2727.3
403.663	2620.26
404.107	2685.84
404.551	2703.01
404.995	2474.56
405.44	2376.39
405.884	2409.32
406.328	2321.81
406.772	2311.64
407.216	2101.22
407.66	2028.05
408.104	1919.31
408.547	1790.88
408.991	1729.2
409.435	1657.65
409.879	1630.01
410.322	1606.33
410.766	1548.82
411.209	1472.91
411.653	1408.99
412.096	1378.48
412.54	1376.95
412.983	1366.72
413.426	1369.66
413.869	1364.62
414.312	1337.55
414.756	1288.93
415.199	1227.37
415.642	1190.93
416.085	1192.92
416.527	1184.49
416.97	1201
417.413	1137.31
417.856	1121.74
418.298	1110.97
418.741	1103.14
419.184	1097.51
419.626	1138.21
420.069	1137.38
420.511	1142.06
420.953	1113.28
421.396	1104.54
421.838	1075.57
422.28	1099.83
422.722	1107.8
423.164	1120.34
423.606	1100.03
424.048	1097.54
424.49	1045.43
424.932	1039.97
425.374	1022.9
425.816	1037.78
426.258	1056.87
426.699	1067.82
427.141	1051.87
427.582	1064.37
428.024	1058.85
428.465	1052.4
428.907	1027.54
429.348	1015.16
429.789	1014.02
430.231	994.56
430.672	1007.59
431.113	979.74
431.554	963.9
431.995	937.64
432.436	906.04
432.877	886.3
433.318	871.99
433.759	867.74
434.2	865.3
434.64	855.82
435.081	856.61
435.522	815.24
435.962	787.12
436.403	771.12
436.843	782.78
437.284	763.3
437.724	742.41
438.164	742.96
438.604	726.53
439.045	701
439.485	672.35
439.925	658.85
440.365	640.32
440.805	631.84
441.245	624.47
441.685	602.12
442.125	598.45
442.564	600.88
443.004	588.78
443.444	586.34
443.883	587.87
444.323	582.01
444.762	581.9
445.202	591.79
445.641	605.14
446.081	601.64
446.52	606.68
446.959	602.33
447.398	588.51
447.837	581.73
448.276	572.62
448.716	578.28
449.154	586.2
449.593	574.11
450.032	573.38
450.471	561.73
450.91	561.01
451.349	560.94
451.787	559.38
452.226	568.22
452.664	569.81
453.103	573.06
453.541	571.12
453.98	570.88
454.418	575.45
454.856	567.04
455.295	565.55
455.733	570.55
456.171	572.37
456.609	571.84
457.047	573.15
457.485	581.05
457.923	581.38
458.361	574.4
458.798	574.78
459.236	571.97
459.674	574.16
460.111	577.91
460.549	572.08
460.987	570.07
461.424	568.05
461.862	565.66
462.299	556.68
462.736	556.19
463.173	557.6
463.611	552.76
464.048	551.67
464.485	555.46
464.922	549.58
465.359	546.96
465.796	543.14
466.233	539.65
466.67	533.05
467.106	532.99
467.543	526.03
467.98	519.29
468.416	504.6
468.853	500.51
469.29	484.85
469.726	478.99
470.162	466.52
470.599	458.58
471.035	454.72
471.471	444.6
471.907	440.43
472.344	438.59
472.78	441
473.216	447.22
473.652	442.47
474.088	442.92
474.523	442.85
474.959	447.1
475.395	442.96
475.831	440.72
476.266	442.54
476.702	441.68
477.138	436.77
477.573	433.97
478.008	431.97
478.444	433.97
478.879	438.23
479.314	440.41
479.75	439.78
480.185	442.34
480.62	445.66
481.055	448.01
481.49	451.91
481.925	459.25
482.36	469.74
482.795	482.83
483.229	495.62
483.664	505.26
484.099	506.93
484.534	515.84
484.968	521
485.403	522.02
485.837	521.71
486.271	520.94
486.706	521.06
487.14	514.03
487.574	506.81
488.009	502.28
488.443	498.38
488.877	504.13
489.311	505.35
489.745	511.74
490.179	517.89
490.613	529.05
491.046	533.68
491.48	538.77
491.914	540.63
492.348	545.24
492.781	550.73
493.215	553.74
493.648	554.98
494.082	560.86
494.515	561.62
494.948	569.69
495.382	574.19
495.815	579.44
496.248	586.01
496.681	597.32
497.114	608.31
497.547	618.24
497.98	631.03
498.413	639.11
498.846	649.41
499.279	659.21
499.711	664.54
500.144	669.74
500.577	681.36
501.009	692.97
501.442	705.69
501.874	710.38
502.306	714.73
502.739	725.39
503.171	742.36
503.603	747.98
504.036	759.78
504.468	768.72
504.9	781.67
505.332	791.6
505.764	798.28
506.196	806.78
506.627	823.06
507.059	838.61
507.491	849.52
507.923	851.28
508.354	868.53
508.786	881.71
509.217	901.32
509.649	918.07
510.08	938.68
510.512	959.24
510.943	977.84
511.374	991.57
511.805	1014.08
512.237	1035.06
512.668	1067.69
513.099	1097.28
513.53	1126.71
513.961	1150.39
514.391	1185.2
514.822	1219.67
515.253	1255.07
515.684	1281.67
516.114	1313.14
516.545	1336.71
516.975	1365.46
517.406	1386.12
517.836	1392.19
518.267	1401.29
518.697	1421.58
519.127	1427.63
519.558	1438.4
519.988	1445.47
520.418	1457.64
520.848	1476.69
521.278	1486.72
521.708	1503.14
522.138	1517.01
522.567	1548.51
522.997	1575.56
523.427	1592.62
523.857	1611.34
524.286	1622.65
524.716	1638.59
525.145	1658.86
525.575	1672.4
526.004	1689.77
526.433	1688.86
526.863	1691.52
527.292	1683.75
527.721	1690.44
528.15	1697.68
528.579	1698.59
529.008	1710.12
529.437	1734.35
529.866	1749.57
530.295	1767.2
530.724	1780.14
531.152	1806.34
531.581	1820.73
532.01	1838.91
532.438	1847.91
532.867	1862.18
533.295	1881.9
533.723	1889.18
534.152	1886.39
534.58	1887.12
535.008	1870.36
535.436	1872.53
535.865	1881.04
536.293	1896.64
536.721	1912.52
537.149	1937.96
537.576	1940.9
538.004	1954.43
538.432	1962.81
538.86	1962.25
539.287	1969.31
539.715	1985.07
540.143	1987.46
540.57	1983.11
540.998	1978.9
541.425	1955.94
541.852	1934.49
542.28	1932.69
542.707	1915.83
543.134	1900.06
543.561	1895.62
543.988	1886.87
544.415	1885.4
544.842	1879.99
545.269	1873.72
545.696	1875.6
546.123	1888.82
546.549	1879.11
546.976	1866.11
547.403	1865.44
547.829	1868.9
548.256	1872.13
548.682	1869.8
549.108	1862.39
549.535	1862.61
549.961	1864.82
550.387	1851.99
550.813	1846.58
551.24	1854
551.666	1855.53
552.092	1846.53
552.518	1840.59
552.943	1834.81
553.369	1842.9
553.795	1850.68
554.221	1852.1
554.646	1850.03
555.072	1860.7
555.498	1866.93
555.923	1876.08
556.349	1892.62
556.774	1902.38
557.199	1904.6
557.625	1910.65
558.05	1905.32
558.475	1915.19
558.9	1914.71
559.325	1905.33
559.75	1899.68
560.175	1891.67
560.6	1885.77
561.025	1883.68
561.449	1884.58
561.874	1888.76
562.299	1894.48
562.723	1900.69
563.148	1891
563.572	1894.28
563.997	1905.47
564.421	1910.72
564.846	1911.46
565.27	1915.16
565.694	1912.7
566.118	1924.43
566.542	1932.61
566.966	1924.79
567.39	1920.48
567.814	1907.17
568.238	1906.08
568.662	1910.32
569.086	1912.19
569.509	1919.12
569.933	1901.41
570.357	1892.26
570.78	1869.36
571.204	1854.51
571.627	1842.41
572.05	1839.2
572.474	1839.39
572.897	1825.93
573.32	1817.24
573.743	1806.44
574.166	1787.17
574.589	1786.83
575.012	1778.55
575.435	1776.46
575.858	1766.69
576.281	1755.5
576.704	1738.64
577.126	1725.38
577.549	1714.39
577.972	1704.64
578.394	1694.48
578.817	1686.78
579.239	1666.56
579.661	1653.16
580.084	1637.66
580.506	1624.07
580.928	1618.93
581.35	1608.75
581.772	1605.16
582.194	1591.32
582.616	1577.46
583.038	1562.49
583.46	1551.91
583.882	1549.61
584.303	1553.03
584.725	1549.39
585.147	1552.14
585.568	1563.25
585.99	1575
586.411	1580.8
586.833	1595.31
587.254	1596.25
587.675	1609.97
588.096	1623.14
588.518	1617.64
588.939	1600.15
589.36	1596.76
589.781	1585.72
590.202	1557.3
590.623	1547.95
591.043	1544.91
591.464	1532.02
591.885	1529.4
592.305	1522.89
592.726	1509.6
593.147	1511.09
593.567	1505.74
593.987	1498.24
594.408	1492.71
594.828	1489.67
595.248	1483.15
595.669	1465.17
596.089	1457.57
596.509	1450.37
596.929	1437.59
597.349	1437.32
597.769	1427.42
598.189	1421.64
598.608	1422.39
599.028	1423.92
599.448	1423.16
599.867	1410.88
600.287	1405.75
600.706	1401.41
601.126	1391.1
601.545	1389.59
601.965	1387.76
602.384	1381.83
602.803	1383.46
603.222	1378.05
603.641	1371.21
604.061	1367.6
604.48	1363.1
604.898	1370.5
605.317	1374.78
605.736	1377.17
606.155	1373.21
606.574	1363.35
606.992	1368
607.411	1363.13
607.829	1354.92
608.248	1350.34
608.666	1347.21
609.085	1345.14
609.503	1335.98
609.921	1328.93
610.339	1329.2
610.758	1328.36
611.176	1322.74
611.594	1312.95
612.012	1309.08
612.43	1311.58
612.847	1316.42
613.265	1317.04
613.683	1321.99
614.101	1322.07
614.518	1317.95
614.936	1308.26
615.353	1292.63
615.771	1288.8
616.188	1288.02
616.606	1283.74
617.023	1275.3
617.44	1261
617.857	1253.11
618.274	1242.94
618.691	1236.54
619.108	1226.16
619.525	1218.19
619.942	1224.08
620.359	1226.12
620.776	1220.61
621.192	1216.25
621.609	1213.7
622.026	1219.69
622.442	1224.3
622.859	1226.59
623.275	1219.57
623.691	1224.52
624.108	1235.12
624.524	1248.64
624.94	1248.48
625.356	1257.41
625.772	1269.7
626.188	1281.08
626.604	1282.78
627.02	1279.24
627.436	1277.48
627.852	1284
628.268	1296.26
628.683	1288.56
629.099	1279.78
629.514	1274.53
629.93	1277.27
630.345	1280.92
630.761	1275.81
631.176	1278.95
631.591	1273.16
632.007	1266.4
632.422	1263.17
632.837	1251.36
633.252	1247
633.667	1236.48
634.082	1226.48
634.497	1213.75
634.911	1193.32
635.326	1188.85
635.741	1170.62
636.155	1158.68
636.57	1159.24
636.984	1157.44
637.399	1157.29
637.813	1154.76
638.228	1151.51
638.642	1153.39
639.056	1141.39
639.47	1139.5
639.884	1129.87
640.298	1121.68
640.712	1119.42
641.126	1105.03
641.54	1094.91
641.954	1086.16
642.368	1072.76
642.781	1062.38
643.195	1042.68
643.609	1040.7
644.022	1032.27
644.436	1024.2
644.849	1010.79
645.262	996.06
645.676	994.22
646.089	986.45
646.502	970.8
646.915	963.62
647.328	947.4
647.741	944.31
648.154	930.73
648.567	926.99
648.98	914.58
649.393	913.03
649.805	909.94
650.218	902.08
650.631	886.95
651.043	880.23
651.456	873.91
651.868	873.16
652.28	887.28
652.693	897.69
653.105	902.32
653.517	910.1
653.929	908.46
654.341	911.15
654.753	898.4
655.165	901.85
655.577	898.23
655.989	892.78
656.401	882.45
656.813	849.56
657.224	830.79
657.636	803.67
658.047	786.31
658.459	767.84
658.87	757.24
659.282	745.34
659.693	725.64
660.104	711.41
660.515	697.13
660.926	692.43
661.338	686.71
661.749	677.69
662.159	667.47
662.57	660.64
662.981	653.83
663.392	645.58
663.803	646.68
664.213	642.34
664.624	635.78
665.035	635.23
665.445	623.75
665.855	616.77
666.266	609.41
666.676	605.14
667.086	595.4
667.497	593.68
667.907	587.01
668.317	577.99
668.727	575.82
669.137	575.25
669.547	573.09
669.956	572.88
670.366	573.26
670.776	573.53
671.186	577.12
671.595	580.78
672.005	582.52
672.414	581.92
672.824	580.37
673.233	581.9
673.642	583.02
674.052	584.92
674.461	587.58
674.87	590.78
675.279	590.14
675.688	590.91
676.097	592.41
676.506	591.58
676.915	602.83
677.323	605.98
677.732	605.46
678.141	607.19
678.549	599.49
678.958	599.67
679.366	600.48
679.775	605.07
680.183	616.21
680.592	621.34
681	626.81
681.408	623.71
681.816	631.86
682.224	642.24
682.632	652.99
683.04	680.06
683.448	703.09
683.856	732.55
684.264	765.48
684.671	794.99
685.079	833.78
685.487	876.64
685.894	934.74
686.302	985.57
686.709	1027.76
687.116	1076.91
687.524	1121.2
687.931	1161.16
688.338	1196.39
688.745	1226.15
689.152	1262.48
689.559	1308.17
689.966	1353.38
690.373	1380.1
690.78	1423.11
691.187	1486.3
691.593	1536.74
692	1581.07
692.407	1642.81
692.813	1718.74
693.22	1779.79
693.626	1841.53
694.032	1892.63
694.439	1968.26
694.845	2026.31
695.251	2099.68
695.657	2165.44
696.063	2263.56
696.469	2336.35
696.875	2405.31
697.281	2444.17
697.687	2492.47
698.093	2532.37
698.498	2606.78
698.904	2665.23
699.31	2754.25
699.715	2815.22
700.12	2907.16
700.526	2924.19
700.931	2991.93
701.337	3043.39
701.742	3075.8
702.147	3158.23
702.552	3187.79
702.957	3246.99
703.362	3268.1
703.767	3297.6
704.172	3340.43
704.577	3294.96
704.981	3343.02
705.386	3359.89
705.791	3353.28
706.195	3429.03
706.6	3439.71
707.004	3519.28
707.408	3488.54
707.813	3515.95
708.217	3501.95
708.621	3503.5
709.025	3598.93
709.43	3599.4
709.834	3661.09
710.237	3729.75
710.641	3713.73
711.045	3733.61
711.449	3728.73
711.853	3758.73
712.256	3798.87
712.66	3838.19
713.064	3912.9
713.467	3954.99
713.87	4068.81
714.274	4112.99
714.677	4221.21
715.08	4383.01
715.484	4551.66
715.887	4753.65
716.29	4950.41
716.693	5156.5
717.096	5394.29
717.499	5525.02
717.901	5551.3
718.304	5576.24
718.707	5601.58
719.109	5499.45
719.512	5466.43
719.915	5332.26
720.317	5276.79
720.719	5319.56
721.122	5288.74
721.524	5239.19
721.926	5197.51
722.328	5294.75
722.731	5283.4
723.133	5308.75
723.535	5499.69
723.937	5517.15
724.338	5570.8
724.74	5608.66
725.142	5549.04
725.544	5549.03
725.945	5571.12
726.347	5567.91
726.748	5561.9
727.15	5576.29
727.551	5541.06
727.952	5512.64
728.354	5484.7
728.755	5482.95
729.156	5439.86
729.557	5424.05
729.958	5302.22
730.359	5248.75
730.76	5227.64
731.161	5167.27
731.562	5140.68
731.962	5142.71
732.363	5080.3
732.763	5017.21
733.164	5051.68
733.564	4984.77
733.965	4888.58
734.365	4854.85
734.766	4880.27
735.166	4842.96
735.566	4787.85
735.966	4763.17
736.366	4757.67
736.766	4695.34
737.166	4727.01
737.566	4686.85
737.966	4663.47
738.365	4704
738.765	4697.9
739.165	4626.13
739.564	4599.95
739.964	4646.78
740.363	4599.46
740.763	4594.95
741.162	4585.28
741.561	4552.05
741.96	4505.42
742.36	4523.13
742.759	4526.12
743.158	4563.85
743.557	4576.4
743.955	4615.66
744.354	4567.86
744.753	4627.41
745.152	4587.42
745.55	4639.52
745.949	4635.26
746.348	4637.8
746.746	4655.45
747.144	4617.82
747.543	4596.14
747.941	4646.39
748.339	4576
748.737	4566.91
749.136	4556.67
749.534	4621.07
749.932	4593.76
750.33	4615.84
750.727	4672.43
751.125	4650.59
751.523	4633.91
751.921	4676.86
752.318	4641.57
752.716	4700.72
753.113	4716.75
753.511	4740.58
753.908	4740.89
754.305	4723.41
754.703	4784.01
755.1	4839.09
755.497	4894.37
755.894	5080.17
756.291	5251.94
756.688	5572.65
757.085	5996.66
757.482	6597.42
757.878	7256.26
758.275	7848.91
758.672	8668.48
759.068	9330.65
759.465	10275.38
759.861	11498.25
760.258	12916.96
760.654	13658.8
761.05	13554.47
761.447	12937.48
761.843	12044.12
762.239	11115.84
762.635	10704.33
763.031	10307.45
763.427	9730.3
763.822	9131.81
764.218	8535.57
764.614	7757.89
765.01	7234.33
765.405	6895.92
765.801	6640.89
766.196	6316.19
766.592	6136.17
766.987	5823.55
767.382	5612.42
767.778	5525.74
768.173	5397.76
768.568	5326.08
768.963	5204.91
769.358	5219.42
769.753	5174.79
770.148	5094.34
770.542	5091
770.937	5059.35
771.332	5150.11
771.726	5168.65
772.121	5110.49
772.515	5163.28
772.91	5149.38
773.304	5219.08
773.699	5158.8
774.093	5211.27
774.487	5264.96
774.881	5307.07
775.275	5303.34
775.669	5264.29
776.063	5304.45
776.457	5335.52
776.851	5261.56
777.245	5254.33
777.638	5284.9
778.032	5395.71
778.425	5360.95
778.819	5401.43
779.212	5357.91
779.606	5317.38
779.999	5332.6
780.392	5321.32
780.786	5403.47
781.179	5426.76
781.572	5467.94
781.965	5482.11
782.358	5425.44
782.751	5480.34
783.143	5432.42
783.536	5506.41
783.929	5550.52
784.322	5664.75
784.714	5693.01
785.107	5684.25
785.499	5751.41
785.891	5729.47
786.284	5710.05
786.676	5847.71
787.068	5825.88
787.46	5877.55
787.852	5897.01
788.245	5981.21
788.636	6008.99
789.028	6075.95
789.42	6116.85
789.812	6128.93
790.204	6223.38
790.595	6319.1
790.987	6127.99
791.378	6152.1
791.77	6274.93
792.161	6406.74
792.553	6459.62
792.944	6352.3
793.335	6282.6
793.726	6355.37
794.117	6444.57
794.508	6577.75
794.899	6551.24
795.29	6691.46
795.681	6747.79
796.072	6611.86
796.463	6434.68
796.853	6446.98
797.244	6599.94
797.634	6636.5
798.025	6637.07
798.415	6649.04
798.806	6739.42
799.196	6824.23
799.586	6873.78
799.976	6841.55
800.366	7067.82
800.756	7301.75
801.146	7262.87
801.536	7293.97
801.926	7364.04
802.316	7390.31
802.706	7460.03
803.095	7340.76
803.485	7437.62
803.874	7480.14
804.264	7727.57
804.653	7705.35
805.043	7847.78
805.432	7955.83
805.821	7964.6
806.21	7990.62
806.599	8107.93
806.988	8153.17
807.377	8255.42
807.766	8386.33
808.155	8661.65
808.544	8407.34
808.933	8422.98
809.321	8407.1
809.71	8700.02
810.098	8848.59
810.487	9303.78
810.875	9777.76
811.264	9796.54
811.652	10083.9
812.04	10226.58
812.428	10385.5
812.816	11131.58
813.204	11538.56
813.592	12073.28
813.98	12401.34
814.368	12312.98
814.756	12783.3
815.144	12701.66
815.531	13166.05
815.919	13096.41
816.306	13396.65
816.694	13094.61
817.081	13152.83
817.469	13502.17
817.856	13501.47
818.243	13761.78
818.63	14140.94
819.017	13727.65
819.404	13791.65
819.791	14167.59
820.178	14771.23
820.565	15021.6
820.952	15935.78
821.339	15447.95
821.725	15618.02
822.112	14895.69
822.498	14860.2
822.885	14993.79
823.271	14899.43
823.657	15303.11
824.044	15301.11
824.43	15376.52
824.816	15345.46
825.202	14921.67
825.588	15927.36
825.974	15943.15
826.36	16453.04
826.746	16485.09
827.132	16827.84
827.517	16803.02
827.903	16038.7
828.289	16081.82
828.674	15309.29
829.06	15207.37
829.445	15591.38
829.83	15935.52
830.216	16404.46
830.601	16750.01
830.986	16344.53
831.371	16208.54
831.756	16749.73
832.141	16320.64
832.526	16310.68
832.911	16588.35
833.295	16469.69
833.68	16931.18
834.065	16319.19
834.449	15425.39
834.834	15354.71
835.218	15350.36
835.603	15685.19
835.987	15474.62
836.371	16286.29
836.755	16178.28
837.139	16566.1
837.524	16795.14
837.908	16616.66
838.291	16683.21
838.675	16744.65
839.059	16946.84
839.443	16932.49
839.827	16707.88
840.21	17182.83
840.594	17040.92
840.977	17249.66
841.361	17220.67
841.744	17588.95
842.127	17432.65
842.511	17661.46
842.894	18241.79
843.277	18611.47
843.66	19144.9
844.043	19222.21
844.426	18424.04
844.809	18124.81
845.191	18150.27
845.574	17702.45
845.957	17343.28
846.339	17234.17
846.722	16725.5
847.104	16789.42
847.487	16613.81
847.869	16624.17
848.252	16891.63
848.634	17216.73
849.016	17469.17
849.398	17589.68
849.78	18412.36
850.162	18420.67
850.544	18829.13
850.926	19430.73
851.307	19344.68
851.689	19620.27
852.071	20048.09
852.452	20365.14
852.834	20340.5
853.215	20719.79
853.597	20864.86
853.978	21157.76
854.359	21596.75
854.741	20641.27
855.122	20557.19
855.503	20278.24
855.884	20404.74
856.265	20351.27
856.646	20458.04
857.026	20080.66
857.407	20012.87
857.788	20165.25
858.169	20437.95
858.549	19620.2
858.93	20217.37
859.31	20260.21
859.69	20459.81
860.071	20066.81
860.451	19854.23
860.831	19140.99
861.211	20266.37
861.591	20804.67
861.971	20784.65
862.351	20975.56
862.731	21340.43
863.111	21595.09
863.491	21919.6
863.87	22774.85
864.25	23118.27
864.629	22728.15
865.009	23232.48
865.388	24054.65
865.768	25776.99
866.147	25677.01
866.526	24258.46
866.905	24552.01
867.284	25925.9
867.663	24602.67
868.042	23573.41
868.421	23494.94
868.8	23882.86
869.179	24107.06
869.558	22701.15
869.936	20921.99
870.315	21287.64
870.693	21802.93
871.072	23506.88
871.45	22401.08
871.828	22700.01
872.207	23868.05
872.585	23516.93
872.963	24161.04
873.341	23336.25
873.719	23066.32
874.097	22794.65
874.475	23230.55
874.853	23774.84
875.23	22789.63
875.608	23738.78
875.986	25675.63
876.363	24555.52
876.741	25291.13
877.118	24662.61
877.495	25867.46
877.873	26288.99
878.25	27667.28
878.627	26535.98
879.004	26897.7
879.381	26775.69
879.758	26064.91
880.135	24263.81
880.512	25651.74
880.889	24965.04
881.265	24702.07
881.642	24496.87
882.019	24915.51
882.395	24398.37
882.772	25362.15
883.148	24252.54
883.524	24144.34
883.901	24001.41
884.277	24350.79
884.653	24191.59
885.029	24901.88
885.405	27580.19
885.781	27368.48
886.157	26241.54
886.532	26563.57
886.908	26548.88
887.284	29508.33
887.659	30470.76
888.035	31423.73
888.411	32236.61
888.786	32669.04
889.161	33789.38
889.537	33162.85
889.912	34209.5
890.287	34165.16
890.662	35030.09
891.037	34386.1
891.412	32060.18
891.787	31726.05
892.162	30608.35
892.536	31318.05
892.911	30132.17
893.286	29490.97
893.66	28290.08
894.035	29004.36
894.409	31581.22
894.784	30313.03
895.158	30809.76
895.532	32640.53
895.906	33529.19
896.281	34323.84
896.655	33772.09
897.029	38586.4
897.402	40181.89
897.776	44722.24
898.15	44563.43
898.524	44088.19
898.898	44668.46
899.271	50017.13
899.645	43317.93
900.018	41622.79
900.392	43166.21
900.765	43511.4
901.138	40280.63
901.511	39674.88
901.884	36450.86
902.258	33624.15
902.631	34740.91
903.003	39977.11
903.376	36070.79
903.749	40452.85
904.122	43296.44
904.495	47646.33
904.867	48246.49
905.24	41864.8
905.612	38958.58
905.985	39805.98
906.357	41629.15
906.729	39720.21
907.102	33922.86
907.474	32619.75
907.846	32820.73
908.218	32393.04
908.59	28632.3
908.962	27690.27
909.334	29824.06
909.705	31345.81
910.077	30432.89
910.449	31678.34
910.82	32562.89
911.192	35854.73
911.563	37258.13
911.935	39882.03
912.306	39908.64
912.677	41217.45
913.048	40811.34
913.419	44288.72
913.79	44494.36
914.161	47728.33
914.532	45613.37
914.903	41929.38
915.274	39818.36
915.645	39237.8
916.015	34529.85
916.386	32939.52
916.756	35064.27
917.127	36184.52
917.497	32330.21
917.868	35225.62
918.238	33479.24
918.608	34434.55
918.978	35153.55
919.348	37230.62
919.718	38471
920.088	37068.2
920.458	38521.69
920.828	40523.41
921.198	38404.95
921.567	41025.71
921.937	31758.38
922.306	32045.09
922.676	34578.61
923.045	28838.57
923.415	27404.26
923.784	24966.82
924.153	25685.65
924.522	25659.03
924.891	24124.2
925.26	25853.94
925.629	25235.89
925.998	29018.76
926.367	28341.98
926.736	27004.4
927.104	32176.24
927.473	34598.43
927.842	41766.95
928.21	41328.82
928.578	43444.61
928.947	41103.39
929.315	41323.64
929.683	48476.68
930.051	48867.84
930.42	56766
930.788	48506.6
931.156	48123.29
931.523	45078.77
931.891	41659.2
932.259	40013.25
932.627	46369.84
932.994	65627.99
933.362	54263.12
933.729	47128.3
934.097	45081.94
934.464	38117.74
934.831	43936.8
935.199	43265.35
935.566	41932.74
935.933	42438.08
936.3	51393.36
936.667	39972.25
937.034	36034
937.401	35608.08
937.767	30694.07
938.134	27342.44
938.501	38562.74
938.867	41127.65
939.234	69657.04
939.6	59454.54
939.967	65616.84
940.333	43934.14
940.699	37447.16
941.065	30047.4
941.431	39441.08
941.798	38076.79
942.163	50004.14
942.529	31250.64
942.895	28777.55
943.261	18623.3
943.627	24457.31
943.992	21424.52
944.358	21480.07
944.723	21568
945.089	21034.28
945.454	19437.89
945.82	20753.72
946.185	19951.95
946.55	23156.51
946.915	20788.49
947.28	24414.26
947.645	21501.55
948.01	19867.59
948.375	20719.59
948.74	24819.67
949.104	28924.49
949.469	41817.63
949.834	73953.83
950.198	70186.1
950.562	42039.1
950.927	34968.48
951.291	42002.82
951.655	35763.29
952.02	33568.58
952.384	25383.37
952.748	22116.85
953.112	21562.54
953.476	18739.25
953.839	17326.6
954.203	17129.74
954.567	21411.59
954.931	33762.84
955.294	28913.38
955.658	29089.23
956.021	49473.71
956.385	83857.38
956.748	123752.95
957.111	192023.14
957.474	215508.05
957.837	242475.43
958.2	183473.22
958.563	66014.96
958.926	44628.34
959.289	67771.91
959.652	75681.4
960.015	56743.25
960.377	81438.65
960.74	92888.3
961.102	160311.9
961.465	172037.53
961.827	92146.17
962.189	176734.72
962.552	122486.65
962.914	98165.56
963.276	63612.68
963.638	52585.42
964	52116.29
964.362	35239.71
964.724	34052.13
965.085	24274.35
965.447	19922.16
965.809	22728.37
966.17	22759.32
966.532	24653.91
966.893	22613.46
967.255	20580.1
967.616	24280.85
967.977	19431.98
968.338	21215.93
968.699	17451.37
969.061	17455.14
969.421	17570.75
969.782	19708.08
970.143	16652.29
970.504	17237.68
970.865	19594.18
971.225	20014.36
971.586	19590.51
971.946	27913.79
972.307	24222.95
972.667	31645.78
973.027	32573.17
973.388	39463.17
973.748	26838.72
974.108	29227.66
974.468	39502.61
974.828	30492.95
975.188	23482.46
975.548	21544.31
975.907	18091.28
976.267	20288
976.627	17060.52
976.986	17708.29
977.346	16878.24
977.705	16238.7
978.064	14766.76
978.424	12306.02
978.783	12711.11
979.142	14513
979.501	13905.2
979.86	14713.05
980.219	14186.46
980.578	18261.76
980.937	20441.13
981.296	18218.92
981.654	18741.59
982.013	29232.99
982.371	37894.65
982.73	35399.07
983.088	40119.79
983.447	42850.91
983.805	61250.57
984.163	128047.14
984.521	142224.87
984.879	208403.63
985.237	-339316.61
985.595	326882.39
985.953	81175.89
986.311	46937.31
986.669	27277.42
987.026	23517.6
987.384	31633.29
987.741	32682.13
988.099	23362.09
988.456	18606.65
988.814	17408.96
989.171	15127.1
989.528	14921.09
989.885	15733.65
990.242	12449.49
990.599	15477.06
990.956	12645.43
991.313	8844.6
991.67	7257.28
992.027	7691.14
992.383	6845.23
992.74	6006.91
993.096	6297.95
993.453	6536.87
993.809	6790.83
994.165	9032.36
994.522	8282.87
994.878	9136.75
995.234	11452.82
995.59	11292.29
995.946	10675.95
996.302	12167.63
996.658	14044.36
997.013	15460.77
997.369	18302.5
997.725	23378.59
998.08	15146.11
998.436	23355.65
998.791	32256.3
999.147	32202.51
999.502	35097.95
999.857	25554.25
1000.212	41639.84
1000.567	59438.38
1000.922	34354.42
1001.277	21850.3
1001.632	16236
1001.987	20960.97
1002.342	15030.38
1002.696	12030.24
1003.051	9608.61
1003.406	11662.36
1003.76	11573.47
1004.114	11404.32
1004.469	9590.38
1004.823	7946.2
1005.177	8590.03
1005.531	6797.59
1005.885	6029.71
1006.239	6819.59
1006.593	8551.04
1006.947	11437.64
1007.301	8566.31
1007.655	9360.28
1008.008	6885.05
1008.362	7741.23
1008.715	11042.55
1009.069	10007.68
1009.422	15057.56
1009.776	30158.4
1010.129	19996.66
1010.482	16719.59
1010.835	14118.22
1011.188	29414.91
1011.541	27677.19
1011.894	-169674.34
1012.247	499951.46
1012.6	33929.57
1012.952	21365.25
1013.305	11015.43
1013.657	7960.96
1014.01	7537.15
1014.362	6203.27
1014.715	5518.23
1015.067	4813.86
1015.419	4705.78
1015.771	4163.01
1016.123	3701.71
1016.475	3815.16
1016.827	4094.91
1017.179	4395.2
1017.531	4425.4
1017.883	4520.47
1018.234	4367.28
1018.586	5533.76
1018.938	5835.7
1019.289	8064.97
1019.64	9220.49
1019.992	8583.02
1020.343	7844.98
1020.694	6187.14
1021.045	5467.17
1021.396	6236.82
1021.747	6698.96
1022.098	8012.23
1022.449	5795.12
1022.8	5395.59
1023.151	3754.31
1023.501	3328.59
1023.852	3611.01
1024.202	3758.81
1024.553	4121.29
1024.903	4073.34
1025.253	3485.88
1025.604	3136.13
1025.954	3920.2
1026.304	4774.36
1026.654	5600.05
1027.004	8230.03
1027.354	13293.27
1027.703	12492.55
1028.053	16442.31
1028.403	23955
1028.753	34291.53
1029.102	46610.53
1029.452	239009.63
1029.801	10251.84
1030.15	6633.28
1030.499	5579.69
897.758	2755.42
901.051	2714.06
904.343	2748.19
907.636	2749.12
910.928	2813.85
914.22	2723.15
917.511	2732.35
920.803	2796.76
924.094	2819.66
927.384	2797.03
930.675	2758.73
933.965	2710.59
937.255	2717.58
940.544	2686.31
943.834	2614.04
947.123	2561.69
950.411	2656.53
953.7	2629.43
956.988	2597.47
960.276	2534.72
963.563	2621.13
966.851	2616.17
970.138	2676.27
973.424	2669.28
976.711	2618.14
979.997	2764.28
983.283	2795.16
986.568	2697.55
989.853	2717.6
993.138	2743.93
996.423	2830.96
999.708	2762.05
1002.992	2833.56
1006.275	2655.52
1009.559	2706.61
1012.842	2826.28
1016.125	2756.22
1019.408	2735.99
1022.69	2828.06
1025.972	2843.87
1029.254	2816.21
1032.536	2742.27
1035.817	2773.83
1039.098	2709.64
1042.379	2873.61
1045.659	2867.12
1048.939	2794.15
1052.219	2820.66
1055.498	2834.13
1058.778	2816.39
1062.057	2803
1065.335	2823.39
1068.614	2844.39
1071.892	2825.48
1075.17	2905.95
1078.447	2891.33
1081.724	2880.73
1085.001	2923
1088.278	2893.41
1091.554	2908.02
1094.83	2904.48
1098.106	2933.03
1101.382	2980.82
1104.657	2980.08
1107.932	2976.63
1111.206	2938.53
1114.481	2894.91
1117.755	2898.13
1121.029	2873.05
1124.302	2926.68
1127.575	2874.66
1130.848	2862.24
1134.121	2819.59
1137.393	2767.91
1140.665	2836.64
1143.937	2808.67
1147.208	2770.86
1150.48	2807.93
1153.75	2797.44
1157.021	2833.07
1160.291	2800.05
1163.561	2846.77
1166.831	2838.93
1170.101	2873.37
1173.37	2846.28
1176.639	2788.93
1179.907	2851.84
1183.176	2854.91
1186.444	2863.18
1189.711	2890.09
1192.979	2900.12
1196.246	2857.37
1199.513	2873.62
1202.78	2870.61
1206.046	2879.15
1209.312	2910.6
1212.578	2935.61
1215.843	2881.63
1219.108	2857.34
1222.373	2880.48
1225.638	2842.97
1228.902	2828.07
1232.166	2793.22
1235.43	2775.8
1238.693	2799.61
1241.956	2798.19
1245.219	2833.07
1248.482	2828.12
1251.744	2823.72
1255.006	2978.81
1258.268	2936.39
1261.529	2876.14
1264.79	2883.24
1268.051	2989.59
1271.312	3006.9
1274.572	2967.66
1277.832	2956.04
1281.092	2946.94
1284.351	2917.49
1287.61	2894.35
1290.869	2806.67
1294.128	2776.66
1297.386	2876.69
1300.644	2865.26
1303.902	2877.26
1307.159	2729.53
1310.416	2786.68
1313.673	2814.72
1316.93	2798.61
1320.186	2847.72
1323.442	2892.66
1326.697	2879.89
1329.953	2872.96
1333.208	2891.83
1336.463	2872.17
1339.717	2807.15
1342.972	2952.78
1346.226	2927.33
1349.479	2852.59
1352.733	2822.5
1355.986	2846.35
1359.238	2822.5
1362.491	2824.45
1365.743	2830.32
1368.995	2823.39
1372.247	2840.71
1375.498	2866.72
1378.749	2876.77
1382	2830.32
1385.251	2889.39
1388.501	2852.35
1391.751	2833.36
1395	2805.76
1398.25	2840.24
1401.499	2845.1
1404.748	2769.41
1407.996	2760.06
1411.244	2745.69
1414.492	2723.63
1417.74	2704.03
1420.987	2714.18
1424.234	2772.18
1427.481	2753.43
1430.728	2815.06
1433.974	2787.7
1437.22	2805.21
1440.465	2805.1
1443.711	2760.51
1446.956	2799.38
1450.201	2791.24
1453.445	2836.73
1456.689	2812.97
1459.933	2824.78
1463.177	2861.31
1466.42	2828.1
1469.663	2809.61
1472.906	2800.54
1476.148	2889.99
1479.391	2838.88
1482.633	2809.14
1485.874	2816.26
1489.115	2800.29
1492.356	2809.68
1495.597	2783.36
1498.838	2786.16
1502.078	2754.4
1505.318	2698.53
1508.557	2742.54
1511.797	2710.49
1515.036	2792.41
1518.274	2782.96
1521.513	2759.02
1524.751	2782.84
1527.989	2791.77
1531.227	2807.25
1534.464	2798.17
1537.701	2822
1540.938	2840.69
1544.174	2794.14
1547.41	2792.68
1550.646	2835.72
1553.882	2867.88
1557.117	2922.12
1560.352	2937.66
1563.587	2896.72
1566.821	2852.15
1570.055	2890.92
1573.289	2857.77
1576.523	2941.06
1579.756	2946.37
1582.989	2966.56
1586.222	2925.49
1589.454	2966.19
1592.686	2938.34
1595.918	2962.92
1599.15	2949.52
1602.381	3031.02
1605.612	2979.11
1608.843	3082.29
1612.073	2988.6
1615.303	2975.09
1618.533	2961.97
1621.762	2964.75
1624.992	2954.91
1628.221	2936.57
1631.449	2920.76
1634.678	2982.49
1637.906	2931.91
1641.134	2973.75
1644.361	2926.51
1647.588	2915.25
1650.815	2928.01
1654.042	2912.41
1657.269	2942.71
1660.495	2889.38
1663.72	2902.54
1666.946	2867.02
1670.171	2801.83
1673.396	2781.03
1676.621	2770.11
1679.845	2793.94
1683.069	2818.02
1686.293	2864.47
1689.517	2830.61
1692.74	2755.45
1695.963	2789.33
1699.185	2813.28
1702.408	2787.91
1705.63	2834.13
1708.852	2843.47
1712.073	2816.2
1715.294	2798.3
1718.515	2861.03
1721.736	2805.04
1724.956	2800.75
1728.176	2828.53
1731.396	2849.41
1734.616	2838.89
1737.835	2865.11
1741.054	2845.8
1744.272	2836.88
1747.491	2869.69
1750.709	2926.29
1753.927	2822.48
1757.144	2872.28
1760.361	2911.79
1763.578	2909.95
1766.795	2846.7
1770.011	2856.85
1773.227	2901.04
1776.443	2932.93
1779.658	2981.08
1782.874	2920.54
1786.089	2896.97
1789.303	2900.83
1792.518	2905.85
1795.732	2894.05
1798.945	2900.98
1802.159	2954.83
1805.372	2848.27
1808.585	2831.84
1811.797	2835.18
1815.01	2888.77
1818.222	2888.16
1821.434	2849.74
1824.645	2911.25
1827.856	2891.95
1831.067	2931.02
1834.278	2887.39
1837.488	2872.54
1840.698	3029.24
1843.908	2948.93
1847.117	2911
1850.326	2785.13
1853.535	2901.12
1856.744	2936.69
1859.952	2849.22
1863.16	2850.46
1866.368	2873.72
1869.575	2977.93
1872.782	2857.74
1875.989	2797.83
1879.196	2889.23
1882.402	2881.05
1885.608	2924.85
1888.814	2817.22
1892.019	2710.16
1895.224	2763.87
1898.429	2749.49
1901.634	2723.12
1904.838	2701.93
1908.042	2754.15
1911.246	2757.68
1914.449	2682.63
1917.652	2683.9
1920.855	2663.62
1924.058	2719.32
1927.26	2756.55
1930.462	2782.51
1933.664	2804
1936.865	2740.5
1940.066	2746.17
1943.267	2693.04
1946.467	2710.63
1949.668	2741.11
1952.868	2807.83
1956.067	2784.18
1959.267	2712.24
1962.466	2740.74
1965.665	2728.07
1968.863	2721.39
1972.061	2741.6
1975.259	2743.01
1978.457	2820.28
1981.654	2780.23
1984.852	2778.11
1988.048	2706.47
1991.245	2711.9
1994.441	2796.26
1997.637	2787.21
2000.833	2768.24
2004.028	2810.79
2007.223	2862.18
2010.418	2838.51
2013.613	2803.75
2016.807	2767.15
2020.001	2777.01
2023.194	2824.53
2026.388	2800.38
2029.581	2748.35
2032.774	2794.31
2035.966	2799.71
2039.158	2728.67
2042.35	2756.92
2045.542	2682.38
2048.733	2787.42
2051.924	2814.32
2055.115	2847.54
2058.306	2787.06
2061.496	2847.43
2064.686	2915.39
2067.875	2827.52
2071.065	2844.17
2074.254	2872.9
2077.442	2824.79
2080.631	2917.11
2083.819	2799.59
2087.007	2782.79
2090.195	2746.82
2093.382	2785.58
2096.569	2764.64
2099.756	2713.59
2102.942	2738.24
2106.128	2741.71
2109.314	2735.38
2112.5	2694.16
2115.685	2671.23
2118.87	2682.82
2122.055	2747.15
2125.239	2712.98
2128.424	2683.76
2131.608	2794.73
2134.791	2774.87
2137.974	2837.23
2141.157	2821.55
2144.34	2767.46
2147.523	2786.01
2150.705	2798.64
2153.887	2781.15
2157.068	2727.91
2160.25	2731.42
2163.431	2772.01
2166.611	2714.9
2169.792	2731.75
2172.972	2618.76
2176.152	2703.09
2179.331	2740.73
2182.511	2721.31
2185.69	2750.49
2188.868	2740.38
2192.047	2802.92
2195.225	2789.82
2198.403	2740.05
2201.58	2731.32
2204.758	2727.36
2207.935	2814.77
2211.111	2697.49
2214.288	2680.19
2217.464	2719.62
2220.64	2692.57
2223.815	2751.55
2226.991	2667.87
2230.166	2688.72
2233.34	2716.64
2236.515	2747.76
2239.689	2821.86
2242.863	2764.95
2246.036	2819.77
2249.209	2826.11
2252.382	2862.77
2255.555	2846.87
2258.727	2779.7
2261.9	2820.29
2265.071	2813.7
2268.243	2816.57
2271.414	2739.62
2274.585	2698.77
2277.756	2764.61
2280.926	2724.94
2284.096	2765.43
2287.266	2667.95
2290.436	2730.04
2293.605	2759.75
2296.774	2788.97
2299.942	2812.03
2303.111	2826.81
2306.279	2878.53
2309.447	2863.96
2312.614	2842.18
2315.781	2859.17
2318.948	2825.54
2322.115	2866.16
2325.281	2762.83
2328.447	2787.14
2331.613	2763.45
2334.779	2732.52
2337.944	2740.34
2341.109	2735.5
2344.274	2717.61
2347.438	2681.57
2350.602	2707.8
2353.766	2726.94
2356.929	2711.03
2360.092	2753.25
2363.255	2701.69
2366.418	2627.95
2369.58	2750.95
2372.742	2518.31
2375.904	2538.6
2379.066	2513.57
2382.227	2550.66
2385.388	2511.29
2388.548	2433.63
2391.709	2492.02
2394.869	2472.92
2398.029	2576.84
2401.188	2597.04
2404.347	2523.93
2407.506	2679.64
2410.665	2705.28
2413.823	2714.26
2416.981	2667.78
2420.139	2702.56
2423.296	2753.97
2426.453	2727.88
2429.61	2750.32
2432.767	2679.64
2435.923	2713.61
2439.079	2675.09
2442.235	2726.62
2445.391	2650.62
2448.546	2678.75
2451.701	2732.59
2454.855	2700.35
2458.009	2758.36
2461.163	2762.21
2464.317	2720.01
2467.471	2755.01
2470.624	2796.94
2473.777	2767.55
2476.929	2783.44
2480.082	2810.74
2483.234	2771.59
2486.385	2726.08
2489.537	2717.29
2492.688	2674.42
2495.839	2691.87
2498.989	2701.56
2502.14	2686.38
2505.29	2665.21
2508.439	2696.59
2511.589	2611.62
2514.738	2626.58
2517.887	2658.77
2521.035	2720.52
2524.183	2708.41
2527.331	2685.39
2530.479	2655.71
2533.627	2668.5
