Data from N_3_DEC_NC_4N_Splice17_13-07-06-443.txt Node
Date: Sat Mar 14 13:07:06 EDT 2020
User: sa697716
Spectrometer: FLMS03696
Trigger mode: 0
Integration Time (sec): 3.180400E-1
Scans to average: 20
Electric dark correction enabled: true
Nonlinearity correction enabled: true
Boxcar width: 5
XAxis mode: Wavelengths
Number of Pixels in Spectrum: 2048
>>>>>Begin Spectral Data<<<<<
187.83	-304335.69
188.298	2254.2
188.766	1219.17
189.233	1050.09
189.701	1511.21
190.169	2026.29
190.636	749.46
191.104	615.5
191.571	110.45
192.039	-44.51
192.506	-109.31
192.974	520.98
193.441	-775.8
193.908	-89.62
194.375	-55.54
194.842	25.77
195.31	140.46
195.777	155.17
196.244	349.8
196.711	409.73
197.177	518.89
197.644	701.17
198.111	1243.93
198.578	1762.33
199.045	1392.54
199.511	2257.83
199.978	2609.59
200.445	2182.32
200.911	2429.05
201.378	2708.23
201.844	2432.49
202.31	4173.25
202.777	4351.64
203.243	2425.92
203.709	2287.86
204.176	2724.69
204.642	2254.51
205.108	2116.61
205.574	1737.5
206.04	1579.8
206.506	1482.44
206.972	1420.2
207.438	1370.51
207.903	1561.86
208.369	1370.37
208.835	1361.33
209.301	1420.14
209.766	1448.49
210.232	1445.48
210.697	1789.34
211.163	2186.5
211.628	3281.29
212.094	2733.43
212.559	3353.94
213.024	2077.93
213.49	2507.38
213.955	2436.71
214.42	2375.06
214.885	2195.6
215.35	2076.76
215.815	2003.59
216.28	2142.36
216.745	1732.2
217.21	1865.27
217.675	1689.75
218.14	1897.67
218.604	2106.72
219.069	2386.19
219.534	2488.98
219.998	2866.85
220.463	3439.68
220.927	4136.41
221.392	3832.7
221.856	3862.96
222.32	4827.33
222.785	5923.59
223.249	7403.91
223.713	8210.81
224.177	8171.67
224.642	10393.57
225.106	12705.4
225.57	13833.65
226.034	10339.39
226.497	15683.66
226.961	14183.99
227.425	16512.89
227.889	18321.29
228.353	18310.28
228.816	37792.42
229.28	36129.95
229.744	30483.87
230.207	18597.95
230.671	18316.77
231.134	30204.35
231.597	34888.28
232.061	34728.33
232.524	33780.54
232.987	23243.57
233.45	20869.42
233.914	18675.76
234.377	19053.15
234.84	17390.76
235.303	20431.69
235.766	22750.11
236.229	23452.57
236.691	14745.79
237.154	16550.83
237.617	12451.04
238.08	12725.85
238.542	14894.79
239.005	10661.08
239.468	10579.67
239.93	9977.32
240.393	9066.17
240.855	7954.51
241.317	8137.9
241.78	9890.84
242.242	10227.99
242.704	11060.6
243.166	9641.89
243.629	8756.72
244.091	10077.61
244.553	11063.56
245.015	11889.49
245.477	15366.03
245.939	22511.77
246.4	23921.23
246.862	23237.99
247.324	21908.01
247.786	24478.45
248.247	32031.06
248.709	33015.87
249.17	24725.93
249.632	23354.93
250.093	27141.38
250.555	23443.55
251.016	14321.28
251.477	13571.1
251.939	14657.83
252.4	15366.01
252.861	18227.37
253.322	16959.72
253.783	20185.78
254.244	26150.03
254.705	20588.66
255.166	18281.67
255.627	18017.73
256.088	25406.39
256.549	27001.95
257.009	23248.43
257.47	28249.81
257.931	23035.52
258.391	17265.21
258.852	17830.57
259.312	18696.64
259.773	23126.98
260.233	19590.82
260.694	16555.9
261.154	18770.38
261.614	15109.52
262.074	13511.17
262.534	14048.16
262.994	13268.68
263.455	17670.44
263.915	14886.2
264.374	14039.91
264.834	15306.34
265.294	16957.55
265.754	17553.26
266.214	16609.73
266.673	15554.76
267.133	19629.26
267.593	19464
268.052	23802.8
268.512	20711.27
268.971	25027.15
269.431	27444.08
269.89	24595.26
270.349	36871.13
270.809	41168.48
271.268	37019.3
271.727	83030.3
272.186	53811.98
272.645	40412.43
273.104	29158.49
273.563	42292.21
274.022	33195.14
274.481	28265.7
274.94	21802.49
275.399	16206.23
275.857	18861.41
276.316	25531.98
276.775	22729.93
277.233	22404.74
277.692	20978.44
278.15	23774.85
278.609	24462.65
279.067	22610.59
279.525	21003.54
279.984	27126.76
280.442	32575.82
280.9	32152.38
281.358	21181.16
281.816	19740.62
282.274	19347.11
282.732	19984.01
283.19	20061.15
283.648	17313.11
284.106	18466.26
284.564	18796.53
285.021	17437.2
285.479	12995.96
285.937	11801.52
286.394	10364.35
286.852	10687.01
287.309	11239.84
287.767	10868.97
288.224	10352.08
288.682	11366.04
289.139	12502.32
289.596	11453.58
290.053	11904.2
290.511	15030.51
290.968	18266.33
291.425	24784.67
291.882	20653.56
292.339	17966.04
292.796	17836.38
293.252	16791.54
293.709	13365.91
294.166	11998.53
294.623	13242.57
295.079	12685.83
295.536	12755.76
295.992	11560.3
296.449	11425.78
296.905	11849.34
297.362	11387.12
297.818	11970.73
298.274	12440.04
298.731	12667.89
299.187	12516.54
299.643	13442.24
300.099	16296.28
300.555	17833.14
301.011	14911.57
301.467	14394.86
301.923	16809.99
302.379	16393.82
302.835	16106.84
303.291	16105
303.746	18308.01
304.202	23155.31
304.658	23210.18
305.113	15605.52
305.569	15370.71
306.024	16397.93
306.479	15613.85
306.935	13205.52
307.39	14403.09
307.845	13327.52
308.301	13437.66
308.756	13089.24
309.211	12603.62
309.666	12945.16
310.121	16106.47
310.576	16276.53
311.031	16130.37
311.486	18425.13
311.94	18401.38
312.395	24674.25
312.85	46301.54
313.305	227410
313.759	1179768.57
314.214	85625.77
314.668	67982.87
315.123	57062.82
315.577	20533.31
316.032	18322.17
316.486	23026.37
316.94	18198.4
317.394	12652.93
317.849	9829.92
318.303	9290.13
318.757	8769.04
319.211	9673.25
319.665	8464.97
320.119	8592.2
320.572	12313.6
321.026	11485.35
321.48	9552.71
321.934	10406.66
322.387	10446.21
322.841	11299.47
323.295	10194.1
323.748	11728.03
324.202	11918.28
324.655	14332.52
325.108	20032.61
325.562	14140.58
326.015	16817.47
326.468	12723.16
326.921	14260.54
327.374	13306.54
327.827	13882.37
328.28	15729.43
328.733	10549.53
329.186	9281.46
329.639	8841.9
330.092	7446.5
330.545	7114.24
330.997	7185.15
331.45	7853.69
331.903	9196.26
332.355	15791.76
332.808	15322.85
333.26	12607.12
333.713	13719.95
334.165	13822.16
334.617	18425.99
335.069	14866.71
335.522	26867.64
335.974	29800.11
336.426	27265.49
336.878	18888.69
337.33	9605.62
337.782	9374.98
338.234	11795.96
338.686	14067.13
339.137	16654.69
339.589	15690.6
340.041	12309.32
340.493	10578.67
340.944	10819.43
341.396	11665.63
341.847	9828.18
342.299	11618.05
342.75	14219.35
343.201	12395.27
343.653	14266.81
344.104	17585.14
344.555	13845.35
345.006	21541.46
345.457	16533.16
345.908	13130.15
346.359	12382.87
346.81	10095.05
347.261	10610.74
347.712	10438.29
348.163	11179.95
348.613	11349.02
349.064	10584.23
349.515	9258.29
349.965	9504.2
350.416	11445.56
350.866	12570.1
351.317	14159.39
351.767	23407.9
352.217	29630.22
352.668	24620.82
353.118	22554.75
353.568	21688.54
354.018	17160.1
354.468	18105.14
354.918	12989.01
355.368	11380.3
355.818	16065.38
356.268	46301.23
356.718	194167.44
357.168	48368.37
357.617	24250.32
358.067	26985.14
358.517	25396.71
358.966	29873.97
359.416	33682.13
359.865	36450.31
360.315	43245.78
360.764	20292.27
361.213	11369.81
361.663	10758.7
362.112	13280.19
362.561	21505.94
363.01	16232.35
363.459	13622.65
363.908	14725.6
364.357	12493.31
364.806	21061.09
365.255	14494.01
365.703	13251.76
366.152	13283.43
366.601	10761.75
367.05	8738.65
367.498	7925.05
367.947	8268.24
368.395	8630.32
368.844	7643.15
369.292	9186.96
369.74	6364.59
370.189	9742.57
370.637	11470.98
371.085	9889.73
371.533	12061.31
371.981	11620.26
372.429	11114.43
372.877	11601.9
373.325	9691.86
373.773	9863.85
374.221	8801.08
374.669	10927.82
375.116	9454.79
375.564	9517.13
376.012	10652.51
376.459	8795.88
376.907	10529.05
377.354	12696.32
377.801	11865.15
378.249	13695.08
378.696	17524.14
379.143	21279.95
379.591	22715.26
380.038	38554.19
380.485	27898.84
380.932	30129.83
381.379	27632.01
381.826	20397.55
382.273	14520.34
382.72	12706.46
383.166	12379.72
383.613	8059.17
384.06	7257.01
384.506	8376.25
384.953	6133.7
385.4	6144.42
385.846	5390.2
386.292	5246.21
386.739	5134.35
387.185	5075.38
387.631	5080.05
388.078	4946.38
388.524	5279.42
388.97	4895.01
389.416	4102.74
389.862	4384.83
390.308	4182.55
390.754	4260.37
391.2	4630.48
391.645	4733.08
392.091	4550.02
392.537	4416.3
392.983	4432.15
393.428	4387.51
393.874	4711.06
394.319	4757.33
394.765	4523.53
395.21	4641.33
395.655	4355.56
396.101	4091.29
396.546	3709.34
396.991	3741.12
397.436	3482.03
397.881	3358.51
398.326	3181.67
398.771	3013.34
399.216	2630.19
399.661	2367.22
400.106	2372.34
400.551	2440.11
400.995	2191.36
401.44	2167.15
401.885	2044.54
402.329	2062.59
402.774	1984.46
403.218	1925.86
403.663	1851.21
404.107	1901.49
404.551	1919.66
404.995	1759.88
405.44	1692.64
405.884	1717.6
406.328	1662.57
406.772	1655.93
407.216	1507.89
407.66	1453.55
408.104	1374.15
408.547	1289.71
408.991	1249.44
409.435	1200.77
409.879	1183.83
410.322	1166.82
410.766	1124.76
411.209	1069.3
411.653	1025.72
412.096	1005.74
412.54	1005.13
412.983	1001.77
413.426	1005.86
413.869	1002.7
414.312	984.1
414.756	948.11
415.199	903.63
415.642	882.8
416.085	883.87
416.527	875.89
416.97	890.1
417.413	846.14
417.856	836.06
418.298	826.3
418.741	821.46
419.184	820.14
419.626	851.56
420.069	851.64
420.511	855.06
420.953	839.52
421.396	833.93
421.838	813.04
422.28	830.66
422.722	833.13
423.164	841.71
423.606	826.01
424.048	824.1
424.49	784.71
424.932	780.25
425.374	765.43
425.816	774.73
426.258	786.97
426.699	791.52
427.141	778.81
427.582	791.04
428.024	786.59
428.465	779.16
428.907	758.74
429.348	747.36
429.789	747.65
430.231	733
430.672	744.28
431.113	726.22
431.554	715.14
431.995	695.57
432.436	670.78
432.877	655.08
433.318	646.94
433.759	641.02
434.2	641.15
434.64	631.7
435.081	634.17
435.522	598.2
435.962	575.63
436.403	565.11
436.843	572.88
437.284	560.44
437.724	546.07
438.164	544.17
438.604	532.22
439.045	511.88
439.485	494.13
439.925	482.08
440.365	471.59
440.805	464.95
441.245	458.04
441.685	439.6
442.125	432.43
442.564	432.54
443.004	423.23
443.444	423.69
443.883	424.6
444.323	418.08
444.762	417.39
445.202	420.55
445.641	431.28
446.081	428.02
446.52	432.39
446.959	430.68
447.398	422.9
447.837	417.6
448.276	408.63
448.716	411.19
449.154	413.98
449.593	404.89
450.032	405.03
450.471	392.78
450.91	390.78
451.349	389.36
451.787	386.07
452.226	390.75
452.664	391.22
453.103	390.8
453.541	390.25
453.98	391.75
454.418	393.04
454.856	385.82
455.295	385.05
455.733	390
456.171	392.41
456.609	391.35
457.047	389.77
457.485	396
457.923	398.24
458.361	391.1
458.798	390.19
459.236	389.36
459.674	390.79
460.111	393.13
460.549	387.25
460.987	384.65
461.424	384.79
461.862	382.99
462.299	376.11
462.736	375.47
463.173	376.65
463.611	375.2
464.048	374.28
464.485	377.67
464.922	373.52
465.359	372
465.796	374.67
466.233	372.17
466.67	370.73
467.106	370.92
467.543	366.3
467.98	361.59
468.416	350.59
468.853	346.67
469.29	335.83
469.726	332.03
470.162	322.49
470.599	312.03
471.035	308.73
471.471	300.31
471.907	296.92
472.344	295.05
472.78	296.26
473.216	299.68
473.652	296.86
474.088	295.94
474.523	296.34
474.959	299.4
475.395	296.51
475.831	295.22
476.266	296.66
476.702	295.89
477.138	292.82
477.573	292.16
478.008	290.85
478.444	291.83
478.879	296.19
479.314	296.93
479.75	297.03
480.185	298.14
480.62	300.2
481.055	301.27
481.49	303.31
481.925	307.61
482.36	313.95
482.795	322.74
483.229	331.73
483.664	337.52
484.099	338.8
484.534	344.84
484.968	348.24
485.403	348.71
485.837	348.06
486.271	347.4
486.706	347.48
487.14	342.76
487.574	336.99
488.009	333.03
488.443	330.26
488.877	334.54
489.311	334.63
489.745	339.14
490.179	343.08
490.613	351.18
491.046	353.61
491.48	356.65
491.914	357.08
492.348	359.99
492.781	363.47
493.215	364.97
493.648	365.27
494.082	369.03
494.515	370.69
494.948	375.99
495.382	378.17
495.815	381.99
496.248	386.11
496.681	393.56
497.114	400.74
497.547	408.28
497.98	418
498.413	424.14
498.846	432.05
499.279	438.25
499.711	441.79
500.144	445.22
500.577	454.33
501.009	463.27
501.442	472.35
501.874	476.62
502.306	479.27
502.739	486.62
503.171	496.95
503.603	501.18
504.036	508.99
504.468	515.92
504.9	525.38
505.332	531.08
505.764	536.63
506.196	543.79
506.627	555.67
507.059	566.99
507.491	574.35
507.923	576.56
508.354	590.12
508.786	600.42
509.217	614.95
509.649	628.02
510.08	644.23
510.512	659.02
510.943	672.65
511.374	684.18
511.805	702.12
512.237	718.04
512.668	743.08
513.099	764.03
513.53	786.12
513.961	804.06
514.391	829.66
514.822	857.3
515.253	884.56
515.684	905.86
516.114	929.61
516.545	947.67
516.975	970.26
517.406	986.76
517.836	991.9
518.267	1001.38
518.697	1017.48
519.127	1024.32
519.558	1031.78
519.988	1038.05
520.418	1048.67
520.848	1064.95
521.278	1074.36
521.708	1107.13
522.138	1119.85
522.567	1145.69
522.997	1166.26
523.427	1180.94
523.857	1197.14
524.286	1208.61
524.716	1223.47
525.145	1240.63
525.575	1251.23
526.004	1264.92
526.433	1247.06
526.863	1249.25
527.292	1245.47
527.721	1252.46
528.15	1259.15
528.579	1260.54
529.008	1270.55
529.437	1289.19
529.866	1300.79
530.295	1315.43
530.724	1326.75
531.152	1348.5
531.581	1361.78
532.01	1375.63
532.438	1383.64
532.867	1396.27
533.295	1411.27
533.723	1416.57
534.152	1415.33
534.58	1416.52
535.008	1405.01
535.436	1406.73
535.865	1413.64
536.293	1425.14
536.721	1437.33
537.149	1456.44
537.576	1458.53
538.004	1469.5
538.432	1475.46
538.86	1474.59
539.287	1479.56
539.715	1491.11
540.143	1493.81
540.57	1489.86
540.998	1486.5
541.425	1469.69
541.852	1454.18
542.28	1452.71
542.707	1439.34
543.134	1429.51
543.561	1426.67
543.988	1421.38
544.415	1420.11
544.842	1415.69
545.269	1411.19
545.696	1413.38
546.123	1423.3
546.549	1415.17
546.976	1405.93
547.403	1406.58
547.829	1407.06
548.256	1408.47
548.682	1406.11
549.108	1400.81
549.535	1400.77
549.961	1403.38
550.387	1393.48
550.813	1390.96
551.24	1396.31
551.666	1396.99
552.092	1390.2
552.518	1386.18
552.943	1382
553.369	1388.14
553.795	1392.47
554.221	1393.18
554.646	1390.33
555.072	1398.27
555.498	1399.87
555.923	1406.39
556.349	1418.19
556.774	1424.25
557.199	1423.99
557.625	1427.92
558.05	1422.31
558.475	1430.34
558.9	1429.28
559.325	1421.63
559.75	1416.08
560.175	1410.14
560.6	1403.58
561.025	1400.43
561.449	1400.74
561.874	1404.23
562.299	1407.18
562.723	1410.72
563.148	1400.64
563.572	1401.71
563.997	1408.45
564.421	1409.96
564.846	1409.1
565.27	1410.75
565.694	1406.52
566.118	1411.81
566.542	1416.22
566.966	1407.62
567.39	1402.56
567.814	1391.83
568.238	1388.92
568.662	1390.27
569.086	1391.31
569.509	1394.65
569.933	1380.03
570.357	1371.91
570.78	1354.43
571.204	1342.09
571.627	1332.01
572.05	1328.51
572.474	1327.89
572.897	1316.81
573.32	1309.05
573.743	1298.19
574.166	1281.99
574.589	1280.58
575.012	1273.77
575.435	1271.05
575.858	1262.39
576.281	1252.66
576.704	1238.78
577.126	1226
577.549	1215.52
577.972	1206.66
578.394	1197
578.817	1191.05
579.239	1176.19
579.661	1164.03
580.084	1151.89
580.506	1139.91
580.928	1135.87
581.35	1126.67
581.772	1123.34
582.194	1113.6
582.616	1103.21
583.038	1092.15
583.46	1084.32
583.882	1081.04
584.303	1084.59
584.725	1079.11
585.147	1082.3
585.568	1089.62
585.99	1097.14
586.411	1100.84
586.833	1111.03
587.254	1110.41
587.675	1119.3
588.096	1126.16
588.518	1121.66
588.939	1107.65
589.36	1106.55
589.781	1095.64
590.202	1075.99
590.623	1069.3
591.043	1066.98
591.464	1056.86
591.885	1053.66
592.305	1049.8
592.726	1039.38
593.147	1039.4
593.567	1035.96
593.987	1029.15
594.408	1024.84
594.828	1022.21
595.248	1017.71
595.669	1004.21
596.089	998.72
596.509	993.06
596.929	983.62
597.349	983.86
597.769	976.18
598.189	971.7
598.608	971.95
599.028	973.51
599.448	972.41
599.867	963.01
600.287	958.88
600.706	954.78
601.126	948.28
601.545	946.17
601.965	943.51
602.384	938.65
602.803	938.81
603.222	935.29
603.641	930.04
604.061	926.38
604.48	922.2
604.898	927.21
605.317	929.57
605.736	930.4
606.155	928.59
606.574	922.18
606.992	925.19
607.411	921.52
607.829	914.76
608.248	910.52
608.666	908
609.085	907.16
609.503	899.76
609.921	895.01
610.339	894.48
610.758	891.64
611.176	887.7
611.594	880.53
612.012	876.49
612.43	877.35
612.847	880.46
613.265	880.83
613.683	883.13
614.101	883.26
614.518	878.74
614.936	871.22
615.353	860.78
615.771	857.87
616.188	857.32
616.606	854.39
617.023	849.46
617.44	839.7
617.857	833.39
618.274	825.66
618.691	820.75
619.108	814.49
619.525	810.15
619.942	813.31
620.359	813.39
620.776	808.61
621.192	804.86
621.609	801.91
622.026	805.44
622.442	808.74
622.859	810.44
623.275	805.59
623.691	809
624.108	815.95
624.524	824.88
624.94	824.66
625.356	830.42
625.772	838.97
626.188	846.29
626.604	847.49
627.02	844.15
627.436	843.3
627.852	847.7
628.268	854.6
628.683	847.62
629.099	842.19
629.514	838.38
629.93	840.03
630.345	841.81
630.761	838.44
631.176	839.7
631.591	835.63
632.007	830.18
632.422	826.69
632.837	818.46
633.252	816.48
633.667	808.05
634.082	800.74
634.497	792.29
634.911	779.12
635.326	774.87
635.741	762.87
636.155	754.14
636.57	754.08
636.984	752.34
637.399	752.19
637.813	749.08
638.228	745.99
638.642	746.97
639.056	737.63
639.47	734.94
639.884	728.12
640.298	720.72
640.712	718.11
641.126	707.73
641.54	699.18
641.954	691.03
642.368	681.66
642.781	676.48
643.195	663.33
643.609	661.92
644.022	656.47
644.436	650.7
644.849	641.63
645.262	632.01
645.676	629.7
646.089	625.14
646.502	616.22
646.915	610.34
647.328	597.32
647.741	594.58
648.154	585.39
648.567	583.76
648.98	575.63
649.393	574.4
649.805	571.78
650.218	567
650.631	558.15
651.043	554.46
651.456	551.56
651.868	550.93
652.28	560.16
652.693	566.84
653.105	567.87
653.517	572.67
653.929	573.11
654.341	574.67
654.753	567.37
655.165	568.96
655.577	566.36
655.989	562.46
656.401	556.93
656.813	536.6
657.224	523.56
657.636	506.09
658.047	496.28
658.459	484.23
658.87	477.69
659.282	470.34
659.693	459.36
660.104	450.36
660.515	441.15
660.926	438.07
661.338	434.73
661.749	431.29
662.159	427.1
662.57	422.63
662.981	419.85
663.392	415.37
663.803	415.61
664.213	413.49
664.624	409.22
665.035	410.43
665.445	403.41
665.855	399.66
666.266	395.5
666.676	393.32
667.086	388.96
667.497	387.63
667.907	385.04
668.317	381.09
668.727	381.73
669.137	382.34
669.547	380.86
669.956	381.99
670.366	382.84
670.776	383.74
671.186	386.04
671.595	388.34
672.005	389.64
672.414	390.41
672.824	390.41
673.233	390.78
673.642	392.9
674.052	397.05
674.461	400.9
674.87	403.9
675.279	404.44
675.688	405.61
676.097	407.73
676.506	408.53
676.915	417.07
677.323	420.75
677.732	421.2
678.141	423.14
678.549	417.83
678.958	417.66
679.366	418.32
679.775	421.84
680.183	431.4
680.592	436.05
681	440.38
681.408	438.28
681.816	442.89
682.224	448.3
682.632	456.19
683.04	474.57
683.448	488.57
683.856	507.87
684.264	529.94
684.671	547.66
685.079	571.94
685.487	599.14
685.894	636.23
686.302	667.83
686.709	696.3
687.116	726.32
687.524	753.32
687.931	780.42
688.338	802.97
688.745	821.35
689.152	844.5
689.559	875.34
689.966	907.96
690.373	925.53
690.78	956.66
691.187	1001.23
691.593	1037.64
692	1071.3
692.407	1116.19
692.813	1173.32
693.22	1219.45
693.626	1267.12
694.032	1308.14
694.439	1365.81
694.845	1415.02
695.251	1474.58
695.657	1529.24
696.063	1606.54
696.469	1666.91
696.875	1725.56
697.281	1760.76
697.687	1806.2
698.093	1845.21
698.498	1909.83
698.904	1962.57
699.31	2037.27
699.715	2094.44
700.12	2172.32
700.526	2198.06
700.931	2258.73
701.337	2309.76
701.742	2346.32
702.147	2421.09
702.552	2453.95
702.957	2510.08
703.362	2533.89
703.767	2564.21
704.172	2604.43
704.577	2576.96
704.981	2621.1
705.386	2643.65
705.791	2644.16
706.195	2710.77
706.6	2727.13
707.004	2798.52
707.408	2780.19
707.813	2810.58
708.217	2808.65
708.621	2816.96
709.025	2903.32
709.43	2911.36
709.834	2967.49
710.237	3031.45
710.641	3026.48
711.045	3048
711.449	3050.47
711.853	3082.11
712.256	3121.94
712.66	3158.79
713.064	3225.56
713.467	3263.64
713.87	3362.21
714.274	3408.15
714.677	3505.09
715.08	3644.78
715.484	3789.21
715.887	3964.21
716.29	4132.62
716.693	4311.07
717.096	4516.28
717.499	4632.8
717.901	4659.89
718.304	4688.75
718.707	4710.81
719.109	4630.61
719.512	4607.55
719.915	4502.57
720.317	4459.94
720.719	4501.07
721.122	4480.68
721.524	4442.68
721.926	4411.63
722.328	4500.07
722.731	4493.33
723.133	4523.14
723.535	4688.59
723.937	4710.42
724.338	4756.54
724.74	4794.41
725.142	4758.6
725.544	4762.57
725.945	4793.96
726.347	4794.09
726.748	4791.98
727.15	4810.49
727.551	4779.63
727.952	4758.65
728.354	4736.83
728.755	4740.14
729.156	4706.75
729.557	4686.09
729.958	4583.83
730.359	4534.45
730.76	4521.05
731.161	4473.38
731.562	4450.93
731.962	4457.92
732.363	4403.93
732.763	4351.42
733.164	4383.55
733.564	4326.45
733.965	4246.8
734.365	4217.48
734.766	4242.26
735.166	4208.91
735.566	4158.86
735.966	4138.95
736.366	4132.91
736.766	4083.28
737.166	4110.96
737.566	4075.49
737.966	4054.4
738.365	4087.54
738.765	4083.23
739.165	4020.61
739.564	3998.16
739.964	4040.15
740.363	4000.47
740.763	3998.27
741.162	3990.28
741.561	3962.13
741.96	3924.77
742.36	3942.31
742.759	3948.71
743.158	3981.64
743.557	3995.6
743.955	4032.27
744.354	3992.64
744.753	4044.06
745.152	4009.24
745.55	4053.8
745.949	4049.35
746.348	4049.37
746.746	4064.35
747.144	4030.22
747.543	4011.79
747.941	4054.58
748.339	3993.91
748.737	3990.21
749.136	3982.32
749.534	4040.64
749.932	4017.72
750.33	4038.67
750.727	4087.75
751.125	4066.54
751.523	4053.96
751.921	4092.35
752.318	4061.19
752.716	4114.2
753.113	4125.37
753.511	4147.65
753.908	4146.11
754.305	4132.59
754.703	4184.95
755.1	4237.54
755.497	4288.29
755.894	4450.34
756.291	4602.97
756.688	4886.05
757.085	5256.56
757.482	5782.27
757.878	6358.27
758.275	6880.35
758.672	7594.93
759.068	8177.56
759.465	9007.47
759.861	10082.25
760.258	11330.21
760.654	11968.34
761.05	11870.95
761.447	11329.92
761.843	10547.64
762.239	9737.08
762.635	9370.87
763.031	9023.89
763.427	8519.55
763.822	7985.62
764.218	7457.94
764.614	6771.9
765.01	6319.69
765.405	6025.9
765.801	5804.39
766.196	5520.38
766.592	5361.09
766.987	5090.2
767.382	4904.59
767.778	4828.08
768.173	4718.27
768.568	4658.47
768.963	4553.55
769.358	4566.18
769.753	4525.26
770.148	4453.76
770.542	4452.98
770.937	4426.29
771.332	4504.1
771.726	4523.07
772.121	4473.17
772.515	4520.82
772.91	4506.35
773.304	4567.01
773.699	4511.68
774.093	4559.71
774.487	4607.58
774.881	4643.44
775.275	4638.45
775.669	4602.82
776.063	4637.9
776.457	4667.8
776.851	4602.57
777.245	4597.78
777.638	4627.76
778.032	4727.44
778.425	4694.18
778.819	4730.33
779.212	4694.43
779.606	4661.62
779.999	4677.6
780.392	4662.37
780.786	4728.42
781.179	4747.82
781.572	4784.57
781.965	4797.68
782.358	4746.97
782.751	4795.7
783.143	4756.52
783.536	4820.87
783.929	4857.58
784.322	4956.29
784.714	4986.87
785.107	4984.94
785.499	5046.2
785.891	5028.43
786.284	5009.93
786.676	5133.81
787.068	5117.98
787.46	5158.33
787.852	5174.05
788.245	5246.94
788.636	5271.64
789.028	5327.7
789.42	5362.85
789.812	5371.26
790.204	5455.08
790.595	5540.4
790.987	5372.81
791.378	5392.63
791.77	5504.86
792.161	5623.19
792.553	5669.37
792.944	5576.55
793.335	5519.5
793.726	5581.73
794.117	5660.72
794.508	5776.27
794.899	5749.09
795.29	5868.33
795.681	5917.41
796.072	5800.05
796.463	5644.35
796.853	5658.36
797.244	5795.44
797.634	5825.51
798.025	5824.88
798.415	5831.82
798.806	5908.74
799.196	5980.15
799.586	6023.44
799.976	5992.27
800.366	6189.11
800.756	6389.32
801.146	6352.04
801.536	6379.32
801.926	6441.3
802.316	6464.97
802.706	6526.73
803.095	6421.41
803.485	6512.7
803.874	6548.28
804.264	6773.51
804.653	6749.15
805.043	6876.01
805.432	6974.18
805.821	6971.16
806.21	6992.4
806.599	7091.7
806.988	7135.31
807.377	7224.28
807.766	7338.91
808.155	7586.2
808.544	7357.2
808.933	7376.13
809.321	7359.77
809.71	7606.83
810.098	7747.06
810.487	8142.18
810.875	8555.9
811.264	8569.98
811.652	8822.76
812.04	8941.54
812.428	9083.25
812.816	9738.75
813.204	10089.19
813.592	10565.8
813.98	10860.5
814.368	10776.43
814.756	11186.25
815.144	11116.55
815.531	11523.01
815.919	11458.07
816.306	11723.48
816.694	11459.25
817.081	11508.6
817.469	11801.4
817.856	11794.38
818.243	12022.7
818.63	12362.35
819.017	11994.69
819.404	12047.3
819.791	12372.86
820.178	12904.54
820.565	13115.87
820.952	13910.02
821.339	13484.26
821.725	13650.67
822.112	13017.71
822.498	12983.55
822.885	13096.38
823.271	13021.47
823.657	13384.09
824.044	13390.7
824.43	13456.6
824.816	13434.05
825.202	13058.92
825.588	13933.51
825.974	13946.42
826.36	14388.25
826.746	14416.06
827.132	14721.58
827.517	14707.76
827.903	14034.99
828.289	14066.91
828.674	13404.67
829.06	13313.56
829.445	13652.44
829.83	13956.06
830.216	14364.27
830.601	14673.43
830.986	14333.8
831.371	14218.43
831.756	14688.87
832.141	14319.46
832.526	14310.94
832.911	14536.69
833.295	14436.46
833.68	14834.28
834.065	14311.75
834.449	13529.68
834.834	13469.32
835.218	13459.21
835.603	13747.07
835.987	13567.5
836.371	14276.23
836.755	14189.33
837.139	14535.7
837.524	14742.9
837.908	14598.9
838.291	14634.51
838.675	14686.45
839.059	14857.63
839.443	14836.8
839.827	14633.93
840.21	15038.65
840.594	14911.97
840.977	15081.43
841.361	15065.17
841.744	15383.9
842.127	15239.37
842.511	15452.46
842.894	15956.41
843.277	16277.63
843.66	16750.42
844.043	16826.62
844.426	16136.43
844.809	15867.78
845.191	15891.73
845.574	15491.77
845.957	15178.89
846.339	15092.95
846.722	14646.93
847.104	14701
847.487	14551
847.869	14555
848.252	14784.65
848.634	15067.46
849.016	15293.73
849.398	15404.2
849.78	16122.5
850.162	16123.75
850.544	16464.83
850.926	16990.33
851.307	16918.71
851.689	17160.03
852.071	17537.87
852.452	17812.44
852.834	17783.09
853.215	18117.77
853.597	18242.12
853.978	18504.42
854.359	18886.08
854.741	18049.79
855.122	17971.25
855.503	17729.57
855.884	17851.83
856.265	17809.38
856.646	17909.78
857.026	17587.31
857.407	17534.97
857.788	17669.21
858.169	17911.93
858.549	17198.79
858.93	17726.61
859.31	17765.07
859.69	17943.1
860.071	17583.01
860.451	17395.66
860.831	16768.17
861.211	17757.04
861.591	18218.85
861.971	18199.63
862.351	18360.38
862.731	18686.23
863.111	18913.7
863.491	19197.03
863.87	19938.63
864.25	20249.62
864.629	19914.27
865.009	20349.63
865.388	21067.22
865.768	22580.82
866.147	22491.75
866.526	21249.95
866.905	21508.02
867.284	22718.37
867.663	21577.65
868.042	20680.98
868.421	20608.9
868.8	20952.56
869.179	21169.76
869.558	19939.3
869.936	18374.21
870.315	18700.95
870.693	19159.85
871.072	20658.05
871.45	19674.77
871.828	19931.28
872.207	20955.95
872.585	20645.09
872.963	21197.76
873.341	20461.65
873.719	20218.4
874.097	19980.46
874.475	20371.79
874.853	20830.02
875.23	19957.21
875.608	20804.91
875.986	22493.52
876.363	21511.56
876.741	22171.65
877.118	21623.17
877.495	22674.07
877.873	23064.48
878.25	24270.41
878.627	23267.87
879.004	23595.23
879.381	23488.89
879.758	22863
880.135	21286.31
880.512	22517.84
880.889	21897.43
881.265	21673.74
881.642	21503.3
882.019	21860.61
882.395	21414.38
882.772	22267.44
883.148	21301.5
883.524	21209.16
883.901	21083.58
884.277	21402.47
884.653	21257.05
885.029	21879.53
885.405	24218.37
885.781	24028.33
886.157	23029.28
886.532	23304.52
886.908	23293.25
887.284	25895.6
887.659	26748.59
888.035	27579.6
888.411	28288.52
888.786	28679.47
889.161	29670.09
889.537	29125.92
889.912	30038.96
890.287	30014.53
890.662	30790.01
891.037	30228.28
891.412	28177.21
891.787	27892.52
892.162	26909.36
892.536	27528.94
892.911	26476.09
893.286	25905.75
893.66	24837.96
894.035	25472.78
894.409	27717.32
894.784	26587.23
895.158	27022.3
895.532	28632.57
895.906	29401.28
896.281	30095.56
896.655	29600.83
897.029	33813.15
897.402	35213.96
897.776	39218.57
898.15	39074.84
898.524	38669.93
898.898	39179.54
899.271	43847.91
899.645	37974.3
900.018	36480.71
900.392	37821.34
900.765	38149.01
901.138	35283.67
901.511	34749.93
901.884	31916.57
902.258	29446.93
902.631	30427.67
903.003	35017.91
903.376	31602.93
903.749	35428.26
904.122	37919.51
904.495	41749.81
904.867	42257.82
905.24	36706.19
905.612	34174.67
905.985	34933.85
906.357	36534.38
906.729	34877.52
907.102	29796.02
907.474	28663.26
907.846	28852.95
908.218	28473.07
908.59	25165.63
908.962	24352.55
909.334	26238.56
909.705	27568.07
910.077	26780.57
910.449	27868.18
910.82	28646.33
911.192	31533.01
911.563	32762.16
911.935	35047.48
912.306	35088.05
912.677	36230.47
913.048	35858.72
913.419	38904.64
913.79	39128.54
914.161	41933.04
914.532	40098.32
914.903	36832.35
915.274	34984.09
915.645	34473.92
916.015	30353.84
916.386	28951.58
916.756	30823.99
917.127	31801.35
917.497	28417.18
917.868	30924.99
918.238	29412.27
918.608	30251.84
918.978	30904.92
919.348	32738.15
919.718	33838.16
920.088	32616.93
920.458	33907.68
920.828	35697.83
921.198	33860.4
921.567	36180.65
921.937	28040.97
922.306	28316.94
922.676	30557.48
923.045	25496.92
923.415	24227.2
923.784	22060.6
924.153	22674.83
924.522	22657.72
924.891	21283.57
925.26	22806.93
925.629	22265.57
925.998	25597.41
926.367	24989.94
926.736	23787.88
927.104	28341.06
927.473	30456.27
927.842	36789.37
928.21	36433.92
928.578	38271.79
928.947	36212.13
929.315	36418.84
929.683	42744.17
930.051	43070.02
930.42	49985.32
930.788	42770.6
931.156	42412.18
931.523	39783.2
931.891	36767.6
932.259	35333.96
932.627	40944.81
932.994	57919.75
933.362	47822.66
933.729	41470.7
934.097	39668.84
934.464	33558.64
934.831	38676.28
935.199	38136.95
935.566	36972.93
935.933	37432.14
936.3	45308.11
936.667	35283.76
937.034	31880.88
937.401	31542.72
937.767	27254.02
938.134	24268.6
938.501	34253.95
938.867	36526.09
939.234	61749.72
939.6	52704.1
939.967	58115.44
940.333	38898.75
940.699	33137.16
941.065	26561.34
941.431	34846.22
941.798	33596.36
942.163	44139.83
942.529	27598.63
942.895	25396.01
943.261	16435.99
943.627	21541.19
943.992	18866.21
944.358	18928.64
944.723	19019.63
945.089	18541.27
945.454	17133.73
945.82	18287.96
946.185	17584.95
946.55	20371.68
946.915	18300.21
947.28	21487.5
947.645	18938.38
948.01	17494.6
948.375	18230.7
948.74	21852.44
949.104	25508.39
949.469	36857.5
949.834	65119.46
950.198	61746.81
950.562	36981.78
950.927	30779.45
951.291	37001.13
951.655	31543.62
952.02	29630.94
952.384	22388.49
952.748	19484.16
953.112	19000.6
953.476	16529.49
953.839	15280.49
954.203	15120.56
954.567	18895.64
954.931	29753.47
955.294	25479.23
955.658	25628.57
956.021	43574.55
956.385	73941.96
956.748	109070.24
957.111	168917.07
957.474	189608.35
957.837	213463.35
958.2	161529.73
958.563	58162.93
958.926	39330.02
959.289	59590.94
959.652	66487.21
960.015	49821.02
960.377	71493.83
960.74	81569.4
961.102	140884.92
961.465	151241.52
961.827	81102.39
962.189	155665.82
962.552	107956.99
962.914	86599.77
963.276	56272.71
963.638	46551.81
964	46113.67
964.362	31161.16
964.724	30131.67
965.085	21483
965.447	17605.77
965.809	20071.15
966.17	20086.18
966.532	21708.69
966.893	19917.36
967.255	18116.66
967.616	21377.28
967.977	17143.04
968.338	18731.88
968.699	15383.57
969.061	15380.87
969.421	15472.84
969.782	17367
970.143	14683.32
970.504	15234
970.865	17306.19
971.225	17670.69
971.586	17288.63
971.946	24627.36
972.307	21355.04
972.667	27919.89
973.027	28785.01
973.388	34939.05
973.748	23759.41
974.108	25858.14
974.468	34948.03
974.828	26973.38
975.188	20758.1
975.548	19059.88
975.907	16000.63
976.267	17948.3
976.627	15108.37
976.986	15648.39
977.346	14916.34
977.705	14342.78
978.064	13068.13
978.424	10875.62
978.783	11238.89
979.142	12828.49
979.501	12278.53
979.86	12983.91
980.219	12512.34
980.578	16085.55
980.937	18009.64
981.296	16042.46
981.654	16491.08
982.013	25670.65
982.371	33321.5
982.73	31104.65
983.088	35264.63
983.447	37705
983.805	53869.98
984.163	112625.42
984.521	124996
984.879	183261.94
985.237	-298244.57
985.595	287763.83
985.953	71497.61
986.311	41199.32
986.669	23938.86
987.026	20637.96
987.384	27730.66
987.741	28657.58
988.099	20497.5
988.456	16368.28
988.814	15335.75
989.171	13340.61
989.528	13171.8
989.885	13895.15
990.242	11023.17
990.599	13730.93
990.956	11231.39
991.313	7848.96
991.67	6448.34
992.027	6840.22
992.383	6079.54
992.74	5331.42
993.096	5596.15
993.453	5792.16
993.809	6005.74
994.165	7997.99
994.522	7330.18
994.878	8093.5
995.234	10173.85
995.59	10029.27
995.946	9481.37
996.302	10808.84
996.658	12510.12
997.013	13789.72
997.369	16360.1
997.725	20939.87
998.08	13576.73
998.436	20904.03
998.791	28811.99
999.147	28715.78
999.502	31380.5
999.857	22770.51
1000.212	37050.57
1000.567	52708.09
1000.922	30304.87
1001.277	19252.07
1001.632	14313.16
1001.987	18454.19
1002.342	13248.86
1002.696	10594.21
1003.051	8467.87
1003.406	10234.58
1003.76	10210.41
1004.114	10092.88
1004.469	8490.45
1004.823	7045.25
1005.177	7607.81
1005.531	6016.77
1005.885	5323.28
1006.239	6009.83
1006.593	7531.19
1006.947	10097.21
1007.301	7577.01
1007.655	8249.44
1008.008	6049.89
1008.362	6794.94
1008.715	9696.88
1009.069	8807.17
1009.422	13281.29
1009.776	26616.19
1010.129	17635.97
1010.482	14771.17
1010.835	12469.02
1011.188	25937.91
1011.541	24410.3
1011.894	-149352.11
1012.247	439407.88
1012.6	29781.38
1012.952	18804.08
1013.305	9673.12
1013.657	7018.25
1014.01	6647.19
1014.362	5473.63
1014.715	4873.81
1015.067	4246.62
1015.419	4156.78
1015.771	3687.29
1016.123	3279.37
1016.475	3380.3
1016.827	3609.4
1017.179	3889.93
1017.531	3891.71
1017.883	3975.35
1018.234	3851.18
1018.586	4842.62
1018.938	5142.98
1019.289	7116.07
1019.64	8125.41
1019.992	7571.4
1020.343	6934.56
1020.694	5479.23
1021.045	4814.52
1021.396	5511.02
1021.747	5923.05
1022.098	7075.66
1022.449	5165.54
1022.8	4792.76
1023.151	3321.23
1023.501	2942.69
1023.852	3192.27
1024.202	3320.4
1024.553	3648.51
1024.903	3601.86
1025.253	3086.9
1025.604	2780.79
1025.954	3452.21
1026.304	4204.72
1026.654	4872.03
1027.004	7158.82
1027.354	11573.39
1027.703	10894.01
1028.053	14265.16
1028.403	20895.11
1028.753	30135.95
1029.102	41044.9
1029.452	211142.85
1029.801	9162.45
1030.15	5872.76
1030.499	5003.59
897.758	2703.63
901.051	2658.37
904.343	2695.66
907.636	2696.94
910.928	2760.32
914.22	2670.2
917.511	2678.47
920.803	2740.58
924.094	2759.81
927.384	2738.92
930.675	2700.85
933.965	2652.68
937.255	2662.92
940.544	2628.36
943.834	2564.13
947.123	2510.08
950.411	2605.38
953.7	2577.61
956.988	2546.93
960.276	2485.27
963.563	2569.84
966.851	2565.65
970.138	2624.64
973.424	2617.27
976.711	2564.72
979.997	2703.36
983.283	2736.22
986.568	2640.03
989.853	2657.7
993.138	2685.27
996.423	2770.19
999.708	2703.96
1002.992	2770.53
1006.275	2601.59
1009.559	2649.99
1012.842	2771.01
1016.125	2697.77
1019.408	2677.74
1022.69	2766.02
1025.972	2783.9
1029.254	2757.93
1032.536	2689.53
1035.817	2714.45
1039.098	2655.89
1042.379	2808.82
1045.659	2802
1048.939	2731.6
1052.219	2755.87
1055.498	2768.39
1058.778	2752.26
1062.057	2738.88
1065.335	2757.64
1068.614	2778.29
1071.892	2762.53
1075.17	2839.91
1078.447	2822.83
1081.724	2818.47
1085.001	2855.03
1088.278	2828.58
1091.554	2843.34
1094.83	2839.75
1098.106	2866.75
1101.382	2913.18
1104.657	2911.54
1107.932	2908.22
1111.206	2873.08
1114.481	2833.25
1117.755	2830.52
1121.029	2808.9
1124.302	2863.73
1127.575	2812.33
1130.848	2799.42
1134.121	2757.82
1137.393	2706.31
1140.665	2775.98
1143.937	2748.94
1147.208	2708.45
1150.48	2745.65
1153.75	2734.81
1157.021	2769.08
1160.291	2737.11
1163.561	2783.08
1166.831	2772.13
1170.101	2806.24
1173.37	2780.87
1176.639	2723.33
1179.907	2781.85
1183.176	2786.19
1186.444	2794.01
1189.711	2822.95
1192.979	2834.75
1196.246	2790.27
1199.513	2807.53
1202.78	2804.83
1206.046	2813.45
1209.312	2839.81
1212.578	2865.18
1215.843	2818.52
1219.108	2792.98
1222.373	2816.59
1225.638	2779.22
1228.902	2762.07
1232.166	2727.6
1235.43	2710.55
1238.693	2734.26
1241.956	2733.94
1245.219	2770.84
1248.482	2763.21
1251.744	2758
1255.006	2909.75
1258.268	2866.11
1261.529	2808.47
1264.79	2815.19
1268.051	2918.78
1271.312	2935.19
1274.572	2896.89
1277.832	2883.76
1281.092	2877.31
1284.351	2848.56
1287.61	2825.05
1290.869	2740.61
1294.128	2714.8
1297.386	2806.53
1300.644	2795.5
1303.902	2809.76
1307.159	2665.94
1310.416	2722.7
1313.673	2750.34
1316.93	2731.68
1320.186	2778.95
1323.442	2825
1326.697	2810.88
1329.953	2802.01
1333.208	2826.5
1336.463	2807.47
1339.717	2744.49
1342.972	2883.46
1346.226	2859.21
1349.479	2787.91
1352.733	2758.63
1355.986	2784.49
1359.238	2759.41
1362.491	2764.24
1365.743	2767.78
1368.995	2762.76
1372.247	2774.43
1375.498	2798.91
1378.749	2811.98
1382	2768.1
1385.251	2824.72
1388.501	2787.04
1391.751	2767.51
1395	2743.63
1398.25	2774
1401.499	2781.66
1404.748	2705.42
1407.996	2697.78
1411.244	2683.45
1414.492	2662.7
1417.74	2641.88
1420.987	2651.03
1424.234	2710.17
1427.481	2692.19
1430.728	2746.75
1433.974	2724.02
1437.22	2738.51
1440.465	2740.89
1443.711	2702.3
1446.956	2740.37
1450.201	2727.59
1453.445	2772.93
1456.689	2751.94
1459.933	2762.8
1463.177	2795.91
1466.42	2766.92
1469.663	2746.5
1472.906	2741.04
1476.148	2818.23
1479.391	2776.67
1482.633	2744.7
1485.874	2757.18
1489.115	2742.24
1492.356	2746.22
1495.597	2719.91
1498.838	2725.76
1502.078	2694.23
1505.318	2641.35
1508.557	2684.29
1511.797	2658.04
1515.036	2730.41
1518.274	2720.13
1521.513	2694.06
1524.751	2716.04
1527.989	2728.39
1531.227	2743.4
1534.464	2730.69
1537.701	2753.66
1540.938	2773.04
1544.174	2724.87
1547.41	2724.99
1550.646	2765.02
1553.882	2796.66
1557.117	2849.52
1560.352	2866.93
1563.587	2822.89
1566.821	2780.91
1570.055	2818.76
1573.289	2788.1
1576.523	2863.91
1579.756	2870.62
1582.989	2889.56
1586.222	2849.54
1589.454	2893.17
1592.686	2863.05
1595.918	2885.48
1599.15	2875.84
1602.381	2952.85
1605.612	2904.49
1608.843	3002.41
1612.073	2915.17
1615.303	2900.13
1618.533	2890.12
1621.762	2890.81
1624.992	2877.91
1628.221	2863.59
1631.449	2849.02
1634.678	2904.81
1637.906	2859.46
1641.134	2900.42
1644.361	2854.31
1647.588	2844.63
1650.815	2859.11
1654.042	2839.9
1657.269	2872.56
1660.495	2821.77
1663.72	2843.87
1666.946	2808.08
1670.171	2750.03
1673.396	2726.1
1676.621	2715.09
1679.845	2737.94
1683.069	2758.72
1686.293	2801.82
1689.517	2769.38
1692.74	2696.79
1695.963	2729.04
1699.185	2744.63
1702.408	2719.14
1705.63	2764.3
1708.852	2772.33
1712.073	2745.53
1715.294	2726.94
1718.515	2790.34
1721.736	2737.67
1724.956	2731.38
1728.176	2759.58
1731.396	2780.12
1734.616	2767.09
1737.835	2794.38
1741.054	2773.79
1744.272	2768.27
1747.491	2800.35
1750.709	2855.67
1753.927	2756.15
1757.144	2804.76
1760.361	2846.32
1763.578	2839.05
1766.795	2780.87
1770.011	2791.21
1773.227	2833.64
1776.443	2866.71
1779.658	2912.92
1782.874	2852.25
1786.089	2831.06
1789.303	2833.08
1792.518	2836.63
1795.732	2825.97
1798.945	2836.38
1802.159	2886.92
1805.372	2783.02
1808.585	2768.12
1811.797	2770.11
1815.01	2822.79
1818.222	2824.34
1821.434	2795.69
1824.645	2857.27
1827.856	2839.95
1831.067	2875.79
1834.278	2835
1837.488	2817.12
1840.698	2970.44
1843.908	2891.58
1847.117	2855.14
1850.326	2734.39
1853.535	2843.34
1856.744	2872.15
1859.952	2783.28
1863.16	2787.35
1866.368	2810.55
1869.575	2914
1872.782	2800.08
1875.989	2741.19
1879.196	2829.26
1882.402	2821.39
1885.608	2863.74
1888.814	2761.56
1892.019	2654.62
1895.224	2708.9
1898.429	2689.87
1901.634	2666.07
1904.838	2644.53
1908.042	2694.48
1911.246	2699.3
1914.449	2627.78
1917.652	2627.84
1920.855	2609.49
1924.058	2662.12
1927.26	2698.53
1930.462	2725.39
1933.664	2752.09
1936.865	2688.03
1940.066	2692.92
1943.267	2640.37
1946.467	2658.32
1949.668	2686.57
1952.868	2750.72
1956.067	2726.77
1959.267	2659.58
1962.466	2687.05
1965.665	2672.89
1968.863	2665.7
1972.061	2682.72
1975.259	2686.74
1978.457	2766.4
1981.654	2723.2
1984.852	2722.66
1988.048	2656.36
1991.245	2661.2
1994.441	2743.65
1997.637	2730.31
2000.833	2714.54
2004.028	2755.1
2007.223	2810.02
2010.418	2784.55
2013.613	2745.4
2016.807	2713.8
2020.001	2722.37
2023.194	2770.28
2026.388	2742.04
2029.581	2690.24
2032.774	2738.64
2035.966	2742.92
2039.158	2673.17
2042.35	2702.02
2045.542	2626.64
2048.733	2731.37
2051.924	2754.51
2055.115	2784.6
2058.306	2723.08
2061.496	2785.48
2064.686	2849.94
2067.875	2764.45
2071.065	2777.84
2074.254	2806.97
2077.442	2759.28
2080.631	2848.2
2083.819	2735.18
2087.007	2718.78
2090.195	2686.57
2093.382	2725.89
2096.569	2705.77
2099.756	2658.84
2102.942	2682.38
2106.128	2688.54
2109.314	2680.62
2112.5	2641.68
2115.685	2618.96
2118.87	2629.06
2122.055	2697.8
2125.239	2663.84
2128.424	2634.52
2131.608	2741.8
2134.791	2720.68
2137.974	2781.03
2141.157	2765.88
2144.34	2716.55
2147.523	2732.19
2150.705	2746.05
2153.887	2726.8
2157.068	2671.68
2160.25	2675.4
2163.431	2716.26
2166.611	2658.13
2169.792	2674.22
2172.972	2565.19
2176.152	2648.42
2179.331	2682.14
2182.511	2663.06
2185.69	2693.68
2188.868	2686.66
2192.047	2745.15
2195.225	2733.51
2198.403	2682.24
2201.58	2675.1
2204.758	2671.07
2207.935	2755.1
2211.111	2641.49
2214.288	2624.47
2217.464	2663.23
2220.64	2638.33
2223.815	2693.43
2226.991	2610.65
2230.166	2632.55
2233.34	2658.6
2236.515	2687.45
2239.689	2764.64
2242.863	2709.73
2246.036	2761.28
2249.209	2765.8
2252.382	2803.82
2255.555	2786.21
2258.727	2722.7
2261.9	2767.09
2265.071	2757.02
2268.243	2760.57
2271.414	2689.78
2274.585	2648.26
2277.756	2717.02
2280.926	2675.39
2284.096	2715.69
2287.266	2619.9
2290.436	2677.45
2293.605	2704.86
2296.774	2734.31
2299.942	2757.97
2303.111	2774.98
2306.279	2826.09
2309.447	2810.19
2312.614	2783.33
2315.781	2803.84
2318.948	2772.57
2322.115	2811.44
2325.281	2713.18
2328.447	2735.11
2331.613	2710.01
2334.779	2679.76
2337.944	2683.81
2341.109	2677.02
2344.274	2664.15
2347.438	2627.37
2350.602	2651.02
2353.766	2671.03
2356.929	2656.38
2360.092	2694.84
2363.255	2646.87
2366.418	2576.41
2369.58	2694.59
2372.742	2473.87
2375.904	2491.8
2379.066	2462.71
2382.227	2504.33
2385.388	2466.74
2388.548	2388.43
2391.709	2446.54
2394.869	2427.85
2398.029	2531.6
2401.188	2545.51
2404.347	2476.81
2407.506	2624.63
2410.665	2653.66
2413.823	2660.8
2416.981	2613.55
2420.139	2647.28
2423.296	2698.48
2426.453	2669.81
2429.61	2695.2
2432.767	2624.19
2435.923	2665.5
2439.079	2628.03
2442.235	2678.42
2445.391	2604.61
2448.546	2635.49
2451.701	2686.14
2454.855	2654.4
2458.009	2711.23
2461.163	2714.16
2464.317	2671.51
2467.471	2704.06
2470.624	2743.71
2473.777	2712.9
2476.929	2727.16
2480.082	2748.85
2483.234	2711.34
2486.385	2668.04
2489.537	2661.07
2492.688	2618.92
2495.839	2638.03
2498.989	2647.32
2502.14	2635.65
2505.29	2614.72
2508.439	2642.67
2511.589	2562.07
2514.738	2579.76
2517.887	2610.78
2521.035	2675.41
2524.183	2659.49
2527.331	2637.62
2530.479	2608.97
2533.627	2622.6
