Data from N_3_DIV_IL_4N_Splice17_13-20-54-058.txt Node
Date: Sat Mar 14 13:20:54 EDT 2020
User: sa697716
Spectrometer: FLMS03696
Trigger mode: 0
Integration Time (sec): 3.180400E-1
Scans to average: 20
Electric dark correction enabled: true
Nonlinearity correction enabled: true
Boxcar width: 5
XAxis mode: Wavelengths
Number of Pixels in Spectrum: 2048
>>>>>Begin Spectral Data<<<<<
187.83	-391916.01
188.298	2860.12
188.766	1562.93
189.233	1442.56
189.701	1993.26
190.169	2626.88
190.636	1026.84
191.104	815.54
191.571	143.81
192.039	-88.27
192.506	-108.28
192.974	633.32
193.441	-957.19
193.908	-142.72
194.375	-54.57
194.842	46.92
195.31	52.76
195.777	188.12
196.244	409.11
196.711	454.72
197.177	551.22
197.644	766.69
198.111	1351.54
198.578	1870.19
199.045	1481.29
199.511	2411.77
199.978	2760.06
200.445	2368.64
200.911	2593.6
201.378	2861.94
201.844	2587.09
202.31	4394.41
202.777	4584.68
203.243	2541.26
203.709	2422.32
204.176	2893.38
204.642	2409.55
205.108	2261.53
205.574	1834.64
206.04	1648.36
206.506	1562.78
206.972	1469.42
207.438	1419.61
207.903	1601.46
208.369	1398.49
208.835	1374.57
209.301	1438.28
209.766	1446.07
210.232	1422.91
210.697	1733.14
211.163	2132.3
211.628	3142.27
212.094	2634.36
212.559	3216.72
213.024	2004.49
213.49	2435.92
213.955	2392.66
214.42	2310.7
214.885	2140.86
215.35	2031.15
215.815	1977.78
216.28	2076.2
216.745	1672.93
217.21	1794.26
217.675	1604.2
218.14	1749.52
218.604	1879.12
219.069	2059.96
219.534	2096.8
219.998	2374.32
220.463	2795.01
220.927	3283
221.392	3015.28
221.856	3001.36
222.32	3644.32
222.785	4442.89
223.249	5511.28
223.713	6081.81
224.177	6022.65
224.642	7613.66
225.106	9245.49
225.57	10051.13
226.034	7498.81
226.497	11398.28
226.961	10299.27
227.425	12050.14
227.889	13266.74
228.353	13157.32
228.816	27093.82
229.28	26000.97
229.744	21895.59
230.207	13386.08
230.671	13090.02
231.134	21557.22
231.597	24876.86
232.061	24774.6
232.524	24031.19
232.987	16572.6
233.45	15028.39
233.914	13506.43
234.377	13788.97
234.84	12617.62
235.303	14823.51
235.766	16599.44
236.229	17134.45
236.691	10766.41
237.154	12093.84
237.617	9151.46
238.08	9382.24
238.542	10952.16
239.005	7822.97
239.468	7767.62
239.93	7336.59
240.393	6675.6
240.855	5866.86
241.317	6006.07
241.78	7297.71
242.242	7563.07
242.704	8187.78
243.166	7136.02
243.629	6520.3
244.091	7535.47
244.553	8268.73
245.015	8913.39
245.477	11494.93
245.939	16824.86
246.4	17896.27
246.862	17400.27
247.324	16403.23
247.786	18326.65
248.247	23988.83
248.709	24689.46
249.17	18481.34
249.632	17525.87
250.093	20347.6
250.555	17620.58
251.016	10790.09
251.477	10243.15
251.939	11078.46
252.4	11612.13
252.861	13765.13
253.322	12841.2
253.783	15262.5
254.244	19779.78
254.705	15527.36
255.166	13774.07
255.627	13565.4
256.088	19163.57
256.549	20331.24
257.009	17487.03
257.47	21201.52
257.931	17261.32
258.391	12912.04
258.852	13301.15
259.312	13927.46
259.773	17179.84
260.233	14529.42
260.694	12250.01
261.154	13840.09
261.614	11142.66
262.074	9962.8
262.534	10322.57
262.994	9734.95
263.455	12927.56
263.915	10876.4
264.374	10212.92
264.834	11117.62
265.294	12273.36
265.754	12701.42
266.214	11991.09
266.673	11193.84
267.133	14061.82
267.593	13939.39
268.052	17021.54
268.512	14767.78
268.971	17823.86
269.431	19511.13
269.89	17447.1
270.349	26126.97
270.809	29093.76
271.268	26129.95
271.727	58388.1
272.186	37778.77
272.645	28283.15
273.104	20331.51
273.563	29411.41
274.022	23042.05
274.481	19623.54
274.94	15126.97
275.399	11225.14
275.857	13042.14
276.316	17613.77
276.775	15694.75
277.233	15493.26
277.692	14557.25
278.15	16491.98
278.609	17018.23
279.067	15752.79
279.525	14655.46
279.984	18909.24
280.442	22724.86
280.9	22457.08
281.358	14776.21
281.816	13755.04
282.274	13456.93
282.732	13832.44
283.19	13883.82
283.648	11942.28
284.106	12693.66
284.564	12877.77
285.021	11957.06
285.479	8912.69
285.937	8087.31
286.394	7117.94
286.852	7309.44
287.309	7692.09
287.767	7474.5
288.224	7121.46
288.682	7823.07
289.139	8616.47
289.596	7886.73
290.053	8172.3
290.511	10302.65
290.968	12488.41
291.425	16912.83
291.882	14150.05
292.339	12283.84
292.796	12155.66
293.252	11455.36
293.709	9119.57
294.166	8163.82
294.623	9010.01
295.079	8629.09
295.536	8690.12
295.992	7907.81
296.449	7838.43
296.905	8116.98
297.362	7802.52
297.818	8199.93
298.274	8514.05
298.731	8674.72
299.187	8571.81
299.643	9213.4
300.099	11160.36
300.555	12237.72
301.011	10208.35
301.467	9886.64
301.923	11578.26
302.379	11332.2
302.835	11155.01
303.291	11199.45
303.746	12737.11
304.202	16117.36
304.658	16195.98
305.113	10926.48
305.569	10729.47
306.024	11448.99
306.479	10840.14
306.935	9178.63
307.39	10003.35
307.845	9237.06
308.301	9305.15
308.756	9068.23
309.211	8748.27
309.666	8965.22
310.121	11184.12
310.576	11351.3
311.031	11272.4
311.486	12907.36
311.94	12859.81
312.395	17191.65
312.85	32307.93
313.305	158222.81
313.759	825082.9
314.214	59950.54
314.668	47660.79
315.123	40128.38
315.577	14410.63
316.032	12842.24
316.486	16084.26
316.94	12763.28
317.394	8944.26
317.849	6955.92
318.303	6593.1
318.757	6217.9
319.211	6879.93
319.665	6013.1
320.119	6079.81
320.572	8703.53
321.026	8155.63
321.48	6812.16
321.934	7397.65
322.387	7374.98
322.841	8000.19
323.295	7226.71
323.748	8297.72
324.202	8414.65
324.655	10155.41
325.108	14259.69
325.562	10087.53
326.015	11972.39
326.468	9041.48
326.921	10111.45
327.374	9455.32
327.827	9862.76
328.28	11178.14
328.733	7500.49
329.186	6598.51
329.639	6293.2
330.092	5293.89
330.545	5053.16
330.997	5118.71
331.45	5634.83
331.903	6662.94
332.355	11467.47
332.808	11134.06
333.26	9158.32
333.713	9986.03
334.165	10097.81
334.617	13451.47
335.069	10818.85
335.522	19554.84
335.974	21621.94
336.426	19712.23
336.878	13543.57
337.33	6875.71
337.782	6714.81
338.234	8483.11
338.686	10133.42
339.137	11998.16
339.589	11304.33
340.041	8908.93
340.493	7647.48
340.944	7848.18
341.396	8442.04
341.847	7146.12
342.299	8483.6
342.75	10372.15
343.201	8978.82
343.653	10303.33
344.104	12628.07
344.555	9919.97
345.006	15312.24
345.457	11827.17
345.908	9356.74
346.359	8811.16
346.81	7165.41
347.261	7530.61
347.712	7385.41
348.163	7909.93
348.613	8046.55
349.064	7533.17
349.515	6625.87
349.965	6830.86
350.416	8193.62
350.866	9003.86
351.317	10134.69
351.767	16823.2
352.217	21246.49
352.668	17700.42
353.118	16268.53
353.568	15629.57
354.018	12413.98
354.468	13105.37
354.918	9420.25
355.368	8243.19
355.818	11621.45
356.268	33435.61
356.718	139790
357.168	34898.4
357.617	17475.98
358.067	19370.61
358.517	18166.07
358.966	21277.79
359.416	23894.34
359.865	25831.26
360.315	30750.47
360.764	14365.6
361.213	8055.49
361.663	7597.84
362.112	9330.29
362.561	15093.88
363.01	11419.78
363.459	9606.98
363.908	10367.29
364.357	8826.62
364.806	14847.99
365.255	10195.17
365.703	9431.19
366.152	9500.11
366.601	7723.94
367.05	6297.4
367.498	5737.84
367.947	5994.8
368.395	6229.61
368.844	5534.81
369.292	6605.21
369.74	4588.72
370.189	7003.29
370.637	8131.67
371.085	6980.1
371.533	8482.3
371.981	8128.82
372.429	7754.49
372.877	8042.23
373.325	6741.73
373.773	6839.19
374.221	6105.85
374.669	7538.9
375.116	6506.71
375.564	6557.55
376.012	7309.43
376.459	6002.96
376.907	7152.2
377.354	8595.97
377.801	8048
378.249	9239.05
378.696	11792.74
379.143	14250.08
379.591	15172
380.038	25731.76
380.485	18683.25
380.932	20220.57
381.379	18642.97
381.826	13809.52
382.273	9817.49
382.72	8561.36
383.166	8342.58
383.613	5419.55
384.06	4875.69
384.506	5640.4
384.953	4111.79
385.4	4100.05
385.846	3580.71
386.292	3465.05
386.739	3354.34
387.185	3299.37
387.631	3303.81
388.078	3211.4
388.524	3410.09
388.97	3151.56
389.416	2628.73
389.862	2803.21
390.308	2656.05
390.754	2698.88
391.2	2913.51
391.645	2979.89
392.091	2886.17
392.537	2777.94
392.983	2762.54
393.428	2747.82
393.874	2937.08
394.319	2959.91
394.765	2822.38
395.21	2895.34
395.655	2701.54
396.101	2538.69
396.546	2299.43
396.991	2302.85
397.436	2140.6
397.881	2082.5
398.326	1960.1
398.771	1864.83
399.216	1623.37
399.661	1460.4
400.106	1469.35
400.551	1521.97
400.995	1372.21
401.44	1366.31
401.885	1284.98
402.329	1306.57
402.774	1252.77
403.218	1226.6
403.663	1184.28
404.107	1225.13
404.551	1243.78
404.995	1139.11
405.44	1092.71
405.884	1111.09
406.328	1076.65
406.772	1077.43
407.216	983.14
407.66	950.05
408.104	897.61
408.547	840.84
408.991	815.72
409.435	786.06
409.879	780.03
410.322	777.55
410.766	754.35
411.209	720.12
411.653	693.31
412.096	685.26
412.54	690.96
412.983	690.26
413.426	700.29
413.869	699.65
414.312	691.93
414.756	668.93
415.199	638.93
415.642	625.55
416.085	629.51
416.527	628.94
416.97	638.95
417.413	609.05
417.856	602.48
418.298	594.59
418.741	591.81
419.184	587.88
419.626	612.3
420.069	614.29
420.511	619.61
420.953	607.83
421.396	603.15
421.838	587.83
422.28	602.07
422.722	609.3
423.164	619.47
423.606	612.87
424.048	615.47
424.49	589.55
424.932	586.47
425.374	578.91
425.816	587.82
426.258	599.72
426.699	606.97
427.141	599.68
427.582	605.21
428.024	600.64
428.465	594.79
428.907	577.39
429.348	567.72
429.789	570.45
430.231	562.55
430.672	573.46
431.113	560.18
431.554	553.58
431.995	539.93
432.436	527.39
432.877	520.52
433.318	515.11
433.759	515.79
434.2	518.19
434.64	513.49
435.081	514.91
435.522	488.15
435.962	471.49
436.403	464.65
436.843	470.27
437.284	458.64
437.724	445.13
438.164	445.49
438.604	436.4
439.045	421.25
439.485	406.32
439.925	397.18
440.365	387.28
440.805	382.69
441.245	380
441.685	369
442.125	366.58
442.564	369.8
443.004	364.3
443.444	364.94
443.883	366.84
444.323	362.13
444.762	361.48
445.202	368.02
445.641	378.23
446.081	376.42
446.52	380.47
446.959	380.71
447.398	374.52
447.837	370.71
448.276	365.06
448.716	369.27
449.154	375.26
449.593	369.76
450.032	370.8
450.471	362.93
450.91	363.22
451.349	364.45
451.787	360.75
452.226	366.32
452.664	366.76
453.103	367.87
453.541	368.4
453.98	371.25
454.418	373.97
454.856	369.26
455.295	369.89
455.733	373.27
456.171	375.09
456.609	377
457.047	377.14
457.485	384.76
457.923	387.04
458.361	381.19
458.798	380.66
459.236	379.18
459.674	381.1
460.111	382.06
460.549	379.2
460.987	376.24
461.424	375.02
461.862	371.54
462.299	364.99
462.736	365.22
463.173	366.34
463.611	364.91
464.048	364.61
464.485	367.69
464.922	363.99
465.359	360.6
465.796	363.58
466.233	361.76
466.67	361.64
467.106	362.11
467.543	355.75
467.98	351.11
468.416	339.9
468.853	336.46
469.29	326.98
469.726	324.89
470.162	317.02
470.599	307.56
471.035	303.57
471.471	295.17
471.907	292.12
472.344	291.42
472.78	293.16
473.216	297.05
473.652	294.66
474.088	293.11
474.523	292.65
474.959	295.49
475.395	292.28
475.831	292.31
476.266	294.7
476.702	294.03
477.138	292
477.573	291.3
478.008	290.08
478.444	292.18
478.879	296.57
479.314	298.93
479.75	299.89
480.185	302.28
480.62	304.42
481.055	305.93
481.49	309.24
481.925	313.91
482.36	321.94
482.795	330.85
483.229	338.93
483.664	345.87
484.099	346.06
484.534	351.22
484.968	355.32
485.403	356.22
485.837	355.76
486.271	355.65
486.706	356.46
487.14	351.17
487.574	347.4
488.009	345.62
488.443	342.8
488.877	348.41
489.311	350.37
489.745	355.96
490.179	361.89
490.613	371.93
491.046	376.22
491.48	380.68
491.914	383.6
492.348	388.48
492.781	393.64
493.215	397.36
493.648	400.09
494.082	406.52
494.515	409.55
494.948	417.77
495.382	422.46
495.815	428.72
496.248	435.79
496.681	447.38
497.114	458.06
497.547	468.86
497.98	481.72
498.413	490.94
498.846	501.64
499.279	511.78
499.711	518.65
500.144	525.75
500.577	538.43
501.009	550.78
501.442	563.03
501.874	569.61
502.306	576.33
502.739	589.37
503.171	604.91
503.603	612.62
504.036	624.94
504.468	634.82
504.9	648.95
505.332	659.98
505.764	670.12
506.196	681.6
506.627	698.2
507.059	714.29
507.491	724.74
507.923	730.35
508.354	748.61
508.786	763.78
509.217	784.06
509.649	801.89
510.08	822.68
510.512	841.23
510.943	859.17
511.374	874.39
511.805	896.6
512.237	919.11
512.668	950.51
513.099	977.29
513.53	1004.91
513.961	1027.58
514.391	1058.91
514.822	1092.88
515.253	1128.91
515.684	1155.08
516.114	1186.42
516.545	1209.07
516.975	1235.95
517.406	1256.83
517.836	1264.39
518.267	1274.55
518.697	1294.66
519.127	1302.76
519.558	1311.64
519.988	1317.56
520.418	1330.18
520.848	1348.06
521.278	1359.26
521.708	1390.71
522.138	1404.91
522.567	1434.82
522.997	1459.73
523.427	1476.26
523.857	1493.95
524.286	1505.36
524.716	1521.86
525.145	1540.51
525.575	1552.66
526.004	1567.23
526.433	1550.9
526.863	1552.18
527.292	1544.87
527.721	1551.74
528.15	1557.74
528.579	1559.6
529.008	1571.41
529.437	1593.79
529.866	1607.89
530.295	1624.55
530.724	1637.61
531.152	1663.29
531.581	1676.87
532.01	1694.2
532.438	1702.33
532.867	1717.63
533.295	1735.12
533.723	1740.93
534.152	1738.4
534.58	1738.06
535.008	1723.55
535.436	1725.94
535.865	1732.99
536.293	1746.76
536.721	1761.16
537.149	1785.64
537.576	1788.02
538.004	1799.61
538.432	1806.32
538.86	1805.44
539.287	1812.21
539.715	1824.46
540.143	1826.05
540.57	1823.04
540.998	1818.13
541.425	1796.89
541.852	1776.35
542.28	1773.1
542.707	1758.58
543.134	1745.28
543.561	1741.07
543.988	1734.26
544.415	1734.47
544.842	1729.04
545.269	1722.16
545.696	1725.2
546.123	1736.91
546.549	1727.34
546.976	1716.14
547.403	1715.64
547.829	1719.41
548.256	1721.95
548.682	1719.23
549.108	1712.9
549.535	1714.08
549.961	1717.15
550.387	1706.05
550.813	1702.83
551.24	1710.15
551.666	1712.04
552.092	1703.03
552.518	1696.77
552.943	1692.43
553.369	1700.23
553.795	1706.29
554.221	1708.21
554.646	1705.01
555.072	1716.2
555.498	1721.57
555.923	1731.02
556.349	1747
556.774	1756.81
557.199	1758.8
557.625	1764.3
558.05	1758.67
558.475	1768.85
558.9	1767.76
559.325	1762.12
559.75	1755.54
560.175	1749.19
560.6	1742.83
561.025	1740.49
561.449	1741.9
561.874	1748.39
562.299	1754.17
562.723	1761.48
563.148	1751.68
563.572	1755.83
563.997	1764.35
564.421	1769.87
564.846	1770.81
565.27	1774.97
565.694	1772.41
566.118	1783.73
566.542	1790.1
566.966	1782.4
567.39	1777.68
567.814	1767.72
568.238	1767.23
568.662	1771.9
569.086	1774.47
569.509	1780.85
569.933	1765.92
570.357	1758.98
570.78	1738.53
571.204	1725.36
571.627	1714.76
572.05	1714.14
572.474	1713.84
572.897	1700.63
573.32	1693.97
573.743	1683.61
574.166	1666.13
574.589	1665.84
575.012	1658.67
575.435	1655.76
575.858	1647.03
576.281	1636.67
576.704	1620.55
577.126	1608.42
577.549	1599.26
577.972	1589.25
578.394	1579.83
578.817	1574.44
579.239	1556.83
579.661	1543.81
580.084	1531.36
580.506	1520.21
580.928	1516.82
581.35	1506.13
581.772	1503.05
582.194	1489.72
582.616	1478.35
583.038	1464.82
583.46	1454.24
583.882	1451.16
584.303	1454.98
584.725	1449.83
585.147	1451.94
585.568	1461.92
585.99	1474.44
586.411	1480.49
586.833	1494.66
587.254	1495.69
587.675	1509.69
588.096	1520.18
588.518	1514.37
588.939	1498.67
589.36	1496.19
589.781	1483.9
590.202	1457.83
590.623	1447.51
591.043	1444.18
591.464	1431.01
591.885	1426.09
592.305	1419.53
592.726	1407.53
593.147	1409.08
593.567	1403.92
593.987	1396.14
594.408	1391
594.828	1387.66
595.248	1383.28
595.669	1365.3
596.089	1359.04
596.509	1353.13
596.929	1339.58
597.349	1339.77
597.769	1329.61
598.189	1321.78
598.608	1322.94
599.028	1325.17
599.448	1325.61
599.867	1312.42
600.287	1308.34
600.706	1304.7
601.126	1295.19
601.545	1294.49
601.965	1292.03
602.384	1286.67
602.803	1290.36
603.222	1286.91
603.641	1280.17
604.061	1275.88
604.48	1272.48
604.898	1279.87
605.317	1283.68
605.736	1284.95
606.155	1281.73
606.574	1273.15
606.992	1277.39
607.411	1272.75
607.829	1264.42
608.248	1260.15
608.666	1257.08
609.085	1255.39
609.503	1246.7
609.921	1239.65
610.339	1240.61
610.758	1239.55
611.176	1234.08
611.594	1225.42
612.012	1220.7
612.43	1221.99
612.847	1226.81
613.265	1227.15
613.683	1231.24
614.101	1230.83
614.518	1226.24
614.936	1216.53
615.353	1201.56
615.771	1198.3
616.188	1197.89
616.606	1193.69
617.023	1186.11
617.44	1173.19
617.857	1165.18
618.274	1156.38
618.691	1150.54
619.108	1141.71
619.525	1135.09
619.942	1141
620.359	1142.49
620.776	1137.1
621.192	1133.12
621.609	1130.34
622.026	1136.39
622.442	1141.92
622.859	1143.48
623.275	1136.5
623.691	1140.55
624.108	1150.13
624.524	1162.16
624.94	1161.02
625.356	1168.97
625.772	1179.59
626.188	1190.96
626.604	1191.15
627.02	1186.81
627.436	1184.83
627.852	1189.85
628.268	1201.01
628.683	1192.84
629.099	1184.63
629.514	1180.13
629.93	1183.68
630.345	1187.15
630.761	1182.52
631.176	1185.23
631.591	1179.44
632.007	1173.5
632.422	1171.46
632.837	1158.27
633.252	1155.26
633.667	1144.07
634.082	1134.38
634.497	1120.37
634.911	1101.66
635.326	1095.44
635.741	1078.8
636.155	1067.26
636.57	1066.15
636.984	1063.12
637.399	1062.96
637.813	1058.68
638.228	1055.02
638.642	1055.41
639.056	1042.98
639.47	1040.39
639.884	1030.2
640.298	1018.78
640.712	1013.9
641.126	999.18
641.54	986.8
641.954	977.89
642.368	963.69
642.781	954.58
643.195	935.84
643.609	933
644.022	922.82
644.436	914.45
644.849	900.84
645.262	887
645.676	882.86
646.089	875.39
646.502	860.68
646.915	852.72
647.328	834.38
647.741	829.37
648.154	815.49
648.567	812.96
648.98	800.84
649.393	799.43
649.805	795.2
650.218	787.47
650.631	773.6
651.043	766.63
651.456	761.13
651.868	759.13
652.28	770.18
652.693	778.59
653.105	779.09
653.517	783.6
653.929	782.15
654.341	783.2
654.753	772.84
655.165	774.28
655.577	769.42
655.989	763.02
656.401	753.36
656.813	726.14
657.224	707.9
657.636	683.3
658.047	668.01
658.459	649.97
658.87	638.61
659.282	625.82
659.693	608.68
660.104	595.04
660.515	580.72
660.926	574.88
661.338	566.39
661.749	557.25
662.159	546.04
662.57	536.78
662.981	528.16
663.392	519.15
663.803	516.03
664.213	508.78
664.624	500.4
665.035	496.66
665.445	484.18
665.855	476.43
666.266	467.78
666.676	462.58
667.086	453.23
667.497	449.7
667.907	442.58
668.317	434.97
668.727	432.68
669.137	429.36
669.547	425.21
669.956	424.07
670.366	422.16
670.776	422.21
671.186	422.02
671.595	422.77
672.005	422.59
672.414	421.75
672.824	418.85
673.233	417.02
673.642	417.84
674.052	420.15
674.461	421.86
674.87	424.68
675.279	422.6
675.688	422.92
676.097	425.02
676.506	423.66
676.915	431.16
677.323	433.75
677.732	434.75
678.141	435.31
678.549	430.82
678.958	431.68
679.366	432.14
679.775	436.93
680.183	447.56
680.592	452.33
681	459.94
681.408	461.08
681.816	470.73
682.224	481.03
682.632	494.49
683.04	518.54
683.448	541.54
683.856	568.77
684.264	600.84
684.671	631.01
685.079	669.35
685.487	711.54
685.894	766.36
686.302	815.74
686.709	861.03
687.116	912.88
687.524	959.77
687.931	1001.87
688.338	1042.18
688.745	1077.41
689.152	1116.33
689.559	1165.02
689.966	1211.55
690.373	1241.21
690.78	1285.17
691.187	1347.91
691.593	1397.93
692	1441.75
692.407	1502.39
692.813	1574.8
693.22	1633.88
693.626	1694.49
694.032	1742.97
694.439	1815.1
694.845	1870.36
695.251	1941.24
695.657	2001.89
696.063	2092.06
696.469	2161.13
696.875	2223.36
697.281	2259.52
697.687	2301.72
698.093	2335.9
698.498	2402.87
698.904	2453.57
699.31	2533.83
699.715	2587.69
700.12	2668.61
700.526	2684.66
700.931	2745.01
701.337	2791.13
701.742	2819.64
702.147	2895.41
702.552	2920.86
702.957	2972.14
703.362	2987.69
703.767	3010.48
704.172	3044.96
704.577	2999.72
704.981	3038.72
705.386	3048.91
705.791	3037.78
706.195	3100.81
706.6	3104.23
707.004	3171.73
707.408	3140.47
707.813	3162.75
708.217	3150.47
708.621	3149.55
709.025	3233.2
709.43	3230.76
709.834	3283.12
710.237	3342.22
710.641	3326.53
711.045	3343.14
711.449	3337.02
711.853	3363.06
712.256	3395.98
712.66	3424.3
713.064	3488.56
713.467	3521.47
713.87	3616.85
714.274	3653.91
714.677	3748.68
715.08	3885.24
715.484	4031.17
715.887	4205.84
716.29	4374.69
716.693	4554.02
717.096	4761.53
717.499	4870.61
717.901	4890.66
718.304	4910.38
718.707	4927.85
719.109	4834.83
719.512	4805.05
719.915	4683.88
720.317	4630.12
720.719	4663.37
721.122	4635.56
721.524	4589.2
721.926	4553.53
722.328	4637.93
722.731	4627.1
723.133	4647.98
723.535	4813.36
723.937	4829.05
724.338	4869.58
724.74	4902
725.142	4862.76
725.544	4858.78
725.945	4882.02
726.347	4872.73
726.748	4864.68
727.15	4874.81
727.551	4842.81
727.952	4814.76
728.354	4788.36
728.755	4787.59
729.156	4749.65
729.557	4718.56
729.958	4610.67
730.359	4557.91
730.76	4539.84
731.161	4485.87
731.562	4461.74
731.962	4460.44
732.363	4404.65
732.763	4349.28
733.164	4378.37
733.564	4318.35
733.965	4238.43
734.365	4208.44
734.766	4233.26
735.166	4202.37
735.566	4156.91
735.966	4134.74
736.366	4130.92
736.766	4079.53
737.166	4104.7
737.566	4070.36
737.966	4051.41
738.365	4085.02
738.765	4080.51
739.165	4014.85
739.564	3989.55
739.964	4026.83
740.363	3987.19
740.763	3984.3
741.162	3973.44
741.561	3946.67
741.96	3906.34
742.36	3923.38
742.759	3924.96
743.158	3955.78
743.557	3968.35
743.955	3999.99
744.354	3959.71
744.753	4005.68
745.152	3971.41
745.55	4015.32
745.949	4009.35
746.348	4008.36
746.746	4018.81
747.144	3986.39
747.543	3968.43
747.941	4009.37
748.339	3951.68
748.737	3944.54
749.136	3939.34
749.534	3991.42
749.932	3965.99
750.33	3983.18
750.727	4030.45
751.125	4010.27
751.523	3995.24
751.921	4031.85
752.318	4003.24
752.716	4053.04
753.113	4065.04
753.511	4086.9
753.908	4087.09
754.305	4075.98
754.703	4127.34
755.1	4178.47
755.497	4228.5
755.894	4388.41
756.291	4536.95
756.688	4811.61
757.085	5180.21
757.482	5697.8
757.878	6260.53
758.275	6771.9
758.672	7472.99
759.068	8043.7
759.465	8857.74
759.861	9912.29
760.258	11135.55
760.654	11768.25
761.05	11678.54
761.447	11143.38
761.843	10377.06
762.239	9583.54
762.635	9220.62
763.031	8878.42
763.427	8388.89
763.822	7868.95
764.218	7353.3
764.614	6685.39
765.01	6238.71
765.405	5946.6
765.801	5727.55
766.196	5447.58
766.592	5292.33
766.987	5030.81
767.382	4851.98
767.778	4776.35
768.173	4667.98
768.568	4609.79
768.963	4504.41
769.358	4518.1
769.753	4480.67
770.148	4411.14
770.542	4410.47
770.937	4381.97
771.332	4460.07
771.726	4477.01
772.121	4429.21
772.515	4475.88
772.91	4462.81
773.304	4523.62
773.699	4469.59
774.093	4516.81
774.487	4561.91
774.881	4595.98
775.275	4595.14
775.669	4557.46
776.063	4588.46
776.457	4614.76
776.851	4553.92
777.245	4547.07
777.638	4572.81
778.032	4669.67
778.425	4637.16
778.819	4673.53
779.212	4639.14
779.606	4604.11
779.999	4621.35
780.392	4612.18
780.786	4681.4
781.179	4696.1
781.572	4728.63
781.965	4739.68
782.358	4690.98
782.751	4736.34
783.143	4693.63
783.536	4753.18
783.929	4788.93
784.322	4884.36
784.714	4908.84
785.107	4904.95
785.499	4964.13
785.891	4947.35
786.284	4929.88
786.676	5047.36
787.068	5032.78
787.46	5080.43
787.852	5098.34
788.245	5169.95
788.636	5194.94
789.028	5254.37
789.42	5285.7
789.812	5292.93
790.204	5373.23
790.595	5461.46
790.987	5298.85
791.378	5318.4
791.77	5426.47
792.161	5542.73
792.553	5591.22
792.944	5498.38
793.335	5441.31
793.726	5506.47
794.117	5585.29
794.508	5702.13
794.899	5674.91
795.29	5792.17
795.681	5841.57
796.072	5724.06
796.463	5575.11
796.853	5585.03
797.244	5716.75
797.634	5747.11
798.025	5742.24
798.415	5757.25
798.806	5835.31
799.196	5909.94
799.586	5958.31
799.976	5926.4
800.366	6117.61
800.756	6312.12
801.146	6280.96
801.536	6309.44
801.926	6369.59
802.316	6395.83
802.706	6456.4
803.095	6355.25
803.485	6438.31
803.874	6469.6
804.264	6691.41
804.653	6672.93
805.043	6800.47
805.432	6894.24
805.821	6899.12
806.21	6919.49
806.599	7019.24
806.988	7051.56
807.377	7139.49
807.766	7253.54
808.155	7495.92
808.544	7272.41
808.933	7282.14
809.321	7261.65
809.71	7508.6
810.098	7640.31
810.487	8028.99
810.875	8435.83
811.264	8456.26
811.652	8706.27
812.04	8826.39
812.428	8963.36
812.816	9606.38
813.204	9962.49
813.592	10429.11
813.98	10714
814.368	10632.35
814.756	11041.94
815.144	10971.4
815.531	11364.94
815.919	11288.8
816.306	11550.5
816.694	11285.43
817.081	11327.03
817.469	11621.36
817.856	11620.49
818.243	11843.84
818.63	12173.43
819.017	11815.23
819.404	11872.49
819.791	12194.74
820.178	12717.67
820.565	12925.04
820.952	13716.39
821.339	13299.7
821.725	13460.33
822.112	12834.15
822.498	12800.23
822.885	12912.52
823.271	12836.9
823.657	13186.54
824.044	13190.61
824.43	13251.74
824.816	13232
825.202	12866.02
825.588	13732.24
825.974	13740.22
826.36	14173.76
826.746	14209.16
827.132	14505.19
827.517	14485.12
827.903	13819.48
828.289	13858.13
828.674	13210.52
829.06	13118.57
829.445	13445.89
829.83	13738.15
830.216	14135.92
830.601	14454.35
830.986	14110
831.371	13998.02
831.756	14476.99
832.141	14121.3
832.526	14109.38
832.911	14340.06
833.295	14246.58
833.68	14642.56
834.065	14123.55
834.449	13356.92
834.834	13290.46
835.218	13290.42
835.603	13577.49
835.987	13386.12
836.371	14084.47
836.755	13998.65
837.139	14330.7
837.524	14525.61
837.908	14379.44
838.291	14432.53
838.675	14484.15
839.059	14651.87
839.443	14629.46
839.827	14431.36
840.21	14822.56
840.594	14689.91
840.977	14855.55
841.361	14843.16
841.744	15152.91
842.127	15009.76
842.511	15209.64
842.894	15705.26
843.277	16021.8
843.66	16474.83
844.043	16536.26
844.426	15869.84
844.809	15605.86
845.191	15635
845.574	15247.17
845.957	14939.1
846.339	14851.01
846.722	14402
847.104	14454.63
847.487	14311.07
847.869	14323.98
848.252	14561.87
848.634	14826.49
849.016	15041.81
849.398	15138.82
849.78	15847.16
850.162	15855.41
850.544	16201.75
850.926	16733.24
851.307	16651.94
851.689	16879.46
852.071	17250.02
852.452	17525.05
852.834	17512.03
853.215	17850.89
853.597	17987.88
853.978	18235.92
854.359	18614.22
854.741	17793.14
855.122	17708.26
855.503	17474.73
855.884	17589.01
856.265	17539.29
856.646	17618.6
857.026	17292.93
857.407	17239.39
857.788	17367.1
858.169	17602.84
858.549	16893.2
858.93	17405.8
859.31	17441.72
859.69	17622.76
860.071	17284.24
860.451	17107.92
860.831	16500.07
861.211	17472.3
861.591	17935.65
861.971	17913.73
862.351	18068.35
862.731	18395.23
863.111	18612.53
863.491	18889.31
863.87	19613.2
864.25	19908.03
864.629	19570.18
865.009	19997.82
865.388	20704.13
865.768	22181.69
866.147	22107.14
866.526	20893.37
866.905	21143.64
867.284	22331.33
867.663	21219.36
868.042	20341.33
868.421	20274.04
868.8	20613.02
869.179	20824.5
869.558	19621.18
869.936	18086.16
870.315	18394.54
870.693	18848.74
871.072	20329.19
871.45	19372.3
871.828	19618.58
872.207	20636.96
872.585	20326.57
872.963	20884.81
873.341	20166.29
873.719	19933.4
874.097	19701.12
874.475	20088.48
874.853	20547.09
875.23	19689.33
875.608	20498.46
875.986	22166.51
876.363	21181.91
876.741	21840.42
877.118	21282.52
877.495	22320.29
877.873	22682.81
878.25	23861.41
878.627	22872.29
879.004	23179.52
879.381	23067
879.758	22468.89
880.135	20923.51
880.512	22124.29
880.889	21523.31
881.265	21297.6
881.642	21119.05
882.019	21470.61
882.395	21041.02
882.772	21883.81
883.148	20930.89
883.524	20850.53
883.901	20734.65
884.277	21032.84
884.653	20908.44
885.029	21509.57
885.405	23828.47
885.781	23636.62
886.157	22665.92
886.532	22933.76
886.908	22907.88
887.284	25472.8
887.659	26292.3
888.035	27103.43
888.411	27799.96
888.786	28150.11
889.161	29124.1
889.537	28570.54
889.912	29489.47
890.287	29453.02
890.662	30201.69
891.037	29663.55
891.412	27653.08
891.787	27365.87
892.162	26401.67
892.536	27006.91
892.911	25991.99
893.286	25426.76
893.66	24394.92
894.035	25009.7
894.409	27225
894.784	26135
895.158	26551.69
895.532	28115.21
895.906	28876.05
896.281	29546.23
896.655	29080.27
897.029	33235.2
897.402	34601.22
897.776	38505.47
898.15	38371.7
898.524	37957.26
898.898	38432.04
899.271	43044.91
899.645	37298.5
900.018	35831.13
900.392	37146.22
900.765	37435.65
901.138	34623.59
901.511	34114.54
901.884	31334.55
902.258	28895.88
902.631	29848
903.003	34364.53
903.376	30993.99
903.749	34762.94
904.122	37208.69
904.495	41004.74
904.867	41536.11
905.24	36065.97
905.612	33577.73
905.985	34334.44
906.357	35914.4
906.729	34288.21
907.102	29295.1
907.474	28177.16
907.846	28353.76
908.218	27978.36
908.59	24719.44
908.962	23914.03
909.334	25757.32
909.705	27068.23
910.077	26285.07
910.449	27359.86
910.82	28155.06
911.192	30986.58
911.563	32218.88
911.935	34478.09
912.306	34542.95
912.677	35696.35
913.048	35350.61
913.419	38364.62
913.79	38584.68
914.161	41414.06
914.532	39609.06
914.903	36375.79
915.274	34551.43
915.645	34044.88
916.015	29964.56
916.386	28564.67
916.756	30408.65
917.127	31397.67
917.497	28068.77
917.868	30565.09
918.238	29042.33
918.608	29865.65
918.978	30490.62
919.348	32303.09
919.718	33383.41
920.088	32183.03
920.458	33473.26
920.828	35213.34
921.198	33363.76
921.567	35654.22
921.937	27604.11
922.306	27856.16
922.676	30054.6
923.045	25082.63
923.415	23835.34
923.784	21709.71
924.153	22308.52
924.522	22276.95
924.891	20937.65
925.26	22418.56
925.629	21885.36
925.998	25159.25
926.367	24566.44
926.736	23383.91
927.104	27842.23
927.473	29901.88
927.842	36095.03
928.21	35751.78
928.578	37569.22
928.947	35558.34
929.315	35793.28
929.683	41991.86
930.051	42302.73
930.42	49103.9
930.788	41993.38
931.156	41689.53
931.523	39110.07
931.891	36107.44
932.259	34678.21
932.627	40190.78
932.994	56784.81
933.362	46883.71
933.729	40656.63
934.097	38901.93
934.464	32889.86
934.831	37899.55
935.199	37337.5
935.566	36161.03
935.933	36638
936.3	44354.47
936.667	34533.73
937.034	31168.98
937.401	30829.73
937.767	26605.85
938.134	23681.62
938.501	33442.29
938.867	35667.39
939.234	60256.17
939.6	51410.52
939.967	56764.15
940.333	38033.03
940.699	32364.69
941.065	25946.15
941.431	34065.39
941.798	32883.56
942.163	43268.98
942.529	27052.21
942.895	24908.32
943.261	16135.07
943.627	21201.37
943.992	18551.66
944.358	18576.85
944.723	18677.88
945.089	18223.71
945.454	16832.37
945.82	17958.07
946.185	17264.84
946.55	19986.34
946.915	17932.66
947.28	21023.86
947.645	18500.55
948.01	17096.43
948.375	17825.5
948.74	21332.5
949.104	24905.4
949.469	35956.45
949.834	63571.85
950.198	60213.19
950.562	36120.01
950.927	30121.27
951.291	36240.62
951.655	30855.33
952.02	28963.05
952.384	21923.52
952.748	19124.23
953.112	18644.57
953.476	16193.04
953.839	14983.25
954.203	14840.8
954.567	18531.6
954.931	29152.07
955.294	24956.95
955.658	25121.34
956.021	42718.52
956.385	72406.66
956.748	106622.22
957.111	165437.84
957.474	185879.12
957.837	209324.36
958.2	158279.93
958.563	57010.5
958.926	38573.54
959.289	58520.75
959.652	65459.75
960.015	49125.64
960.377	70457.7
960.74	80577.95
961.102	139101.41
961.465	149418.97
961.827	80125.34
962.189	153918.64
962.552	106792.63
962.914	85512.68
963.276	55492.88
963.638	45803.21
964	45364
964.362	30677.01
964.724	29615.93
965.085	21102.1
965.447	17308.25
965.809	19702.03
966.17	19718.02
966.532	21311.32
966.893	19581.65
967.255	17828.06
967.616	21028.77
967.977	16845.69
968.338	18393.35
968.699	15122.85
969.061	15133.17
969.421	15234.59
969.782	17077.91
970.143	14433.8
970.504	14957.19
970.865	17002.17
971.225	17386.03
971.586	17027.28
971.946	24253.21
972.307	21047.33
972.667	27479.86
973.027	28283.6
973.388	34288.47
973.748	23326.94
974.108	25392.91
974.468	34367.09
974.828	26528.06
975.188	20404.48
975.548	18726.09
975.907	15710.25
976.267	17635.18
976.627	14823.19
976.986	15368.65
977.346	14637.39
977.705	14092.54
978.064	12831.6
978.424	10680.28
978.783	11029.98
979.142	12587.26
979.501	12059.66
979.86	12765.44
980.219	12297.02
980.578	15860.44
980.937	17768.9
981.296	15849.06
981.654	16307.91
982.013	25349.34
982.371	32862.13
982.73	30661.13
983.088	34757.1
983.447	37114.32
983.805	53075.71
984.163	111035.23
984.521	123379.15
984.879	180901.16
985.237	-294469.91
985.595	283952.27
985.953	70645.6
986.311	40829.24
986.669	23721.69
987.026	20465.76
987.384	27504.43
987.741	28409.57
988.099	20292.25
988.456	16140.14
988.814	15122.62
989.171	13126.15
989.528	12945.62
989.885	13676.98
990.242	10827.62
990.599	13493.59
990.956	11033.62
991.313	7728.42
991.67	6344.36
992.027	6738.93
992.383	5999.56
992.74	5257.12
993.096	5532.88
993.453	5732.33
993.809	5939.93
994.165	7924.08
994.522	7277.8
994.878	8028.03
995.234	10069.75
995.59	9941.21
995.946	9381.12
996.302	10677.88
996.658	12336.83
997.013	13558.83
997.369	16095.3
997.725	20592.1
998.08	13305.14
998.436	20411.84
998.791	28123.78
999.147	28096.68
999.502	30667.88
999.857	22285.03
1000.212	36441.48
1000.567	51900.02
1000.922	29969.91
1001.277	19045.06
1001.632	14151.4
1001.987	18222.7
1002.342	13127.04
1002.696	10503.84
1003.051	8375.08
1003.406	10160.24
1003.76	10125.58
1004.114	9991.22
1004.469	8404.21
1004.823	6961.89
1005.177	7503.1
1005.531	5934.83
1005.885	5277.19
1006.239	5946.53
1006.593	7485.33
1006.947	10025.65
1007.301	7489.59
1007.655	8169.87
1008.008	5993.7
1008.362	6721.18
1008.715	9609.75
1009.069	8747.78
1009.422	13236.59
1009.776	26519.03
1010.129	17594.58
1010.482	14615.9
1010.835	12376.94
1011.188	25828.38
1011.541	24230.59
1011.894	-148108.82
1012.247	436732.81
1012.6	29593.35
1012.952	18651.95
1013.305	9574.8
1013.657	6912.73
1014.01	6563.41
1014.362	5413.71
1014.715	4829.13
1015.067	4214.63
1015.419	4126.72
1015.771	3658.91
1016.123	3264.1
1016.475	3369.1
1016.827	3590.56
1017.179	3866.01
1017.531	3883.79
1017.883	3965.25
1018.234	3857.3
1018.586	4855.77
1018.938	5147.34
1019.289	7094.17
1019.64	8113.41
1019.992	7547.01
1020.343	6910.39
1020.694	5489.81
1021.045	4838.71
1021.396	5546.83
1021.747	5950.96
1022.098	7101.5
1022.449	5153.63
1022.8	4780.75
1023.151	3354.29
1023.501	2985.39
1023.852	3246.64
1024.202	3347.88
1024.553	3648.76
1024.903	3585.91
1025.253	3089.25
1025.604	2769.55
1025.954	3439.81
1026.304	4170.94
1026.654	4861.76
1027.004	7112.9
1027.354	11467.72
1027.703	10789.06
1028.053	14207.04
1028.403	20763.34
1028.753	29827.35
1029.102	39908.1
1029.452	204090.52
1029.801	8736.2
1030.15	5631.61
1030.499	4731.09
897.758	2856.33
901.051	2821.9
904.343	2857.41
907.636	2854.94
910.928	2920.3
914.22	2826.75
917.511	2834.26
920.803	2906.39
924.094	2932.01
927.384	2902.89
930.675	2868.3
933.965	2818.14
937.255	2818.44
940.544	2787.24
943.834	2701.96
947.123	2652.21
950.411	2750.71
953.7	2719.42
956.988	2679.28
960.276	2623.65
963.563	2715.53
966.851	2702.41
970.138	2768.19
973.424	2760.3
976.711	2707.13
979.997	2874.54
983.283	2900.85
986.568	2796.15
989.853	2822
993.138	2850.34
996.423	2931.16
999.708	2860.85
1002.992	2944.6
1006.275	2746.78
1009.559	2807.37
1012.842	2930.28
1016.125	2855.34
1019.408	2835.89
1022.69	2931.84
1025.972	2947.32
1029.254	2919.2
1032.536	2839.08
1035.817	2874.38
1039.098	2800.63
1042.379	2984.74
1045.659	2969.7
1048.939	2894.64
1052.219	2920.12
1055.498	2937.57
1058.778	2919.42
1062.057	2906.36
1065.335	2927.45
1068.614	2949.54
1071.892	2924.15
1075.17	3010.83
1078.447	2993.6
1081.724	2983.79
1085.001	3026.42
1088.278	2998.08
1091.554	3012.29
1094.83	3009.64
1098.106	3035.13
1101.382	3083.58
1104.657	3085.59
1107.932	3081.17
1111.206	3040.5
1114.481	2997.21
1117.755	3003.19
1121.029	2976.65
1124.302	3027.34
1127.575	2974.85
1130.848	2959.33
1134.121	2916.74
1137.393	2863.79
1140.665	2933.26
1143.937	2903.51
1147.208	2870.97
1150.48	2904.41
1153.75	2886.28
1157.021	2928.8
1160.291	2895.07
1163.561	2939.35
1166.831	2935.4
1170.101	2969.49
1173.37	2947.89
1176.639	2885.1
1179.907	2955.27
1183.176	2949.21
1186.444	2961.7
1189.711	2993.03
1192.979	2998.98
1196.246	2958.97
1199.513	2974.63
1202.78	2973.87
1206.046	2980.34
1209.312	3006.27
1212.578	3038.28
1215.843	2976.33
1219.108	2957.8
1222.373	2980.12
1225.638	2938.06
1228.902	2921.62
1232.166	2888.96
1235.43	2869.48
1238.693	2888.49
1241.956	2890.98
1245.219	2926.65
1248.482	2920.66
1251.744	2919.36
1255.006	3080.79
1258.268	3037.33
1261.529	2977.12
1264.79	2984.75
1268.051	3091.37
1271.312	3112.67
1274.572	3071.7
1277.832	3059.31
1281.092	3053
1284.351	3018.78
1287.61	2992.95
1290.869	2899.14
1294.128	2866.45
1297.386	2970.44
1300.644	2959.13
1303.902	2971.88
1307.159	2825.35
1310.416	2881.29
1313.673	2905.47
1316.93	2888.5
1320.186	2940.55
1323.442	2988.29
1326.697	2969.55
1329.953	2968.99
1333.208	2987.97
1336.463	2971.32
1339.717	2899.43
1342.972	3047.65
1346.226	3030.83
1349.479	2955.98
1352.733	2919.01
1355.986	2949.83
1359.238	2925.7
1362.491	2929.61
1365.743	2933.1
1368.995	2932.55
1372.247	2942.09
1375.498	2969.26
1378.749	2974.16
1382	2928.91
1385.251	2988.1
1388.501	2955.48
1391.751	2932.66
1395	2906.73
1398.25	2941.6
1401.499	2943.65
1404.748	2861.31
1407.996	2859.8
1411.244	2843.62
1414.492	2818.99
1417.74	2797.47
1420.987	2812.5
1424.234	2866.97
1427.481	2853.33
1430.728	2912.59
1433.974	2887.7
1437.22	2907.71
1440.465	2911.43
1443.711	2859.98
1446.956	2899.56
1450.201	2896.63
1453.445	2938.48
1456.689	2912.49
1459.933	2926.26
1463.177	2956.1
1466.42	2925.85
1469.663	2905.74
1472.906	2890.82
1476.148	2986.48
1479.391	2924.72
1482.633	2901.94
1485.874	2904.13
1489.115	2885.57
1492.356	2894.57
1495.597	2871.31
1498.838	2876.22
1502.078	2839.9
1505.318	2777.6
1508.557	2825.82
1511.797	2781.75
1515.036	2881.42
1518.274	2870.11
1521.513	2850.05
1524.751	2875.26
1527.989	2886.36
1531.227	2896.16
1534.464	2882.81
1537.701	2912.4
1540.938	2934.69
1544.174	2888.42
1547.41	2891.17
1550.646	2931.05
1553.882	2957.89
1557.117	3014.16
1560.352	3030.87
1563.587	2987.73
1566.821	2942.65
1570.055	2985.12
1573.289	2955.01
1576.523	3037.53
1579.756	3040.84
1582.989	3059.37
1586.222	3020.29
1589.454	3064.31
1592.686	3028.74
1595.918	3055
1599.15	3038.35
1602.381	3130.1
1605.612	3073.95
1608.843	3171.11
1612.073	3077.61
1615.303	3060.63
1618.533	3049.68
1621.762	3052.23
1624.992	3045.04
1628.221	3027.57
1631.449	3011.04
1634.678	3079.32
1637.906	3025.49
1641.134	3072.11
1644.361	3022.68
1647.588	3012.42
1650.815	3027.38
1654.042	3008.36
1657.269	3041.9
1660.495	2987.56
1663.72	2987.28
1666.946	2952.1
1670.171	2881.21
1673.396	2858.16
1676.621	2847.15
1679.845	2879.74
1683.069	2902.84
1686.293	2954.79
1689.517	2917.91
1692.74	2834.2
1695.963	2868.76
1699.185	2904.71
1702.408	2877.81
1705.63	2925.45
1708.852	2933.99
1712.073	2906.75
1715.294	2880.42
1718.515	2950.05
1721.736	2889.75
1724.956	2891.54
1728.176	2920.99
1731.396	2939.41
1734.616	2934.09
1737.835	2958.27
1741.054	2937.9
1744.272	2933.12
1747.491	2960.56
1750.709	3023.8
1753.927	2912.06
1757.144	2965.88
1760.361	3001.01
1763.578	3002.24
1766.795	2938.44
1770.011	2947.88
1773.227	2996.45
1776.443	3033
1779.658	3075.72
1782.874	3020.71
1786.089	2994.58
1789.303	2998.55
1792.518	3005.7
1795.732	2994.98
1798.945	3000.4
1802.159	3055.32
1805.372	2942.06
1808.585	2921.21
1811.797	2920.28
1815.01	2983.09
1818.222	2981.89
1821.434	2927.75
1824.645	2999.43
1827.856	2973.74
1831.067	3009.9
1834.278	2976.02
1837.488	2958.77
1840.698	3120.94
1843.908	3038.42
1847.117	3002.19
1850.326	2864.11
1853.535	2983.97
1856.744	3039.3
1859.952	2946.01
1863.16	2944.19
1866.368	2972.32
1869.575	3073.84
1872.782	2959.2
1875.989	2898.74
1879.196	2998.94
1882.402	2991.59
1885.608	3038.01
1888.814	2924.19
1892.019	2812.92
1895.224	2864.7
1898.429	2852.88
1901.634	2826.14
1904.838	2805.47
1908.042	2852.81
1911.246	2858.31
1914.449	2775.69
1917.652	2779.58
1920.855	2761.19
1924.058	2822.77
1927.26	2858.18
1930.462	2885.21
1933.664	2907.38
1936.865	2843.46
1940.066	2845.96
1943.267	2793.04
1946.467	2812.91
1949.668	2843.08
1952.868	2911.43
1956.067	2883.99
1959.267	2809.97
1962.466	2838.82
1965.665	2825.69
1968.863	2824.27
1972.061	2842.97
1975.259	2845.32
1978.457	2927.54
1981.654	2886.04
1984.852	2885.49
1988.048	2806.88
1991.245	2816.65
1994.441	2902.84
1997.637	2899.66
2000.833	2881.94
2004.028	2921.78
2007.223	2972.02
2010.418	2945.61
2013.613	2912.88
2016.807	2868.71
2020.001	2878.67
2023.194	2934.17
2026.388	2907.94
2029.581	2853
2032.774	2896
2035.966	2898.66
2039.158	2822.3
2042.35	2854.01
2045.542	2780.43
2048.733	2887.36
2051.924	2924.27
2055.115	2959.4
2058.306	2891.39
2061.496	2949.76
2064.686	3021.95
2067.875	2937.56
2071.065	2957.37
2074.254	2989.2
2077.442	2940.7
2080.631	3034.49
2083.819	2908.57
2087.007	2883.63
2090.195	2848.33
2093.382	2892.77
2096.569	2872.53
2099.756	2820.18
2102.942	2836.24
2106.128	2839.34
2109.314	2830.5
2112.5	2782.89
2115.685	2764.73
2118.87	2775.87
2122.055	2843.04
2125.239	2806.13
2128.424	2769.64
2131.608	2891.79
2134.791	2872.07
2137.974	2939.88
2141.157	2920.99
2144.34	2866.8
2147.523	2890.46
2150.705	2897.25
2153.887	2881.16
2157.068	2822.91
2160.25	2835.33
2163.431	2879.01
2166.611	2815.64
2169.792	2829.66
2172.972	2714.3
2176.152	2808.06
2179.331	2845.1
2182.511	2820.58
2185.69	2851.38
2188.868	2842.87
2192.047	2910.28
2195.225	2886.3
2198.403	2840.65
2201.58	2833.77
2204.758	2832.56
2207.935	2919.72
2211.111	2796.94
2214.288	2780.01
2217.464	2823.16
2220.64	2800.63
2223.815	2858.51
2226.991	2772.84
2230.166	2794.73
2233.34	2817.81
2236.515	2846.75
2239.689	2929.02
2242.863	2869.5
2246.036	2926.93
2249.209	2934.22
2252.382	2974.2
2255.555	2952.42
2258.727	2883.45
2261.9	2930.41
2265.071	2922.41
2268.243	2929.18
2271.414	2854.01
2274.585	2802.98
2277.756	2875.06
2280.926	2831.44
2284.096	2876.21
2287.266	2772.21
2290.436	2836.2
2293.605	2869.36
2296.774	2892.37
2299.942	2923.04
2303.111	2940.02
2306.279	2985.99
2309.447	2969.62
2312.614	2947.61
2315.781	2965.44
2318.948	2929.72
2322.115	2972.07
2325.281	2870.27
2328.447	2896.62
2331.613	2873.33
2334.779	2835.33
2337.944	2843.74
2341.109	2841.61
2344.274	2824.5
2347.438	2784.15
2350.602	2809.18
2353.766	2831
2356.929	2813.2
2360.092	2860.07
2363.255	2802.59
2366.418	2722.57
2369.58	2856.34
2372.742	2602.76
2375.904	2626.57
2379.066	2598.72
2382.227	2643.8
2385.388	2605.47
2388.548	2521.85
2391.709	2583.62
2394.869	2557.53
2398.029	2674.67
2401.188	2696.89
2404.347	2617.81
2407.506	2786.68
2410.665	2809.62
2413.823	2825.76
2416.981	2771.26
2420.139	2810.24
2423.296	2864.06
2426.453	2838.1
2429.61	2863.19
2432.767	2782.35
2435.923	2820.16
2439.079	2764.23
2442.235	2821.51
2445.391	2743.59
2448.546	2764.35
2451.701	2822.54
2454.855	2782.29
2458.009	2846.12
2461.163	2855.74
2464.317	2806.74
2467.471	2844.13
2470.624	2887.98
2473.777	2874.75
2476.929	2887.26
2480.082	2909.77
2483.234	2872.04
2486.385	2816.13
2489.537	2807.67
2492.688	2755.38
2495.839	2769.29
2498.989	2781.11
2502.14	2763.58
2505.29	2738.83
2508.439	2768.36
2511.589	2682
2514.738	2702.78
2517.887	2736.44
2521.035	2810.18
2524.183	2804.47
2527.331	2781.07
2530.479	2748.9
2533.627	2761.39
