Data from N_3_DIV_PA_2N_Splice17_13-17-05-078.txt Node
Date: Sat Mar 14 13:17:05 EDT 2020
User: sa697716
Spectrometer: FLMS03696
Trigger mode: 0
Integration Time (sec): 3.180400E-1
Scans to average: 20
Electric dark correction enabled: true
Nonlinearity correction enabled: true
Boxcar width: 5
XAxis mode: Wavelengths
Number of Pixels in Spectrum: 2048
>>>>>Begin Spectral Data<<<<<
187.83	-367768.31
188.298	2662.83
188.766	1437.12
189.233	1288.34
189.701	1775.16
190.169	2454.94
190.636	958.88
191.104	794.19
191.571	164.46
192.039	-43.95
192.506	-17.62
192.974	513.96
193.441	-817.13
193.908	-219.61
194.375	-48.96
194.842	51.57
195.31	163.69
195.777	200.56
196.244	369.76
196.711	223.79
197.177	188.56
197.644	178.49
198.111	277.06
198.578	350.34
199.045	262.22
199.511	365.87
199.978	321.24
200.445	323.52
200.911	330.86
201.378	262.75
201.844	292.73
202.31	470.4
202.777	508.75
203.243	311.86
203.709	280.87
204.176	348.17
204.642	309.24
205.108	296.2
205.574	189.32
206.04	126.16
206.506	138.7
206.972	101.95
207.438	100.5
207.903	97.98
208.369	89.07
208.835	106.34
209.301	119.68
209.766	98.38
210.232	107.44
210.697	148.34
211.163	206.85
211.628	266.7
212.094	317.29
212.559	487.14
213.024	337.47
213.49	442.95
213.955	433.16
214.42	378.78
214.885	390.02
215.35	398.45
215.815	482.25
216.28	528.48
216.745	437.48
217.21	498.93
217.675	426.76
218.14	499.59
218.604	556.21
219.069	668.04
219.534	766.83
219.998	889.69
220.463	1086.49
220.927	1262.29
221.392	1209.37
221.856	1262.02
222.32	1544.47
222.785	1954.57
223.249	2467.55
223.713	2791.78
224.177	2838.11
224.642	3611.46
225.106	4456.03
225.57	4930.81
226.034	3797.41
226.497	5873.2
226.961	5437.04
227.425	6467.85
227.889	7224.99
228.353	7255.99
228.816	15079.91
229.28	14514.09
229.744	12298.79
230.207	7602.7
230.671	7520.41
231.134	12328.61
231.597	14307.63
232.061	14262.16
232.524	13918.06
232.987	9643.49
233.45	8789.43
233.914	7914.87
234.377	8094.21
234.84	7444.38
235.303	8765.64
235.766	9787.19
236.229	10150.15
236.691	6367.98
237.154	7146.87
237.617	5396.92
238.08	5521.37
238.542	6450.82
239.005	4631.73
239.468	4630.53
239.93	4373.46
240.393	3984.55
240.855	3519.53
241.317	3603.11
241.78	4395.01
242.242	4573.59
242.704	4993.8
243.166	4375.06
243.629	4020.13
244.091	4650.86
244.553	5110.76
245.015	5541.1
245.477	7197.49
245.939	10548.93
246.4	11270.96
246.862	10974.07
247.324	10385.08
247.786	11609.57
248.247	15281.06
248.709	15746.45
249.17	11849.75
249.632	11307.23
250.093	13213.57
250.555	11464.57
251.016	7056.65
251.477	6728.31
251.939	7329.1
252.4	7728.68
252.861	9192.02
253.322	8600.38
253.783	10245.68
254.244	13294.02
254.705	10472.36
255.166	9285.79
255.627	9188.41
256.088	13001.59
256.549	13813.42
257.009	11877.87
257.47	14409.47
257.931	11787
258.391	8838.15
258.852	9130.33
259.312	9584.7
259.773	11870.5
260.233	10108.19
260.694	8561.9
261.154	9737.09
261.614	7897.06
262.074	7095.86
262.534	7408.74
262.994	7021.89
263.455	9377.45
263.915	7952.91
264.374	7520.57
264.834	8227.13
265.294	9127.17
265.754	9474.84
266.214	8982.59
266.673	8431.78
267.133	10656.56
267.593	10590.64
268.052	12997.15
268.512	11330.59
268.971	13741.39
269.431	15121.4
269.89	13541.16
270.349	20369.48
270.809	22764.09
271.268	20527.04
271.727	45921.6
272.186	29862.63
272.645	22429.12
273.104	16143.45
273.563	23437.55
274.022	18381.93
274.481	15708.67
274.94	12159.39
275.399	9040.92
275.857	10535.57
276.316	14280.76
276.775	12775.41
277.233	12613.58
277.692	11879.72
278.15	13506.1
278.609	13987.59
279.067	12997.23
279.525	12099.59
279.984	15663.16
280.442	18831.41
280.9	18681.24
281.358	12304.99
281.816	11478.57
282.274	11242.21
282.732	11591.03
283.19	11653.28
283.648	10035.15
284.106	10689.65
284.564	10876.89
285.021	10116.26
285.479	7570.48
285.937	6864.57
286.394	6054.51
286.852	6243.22
287.309	6565.67
287.767	6389.62
288.224	6116.86
288.682	6743.07
289.139	7464.65
289.596	6879.93
290.053	7163.87
290.511	9078.77
290.968	11094.29
291.425	15145.28
291.882	12735.2
292.339	11176.9
292.796	11098.25
293.252	10488.38
293.709	8406.89
294.166	7566.6
294.623	8373.44
295.079	8062.58
295.536	8153.78
295.992	7428.61
296.449	7345.5
296.905	7659.29
297.362	7391.01
297.818	7813.04
298.274	8138.64
298.731	8268.97
299.187	8177.96
299.643	8798.06
300.099	10651.92
300.555	11643.96
301.011	9732.05
301.467	9458.11
301.923	11037.48
302.379	10773.6
302.835	10584.17
303.291	10615.23
303.746	12067.53
304.202	15218.89
304.658	15267.4
305.113	10284.59
305.569	10097.89
306.024	10765.13
306.479	10186.35
306.935	8587.87
307.39	9337.07
307.845	8625.63
308.301	8685.94
308.756	8466.11
309.211	8177.98
309.666	8362.13
310.121	10380.2
310.576	10498.69
311.031	10391.42
311.486	11850.41
311.94	11811.22
312.395	15769.52
312.85	29459.91
313.305	143550.2
313.759	745449.52
314.214	53902.71
314.668	42930.81
315.123	36163.42
315.577	13031.54
316.032	11617.5
316.486	14609.2
316.94	11601.09
317.394	8129.37
317.849	6350.54
318.303	6025.02
318.757	5699.76
319.211	6329.61
319.665	5524.94
320.119	5605.33
320.572	8021.15
321.026	7508.92
321.48	6244.95
321.934	6760.05
322.387	6750.5
322.841	7288.42
323.295	6619.34
323.748	7588.95
324.202	7677.59
324.655	9261.15
325.108	12993.97
325.562	9198.49
326.015	10906.25
326.468	8261.71
326.921	9293.06
327.374	8702.44
327.827	9094.85
328.28	10252.96
328.733	6883.7
329.186	6058.43
329.639	5759.64
330.092	4840.96
330.545	4613.01
330.997	4663.17
331.45	5116.97
331.903	5989.82
332.355	10247.92
332.808	9958.65
333.26	8176.31
333.713	8879.48
334.165	8913.63
334.617	11875.59
335.069	9539.05
335.522	17167.58
335.974	19033.7
336.426	17282.81
336.878	11896.42
337.33	6063.85
337.782	5920.83
338.234	7475.63
338.686	8928.17
339.137	10577.86
339.589	9978.41
340.041	7857.48
340.493	6777.64
340.944	6926.04
341.396	7483.94
341.847	6359.44
342.299	7541.68
342.75	9250.24
343.201	8056.65
343.653	9295.18
344.104	11487.06
344.555	9079.17
345.006	14091.75
345.457	10902.24
345.908	8694.05
346.359	8235.87
346.81	6706.91
347.261	7047.96
347.712	6923.81
348.163	7434.12
348.613	7590.14
349.064	7118.89
349.515	6235.53
349.965	6421.46
350.416	7734.7
350.866	8503.31
351.317	9564.21
351.767	15882.78
352.217	20092.45
352.668	16732.1
353.118	15341.58
353.568	14706.46
354.018	11641.64
354.468	12307.03
354.918	8840.43
355.368	7705.96
355.818	10870.58
356.268	31371.96
356.718	132339.22
357.168	33050.28
357.617	16561.87
358.067	18357.18
358.517	17261.73
358.966	20296.31
359.416	22806.41
359.865	24622.69
360.315	29356.79
360.764	13784.22
361.213	7736.74
361.663	7268.47
362.112	8963.26
362.561	14534.75
363.01	11038.42
363.459	9267.53
363.908	10010.08
364.357	8550.96
364.806	14381.37
365.255	9878.56
365.703	9073.17
366.152	9109.94
366.601	7403.75
367.05	6046.55
367.498	5479.96
367.947	5709.06
368.395	5942.3
368.844	5274.94
369.292	6327.15
369.74	4415.27
370.189	6736.12
370.637	7872.16
371.085	6767.32
371.533	8217.69
371.981	7897.6
372.429	7566.03
372.877	7891.69
373.325	6617.86
373.773	6694.24
374.221	5928.93
374.669	7344.91
375.116	6347.95
375.564	6395.3
376.012	7143.15
376.459	5907.78
376.907	7013.23
377.354	8416.32
377.801	7871.99
378.249	9033.32
378.696	11569.38
379.143	14033.28
379.591	14904.28
380.038	25264.94
380.485	18263.6
380.932	19695.49
381.379	18039.5
381.826	13322.01
382.273	9471.59
382.72	8229.73
383.166	8021.36
383.613	5202.64
384.06	4685.98
384.506	5417.11
384.953	3988.44
385.4	3988.13
385.846	3481.3
386.292	3363.44
386.739	3279.58
387.185	3229.55
387.631	3222.95
388.078	3129.56
388.524	3327.89
388.97	3055.33
389.416	2543.42
389.862	2694.07
390.308	2551.19
390.754	2586.99
391.2	2798.27
391.645	2845.93
392.091	2746.1
392.537	2646.8
392.983	2619.19
393.428	2596.66
393.874	2768.99
394.319	2781.93
394.765	2637.11
395.21	2697.81
395.655	2513.94
396.101	2343.96
396.546	2109.92
396.991	2093.32
397.436	1937.96
397.881	1869.66
398.326	1743.52
398.771	1648.39
399.216	1424.62
399.661	1271.62
400.106	1264.45
400.551	1303.02
400.995	1164.34
401.44	1147.09
401.885	1071.5
402.329	1078.53
402.774	1034.3
403.218	1014.3
403.663	971.06
404.107	1000.02
404.551	1006.69
404.995	914.55
405.44	865.9
405.884	872.79
406.328	836.63
406.772	833.54
407.216	754.94
407.66	723.98
408.104	670.86
408.547	627.22
408.991	604.95
409.435	576.65
409.879	572.39
410.322	568.32
410.766	552.35
411.209	526.42
411.653	502.13
412.096	493.77
412.54	491.22
412.983	490.44
413.426	493.11
413.869	487.44
414.312	480.43
414.756	456.59
415.199	431.43
415.642	417.01
416.085	416.49
416.527	412.68
416.97	416.16
417.413	392.88
417.856	386.43
418.298	379.84
418.741	374.07
419.184	370.66
419.626	382.83
420.069	384.56
420.511	388.96
420.953	381.4
421.396	379.47
421.838	367.04
422.28	376.52
422.722	377.9
423.164	380.49
423.606	377.64
424.048	372.96
424.49	358.64
424.932	354.3
425.374	343.3
425.816	346.99
426.258	350.63
426.699	355.19
427.141	353.2
427.582	355.73
428.024	354.19
428.465	345.33
428.907	337.7
429.348	331.09
429.789	331.77
430.231	329.55
430.672	334.31
431.113	327.46
431.554	321.52
431.995	309.3
432.436	300.94
432.877	293.68
433.318	294.32
433.759	291.17
434.2	288.56
434.64	282.39
435.081	281.5
435.522	267.19
435.962	254.18
436.403	249.08
436.843	248.38
437.284	240.04
437.724	230.53
438.164	224.54
438.604	219.32
439.045	213.92
439.485	208.03
439.925	202.12
440.365	194.3
440.805	191.16
441.245	189.33
441.685	183.81
442.125	179.72
442.564	179.7
443.004	177.27
443.444	176.38
443.883	176.68
444.323	171.29
444.762	166.29
445.202	166.7
445.641	168.22
446.081	162.92
446.52	162.51
446.959	162.54
447.398	160.31
447.837	156.64
448.276	151.64
448.716	150.05
449.154	147.72
449.593	146.44
450.032	145.83
450.471	142.19
450.91	140.98
451.349	141.81
451.787	139.27
452.226	139.57
452.664	138.8
453.103	138.45
453.541	135.7
453.98	139.61
454.418	139.74
454.856	139.96
455.295	139.85
455.733	142.26
456.171	141.97
456.609	141.94
457.047	142.3
457.485	146.27
457.923	149.19
458.361	148.19
458.798	148
459.236	147.67
459.674	145.96
460.111	148.35
460.549	147.65
460.987	146.59
461.424	146.42
461.862	145.17
462.299	141.41
462.736	140.65
463.173	139.77
463.611	141.22
464.048	141.25
464.485	143.63
464.922	140.22
465.359	138.27
465.796	146.45
466.233	146.41
466.67	147.6
467.106	149.47
467.543	146.61
467.98	144.63
468.416	137.93
468.853	135.18
469.29	129.92
469.726	129.04
470.162	124.96
470.599	114.84
471.035	112.19
471.471	108.49
471.907	105.9
472.344	104.64
472.78	105.97
473.216	106.39
473.652	106.25
474.088	105.35
474.523	105.7
474.959	106.02
475.395	104.38
475.831	104.46
476.266	103.7
476.702	102.3
477.138	101.49
477.573	100.84
478.008	100.7
478.444	101.8
478.879	104.87
479.314	105.24
479.75	106.04
480.185	107.24
480.62	107.75
481.055	109.04
481.49	110.31
481.925	112.18
482.36	116.67
482.795	119.9
483.229	122.03
483.664	123.17
484.099	122.73
484.534	124.89
484.968	126.83
485.403	127.13
485.837	125.14
486.271	125.27
486.706	124.76
487.14	120.63
487.574	118.48
488.009	116.52
488.443	114.9
488.877	116.97
489.311	116.42
489.745	116.65
490.179	117.36
490.613	121.68
491.046	121.22
491.48	121.75
491.914	121.17
492.348	120.82
492.781	121.27
493.215	120.55
493.648	118.33
494.082	118.11
494.515	117.22
494.948	117.97
495.382	115.8
495.815	115.27
496.248	114.71
496.681	115.89
497.114	116.24
497.547	116.87
497.98	119.06
498.413	120.09
498.846	120.79
499.279	119.86
499.711	118.07
500.144	116.64
500.577	118.41
501.009	117.96
501.442	118.86
501.874	118.21
502.306	116.62
502.739	119.06
503.171	119.13
503.603	117.49
504.036	117.14
504.468	116.4
504.9	116.32
505.332	114.65
505.764	113.71
506.196	112.08
506.627	111.2
507.059	110.37
507.491	104.63
507.923	102.5
508.354	102.97
508.786	102.33
509.217	102.42
509.649	102.26
510.08	101.33
510.512	101.77
510.943	101.43
511.374	101.21
511.805	100.74
512.237	100.82
512.668	100.54
513.099	99.43
513.53	99.42
513.961	99.56
514.391	100.31
514.822	103.92
515.253	105.36
515.684	104.94
516.114	105.56
516.545	106.13
516.975	106.31
517.406	106.22
517.836	104.51
518.267	103.88
518.697	104.22
519.127	102.17
519.558	98.6
519.988	95.95
520.418	94.14
520.848	92.49
521.278	90.98
521.708	119.75
522.138	119.8
522.567	119.75
522.997	119.69
523.427	117.8
523.857	117.95
524.286	116.99
524.716	117.03
525.145	117.94
525.575	118.44
526.004	117.93
526.433	87.53
526.863	85.78
527.292	86.53
527.721	86.9
528.15	86.88
528.579	86.54
529.008	87.28
529.437	86.72
529.866	86.06
530.295	85.2
530.724	86.49
531.152	87.5
531.581	88.62
532.01	88.1
532.438	86.78
532.867	85.88
533.295	86.59
533.723	86.19
534.152	86.57
534.58	87.17
535.008	86.44
535.436	87.06
535.865	86.67
536.293	85.73
536.721	85.75
537.149	87.26
537.576	89.03
538.004	89.5
538.432	88.36
538.86	88.79
539.287	88.16
539.715	88.73
540.143	87.05
540.57	87.2
540.998	87.46
541.425	88.51
541.852	87.19
542.28	86.37
542.707	84.58
543.134	84.58
543.561	84.33
543.988	84.19
544.415	84.04
544.842	83.44
545.269	83.45
545.696	84.41
546.123	83.86
546.549	83.25
546.976	82.56
547.403	82.86
547.829	82.2
548.256	81.21
548.682	81.29
549.108	81.83
549.535	81.84
549.961	80.64
550.387	79.42
550.813	80.51
551.24	80.56
551.666	80.22
552.092	79.9
552.518	80.25
552.943	81.28
553.369	80.65
553.795	80.57
554.221	81.08
554.646	81.31
555.072	83.28
555.498	81.3
555.923	81.58
556.349	82.51
556.774	82.63
557.199	82.41
557.625	81.21
558.05	82.12
558.475	82.02
558.9	82.56
559.325	83.31
559.75	82.62
560.175	82.46
560.6	82
561.025	81.31
561.449	81.95
561.874	82.35
562.299	84
562.723	83.61
563.148	83.94
563.572	83.68
563.997	83.9
564.421	82.78
564.846	83.27
565.27	84.52
565.694	85.03
566.118	85.36
566.542	86.85
566.966	86.99
567.39	88.39
567.814	88.92
568.238	89.73
568.662	90.24
569.086	92.31
569.509	92.49
569.933	93.64
570.357	93.93
570.78	93.14
571.204	94.73
571.627	94.18
572.05	94.59
572.474	95.93
572.897	96.3
573.32	97.88
573.743	97.08
574.166	98.35
574.589	97.76
575.012	98.1
575.435	98.44
575.858	97.52
576.281	97.61
576.704	96.05
577.126	94.27
577.549	93.34
577.972	91.9
578.394	92.34
578.817	94.67
579.239	93.99
579.661	94.31
580.084	96.09
580.506	96.19
580.928	96.13
581.35	96.35
581.772	97.5
582.194	97.18
582.616	96.68
583.038	94.83
583.46	91.51
583.882	92.25
584.303	91.66
584.725	89.96
585.147	95.65
585.568	97.63
585.99	99.34
586.411	100.58
586.833	102.65
587.254	102.85
587.675	104.24
588.096	105.98
588.518	105.77
588.939	105.67
589.36	106.76
589.781	99.05
590.202	101.25
590.623	101.03
591.043	98.88
591.464	97.74
591.885	99.19
592.305	98.93
592.726	97.69
593.147	98.12
593.567	97.43
593.987	96.33
594.408	96.12
594.828	91.08
595.248	91.5
595.669	92.39
596.089	92.18
596.509	90.93
596.929	90.33
597.349	91.05
597.769	89.89
598.189	90.39
598.608	90.81
599.028	91.94
599.448	92.34
599.867	90.53
600.287	89.15
600.706	89.74
601.126	89.3
601.545	90.82
601.965	90.4
602.384	90.48
602.803	90.32
603.222	91.72
603.641	91.04
604.061	92.22
604.48	92.77
604.898	93.82
605.317	94.36
605.736	95.28
606.155	95.61
606.574	95.58
606.992	96.01
607.411	96.27
607.829	94.38
608.248	94.77
608.666	93.72
609.085	94.44
609.503	93.97
609.921	94.51
610.339	95.36
610.758	94.98
611.176	94.82
611.594	95.43
612.012	95.85
612.43	97.96
612.847	98.22
613.265	100.71
613.683	100.94
614.101	102.06
614.518	100.76
614.936	100.22
615.353	100.05
615.771	101.11
616.188	102.12
616.606	102.37
617.023	101.95
617.44	101.74
617.857	99.48
618.274	99.11
618.691	100.37
619.108	100.23
619.525	99.67
619.942	100.79
620.359	101.22
620.776	100.32
621.192	101.21
621.609	101.14
622.026	102.22
622.442	104.37
622.859	104.57
623.275	102.76
623.691	103.67
624.108	105.03
624.524	105.2
624.94	105.09
625.356	105.66
625.772	105.59
626.188	106.23
626.604	107.24
627.02	105.95
627.436	106.56
627.852	108.76
628.268	109.86
628.683	108.93
629.099	108.92
629.514	107.63
629.93	108.18
630.345	109.03
630.761	108.26
631.176	107.75
631.591	110.06
632.007	110.5
632.422	108.77
632.837	107.5
633.252	109.58
633.667	109.09
634.082	109.73
634.497	109.92
634.911	111.23
635.326	112.1
635.741	111.42
636.155	109.09
636.57	111.13
636.984	112.64
637.399	115.83
637.813	114.58
638.228	115.76
638.642	116.07
639.056	115.64
639.47	114.66
639.884	114.93
640.298	115.61
640.712	117.31
641.126	115.2
641.54	114.29
641.954	111.18
642.368	112.36
642.781	114.85
643.195	114.93
643.609	116.41
644.022	116.24
644.436	116.03
644.849	114.54
645.262	113.73
645.676	114.33
646.089	115
646.502	117.29
646.915	116.41
647.328	113.75
647.741	114.85
648.154	114.1
648.567	118.13
648.98	118.46
649.393	119.63
649.805	120.8
650.218	121.22
650.631	120.86
651.043	120.37
651.456	121.77
651.868	121.74
652.28	123.55
652.693	124.94
653.105	123.42
653.517	124.32
653.929	125.56
654.341	126.77
654.753	126.03
655.165	127.09
655.577	127.18
655.989	125.6
656.401	123.76
656.813	121.5
657.224	119.82
657.636	116.13
658.047	116.67
658.459	116.04
658.87	114.32
659.282	113.62
659.693	113.33
660.104	113.34
660.515	112.35
660.926	114.22
661.338	114.22
661.749	113.94
662.159	115.64
662.57	114.03
662.981	113.77
663.392	114.7
663.803	116.52
664.213	116.3
664.624	115.3
665.035	116.81
665.445	116.09
665.855	116.39
666.266	118.3
666.676	118.02
667.086	117.6
667.497	118.46
667.907	117.21
668.317	116.31
668.727	119.98
669.137	119.87
669.547	120.66
669.956	121.03
670.366	122.3
670.776	122.24
671.186	122.06
671.595	123.97
672.005	123.46
672.414	125.64
672.824	126.3
673.233	123.46
673.642	124.57
674.052	125.65
674.461	126.94
674.87	126.47
675.279	127
675.688	126.54
676.097	127.08
676.506	127.09
676.915	126.74
677.323	125.92
677.732	124.81
678.141	123.59
678.549	120.2
678.958	118.25
679.366	116.98
679.775	114.63
680.183	118.58
680.592	117.31
681	117.19
681.408	116.54
681.816	115.75
682.224	115.19
682.632	118.34
683.04	121.14
683.448	122.68
683.856	126.03
684.264	131.06
684.671	129.72
685.079	131.96
685.487	133.69
685.894	136.89
686.302	138.75
686.709	140.63
687.116	140.3
687.524	142.44
687.931	144.56
688.338	143.45
688.745	139.22
689.152	138.15
689.559	137.93
689.966	139.08
690.373	136.26
690.78	136.68
691.187	136.85
691.593	135.81
692	132.21
692.407	130.37
692.813	134.43
693.22	134.41
693.626	132.81
694.032	132.27
694.439	132.45
694.845	131.61
695.251	131.2
695.657	131.2
696.063	130.39
696.469	129.97
696.875	129.99
697.281	124.05
697.687	122.46
698.093	121.56
698.498	121.38
698.904	118.2
699.31	118.03
699.715	121.64
700.12	122.86
700.526	123.38
700.931	123.41
701.337	123.23
701.742	124.12
702.147	125.17
702.552	124.11
702.957	123.12
703.362	123.03
703.767	122.42
704.172	117.85
704.577	113.16
704.981	110.87
705.386	111.46
705.791	109.72
706.195	108.17
706.6	107.72
707.004	107.65
707.408	104.79
707.813	106.41
708.217	106.13
708.621	105.27
709.025	107.94
709.43	110.28
709.834	110.76
710.237	110.57
710.641	109.39
711.045	109.46
711.449	110.46
711.853	117.44
712.256	116.02
712.66	115.64
713.064	117.41
713.467	118.67
713.87	119.61
714.274	120.46
714.677	124.53
715.08	129.46
715.484	133.37
715.887	142.23
716.29	138.92
716.693	144.94
717.096	150.78
717.499	153.25
717.901	151.48
718.304	150.16
718.707	149.89
719.109	144.84
719.512	142.22
719.915	141.5
720.317	135.07
720.719	134.98
721.122	132.22
721.524	130.41
721.926	136.13
722.328	139.01
722.731	137.79
723.133	138.25
723.535	142.18
723.937	141.95
724.338	141.12
724.74	143.54
725.142	215.24
725.544	220.65
725.945	239.35
726.347	231.92
726.748	231.68
727.15	233.27
727.551	236.1
727.952	233.8
728.354	231.45
728.755	228.65
729.156	224.1
729.557	151.91
729.958	141.91
730.359	123.01
730.76	122.46
731.161	120.4
731.562	117.65
731.962	111.93
732.363	110.83
732.763	110.24
733.164	108.65
733.564	108.18
733.965	108.16
734.365	107.62
734.766	108.1
735.166	106.19
735.566	105.99
735.966	106.23
736.366	106.58
736.766	105.16
737.166	104.35
737.566	105.51
737.966	104.12
738.365	104.89
738.765	107.16
739.165	105.15
739.564	104.16
739.964	103.26
740.363	100.86
740.763	99.87
741.162	102.06
741.561	101.99
741.96	100.03
742.36	99.63
742.759	100.16
743.158	98.55
743.557	98.18
743.955	98.48
744.354	97.29
744.753	97.62
745.152	98.44
745.55	96.67
745.949	96.28
746.348	97.11
746.746	95.7
747.144	97.43
747.543	96.87
747.941	97.32
748.339	96.74
748.737	97.85
749.136	99.52
749.534	98.44
749.932	100.51
750.33	101.2
750.727	101.01
751.125	103.39
751.523	100.24
751.921	106.47
752.318	107.41
752.716	111.2
753.113	110.45
753.511	109.55
753.908	111.41
754.305	116.95
754.703	117.82
755.1	120.44
755.497	121.03
755.894	124.51
756.291	123.49
756.688	129.87
757.085	135.97
757.482	150.71
757.878	171.08
758.275	186.66
758.672	191.06
759.068	205.01
759.465	223.53
759.861	247.44
760.258	274.07
760.654	289.51
761.05	289.91
761.447	277.94
761.843	257.33
762.239	234.66
762.635	220.77
763.031	213.72
763.427	203.5
763.822	191.25
764.218	179.3
764.614	164.35
765.01	150.53
765.405	142.99
765.801	139.65
766.196	132.32
766.592	126.26
766.987	120.25
767.382	114.88
767.778	112.23
768.173	109.94
768.568	108.72
768.963	107.7
769.358	110.02
769.753	110.73
770.148	108.72
770.542	108.95
770.937	108.57
771.332	111.91
771.726	112.58
772.121	117.62
772.515	119
772.91	118.14
773.304	119.13
773.699	118.02
774.093	116.22
774.487	116.12
774.881	116.32
775.275	116.79
775.669	113.67
776.063	114.14
776.457	110.23
776.851	109.73
777.245	111.32
777.638	111.86
778.032	112.32
778.425	115.03
778.819	121
779.212	124.52
779.606	126.72
779.999	127.37
780.392	129.9
780.786	130.08
781.179	129.76
781.572	131.7
781.965	132.31
782.358	133.32
782.751	132.18
783.143	125.93
783.536	123.95
783.929	120.84
784.322	124.23
784.714	122.05
785.107	122.13
785.499	124.47
785.891	125.91
786.284	124.91
786.676	126.18
787.068	130.67
787.46	132.39
787.852	132.13
788.245	133.14
788.636	130.63
789.028	134.89
789.42	138.06
789.812	138.71
790.204	138.51
790.595	144.62
790.987	141.45
791.378	137.84
791.77	139.07
792.161	139.3
792.553	141.76
792.944	140.81
793.335	137.18
793.726	140.43
794.117	144.56
794.508	144.41
794.899	139.95
795.29	141.59
795.681	143.64
796.072	141.67
796.463	168.59
796.853	174.98
797.244	180.87
797.634	183.28
798.025	181.03
798.415	174.44
798.806	181.06
799.196	185.54
799.586	192.9
799.976	194.31
800.366	199.38
800.756	173.68
801.146	168.2
801.536	167.63
801.926	166.75
802.316	168.54
802.706	175.58
803.095	173.11
803.485	173.05
803.874	168.34
804.264	171.51
804.653	173.56
805.043	182.55
805.432	187.14
805.821	191.38
806.21	195.58
806.599	194.07
806.988	194.82
807.377	192.22
807.766	194.3
808.155	200.75
808.544	194.05
808.933	193.33
809.321	193.15
809.71	193.68
810.098	194.21
810.487	197.86
810.875	209.56
811.264	210.64
811.652	232
812.04	237.41
812.428	245.33
812.816	259.62
813.204	270.11
813.592	274.06
813.98	283.4
814.368	289.74
814.756	302.17
815.144	301.95
815.531	315.82
815.919	297.47
816.306	301.59
816.694	291.18
817.081	295.18
817.469	303.94
817.856	302.2
818.243	306.57
818.63	304.05
819.017	299.35
819.404	300.65
819.791	300.29
820.178	309.45
820.565	320.67
820.952	354.6
821.339	351
821.725	355.33
822.112	347.62
822.498	351.2
822.885	353.35
823.271	346.47
823.657	350.08
824.044	357.48
824.43	358.16
824.816	367.54
825.202	347.86
825.588	363.32
825.974	365.46
826.36	372.85
826.746	367.96
827.132	378.22
827.517	390.39
827.903	376.11
828.289	379.79
828.674	366.76
829.06	357.5
829.445	360.46
829.83	366.26
830.216	373.33
830.601	386.05
830.986	392.48
831.371	387.93
831.756	398.47
832.141	401.3
832.526	400.54
832.911	407.4
833.295	397.55
833.68	410.58
834.065	404.17
834.449	381.76
834.834	378.96
835.218	371.83
835.603	384.88
835.987	374.2
836.371	386.48
836.755	384.25
837.139	388.77
837.524	391.9
837.908	385.17
838.291	386.16
838.675	386.82
839.059	389.4
839.443	383.86
839.827	369.45
840.21	376.39
840.594	374.97
840.977	377.98
841.361	381.07
841.744	388.39
842.127	387.91
842.511	391.47
842.894	399.85
843.277	406.94
843.66	418.34
844.043	425.97
844.426	413.59
844.809	397.96
845.191	398.88
845.574	388.62
845.957	381.77
846.339	380.92
846.722	367.38
847.104	369.56
847.487	359.4
847.869	361.83
848.252	371.74
848.634	379.91
849.016	386.36
849.398	381.47
849.78	396.11
850.162	399.3
850.544	405.27
850.926	413.07
851.307	413.77
851.689	425.81
852.071	427.09
852.452	431.75
852.834	426.04
853.215	437.91
853.597	443.33
853.978	459.83
854.359	469.9
854.741	453.61
855.122	451.35
855.503	441.28
855.884	443.32
856.265	451.27
856.646	445.4
857.026	440.99
857.407	440
857.788	447.08
858.169	440.13
858.549	430.54
858.93	442.03
859.31	444.51
859.69	457.09
860.071	446.87
860.451	440.3
860.831	428.14
861.211	443.39
861.591	450.38
861.971	445.03
862.351	450.53
862.731	447.38
863.111	451.92
863.491	466.16
863.87	482.7
864.25	490.36
864.629	488.82
865.009	497.86
865.388	518.83
865.768	553.22
866.147	556.67
866.526	532
866.905	543.7
867.284	563.97
867.663	525.84
868.042	495.58
868.421	489.71
868.8	488.91
869.179	498.49
869.558	472.94
869.936	439.95
870.315	442.47
870.693	456.94
871.072	484
871.45	463.42
871.828	479.23
872.207	512.82
872.585	513.34
872.963	522.34
873.341	511.68
873.719	518.11
874.097	508.17
874.475	513.75
874.853	524.61
875.23	510.55
875.608	540.16
875.986	574.78
876.363	548.15
876.741	579.92
877.118	585.29
877.495	611.36
877.873	612.21
878.25	645.53
878.627	623.78
879.004	623.55
879.381	609.83
879.758	594.47
880.135	554.1
880.512	583.31
880.889	547.08
881.265	524.23
881.642	508.19
882.019	516.72
882.395	519.64
882.772	552.14
883.148	529.16
883.524	536.26
883.901	529.88
884.277	534.21
884.653	527.37
885.029	555
885.405	632.65
885.781	630.77
886.157	597.72
886.532	594.99
886.908	585.82
887.284	649.9
887.659	672.39
888.035	694.79
888.411	714.94
888.786	730.32
889.161	745.28
889.537	716.11
889.912	738.84
890.287	743.5
890.662	758.3
891.037	732.3
891.412	684.21
891.787	667.52
892.162	647.24
892.536	661.77
892.911	641.39
893.286	625.64
893.66	601.91
894.035	620.52
894.409	666.11
894.784	644.53
895.158	663.07
895.532	704.72
895.906	728.82
896.281	748.5
896.655	748.45
897.029	839.35
897.402	872.64
897.776	964.84
898.15	962.06
898.524	956.94
898.898	969.57
899.271	1097.9
899.645	959.55
900.018	921.29
900.392	949.8
900.765	939.49
901.138	887.25
901.511	871.74
901.884	823.93
902.258	765.99
902.631	807.72
903.003	923.48
903.376	826.18
903.749	910.71
904.122	967.18
904.495	1050.05
904.867	1056
905.24	906.92
905.612	843.31
905.985	835.22
906.357	867.57
906.729	816.63
907.102	709.01
907.474	679.61
907.846	695.3
908.218	695.63
908.59	640.02
908.962	625.29
909.334	672.05
909.705	716.31
910.077	695.04
910.449	719.17
910.82	752.21
911.192	816.52
911.563	860.68
911.935	897.55
912.306	882.76
912.677	884.28
913.048	897.11
913.419	972.89
913.79	959.31
914.161	1030.51
914.532	996.7
914.903	900.62
915.274	861.73
915.645	840.12
916.015	743.09
916.386	719.43
916.756	768.08
917.127	771.92
917.497	704.53
917.868	783.83
918.238	745.24
918.608	752.4
918.978	766.59
919.348	796.52
919.718	827.73
920.088	814.24
920.458	857.97
920.828	890.23
921.198	851.93
921.567	891.75
921.937	693.46
922.306	692.92
922.676	736.7
923.045	640.92
923.415	628.91
923.784	570.13
924.153	601.75
924.522	611.1
924.891	575.29
925.26	616.32
925.629	595.86
925.998	663.37
926.367	658.59
926.736	668.78
927.104	765.67
927.473	793.91
927.842	953.27
928.21	895.4
928.578	885.49
928.947	850.8
929.315	877.83
929.683	1072.88
930.051	1096.75
930.42	1250.32
930.788	1039.22
931.156	1040.97
931.523	1030.7
931.891	959.43
932.259	947.67
932.627	1131.42
932.994	1594.63
933.362	1330.78
933.729	1135.45
934.097	1081.9
934.464	940.48
934.831	1062.5
935.199	1039.2
935.566	997.06
935.933	975.99
936.3	1187.6
936.667	891.68
937.034	934.1
937.401	891.35
937.767	770.12
938.134	690.75
938.501	946.22
938.867	1049.33
939.234	1734.86
939.6	1419.01
939.967	1653.39
940.333	1119.43
940.699	949.66
941.065	606.89
941.431	819.33
941.798	868.67
942.163	1183.98
942.529	744.19
942.895	647.5
943.261	452.59
943.627	604.82
943.992	541.08
944.358	540.39
944.723	597.49
945.089	581.21
945.454	541.62
945.82	545.52
946.185	508.97
946.55	606.85
946.915	552.01
947.28	647.9
947.645	578.26
948.01	563.96
948.375	604.63
948.74	679.84
949.104	785.73
949.469	1010.06
949.834	1745.27
950.198	1801.34
950.562	1115.65
950.927	924.72
951.291	1074.23
951.655	907.02
952.02	772.54
952.384	571.32
952.748	537.53
953.112	608
953.476	564.76
953.839	518.37
954.203	527.47
954.567	637.58
954.931	965.06
955.294	841.43
955.658	840.86
956.021	1447.66
956.385	2356.8
956.748	3438.8
957.111	4753.8
957.474	5167.92
957.837	5588.12
958.2	3780.01
958.563	1370.54
958.926	987.72
959.289	1468.78
959.652	1664.61
960.015	1254.3
960.377	1850.38
960.74	2012.87
961.102	3250.92
961.465	3807.57
961.827	2762.81
962.189	5407.85
962.552	3786.33
962.914	3026.77
963.276	1996.62
963.638	1616.2
964	1570.53
964.362	1095.05
964.724	1042.46
965.085	787.59
965.447	643.22
965.809	568.82
966.17	547.49
966.532	563.43
966.893	515.88
967.255	447.18
967.616	531.42
967.977	442.84
968.338	463.58
968.699	409.31
969.061	396.8
969.421	383.71
969.782	447.99
970.143	418.42
970.504	481.59
970.865	566.67
971.225	628.56
971.586	622.1
971.946	845.75
972.307	726.08
972.667	919.9
973.027	931.32
973.388	1108.25
973.748	752.89
974.108	793.04
974.468	944.87
974.828	786.08
975.188	560.52
975.548	504.2
975.907	446.17
976.267	492.71
976.627	451.41
976.986	475.63
977.346	458.99
977.705	433.41
978.064	373.51
978.424	326.73
978.783	283.81
979.142	327.29
979.501	330.51
979.86	359.85
980.219	348.01
980.578	402.3
980.937	430.77
981.296	372.53
981.654	390.74
982.013	604.47
982.371	847.31
982.73	827.41
983.088	917.56
983.447	993.15
983.805	1450.21
984.163	2991.99
984.521	3322.34
984.879	4871.04
985.237	-8366.26
985.595	8746.78
985.953	2011.56
986.311	1021.07
986.669	605.86
987.026	501.1
987.384	595.35
987.741	525.9
988.099	481.01
988.456	376.89
988.814	383.19
989.171	330.5
989.528	283.95
989.885	325.68
990.242	272.98
990.599	297.5
990.956	256.4
991.313	200.02
991.67	171.29
992.027	232.09
992.383	216.21
992.74	193.12
993.096	220.81
993.453	232.04
993.809	233.81
994.165	319.86
994.522	392.47
994.878	427.51
995.234	516.36
995.59	499.55
995.946	343.4
996.302	405.6
996.658	440.99
997.013	432.92
997.369	553.04
997.725	787.49
998.08	495.75
998.436	438.65
998.791	594.29
999.147	646.8
999.502	762.64
999.857	591.64
1000.212	898.72
1000.567	1393.46
1000.922	824.22
1001.277	506.42
1001.632	355.03
1001.987	435.32
1002.342	364.53
1002.696	338.2
1003.051	283.06
1003.406	347.09
1003.76	335.84
1004.114	346.96
1004.469	300.72
1004.823	253.18
1005.177	246.22
1005.531	194.18
1005.885	204.69
1006.239	241.02
1006.593	302.85
1006.947	416.29
1007.301	299.22
1007.655	336.79
1008.008	254.99
1008.362	278.05
1008.715	380.87
1009.069	356.84
1009.422	659.43
1009.776	1228.22
1010.129	801.52
1010.482	610.24
1010.835	427.14
1011.188	815.08
1011.541	712
1011.894	-3924.84
1012.247	11375.94
1012.6	800.88
1012.952	545.95
1013.305	168.8
1013.657	134.01
1014.01	127.27
1014.362	90.47
1014.715	177.71
1015.067	189.17
1015.419	192.04
1015.771	189.81
1016.123	191.92
1016.475	201.64
1016.827	193.57
1017.179	243.57
1017.531	215.66
1017.883	200.46
1018.234	286.67
1018.586	321.15
1018.938	385.66
1019.289	523.34
1019.64	532.23
1019.992	452.22
1020.343	421.65
1020.694	404.48
1021.045	330.18
1021.396	392.09
1021.747	467.78
1022.098	409.9
1022.449	293.21
1022.8	248.06
1023.151	192.02
1023.501	205.36
1023.852	209.67
1024.202	247.18
1024.553	232.51
1024.903	288.99
1025.253	303.23
1025.604	284.95
1025.954	331.97
1026.304	361.08
1026.654	407.6
1027.004	566.39
1027.354	751.18
1027.703	805.12
1028.053	823.33
1028.403	1687.53
1028.753	1815.85
1029.102	1597.35
1029.452	5276.99
1029.801	264.22
1030.15	187.71
1030.499	110.31
897.758	2770.18
901.051	2728.73
904.343	2763.63
907.636	2762.83
910.928	2827.97
914.22	2735.46
917.511	2743.37
920.803	2808.64
924.094	2831.03
927.384	2805.02
930.675	2768.34
933.965	2717.89
937.255	2723.14
940.544	2690.87
943.834	2618.53
947.123	2564.35
950.411	2661.98
953.7	2631.99
956.988	2596.73
960.276	2536.12
963.563	2622.3
966.851	2612.97
970.138	2673.29
973.424	2663.48
976.711	2612.86
979.997	2756.45
983.283	2787.46
986.568	2684.68
989.853	2708.27
993.138	2734.37
996.423	2814.51
999.708	2744.57
1002.992	2817.33
1006.275	2641.11
1009.559	2693.8
1012.842	2808.06
1016.125	2738.57
1019.408	2717.36
1022.69	2806.62
1025.972	2817.73
1029.254	2790.53
1032.536	2717.45
1035.817	2747.49
1039.098	2683.52
1042.379	2842.15
1045.659	2830.85
1048.939	2761.7
1052.219	2781.32
1055.498	2794.94
1058.778	2776.69
1062.057	2765.13
1065.335	2783.22
1068.614	2804.59
1071.892	2781.37
1075.17	2859.63
1078.447	2839.64
1081.724	2831.52
1085.001	2871.27
1088.278	2841.91
1091.554	2855.24
1094.83	2854.66
1098.106	2875.19
1101.382	2921
1104.657	2918.21
1107.932	2915.13
1111.206	2873.72
1114.481	2833.28
1117.755	2837.31
1121.029	2806.46
1124.302	2859.76
1127.575	2806.94
1130.848	2791.04
1134.121	2750.14
1137.393	2697.55
1140.665	2765.58
1143.937	2736.72
1147.208	2703.38
1150.48	2736.39
1153.75	2719.72
1157.021	2760.33
1160.291	2726.49
1163.561	2766.84
1166.831	2762.42
1170.101	2794.24
1173.37	2774.31
1176.639	2714.97
1179.907	2778.76
1183.176	2777.18
1186.444	2787.93
1189.711	2813.53
1192.979	2823.59
1196.246	2784.66
1199.513	2801.8
1202.78	2797.73
1206.046	2805.66
1209.312	2829.44
1212.578	2857.96
1215.843	2802.84
1219.108	2782.11
1222.373	2804.67
1225.638	2767.83
1228.902	2749.32
1232.166	2720.54
1235.43	2703.71
1238.693	2724.68
1241.956	2726.93
1245.219	2763.9
1248.482	2754.74
1251.744	2751.69
1255.006	2902.87
1258.268	2863.33
1261.529	2806.66
1264.79	2814.82
1268.051	2912.73
1271.312	2928.15
1274.572	2889.21
1277.832	2878.36
1281.092	2867.37
1284.351	2837.87
1287.61	2815.95
1290.869	2729.35
1294.128	2695.93
1297.386	2795.95
1300.644	2783.34
1303.902	2795.09
1307.159	2658.24
1310.416	2713.15
1313.673	2734.57
1316.93	2720.78
1320.186	2770.43
1323.442	2812.43
1326.697	2798.54
1329.953	2797.96
1333.208	2814.08
1336.463	2799.54
1339.717	2737.1
1342.972	2879.07
1346.226	2860.82
1349.479	2793.26
1352.733	2762.13
1355.986	2792.29
1359.238	2772.51
1362.491	2776.91
1365.743	2781.94
1368.995	2781.62
1372.247	2800.41
1375.498	2825.86
1378.749	2835.87
1382	2795.56
1385.251	2852.35
1388.501	2820.43
1391.751	2800.59
1395	2778.51
1398.25	2813.09
1401.499	2821.81
1404.748	2747.17
1407.996	2736.1
1411.244	2722.18
1414.492	2702.27
1417.74	2681.64
1420.987	2693.34
1424.234	2750.27
1427.481	2734.73
1430.728	2791.61
1433.974	2764.73
1437.22	2784.74
1440.465	2784.28
1443.711	2741.95
1446.956	2780.31
1450.201	2769.79
1453.445	2814.34
1456.689	2788.86
1459.933	2802.53
1463.177	2832.88
1466.42	2804.08
1469.663	2783.44
1472.906	2767.07
1476.148	2851.66
1479.391	2806.74
1482.633	2775.83
1485.874	2783.93
1489.115	2763.82
1492.356	2771.67
1495.597	2743.86
1498.838	2743.53
1502.078	2707.09
1505.318	2652.72
1508.557	2695.51
1511.797	2662.84
1515.036	2735.6
1518.274	2723.19
1521.513	2698.18
1524.751	2719.01
1527.989	2726.38
1531.227	2735.28
1534.464	2720.64
1537.701	2748.71
1540.938	2767.48
1544.174	2718.87
1547.41	2715.47
1550.646	2754.2
1553.882	2785.09
1557.117	2833.36
1560.352	2845.68
1563.587	2802.51
1566.821	2759.05
1570.055	2801.12
1573.289	2764.7
1576.523	2839.71
1579.756	2842.93
1582.989	2862.1
1586.222	2818.72
1589.454	2860.15
1592.686	2826.54
1595.918	2852.49
1599.15	2835.67
1602.381	2919.34
1605.612	2865.1
1608.843	2955.11
1612.073	2866.48
1615.303	2851.84
1618.533	2837.01
1621.762	2846.99
1624.992	2835.02
1628.221	2818.12
1631.449	2801.56
1634.678	2864.39
1637.906	2814.02
1641.134	2854.21
1644.361	2808.89
1647.588	2802.65
1650.815	2816.22
1654.042	2803.02
1657.269	2825.5
1660.495	2773.02
1663.72	2804.04
1666.946	2769.75
1670.171	2708.92
1673.396	2685.62
1676.621	2678.26
1679.845	2704.39
1683.069	2728.15
1686.293	2774.92
1689.517	2738.36
1692.74	2668.62
1695.963	2699.91
1699.185	2705.63
1702.408	2684.38
1705.63	2728.44
1708.852	2738.18
1712.073	2712.48
1715.294	2693.06
1718.515	2755.83
1721.736	2699.12
1724.956	2702.36
1728.176	2730.5
1731.396	2751.65
1734.616	2747.41
1737.835	2770.77
1741.054	2751.72
1744.272	2747.93
1747.491	2776.8
1750.709	2836.98
1753.927	2734.23
1757.144	2784.52
1760.361	2819.58
1763.578	2819.49
1766.795	2759.97
1770.011	2772.9
1773.227	2815.51
1776.443	2852.33
1779.658	2895.63
1782.874	2840.31
1786.089	2816.55
1789.303	2820.56
1792.518	2829.64
1795.732	2821.42
1798.945	2825.78
1802.159	2879.01
1805.372	2769.72
1808.585	2756.23
1811.797	2754.99
1815.01	2811.42
1818.222	2810.31
1821.434	2784.71
1824.645	2845.8
1827.856	2826.37
1831.067	2859.81
1834.278	2827.46
1837.488	2810.24
1840.698	2968.44
1843.908	2891.41
1847.117	2854.55
1850.326	2731.42
1853.535	2850.22
1856.744	2883.63
1859.952	2801.42
1863.16	2803.16
1866.368	2832.6
1869.575	2935.8
1872.782	2830.12
1875.989	2774.39
1879.196	2870.42
1882.402	2870.05
1885.608	2918.84
1888.814	2814.16
1892.019	2709.09
1895.224	2764.71
1898.429	2753.61
1901.634	2732.39
1904.838	2713.01
1908.042	2764.18
1911.246	2770.15
1914.449	2695
1917.652	2698.94
1920.855	2678.48
1924.058	2735.06
1927.26	2771.45
1930.462	2799.34
1933.664	2824.6
1936.865	2758.16
1940.066	2764.48
1943.267	2711.83
1946.467	2729.77
1949.668	2757.69
1952.868	2825.5
1956.067	2801.1
1959.267	2726.99
1962.466	2755.38
1965.665	2740.95
1968.863	2733.75
1972.061	2753.61
1975.259	2754.16
1978.457	2834.97
1981.654	2791.62
1984.852	2792.04
1988.048	2718.59
1991.245	2722.84
1994.441	2810.22
1997.637	2798.84
2000.833	2781.01
2004.028	2822.3
2007.223	2874.41
2010.418	2849.42
2013.613	2810.55
2016.807	2775.13
2020.001	2785.97
2023.194	2832.21
2026.388	2809.45
2029.581	2752.77
2032.774	2801.4
2035.966	2802.56
2039.158	2729.82
2042.35	2759.2
2045.542	2683.84
2048.733	2789.05
2051.924	2819.37
2055.115	2846.05
2058.306	2785.92
2061.496	2846.45
2064.686	2914.84
2067.875	2827.89
2071.065	2844.7
2074.254	2876.64
2077.442	2826.19
2080.631	2919.05
2083.819	2801.52
2087.007	2779.94
2090.195	2750
2093.382	2788.43
2096.569	2765.63
2099.756	2717.51
2102.942	2738.5
2106.128	2745.38
2109.314	2731.47
2112.5	2689.82
2115.685	2669.48
2118.87	2679.79
2122.055	2744.21
2125.239	2708.57
2128.424	2678.57
2131.608	2793.53
2134.791	2771.06
2137.974	2834.66
2141.157	2817.49
2144.34	2768.78
2147.523	2789.19
2150.705	2798.85
2153.887	2778.92
2157.068	2725.29
2160.25	2732.83
2163.431	2773.17
2166.611	2714.36
2169.792	2729.84
2172.972	2618.85
2176.152	2706.31
2179.331	2739.93
2182.511	2719.38
2185.69	2750.93
2188.868	2744.85
2192.047	2807.39
2195.225	2790.08
2198.403	2741.79
2201.58	2731.92
2204.758	2732.13
2207.935	2817.52
2211.111	2699.64
2214.288	2687.13
2217.464	2726.56
2220.64	2699.06
2223.815	2758.13
2226.991	2676.41
2230.166	2696.37
2233.34	2721.74
2236.515	2753.66
2239.689	2828.57
2242.863	2773.39
2246.036	2826.69
2249.209	2831.13
2252.382	2868.21
2255.555	2853.08
2258.727	2785.51
2261.9	2826.88
2265.071	2821.25
2268.243	2828.83
2271.414	2753.81
2274.585	2709.91
2277.756	2778.35
2280.926	2737.64
2284.096	2778.73
2287.266	2682.46
2290.436	2741.84
2293.605	2772.45
2296.774	2802.89
2299.942	2829.11
2303.111	2843.11
2306.279	2894.05
2309.447	2879.71
2312.614	2854.71
2315.781	2874.55
2318.948	2843.46
2322.115	2883.01
2325.281	2783.53
2328.447	2805.26
2331.613	2781.58
2334.779	2747.67
2337.944	2755.81
2341.109	2749.59
2344.274	2735.97
2347.438	2697.84
2350.602	2725.78
2353.766	2743.11
2356.929	2727.32
2360.092	2771.88
2363.255	2722.06
2366.418	2646.28
2369.58	2769.11
2372.742	2533.48
2375.904	2555.5
2379.066	2527.26
2382.227	2567.71
2385.388	2527.57
2388.548	2449.06
2391.709	2508.04
2394.869	2484.89
2398.029	2594.73
2401.188	2614.61
2404.347	2542.11
2407.506	2700.81
2410.665	2724.89
2413.823	2735.99
2416.981	2689.69
2420.139	2723.43
2423.296	2776.96
2426.453	2750.66
2429.61	2776.44
2432.767	2699.56
2435.923	2735.35
2439.079	2693.69
2442.235	2744.43
2445.391	2672.12
2448.546	2696.38
2451.701	2752.41
2454.855	2718.73
2458.009	2778
2461.163	2781.94
2464.317	2734
2467.471	2772.2
2470.624	2814.04
2473.777	2788.25
2476.929	2804.43
2480.082	2829.19
2483.234	2793.66
2486.385	2744.89
2489.537	2737.56
2492.688	2693.48
2495.839	2707.98
2498.989	2719.75
2502.14	2703.16
2505.29	2682.95
2508.439	2711.93
2511.589	2628.76
2514.738	2640.7
2517.887	2674.27
2521.035	2738.36
2524.183	2726.61
2527.331	2703.06
2530.479	2676.53
2533.627	2689.84
