Data from N_3_DIV_IL_4N_Splice17_13-20-27-800.txt Node
Date: Sat Mar 14 13:20:27 EDT 2020
User: sa697716
Spectrometer: FLMS03696
Trigger mode: 0
Integration Time (sec): 3.180400E-1
Scans to average: 20
Electric dark correction enabled: true
Nonlinearity correction enabled: true
Boxcar width: 5
XAxis mode: Wavelengths
Number of Pixels in Spectrum: 2048
>>>>>Begin Spectral Data<<<<<
187.83	-372290.92
188.298	2743.33
188.766	1458.97
189.233	1304.61
189.701	1865.72
190.169	2592.99
190.636	935.32
191.104	700.58
191.571	83.17
192.039	-95.79
192.506	-94.54
192.974	522.79
193.441	-629.26
193.908	-176.68
194.375	-72
194.842	36.06
195.31	189.71
195.777	189.49
196.244	407.08
196.711	461.5
197.177	565.19
197.644	780.42
198.111	1351.56
198.578	1856.27
199.045	1486.25
199.511	2408.83
199.978	2810.67
200.445	2361.4
200.911	2602.19
201.378	2888.59
201.844	2631.74
202.31	4480.71
202.777	4679.13
203.243	2582.11
203.709	2463.5
204.176	2943.7
204.642	2435.83
205.108	2257.27
205.574	1838.88
206.04	1677.89
206.506	1549.69
206.972	1457.07
207.438	1388.09
207.903	1575.44
208.369	1404.57
208.835	1397.51
209.301	1464.21
209.766	1502.14
210.232	1482.55
210.697	1817.36
211.163	2217.42
211.628	3363.16
212.094	2779.97
212.559	3476.04
213.024	2155.04
213.49	2609.13
213.955	2522.02
214.42	2439.33
214.885	2235.37
215.35	2162.1
215.815	2108.84
216.28	2242.46
216.745	1831.07
217.21	1989.03
217.675	1784.2
218.14	1988.71
218.604	2180.61
219.069	2441.82
219.534	2547.17
219.998	2914.87
220.463	3451
220.927	4146.2
221.392	3846.93
221.856	3854.8
222.32	4794.24
222.785	5898.21
223.249	7369.13
223.713	8167.15
224.177	8137.06
224.642	10342.04
225.106	12689.74
225.57	13858.61
226.034	10357.18
226.497	15753.41
226.961	14215.85
227.425	16522.51
227.889	18263.71
228.353	18212.5
228.816	37498.03
229.28	35937.76
229.744	30239.84
230.207	18441.66
230.671	18148.05
231.134	29840.54
231.597	34459.05
232.061	34360.18
232.524	33453.56
232.987	23007.38
233.45	20691.47
233.914	18559.9
234.377	18982.67
234.84	17377.27
235.303	20415.63
235.766	22745.01
236.229	23504.75
236.691	14766.7
237.154	16562.19
237.617	12465.19
238.08	12767.62
238.542	14946.04
239.005	10693.05
239.468	10613.27
239.93	10010.3
240.393	9112.58
240.855	8002.6
241.317	8204.37
241.78	9979.16
242.242	10342.64
242.704	11173.67
243.166	9745.04
243.629	8883.26
244.091	10242.77
244.553	11227.47
245.015	12069.86
245.477	15590.91
245.939	22849.48
246.4	24253.46
246.862	23552.77
247.324	22206.51
247.786	24849.73
248.247	32532.18
248.709	33479.42
249.17	25048.37
249.632	23676.81
250.093	27497.42
250.555	23765.1
251.016	14504.97
251.477	13747.57
251.939	14863.6
252.4	15569.63
252.861	18474.78
253.322	17198.86
253.783	20430.52
254.244	26463.19
254.705	20808.06
255.166	18490.14
255.627	18186.37
256.088	25626.7
256.549	27175.12
257.009	23398.62
257.47	28395.59
257.931	23159.07
258.391	17342.05
258.852	17882.67
259.312	18728.63
259.773	23087.33
260.233	19501.22
260.694	16453.01
261.154	18659.41
261.614	15021.45
262.074	13413.13
262.534	13929.7
262.994	13095.02
263.455	17418.55
263.915	14663.31
264.374	13815.34
264.834	15082
265.294	16673.1
265.754	17245.27
266.214	16297.67
266.673	15244.63
267.133	19189.54
267.593	19018.4
268.052	23314.68
268.512	20266.25
268.971	24484.83
269.431	26806.27
269.89	24003.26
270.349	36023.93
270.809	40191.52
271.268	36122.15
271.727	80777.23
272.186	52383.57
272.645	39283.73
273.104	28266.76
273.563	40917.96
274.022	32095.27
274.481	27340.43
274.94	21056.85
275.399	15624.36
275.857	18174.11
276.316	24567.46
276.775	21885.42
277.233	21521.83
277.692	20155.17
278.15	22842.54
278.609	23545.03
279.067	21785.08
279.525	20257.17
279.984	26161.31
280.442	31436.62
280.9	31030.73
281.358	20420.28
281.816	19049.34
282.274	18655.98
282.732	19247.46
283.19	19305.58
283.648	16654.94
284.106	17752.83
284.564	18009.24
285.021	16717.84
285.479	12472.41
285.937	11311.95
286.394	9958.01
286.852	10257.55
287.309	10794.87
287.767	10480.1
288.224	9999.61
288.682	10978.4
289.139	12084.49
289.596	11092.08
290.053	11520.47
290.511	14521.4
290.968	17644.66
291.425	23880.7
291.882	19905.46
292.339	17355.84
292.796	17171.81
293.252	16148.67
293.709	12857.63
294.166	11496.52
294.623	12705.87
295.079	12191.7
295.536	12270.92
295.992	11160.37
296.449	11044.43
296.905	11487.33
297.362	11023.26
297.818	11585.06
298.274	12065.27
298.731	12259.46
299.187	12144.36
299.643	13031.94
300.099	15783.31
300.555	17315.92
301.011	14498.23
301.467	14013.33
301.923	16332.21
302.379	15958.58
302.835	15715.98
303.291	15728.66
303.746	17900.62
304.202	22673.04
304.658	22789.08
305.113	15310.76
305.569	15039.4
306.024	16002.34
306.479	15230.45
306.935	12900.23
307.39	14088.79
307.845	13013.62
308.301	13105.26
308.756	12801.66
309.211	12319.59
309.666	12610.15
310.121	15735.93
310.576	15924.41
311.031	15809.57
311.486	18104.79
311.94	18115.53
312.395	24291.64
312.85	45731.21
313.305	224603.48
313.759	1165927.9
314.214	84651.14
314.668	67338.31
315.123	56667.14
315.577	20391.76
316.032	18181.96
316.486	22785.28
316.94	18006
317.394	12551.48
317.849	9747.32
318.303	9209.04
318.757	8712.64
319.211	9651.55
319.665	8453.06
320.119	8553.12
320.572	12242.76
321.026	11469.71
321.48	9574.8
321.934	10418.85
322.387	10416.67
322.841	11272.87
323.295	10184.98
323.748	11688.74
324.202	11848.52
324.655	14224.3
325.108	19933.56
325.562	14115.34
326.015	16771.39
326.468	12680.51
326.921	14191.01
327.374	13255.39
327.827	13846.6
328.28	15693.96
328.733	10555.32
329.186	9283.38
329.639	8879.88
330.092	7471.72
330.545	7137.49
330.997	7197.61
331.45	7882.09
331.903	9277.78
332.355	15966.69
332.808	15478.25
333.26	12787.19
333.713	13894.26
334.165	14007.57
334.617	18674.91
335.069	15076.84
335.522	27196.82
335.974	30208.4
336.426	27544.04
336.878	19013.8
337.33	9670.97
337.782	9483.43
338.234	11898.29
338.686	14196.5
339.137	16829.87
339.589	15845.91
340.041	12454.59
340.493	10732.72
340.944	10984.37
341.396	11844.76
341.847	9993.29
342.299	11828.85
342.75	14453.24
343.201	12597.45
343.653	14506.86
344.104	17810.83
344.555	14013.24
345.006	21705.22
345.457	16682.51
345.908	13230.1
346.359	12468.6
346.81	10165.96
347.261	10665.01
347.712	10454.22
348.163	11205.03
348.613	11391.48
349.064	10661.94
349.515	9324.54
349.965	9604.46
350.416	11547.73
350.866	12664.91
351.317	14300.4
351.767	23690.01
352.217	29967.07
352.668	24966.43
353.118	22844.77
353.568	21941.68
354.018	17372.62
354.468	18362.15
354.918	13182.74
355.368	11549.73
355.818	16363.49
356.268	47093.65
356.718	196828.35
357.168	49047.86
357.617	24590.94
358.067	27372.48
358.517	25663.79
358.966	30155.5
359.416	33871.9
359.865	36507.97
360.315	43395.33
360.764	20261.42
361.213	11346.43
361.663	10733.34
362.112	13239.22
362.561	21401.45
363.01	16172.51
363.459	13575.83
363.908	14618.25
364.357	12451.81
364.806	21061.72
365.255	14463.25
365.703	13275.79
366.152	13306.3
366.601	10801.34
367.05	8783.36
367.498	7983.77
367.947	8325.64
368.395	8655.28
368.844	7681.22
369.292	9201.56
369.74	6372.96
370.189	9752.21
370.637	11385.7
371.085	9825.12
371.533	11936.47
371.981	11468.8
372.429	10960.17
372.877	11405.27
373.325	9566.67
373.773	9753
374.221	8693.18
374.669	10733.03
375.116	9261.64
375.564	9315.81
376.012	10393.1
376.459	8558.26
376.907	10201.99
377.354	12267.53
377.801	11444.97
378.249	13164.31
378.696	16773.29
379.143	20230.25
379.591	21575.3
380.038	36470.56
380.485	26369.27
380.932	28493.65
381.379	26169.88
381.826	19264.84
382.273	13627.2
382.72	11884.3
383.166	11545.38
383.613	7481.89
384.06	6744.88
384.506	7790.71
384.953	5716.05
385.4	5740.9
385.846	5010.58
386.292	4852.71
386.739	4735.94
387.185	4667.88
387.631	4642.92
388.078	4515.26
388.524	4808.63
388.97	4427.09
389.416	3687.2
389.862	3905.12
390.308	3691.01
390.754	3740.01
391.2	4040.08
391.645	4124.77
392.091	3958.37
392.537	3840.12
392.983	3804.86
393.428	3757.85
393.874	4022.64
394.319	4038.64
394.765	3841.55
395.21	3941.39
395.655	3693.13
396.101	3470.69
396.546	3122.81
396.991	3149.91
397.436	2918.08
397.881	2824.58
398.326	2659.23
398.771	2524.85
399.216	2196.72
399.661	1968.65
400.106	1967.14
400.551	2020.97
400.995	1811.45
401.44	1800.09
401.885	1691.05
402.329	1711.19
402.774	1647.45
403.218	1610.35
403.663	1549.3
404.107	1601.45
404.551	1623.34
404.995	1492.06
405.44	1437.04
405.884	1458.95
406.328	1410.64
406.772	1406.47
407.216	1285.98
407.66	1243.63
408.104	1173.09
408.547	1100.75
408.991	1067.26
409.435	1026.81
409.879	1017.31
410.322	1006.61
410.766	977.93
411.209	935.11
411.653	900.89
412.096	887.57
412.54	889.3
412.983	889.3
413.426	895.34
413.869	896
414.312	884.52
414.756	852.74
415.199	815.55
415.642	795.92
416.085	799.09
416.527	794.59
416.97	806.25
417.413	770.01
417.856	761.86
418.298	755.78
418.741	750.25
419.184	749.03
419.626	778.64
420.069	778.81
420.511	784.25
420.953	772.29
421.396	768.49
421.838	748.12
422.28	767.32
422.722	774.25
423.164	786.14
423.606	776.74
424.048	774.11
424.49	737.68
424.932	732.55
425.374	721.01
425.816	730.58
426.258	743.29
426.699	751.57
427.141	741.84
427.582	750.21
428.024	743.96
428.465	739.44
428.907	720.88
429.348	709.77
429.789	714.31
430.231	701.23
430.672	711.64
431.113	694.86
431.554	685.71
431.995	664.29
432.436	644.65
432.877	633.97
433.318	624.99
433.759	624.01
434.2	626.36
434.64	617.02
435.081	619.29
435.522	586.03
435.962	565.82
436.403	555.12
436.843	563.21
437.284	550.07
437.724	533.02
438.164	530.3
438.604	516.97
439.045	499.03
439.485	481.49
439.925	470.05
440.365	458.93
440.805	452.97
441.245	447.91
441.685	432.46
442.125	429.31
442.564	432.21
443.004	424.46
443.444	424.8
443.883	425.31
444.323	419.82
444.762	418.45
445.202	424.63
445.641	434.34
446.081	430.08
446.52	434.84
446.959	432.64
447.398	423.89
447.837	418.98
448.276	411.69
448.716	415.12
449.154	420.56
449.593	413.72
450.032	412.75
450.471	403.76
450.91	405.8
451.349	405.38
451.787	402.9
452.226	410
452.664	411.36
453.103	413.12
453.541	412.92
453.98	413.85
454.418	416.77
454.856	412.5
455.295	412.64
455.733	417.55
456.171	419.83
456.609	419.3
457.047	418.87
457.485	426.1
457.923	427.22
458.361	421.71
458.798	420.74
459.236	418.67
459.674	419.52
460.111	420.29
460.549	415.28
460.987	412.79
461.424	411.22
461.862	408.71
462.299	400.79
462.736	400.31
463.173	402.18
463.611	400.62
464.048	401.12
464.485	403.89
464.922	400.6
465.359	397.62
465.796	398.54
466.233	397.46
466.67	395.49
467.106	396.25
467.543	391.54
467.98	386.56
468.416	374.87
468.853	370.82
469.29	359.48
469.726	356.49
470.162	347.35
470.599	337.36
471.035	333.43
471.471	324.73
471.907	321.11
472.344	320.03
472.78	320.92
473.216	325.99
473.652	322.86
474.088	323.28
474.523	322.72
474.959	325.79
475.395	324.48
475.831	324.24
476.266	326.02
476.702	325.88
477.138	322.61
477.573	321.75
478.008	320.24
478.444	322.72
478.879	326.29
479.314	327.32
479.75	327.85
480.185	329.2
480.62	330.45
481.055	332.29
481.49	335.45
481.925	340.62
482.36	348.53
482.795	357.74
483.229	365.85
483.664	373.23
484.099	375.25
484.534	381.3
484.968	385.36
485.403	387.37
485.837	387.47
486.271	386.75
486.706	387.63
487.14	382.14
487.574	377.66
488.009	375.76
488.443	373.21
488.877	378.38
489.311	380.23
489.745	385.67
490.179	390.42
490.613	400.02
491.046	404.86
491.48	408.87
491.914	411.02
492.348	415.61
492.781	419.69
493.215	422.33
493.648	423.97
494.082	429.71
494.515	432.54
494.948	440.9
495.382	445.04
495.815	450.33
496.248	457.59
496.681	468.59
497.114	479.02
497.547	489.08
497.98	501.25
498.413	510.32
498.846	520.5
499.279	529.73
499.711	535.88
500.144	542.42
500.577	554.01
501.009	565.45
501.442	577.81
501.874	583.28
502.306	590.02
502.739	601.57
503.171	616.44
503.603	623.39
504.036	635.86
504.468	645.54
504.9	658.54
505.332	668.57
505.764	677.59
506.196	687.07
506.627	703.89
507.059	719.17
507.491	730.36
507.923	734.64
508.354	752.49
508.786	766.57
509.217	786.72
509.649	804.84
510.08	825.2
510.512	843.88
510.943	861.55
511.374	876.57
511.805	898.33
512.237	919.41
512.668	951.59
513.099	978.88
513.53	1006.51
513.961	1028.31
514.391	1059.16
514.822	1092.58
515.253	1127.3
515.684	1154.52
516.114	1184.84
516.545	1208.15
516.975	1236.19
517.406	1255.69
517.836	1262.03
518.267	1272.29
518.697	1292.84
519.127	1301.31
519.558	1311.77
519.988	1318.78
520.418	1330.76
520.848	1348.99
521.278	1360.2
521.708	1390.93
522.138	1406.35
522.567	1437.28
522.997	1462.84
523.427	1478.72
523.857	1496.12
524.286	1508.15
524.716	1525.39
525.145	1546.16
525.575	1557.9
526.004	1572.82
526.433	1557.53
526.863	1559.04
527.292	1552.5
527.721	1559.23
528.15	1566.43
528.579	1567.97
529.008	1579.88
529.437	1601.71
529.866	1615.57
530.295	1633.48
530.724	1646.54
531.152	1673.57
531.581	1688.64
532.01	1705.99
532.438	1714.51
532.867	1728.31
533.295	1746.92
533.723	1753.44
534.152	1752.28
534.58	1751.83
535.008	1737.04
535.436	1739.46
535.865	1746.29
536.293	1758.95
536.721	1774.05
537.149	1798.29
537.576	1801.92
538.004	1815.12
538.432	1821.94
538.86	1819.39
539.287	1826.76
539.715	1839.89
540.143	1842.81
540.57	1838.92
540.998	1835.31
541.425	1813.52
541.852	1793.92
542.28	1791.77
542.707	1774.56
543.134	1761.66
543.561	1758.61
543.988	1750.81
544.415	1750.52
544.842	1744.89
545.269	1739.01
545.696	1741.61
546.123	1754.78
546.549	1745.16
546.976	1734.72
547.403	1736.11
547.829	1738.31
548.256	1740.26
548.682	1738.67
549.108	1732.45
549.535	1733.31
549.961	1735.99
550.387	1725.3
550.813	1721.23
551.24	1728.22
551.666	1729.38
552.092	1720.38
552.518	1714.93
552.943	1710.07
553.369	1717.47
553.795	1723.81
554.221	1724.91
554.646	1722.95
555.072	1733.49
555.498	1737.57
555.923	1746.97
556.349	1761.98
556.774	1771.11
557.199	1772.35
557.625	1779.52
558.05	1775.34
558.475	1786.08
558.9	1785.65
559.325	1777.44
559.75	1771.27
560.175	1766.71
560.6	1760.38
561.025	1758.32
561.449	1760.08
561.874	1765.68
562.299	1771.08
562.723	1777.17
563.148	1766.93
563.572	1770.59
563.997	1780.81
564.421	1785.93
564.846	1784.6
565.27	1787.73
565.694	1784.96
566.118	1796.11
566.542	1804.07
566.966	1796.34
567.39	1791.89
567.814	1780.8
568.238	1780.9
568.662	1784.81
569.086	1786.57
569.509	1794
569.933	1779.13
570.357	1771.94
570.78	1750.86
571.204	1736.64
571.627	1724.89
572.05	1722.46
572.474	1722.48
572.897	1709.82
573.32	1702.42
573.743	1692.56
574.166	1674.27
574.589	1674.34
575.012	1667.05
575.435	1665.83
575.858	1657.69
576.281	1648.21
576.704	1633.27
577.126	1620.81
577.549	1610.22
577.972	1600.61
578.394	1589.72
578.817	1583.37
579.239	1565.71
579.661	1553.16
580.084	1538.25
580.506	1526.18
580.928	1522.07
581.35	1511.37
581.772	1506.87
582.194	1493.12
582.616	1480.91
583.038	1467.68
583.46	1457.13
583.882	1454.03
584.303	1457.14
584.725	1452.5
585.147	1455.53
585.568	1466.09
585.99	1477.5
586.411	1483.92
586.833	1498.28
587.254	1498.72
587.675	1510.78
588.096	1522.97
588.518	1516.92
588.939	1501.33
589.36	1498.1
589.781	1485.5
590.202	1457.73
590.623	1447.43
591.043	1444.69
591.464	1432.57
591.885	1430.02
592.305	1425.92
592.726	1412.68
593.147	1413.95
593.567	1408.56
593.987	1402.02
594.408	1397.53
594.828	1394.25
595.248	1389.38
595.669	1371.54
596.089	1364.23
596.509	1357.36
596.929	1344.32
597.349	1344.31
597.769	1333.79
598.189	1327.5
598.608	1328.92
599.028	1330.58
599.448	1331.09
599.867	1319.09
600.287	1315.54
600.706	1311.61
601.126	1302.27
601.545	1300.33
601.965	1298.96
602.384	1294.63
602.803	1296.07
603.222	1291.19
603.641	1283.7
604.061	1279.22
604.48	1274.66
604.898	1281.18
605.317	1284.25
605.736	1285.39
606.155	1282.98
606.574	1274.12
606.992	1277.37
607.411	1272.59
607.829	1264.19
608.248	1260.84
608.666	1258.97
609.085	1257.59
609.503	1249.35
609.921	1243.71
610.339	1244.93
610.758	1242.81
611.176	1237.41
611.594	1228.1
612.012	1223.72
612.43	1226.01
612.847	1230.55
613.265	1230.26
613.683	1233.33
614.101	1233.52
614.518	1228.54
614.936	1218.49
615.353	1204.87
615.771	1200.59
616.188	1200.85
616.606	1197.14
617.023	1189.32
617.44	1176.21
617.857	1168.4
618.274	1159.06
618.691	1151.83
619.108	1143.23
619.525	1135.95
619.942	1140.56
620.359	1142.33
620.776	1136.64
621.192	1132.56
621.609	1130.41
622.026	1135.37
622.442	1139.74
622.859	1143.34
623.275	1136.05
623.691	1139.7
624.108	1150.23
624.524	1163.63
624.94	1163
625.356	1171.06
625.772	1182.07
626.188	1191.64
626.604	1192.4
627.02	1188.9
627.436	1186.35
627.852	1194.28
628.268	1205.24
628.683	1196.59
629.099	1186.98
629.514	1181.99
629.93	1185.5
630.345	1189.77
630.761	1186.71
631.176	1188.83
631.591	1183.74
632.007	1177.72
632.422	1173.73
632.837	1162.2
633.252	1158.4
633.667	1147.8
634.082	1138.92
634.497	1125.93
634.911	1106.91
635.326	1100.02
635.741	1083.79
636.155	1071.75
636.57	1070.24
636.984	1067.53
637.399	1066.96
637.813	1063.43
638.228	1060.49
638.642	1060.03
639.056	1047.41
639.47	1043.26
639.884	1032.57
640.298	1022.87
640.712	1018.51
641.126	1004.93
641.54	993.43
641.954	983.23
642.368	970.01
642.781	960.27
643.195	941.47
643.609	937.96
644.022	928.64
644.436	921.24
644.849	906.78
645.262	892.27
645.676	888.57
646.089	880.27
646.502	866.27
646.915	858.53
647.328	840.88
647.741	837.21
648.154	824.74
648.567	821.4
648.98	809.73
649.393	808.54
649.805	804.84
650.218	796.53
650.631	783.79
651.043	777.12
651.456	770.94
651.868	769.54
652.28	781.78
652.693	790
653.105	793.08
653.517	797.44
653.929	795.85
654.341	798.34
654.753	787.9
655.165	789.73
655.577	785.14
655.989	779.04
656.401	769.97
656.813	740.19
657.224	722.03
657.636	697.24
658.047	681.8
658.459	663.99
658.87	652.12
659.282	639.97
659.693	622.01
660.104	608.62
660.515	594.53
660.926	588.41
661.338	581.65
661.749	573.12
662.159	563.09
662.57	554.81
662.981	548.32
663.392	539.94
663.803	538.88
664.213	532.4
664.624	524.33
665.035	522.49
665.445	510.33
665.855	502.96
666.266	495.11
666.676	489.91
667.086	481.28
667.497	478.24
667.907	472.18
668.317	463.94
668.727	462.65
669.137	460.37
669.547	457.45
669.956	457.08
670.366	456.07
670.776	455.36
671.186	456.35
671.595	457.49
672.005	456.96
672.414	455.94
672.824	454.33
673.233	452.89
673.642	454.73
674.052	456.38
674.461	458.65
674.87	460.93
675.279	460.55
675.688	459.84
676.097	462.07
676.506	461.38
676.915	469.46
677.323	470.79
677.732	471.07
678.141	471.67
678.549	466.27
678.958	466.04
679.366	467.33
679.775	471.34
680.183	482.29
680.592	487.93
681	495.06
681.408	495.98
681.816	505.44
682.224	514.92
682.632	528.18
683.04	552.41
683.448	575.2
683.856	601.91
684.264	634.44
684.671	663.29
685.079	700.35
685.487	740.47
685.894	793.68
686.302	841.26
686.709	886
687.116	933.66
687.524	978.73
687.931	1020.89
688.338	1061.05
688.745	1093.2
689.152	1131.92
689.559	1178.51
689.966	1227.15
690.373	1257.42
690.78	1301.1
691.187	1362.81
691.593	1412.82
692	1457.18
692.407	1518.05
692.813	1589.85
693.22	1649.39
693.626	1708.33
694.032	1757.5
694.439	1827.97
694.845	1882.74
695.251	1954.12
695.657	2016.31
696.063	2107.65
696.469	2177.11
696.875	2240.84
697.281	2276.02
697.687	2319.59
698.093	2356.69
698.498	2424.93
698.904	2477.67
699.31	2558.1
699.715	2615.36
700.12	2698.77
700.526	2715.5
700.931	2777.39
701.337	2822.68
701.742	2850.58
702.147	2926.29
702.552	2953.38
702.957	3007.08
703.362	3024.49
703.767	3049.57
704.172	3084.31
704.577	3038.63
704.981	3079.79
705.386	3092.05
705.791	3081.61
706.195	3148.95
706.6	3155.32
707.004	3226.28
707.408	3194.51
707.813	3216.7
708.217	3203.79
708.621	3203.96
709.025	3290.72
709.43	3288.65
709.834	3342.08
710.237	3402.33
710.641	3386.14
711.045	3402.72
711.449	3394.2
711.853	3420
712.256	3455.23
712.66	3485.93
713.064	3551.83
713.467	3586.88
713.87	3683.3
714.274	3720.76
714.677	3818.54
715.08	3960.65
715.484	4107.68
715.887	4288.12
716.29	4460.96
716.693	4643.78
717.096	4853.82
717.499	4963.39
717.901	4981.15
718.304	5004.58
718.707	5022.65
719.109	4927.87
719.512	4896.55
719.915	4774.31
720.317	4721.81
720.719	4759.41
721.122	4730.19
721.524	4685.18
721.926	4648.91
722.328	4735.87
722.731	4724.44
723.133	4747.8
723.535	4914.53
723.937	4930.19
724.338	4973.83
724.74	5005.09
725.142	4961.97
725.544	4956.33
725.945	4981.49
726.347	4973.8
726.748	4966.35
727.15	4978.81
727.551	4943.47
727.952	4918.16
728.354	4890.41
728.755	4890.16
729.156	4850.73
729.557	4823.52
729.958	4714.31
730.359	4658.25
730.76	4641.86
731.161	4589.65
731.562	4563.6
731.962	4563.59
732.363	4504.86
732.763	4448.38
733.164	4479.06
733.564	4419.24
733.965	4335.62
734.365	4308.51
734.766	4335.84
735.166	4300.61
735.566	4251.78
735.966	4226.85
736.366	4222.43
736.766	4169.89
737.166	4198.49
737.566	4162.3
737.966	4140.27
738.365	4173.95
738.765	4168.09
739.165	4102.25
739.564	4079.24
739.964	4118.04
740.363	4081.84
740.763	4078.99
741.162	4070.94
741.561	4041.33
741.96	4001.08
742.36	4020.24
742.759	4022.89
743.158	4056.4
743.557	4067.62
743.955	4101.02
744.354	4059.76
744.753	4105.81
745.152	4069.05
745.55	4113.99
745.949	4108.22
746.348	4108.88
746.746	4119.89
747.144	4087.42
747.543	4066.87
747.941	4107.64
748.339	4047.38
748.737	4041.76
749.136	4036.01
749.534	4091.16
749.932	4066.25
750.33	4086.76
750.727	4131.45
751.125	4111.12
751.523	4097.14
751.921	4136.38
752.318	4107.31
752.716	4159.04
753.113	4170.6
753.511	4190.04
753.908	4192.55
754.305	4180.61
754.703	4233.16
755.1	4287.18
755.497	4337.72
755.894	4500.06
756.291	4649.78
756.688	4932.87
757.085	5308.43
757.482	5837.85
757.878	6417.11
758.275	6939.83
758.672	7655.12
759.068	8235.47
759.465	9070.09
759.861	10145.34
760.258	11392.25
760.654	12037.12
761.05	11931.42
761.447	11382.43
761.843	10598.59
762.239	9791.87
762.635	9423.43
763.031	9071.4
763.427	8567.9
763.822	8036.27
764.218	7518.17
764.614	6837.03
765.01	6382.45
765.405	6092.17
765.801	5868.64
766.196	5581.92
766.592	5423.93
766.987	5154.27
767.382	4971.84
767.778	4896.82
768.173	4787.37
768.568	4723.86
768.963	4614.72
769.358	4628.62
769.753	4588.66
770.148	4520.81
770.542	4520.03
770.937	4491.95
771.332	4571.35
771.726	4589.6
772.121	4537.85
772.515	4584.81
772.91	4571.21
773.304	4633.52
773.699	4579.52
774.093	4625.31
774.487	4671.8
774.881	4709.05
775.275	4704.66
775.669	4666.98
776.063	4704.53
776.457	4735.64
776.851	4671.06
777.245	4665.57
777.638	4696.98
778.032	4794.55
778.425	4763.85
778.819	4799.33
779.212	4761.33
779.606	4728.13
779.999	4746.5
780.392	4733.06
780.786	4802.47
781.179	4820.12
781.572	4856.45
781.965	4863.56
782.358	4812.46
782.751	4856.86
783.143	4812.98
783.536	4876.59
783.929	4911.11
784.322	5007.26
784.714	5029.38
785.107	5025.03
785.499	5087.21
785.891	5066.05
786.284	5048.06
786.676	5169.83
787.068	5155.39
787.46	5203.27
787.852	5221.59
788.245	5294.27
788.636	5320.44
789.028	5380.23
789.42	5415.72
789.812	5422.07
790.204	5507.15
790.595	5597.29
790.987	5429.09
791.378	5454.47
791.77	5565.07
792.161	5678.3
792.553	5730.45
792.944	5632.4
793.335	5576.78
793.726	5640.75
794.117	5719.23
794.508	5836.37
794.899	5809.5
795.29	5930.41
795.681	5976.99
796.072	5855.85
796.463	5706.73
796.853	5716.2
797.244	5858.2
797.634	5885.63
798.025	5883
798.415	5894.75
798.806	5976.56
799.196	6053.72
799.586	6104.3
799.976	6072.28
800.366	6271.92
800.756	6475.67
801.146	6442.57
801.536	6467.41
801.926	6532.05
802.316	6558.05
802.706	6621.05
803.095	6511.52
803.485	6599.45
803.874	6633.22
804.264	6861.08
804.653	6839.18
805.043	6966.12
805.432	7061.99
805.821	7060.23
806.21	7078.52
806.599	7181.39
806.988	7219.1
807.377	7311.24
807.766	7421.82
808.155	7659.73
808.544	7431.29
808.933	7443.47
809.321	7421.86
809.71	7666.83
810.098	7809.46
810.487	8213.22
810.875	8624.78
811.264	8649.02
811.652	8903.64
812.04	9028.83
812.428	9174.6
812.816	9830.94
813.204	10186.81
813.592	10661.36
813.98	10960.9
814.368	10877.05
814.756	11289.29
815.144	11219.38
815.531	11625.59
815.919	11551.97
816.306	11813.52
816.694	11544.07
817.081	11595.33
817.469	11902.55
817.856	11903.46
818.243	12136.09
818.63	12475.43
819.017	12109.96
819.404	12167.18
819.791	12489.74
820.178	13029.55
820.565	13248.53
820.952	14059.14
821.339	13627.7
821.725	13790.27
822.112	13146.97
822.498	13114.79
822.885	13227.1
823.271	13151.04
823.657	13510.15
824.044	13505.03
824.43	13563.35
824.816	13538.81
825.202	13164.11
825.588	14043.37
825.974	14047.43
826.36	14493.37
826.746	14518.79
827.132	14821.98
827.517	14796.84
827.903	14125.96
828.289	14166.28
828.674	13498.72
829.06	13411.01
829.445	13751.55
829.83	14063.81
830.216	14481.1
830.601	14803.06
830.986	14455.85
831.371	14341.19
831.756	14826.05
832.141	14454.82
832.526	14448.54
832.911	14691.71
833.295	14593.17
833.68	14996.08
834.065	14459.53
834.449	13669.88
834.834	13603.61
835.218	13601.58
835.603	13898.44
835.987	13709.33
836.371	14419.02
836.755	14331.96
837.139	14676.22
837.524	14870.93
837.908	14712.85
838.291	14753.74
838.675	14804.51
839.059	14979.31
839.443	14960.43
839.827	14754.41
840.21	15160.01
840.594	15030.34
840.977	15204.29
841.361	15172.12
841.744	15497.57
842.127	15358.61
842.511	15570.78
842.894	16078.35
843.277	16396.28
843.66	16855.41
844.043	16925.21
844.426	16231.66
844.809	15965.75
845.191	15984.93
845.574	15593.39
845.957	15270.46
846.339	15182.3
846.722	14726.39
847.104	14779.78
847.487	14628.85
847.869	14640.62
848.252	14871.29
848.634	15153.02
849.016	15369.43
849.398	15475.98
849.78	16201.87
850.162	16201.74
850.544	16547.86
850.926	17092.01
851.307	17020.55
851.689	17261.85
852.071	17644.46
852.452	17916.92
852.834	17895.11
853.215	18237.31
853.597	18367.01
853.978	18618.67
854.359	19020.19
854.741	18178.28
855.122	18084.38
855.503	17832.17
855.884	17940.2
856.265	17883.88
856.646	17981.28
857.026	17650.74
857.407	17596.74
857.788	17737.18
858.169	17979.25
858.549	17259.71
858.93	17788.56
859.31	17840.04
859.69	18023.03
860.071	17682.42
860.451	17498.74
860.831	16873.59
861.211	17857.05
861.591	18329.28
861.971	18305.5
862.351	18471.85
862.731	18790.69
863.111	19020.62
863.491	19298.34
863.87	20053.88
864.25	20358.52
864.629	20027.28
865.009	20466.67
865.388	21214.55
865.768	22727.71
866.147	22635.1
866.526	21389.35
866.905	21658.7
867.284	22875.88
867.663	21730.04
868.042	20813.23
868.421	20741.78
868.8	21080.94
869.179	21293.52
869.558	20045.54
869.936	18481.27
870.315	18820.69
870.693	19281.6
871.072	20789.5
871.45	19800.64
871.828	20046.62
872.207	21093.88
872.585	20781.95
872.963	21346.05
873.341	20612.83
873.719	20368.94
874.097	20133.85
874.475	20498.56
874.853	20973.84
875.23	20092.13
875.608	20927.84
875.986	22645.18
876.363	21639.07
876.741	22292.51
877.118	21729.94
877.495	22793.67
877.873	23159.74
878.25	24352.76
878.627	23377.59
879.004	23689.78
879.381	23572.17
879.758	22957.7
880.135	21358.24
880.512	22591.38
880.889	21981.85
881.265	21759.91
881.642	21575.61
882.019	21953.61
882.395	21510.41
882.772	22360.16
883.148	21374.45
883.524	21294.79
883.901	21168.67
884.277	21476.14
884.653	21328.24
885.029	21943.15
885.405	24289.54
885.781	24089.4
886.157	23091.99
886.532	23360.47
886.908	23336.58
887.284	25963.37
887.659	26798.65
888.035	27612.24
888.411	28328.48
888.786	28706.21
889.161	29695.75
889.537	29150.99
889.912	30089.33
890.287	30051.94
890.662	30820.13
891.037	30245.72
891.412	28183.23
891.787	27885.93
892.162	26917.79
892.536	27528.62
892.911	26485.73
893.286	25918.48
893.66	24858.14
894.035	25484.58
894.409	27743.87
894.784	26626.42
895.158	27073.97
895.532	28691.75
895.906	29481.58
896.281	30165.81
896.655	29685.39
897.029	33925.84
897.402	35333.79
897.776	39347.56
898.15	39212.24
898.524	38782.95
898.898	39281.52
899.271	43968.83
899.645	38075.98
900.018	36572.58
900.392	37929.89
900.765	38263.97
901.138	35408.08
901.511	34874.06
901.884	32018.2
902.258	29528.19
902.631	30508.03
903.003	35129.11
903.376	31696.92
903.749	35536.68
904.122	38032.63
904.495	41885.14
904.867	42384.39
905.24	36803.35
905.612	34253.74
905.985	35018.8
906.357	36620.25
906.729	34958.74
907.102	29871.59
907.474	28731.84
907.846	28917.07
908.218	28548.44
908.59	25237.74
908.962	24425.24
909.334	26304.68
909.705	27632.46
910.077	26827.23
910.449	27925.19
910.82	28714.25
911.192	31598.76
911.563	32845.41
911.935	35139.66
912.306	35193.73
912.677	36325.19
913.048	35966.67
913.419	39023.36
913.79	39271.65
914.161	42148.91
914.532	40302.81
914.903	37048.23
915.274	35191.47
915.645	34676.23
916.015	30541.65
916.386	29125.56
916.756	31019.04
917.127	31996.07
917.497	28594.19
917.868	31104.3
918.238	29542.34
918.608	30398.91
918.978	31043.14
919.348	32856.69
919.718	33942.6
920.088	32692.99
920.458	33976.81
920.828	35755.79
921.198	33903.73
921.567	36218.99
921.937	28058.72
922.306	28318.36
922.676	30536.6
923.045	25464.01
923.415	24205.64
923.784	22050.24
924.153	22676.26
924.522	22655.43
924.891	21300.29
925.26	22824.93
925.629	22276.38
925.998	25601.47
926.367	24996.1
926.736	23807.63
927.104	28370.06
927.473	30484.41
927.842	36817.36
928.21	36424.79
928.578	38276.52
928.947	36181.99
929.315	36364.93
929.683	42652.32
930.051	43011.93
930.42	49964.2
930.788	42702.83
931.156	42349.06
931.523	39691.36
931.891	36688.15
932.259	35251.96
932.627	40855.85
932.994	57745.31
933.362	47695.97
933.729	41410.82
934.097	39603.46
934.464	33459.6
934.831	38564.53
935.199	38018.05
935.566	36872.69
935.933	37307.58
936.3	45203.02
936.667	35160.93
937.034	31754.49
937.401	31413.04
937.767	27099.62
938.134	24150.26
938.501	34083.21
938.867	36305.98
939.234	61330.77
939.6	52327.68
939.967	57641.37
940.333	38560.37
940.699	32805.89
941.065	26294.25
941.431	34495.47
941.798	33275.43
942.163	43660.16
942.529	27310.9
942.895	25180.19
943.261	16306.7
943.627	21410.57
943.992	18760.58
944.358	18794.59
944.723	18883.49
945.089	18417.9
945.454	17026.94
945.82	18178.25
946.185	17455.97
946.55	20215.45
946.915	18123.97
947.28	21247.18
947.645	18675.01
948.01	17252.28
948.375	18012.67
948.74	21583.4
949.104	25178.27
949.469	36389.06
949.834	64308.14
950.198	61022.19
950.562	36552.23
950.927	30450.35
951.291	36658.75
951.655	31284.57
952.02	29364.95
952.384	22205.17
952.748	19362.59
953.112	18883.63
953.476	16403.72
953.839	15158.11
954.203	15014.75
954.567	18799.03
954.931	29609.79
955.294	25316.46
955.658	25455.86
956.021	43318.27
956.385	73514.71
956.748	108367.7
957.111	168241.7
957.474	188849.75
957.837	212849.77
958.2	160891.31
958.563	57880.14
958.926	39169.43
959.289	59463.14
959.652	66355.51
960.015	49786.2
960.377	71343.77
960.74	81451.77
961.102	140460.8
961.465	150792.13
961.827	80876.67
962.189	155266.28
962.552	107570.82
962.914	86182.4
963.276	55928.75
963.638	46284.05
964	45836.06
964.362	31007.3
964.724	29954.45
965.085	21368.06
965.447	17545.18
965.809	19968.93
966.17	20001.64
966.532	21636.65
966.893	19875.49
967.255	18073.96
967.616	21323.42
967.977	17067.79
968.338	18620.86
968.699	15293.73
969.061	15292.07
969.421	15388.86
969.782	17270.53
970.143	14597.12
970.504	15143.85
970.865	17206.62
971.225	17620.54
971.586	17236.48
971.946	24571.6
972.307	21337.57
972.667	27879.71
973.027	28709.76
973.388	34836
973.748	23693.63
974.108	25783.78
974.468	34835.94
974.828	26846.76
975.188	20638.01
975.548	18933.57
975.907	15900.58
976.267	17836.8
976.627	15043.9
976.986	15585.19
977.346	14820.35
977.705	14265.55
978.064	12981.02
978.424	10826.23
978.783	11179.07
979.142	12758.94
979.501	12219.38
979.86	12919.08
980.219	12434.39
980.578	15981.17
980.937	17909.17
981.296	15967.59
981.654	16422.66
982.013	25573.22
982.371	33134.24
982.73	30923.03
983.088	35002.77
983.447	37396.67
983.805	53407.89
984.163	111572.34
984.521	123893.96
984.879	181926.6
985.237	-295861.13
985.595	285426.6
985.953	70881.94
986.311	40958.46
986.669	23823.75
987.026	20549.35
987.384	27642.26
987.741	28577.14
988.099	20485.11
988.456	16344.03
988.814	15284.34
989.171	13290.53
989.528	13103.41
989.885	13824.1
990.242	10930.98
990.599	13631.28
990.956	11164.36
991.313	7801.91
991.67	6409.26
992.027	6799.91
992.383	6050.25
992.74	5299.74
993.096	5572.06
993.453	5770.29
993.809	5995.45
994.165	8005.96
994.522	7357.45
994.878	8124.5
995.234	10195.68
995.59	10064.93
995.946	9493.07
996.302	10817.16
996.658	12530.42
997.013	13802.61
997.369	16406.8
997.725	20988.37
998.08	13581.43
998.436	20871
998.791	28742.11
999.147	28727.68
999.502	31280.92
999.857	22815.02
1000.212	37242.28
1000.567	53006.42
1000.922	30578.15
1001.277	19436.52
1001.632	14410.77
1001.987	18548.34
1002.342	13304.93
1002.696	10641.68
1003.051	8497.31
1003.406	10310.32
1003.76	10230.05
1004.114	10056.88
1004.469	8455.61
1004.823	7009.13
1005.177	7558.02
1005.531	5991.75
1005.885	5335.72
1006.239	6037.1
1006.593	7589.13
1006.947	10183.25
1007.301	7630.85
1007.655	8338.8
1008.008	6131.51
1008.362	6886.32
1008.715	9841.01
1009.069	8926.66
1009.422	13485.36
1009.776	26949.12
1010.129	17821.78
1010.482	14834.3
1010.835	12469.02
1011.188	26046.56
1011.541	24451.05
1011.894	-149794.23
1012.247	440458.01
1012.6	29882.43
1012.952	18867.06
1013.305	9690.2
1013.657	6993.09
1014.01	6600.06
1014.362	5440.77
1014.715	4881.76
1015.067	4245.2
1015.419	4162.38
1015.771	3684.12
1016.123	3288.52
1016.475	3378.46
1016.827	3592.4
1017.179	3865.39
1017.531	3881.64
1017.883	3973.09
1018.234	3858.46
1018.586	4830.78
1018.938	5136.8
1019.289	7088.47
1019.64	8112.05
1019.992	7535.3
1020.343	6898.36
1020.694	5497.57
1021.045	4841.17
1021.396	5537.59
1021.747	5973.73
1022.098	7157.11
1022.449	5205.15
1022.8	4800.39
1023.151	3349.96
1023.501	2966.57
1023.852	3221.28
1024.202	3349.32
1024.553	3646.01
1024.903	3598.04
1025.253	3076.25
1025.604	2766.3
1025.954	3427.32
1026.304	4173.65
1026.654	4870.92
1027.004	7106.5
1027.354	11452.1
1027.703	10838.13
1028.053	14176.7
1028.403	20888.46
1028.753	29992.74
1029.102	40774.05
1029.452	208051.57
1029.801	8948.61
1030.15	5767.75
1030.499	4875.31
897.758	2861.7
901.051	2827.51
904.343	2861.87
907.636	2860.09
910.928	2925.93
914.22	2833.47
917.511	2843.98
920.803	2915
924.094	2941.48
927.384	2909.86
930.675	2874.85
933.965	2824.47
937.255	2827.19
940.544	2796.89
943.834	2709.98
947.123	2658.64
950.411	2756.41
953.7	2725
956.988	2683.78
960.276	2627.69
963.563	2720.32
966.851	2710.18
970.138	2773.22
973.424	2761.38
976.711	2710.35
979.997	2878.85
983.283	2907.3
986.568	2800.83
989.853	2829.01
993.138	2856.3
996.423	2938.21
999.708	2867.54
1002.992	2948.8
1006.275	2753.15
1009.559	2816.74
1012.842	2938.21
1016.125	2863.53
1019.408	2842.54
1022.69	2940.61
1025.972	2956.54
1029.254	2928.97
1032.536	2848.33
1035.817	2882.74
1039.098	2808.49
1042.379	2994.81
1045.659	2978.61
1048.939	2903.92
1052.219	2928.34
1055.498	2946.86
1058.778	2927.95
1062.057	2914.11
1065.335	2934.59
1068.614	2956.87
1071.892	2933.01
1075.17	3020.83
1078.447	3000.75
1081.724	2988.45
1085.001	3031.66
1088.278	3003.32
1091.554	3018.04
1094.83	3017.21
1098.106	3041.14
1101.382	3090.89
1104.657	3092.84
1107.932	3088.08
1111.206	3047.14
1114.481	3003.01
1117.755	3011.91
1121.029	2982.82
1124.302	3034.92
1127.575	2979.73
1130.848	2962.76
1134.121	2917.79
1137.393	2863
1140.665	2933.65
1143.937	2903.63
1147.208	2871.02
1150.48	2905.12
1153.75	2888.41
1157.021	2931.65
1160.291	2895.65
1163.561	2941.09
1166.831	2938.96
1170.101	2974.12
1173.37	2953.95
1176.639	2890.93
1179.907	2959.62
1183.176	2953.9
1186.444	2967.38
1189.711	2994.7
1192.979	3001.54
1196.246	2963.01
1199.513	2978.6
1202.78	2976.1
1206.046	2984.75
1209.312	3011.69
1212.578	3040.76
1215.843	2981.92
1219.108	2962.31
1222.373	2983.78
1225.638	2942
1228.902	2925.8
1232.166	2893.56
1235.43	2875.75
1238.693	2894.65
1241.956	2895.61
1245.219	2931.1
1248.482	2929.35
1251.744	2925.37
1255.006	3084.92
1258.268	3045.11
1261.529	2984.95
1264.79	2991.56
1268.051	3098.45
1271.312	3117.74
1274.572	3077.31
1277.832	3066.72
1281.092	3059.2
1284.351	3020.81
1287.61	2996.99
1290.869	2905.18
1294.128	2869.11
1297.386	2979.82
1300.644	2967.62
1303.902	2978.14
1307.159	2831.83
1310.416	2887.68
1313.673	2909.91
1316.93	2892.74
1320.186	2946.42
1323.442	2992.89
1326.697	2975.18
1329.953	2975.04
1333.208	2989.15
1336.463	2973.13
1339.717	2902.67
1342.972	3053.39
1346.226	3034.05
1349.479	2959.14
1352.733	2923.53
1355.986	2953.1
1359.238	2928.45
1362.491	2929.4
1365.743	2936.09
1368.995	2933.86
1372.247	2948.05
1375.498	2973.02
1378.749	2975.43
1382	2933.06
1385.251	2993.76
1388.501	2962.5
1391.751	2940.5
1395	2914.69
1398.25	2951.42
1401.499	2952.12
1404.748	2870.13
1407.996	2865.6
1411.244	2851.29
1414.492	2826.6
1417.74	2804.92
1420.987	2819.36
1424.234	2871.13
1427.481	2860.36
1430.728	2917.68
1433.974	2890.61
1437.22	2911.96
1440.465	2916.61
1443.711	2864.45
1446.956	2904.43
1450.201	2899.83
1453.445	2942.73
1456.689	2917.92
1459.933	2931.71
1463.177	2960.15
1466.42	2931.08
1469.663	2912.91
1472.906	2895.83
1476.148	2989.76
1479.391	2927.71
1482.633	2905.58
1485.874	2910.75
1489.115	2889.72
1492.356	2899.73
1495.597	2874.39
1498.838	2881.21
1502.078	2845.72
1505.318	2783.22
1508.557	2830.67
1511.797	2787.98
1515.036	2887.81
1518.274	2875.28
1521.513	2855.08
1524.751	2880.63
1527.989	2890.85
1531.227	2902.05
1534.464	2883.87
1537.701	2915.96
1540.938	2937.64
1544.174	2894
1547.41	2894.83
1550.646	2935.39
1553.882	2964.46
1557.117	3017.83
1560.352	3036.16
1563.587	2991.21
1566.821	2946.54
1570.055	2990.76
1573.289	2957.2
1576.523	3040.02
1579.756	3042.4
1582.989	3062.59
1586.222	3021.11
1589.454	3065.72
1592.686	3031.07
1595.918	3053.77
1599.15	3037.4
1602.381	3129.6
1605.612	3071.91
1608.843	3170.5
1612.073	3077.83
1615.303	3060.8
1618.533	3047.89
1621.762	3053.81
1624.992	3046.75
1628.221	3026.87
1631.449	3012.5
1634.678	3081.97
1637.906	3027.79
1641.134	3075.52
1644.361	3024.16
1647.588	3016.05
1650.815	3027.81
1654.042	3014.84
1657.269	3045.34
1660.495	2987.75
1663.72	2989.57
1666.946	2956.53
1670.171	2885.24
1673.396	2862.59
1676.621	2852.05
1679.845	2885.2
1683.069	2907.96
1686.293	2961.72
1689.517	2920.44
1692.74	2838.97
1695.963	2874.33
1699.185	2910.43
1702.408	2882.3
1705.63	2929.16
1708.852	2939.3
1712.073	2911.45
1715.294	2885.9
1718.515	2955.08
1721.736	2892.97
1724.956	2896.85
1728.176	2925.97
1731.396	2943.52
1734.616	2938.56
1737.835	2961.46
1741.054	2942.92
1744.272	2935.2
1747.491	2963.95
1750.709	3030.84
1753.927	2917.48
1757.144	2972.36
1760.361	3005.98
1763.578	3006.78
1766.795	2943.48
1770.011	2953.57
1773.227	3002.75
1776.443	3036.93
1779.658	3082.46
1782.874	3024.9
1786.089	2996.83
1789.303	3001.57
1792.518	3006.31
1795.732	2997.69
1798.945	3002.64
1802.159	3056.57
1805.372	2940.89
1808.585	2922.07
1811.797	2923.12
1815.01	2983.21
1818.222	2983.1
1821.434	2927.15
1824.645	2996.51
1827.856	2974.3
1831.067	3008.04
1834.278	2976.51
1837.488	2961.08
1840.698	3125.48
1843.908	3039.09
1847.117	3001.22
1850.326	2865.1
1853.535	2986.72
1856.744	3042.53
1859.952	2951.21
1863.16	2947.34
1866.368	2975.73
1869.575	3077.58
1872.782	2962.81
1875.989	2900.41
1879.196	3004.4
1882.402	2997.36
1885.608	3043.01
1888.814	2925.98
1892.019	2817.86
1895.224	2867.15
1898.429	2858.78
1901.634	2832.54
1904.838	2812.49
1908.042	2857.64
1911.246	2865.81
1914.449	2780.15
1917.652	2786.62
1920.855	2768.56
1924.058	2830.71
1927.26	2863.02
1930.462	2892.91
1933.664	2913.25
1936.865	2847.17
1940.066	2848.57
1943.267	2797.85
1946.467	2816.65
1949.668	2848.32
1952.868	2913.71
1956.067	2885.71
1959.267	2811.41
1962.466	2840.29
1965.665	2829.17
1968.863	2825.7
1972.061	2846.32
1975.259	2847.89
1978.457	2932.75
1981.654	2887.94
1984.852	2887.13
1988.048	2809.97
1991.245	2817.66
1994.441	2905.29
1997.637	2903.77
2000.833	2885.5
2004.028	2926.37
2007.223	2977.41
2010.418	2949.71
2013.613	2914.78
2016.807	2873.35
2020.001	2886.41
2023.194	2940.29
2026.388	2917.9
2029.581	2859.6
2032.774	2901.04
2035.966	2902.28
2039.158	2826.25
2042.35	2857.89
2045.542	2787.02
2048.733	2894.83
2051.924	2932.08
2055.115	2963.76
2058.306	2896.97
2061.496	2954.91
2064.686	3027.79
2067.875	2945.18
2071.065	2964.73
2074.254	2997.92
2077.442	2948.11
2080.631	3041.09
2083.819	2913.88
2087.007	2889.84
2090.195	2856.05
2093.382	2899.64
2096.569	2878.1
2099.756	2829.17
2102.942	2842.81
2106.128	2845.33
2109.314	2837.66
2112.5	2790.06
2115.685	2772.11
2118.87	2782
2122.055	2850.97
2125.239	2810.76
2128.424	2778.35
2131.608	2901.4
2134.791	2878.02
2137.974	2948.66
2141.157	2931.84
2144.34	2873.93
2147.523	2898.42
2150.705	2903.75
2153.887	2889.81
2157.068	2828.56
2160.25	2840.2
2163.431	2885.59
2166.611	2821.25
2169.792	2838.28
2172.972	2721.26
2176.152	2812.23
2179.331	2850.89
2182.511	2824.84
2185.69	2856.88
2188.868	2847.04
2192.047	2914.38
2195.225	2893.09
2198.403	2843.02
2201.58	2836.11
2204.758	2834.32
2207.935	2921.22
2211.111	2799.45
2214.288	2780.92
2217.464	2824.85
2220.64	2802.19
2223.815	2860.31
2226.991	2776.13
2230.166	2795.7
2233.34	2819.67
2236.515	2849.92
2239.689	2931.75
2242.863	2871.98
2246.036	2928.33
2249.209	2936.79
2252.382	2979.38
2255.555	2957.74
2258.727	2888.12
2261.9	2932.01
2265.071	2925.74
2268.243	2929.51
2271.414	2856.01
2274.585	2802.35
2277.756	2874.64
2280.926	2832.7
2284.096	2880.55
2287.266	2773.64
2290.436	2834.96
2293.605	2869.37
2296.774	2894.37
2299.942	2926.53
2303.111	2944.29
2306.279	2988.33
2309.447	2975.31
2312.614	2952.76
2315.781	2968.19
2318.948	2931.98
2322.115	2974.73
2325.281	2877.09
2328.447	2902.94
2331.613	2881.46
2334.779	2842.08
2337.944	2850.59
2341.109	2847.11
2344.274	2830.31
2347.438	2792.07
2350.602	2818.52
2353.766	2840.33
2356.929	2822.97
2360.092	2870.14
2363.255	2811.86
2366.418	2729.44
2369.58	2864.53
2372.742	2610.63
2375.904	2634.49
2379.066	2603.8
2382.227	2650.34
2385.388	2614.8
2388.548	2523.34
2391.709	2586.96
2394.869	2560.35
2398.029	2679.74
2401.188	2702.05
2404.347	2622.62
2407.506	2791.91
2410.665	2814.56
2413.823	2832.4
2416.981	2775.2
2420.139	2813.09
2423.296	2871.71
2426.453	2843.93
2429.61	2865.69
2432.767	2783.82
2435.923	2821.11
2439.079	2764.78
2442.235	2821.97
2445.391	2744.51
2448.546	2762.07
2451.701	2819.18
2454.855	2777.93
2458.009	2843.3
2461.163	2853.07
2464.317	2808.44
2467.471	2845.08
2470.624	2887.7
2473.777	2879.19
2476.929	2892.77
2480.082	2914.44
2483.234	2877.41
2486.385	2822.31
2489.537	2811.89
2492.688	2758.81
2495.839	2773.87
2498.989	2782.53
2502.14	2765.84
2505.29	2741.76
2508.439	2766.98
2511.589	2680.18
2514.738	2701.65
2517.887	2734.96
2521.035	2811.6
2524.183	2807.19
2527.331	2784.75
2530.479	2750.93
2533.627	2764.22
