Data from N_3_DEC_OH_4N_Splice17_13-26-47-727.txt Node
Date: Sat Mar 14 13:26:47 EDT 2020
User: sa697716
Spectrometer: FLMS03696
Trigger mode: 0
Integration Time (sec): 3.180400E-1
Scans to average: 20
Electric dark correction enabled: true
Nonlinearity correction enabled: true
Boxcar width: 5
XAxis mode: Wavelengths
Number of Pixels in Spectrum: 2048
>>>>>Begin Spectral Data<<<<<
187.83	-382168.66
188.298	2678.51
188.766	1438.12
189.233	1315.56
189.701	1828.97
190.169	2555.07
190.636	960.96
191.104	744.93
191.571	94.6
192.039	-124.85
192.506	-186.86
192.974	420.95
193.441	-981.29
193.908	-252
194.375	-57.94
194.842	21.13
195.31	158.25
195.777	202.99
196.244	464.71
196.711	508.48
197.177	625.48
197.644	867.15
198.111	1536.67
198.578	2168.8
199.045	1704.2
199.511	2767.45
199.978	3168.59
200.445	2670.14
200.911	2940.63
201.378	3268.97
201.844	2962.79
202.31	4978.75
202.777	5171.38
203.243	2849.98
203.709	2707.57
204.176	3257.68
204.642	2681.18
205.108	2514.57
205.574	2058.83
206.04	1863.67
206.506	1746.33
206.972	1655.34
207.438	1607.4
207.903	1831.58
208.369	1622.55
208.835	1611.34
209.301	1667.28
209.766	1701.89
210.232	1689.02
210.697	2079.86
211.163	2577.82
211.628	3870.29
212.094	3230.33
212.559	3987.65
213.024	2488.07
213.49	3030.03
213.955	2948.75
214.42	2886.31
214.885	2690.79
215.35	2583.94
215.815	2509.02
216.28	2684.28
216.745	2185.1
217.21	2357.19
217.675	2163.06
218.14	2410.64
218.604	2683.76
219.069	3067.01
219.534	3226.19
219.998	3732.54
220.463	4524.27
220.927	5506.9
221.392	5162.45
221.856	5222.3
222.32	6595.45
222.785	8126.01
223.249	10244.89
223.713	11412.35
224.177	11424.6
224.642	14610.55
225.106	17984.89
225.57	19628.81
226.034	14674.37
226.497	22342.41
226.961	20151.63
227.425	23436.02
227.889	26002.91
228.353	26004.44
228.816	53717.1
229.28	51413.1
229.744	43345.42
230.207	26387.57
230.671	25956.16
231.134	42868.32
231.597	49426.24
232.061	49498.92
232.524	48292.8
232.987	33265.74
233.45	29933.62
233.914	26869.21
234.377	27499.38
234.84	25157.25
235.303	29638.54
235.766	33059.08
236.229	34145.39
236.691	21500.03
237.154	24111.74
237.617	18162.63
238.08	18603.44
238.542	21761.93
239.005	15555.01
239.468	15457.64
239.93	14582.52
240.393	13258.91
240.855	11652.04
241.317	11941.2
241.78	14525.4
242.242	15035.45
242.704	16227.33
243.166	14128.43
243.629	12831.77
244.091	14772.27
244.553	16169.16
245.015	17391.13
245.477	22479.86
245.939	32908.02
246.4	34955.3
246.862	33994.48
247.324	32039.96
247.786	35840.06
248.247	46961.88
248.709	48486.92
249.17	36300.07
249.632	34281.61
250.093	39722.1
250.555	34307.91
251.016	20932.57
251.477	19798.03
251.939	21361
252.4	22411.47
252.861	26601
253.322	24750.07
253.783	29409.63
254.244	38111.14
254.705	29980.39
255.166	26656.23
255.627	26241.2
256.088	36993.67
256.549	39361.7
257.009	33872.8
257.47	41000.92
257.931	33401.28
258.391	24980.44
258.852	25761.36
259.312	26945.2
259.773	33219.89
260.233	28051.88
260.694	23622.05
261.154	26753.29
261.614	21447.12
262.074	19143.76
262.534	19891.87
262.994	18702.32
263.455	24885.99
263.915	20926.26
264.374	19695.41
264.834	21462.81
265.294	23745.83
265.754	24579.58
266.214	23239.95
266.673	21723.99
267.133	27376.65
267.593	27115.39
268.052	33159.94
268.512	28836.94
268.971	34793.68
269.431	38148.72
269.89	34163.43
270.349	51184.53
270.809	57018.32
271.268	51224.7
271.727	114759.81
272.186	74299
272.645	55689.32
273.104	40149.02
273.563	58091.59
274.022	45550.1
274.481	38706.2
274.94	29811.61
275.399	22139.39
275.857	25749.02
276.316	34815.64
276.775	30989.66
277.233	30519.08
277.692	28589.44
278.15	32363.81
278.609	33279.26
279.067	30813.33
279.525	28614.48
279.984	36974.67
280.442	44396.4
280.9	43799.22
281.358	28823.41
281.816	26868.61
282.274	26289.14
282.732	27136.82
283.19	27263.9
283.648	23537.31
284.106	25086.03
284.564	25516.9
285.021	23649.15
285.479	17656.31
285.937	16060.8
286.394	14098.96
286.852	14516.84
287.309	15275.19
287.767	14780.89
288.224	14045.22
288.682	15394.99
289.139	16911.66
289.596	15484.13
290.053	16069.93
290.511	20249.38
290.968	24571.99
291.425	33348.68
291.882	27774.6
292.339	24149.11
292.796	23942.64
293.252	22567.29
293.709	17955.03
294.166	16075.91
294.623	17780.42
295.079	17078.05
295.536	17192.29
295.992	15614.64
296.449	15433.88
296.905	16022.96
297.362	15390.73
297.818	16194.98
298.274	16826.07
298.731	17140.48
299.187	16977.84
299.643	18220.92
300.099	22059.97
300.555	24149.77
301.011	20158.6
301.467	19447.78
301.923	22768.03
302.379	22244.32
302.835	21843.42
303.291	21860.42
303.746	24877.13
304.202	31458.91
304.658	31612.67
305.113	21240.84
305.569	20837.45
306.024	22246.01
306.479	21157.71
306.935	17851.46
307.39	19465.62
307.845	17977.64
308.301	18121.63
308.756	17663.91
309.211	17005.44
309.666	17409.97
310.121	21648.34
310.576	21949.25
311.031	21719.5
311.486	24875.9
311.94	24879.75
312.395	33326.2
312.85	62656.53
313.305	307141.07
313.759	1592193.64
314.214	115402.43
314.668	91498.63
315.123	77042.88
315.577	27688.48
316.032	24712.62
316.486	31016.73
316.94	24490.79
317.394	17044.02
317.849	13243.4
318.303	12529.14
318.757	11826.5
319.211	13077.25
319.665	11456.69
320.119	11570.43
320.572	16570.93
321.026	15466.67
321.48	12879.14
321.934	14011.06
322.387	14032.96
322.841	15173.39
323.295	13673.62
323.748	15714.07
324.202	15957.35
324.655	19154.22
325.108	26816.38
325.562	18953.95
326.015	22556.75
326.468	17005.29
326.921	19006.47
327.374	17723.47
327.827	18453.47
328.28	20867.71
328.733	14006.04
329.186	12296.48
329.639	11705.33
330.092	9858.06
330.545	9388.41
330.997	9461.13
331.45	10355.99
331.903	12176.18
332.355	20947.84
332.808	20305.1
333.26	16715.54
333.713	18134.22
334.165	18273.08
334.617	24442.97
335.069	19726.19
335.522	35688.1
335.974	39557.87
336.426	36131.33
336.878	24967.65
337.33	12671.53
337.782	12380.05
338.234	15544.95
338.686	18564.19
339.137	22010.05
339.589	20695.55
340.041	16213.35
340.493	13917.59
340.944	14238.56
341.396	15341.63
341.847	12933.16
342.299	15283.07
342.75	18678.84
343.201	16301.78
343.653	18745.2
344.104	23023.12
344.555	18108.52
345.006	28129.44
345.457	21591.95
345.908	17123.89
346.359	16121.61
346.81	13103.23
347.261	13759.52
347.712	13519.54
348.163	14503.12
348.613	14737.26
349.064	13764.3
349.515	12064.14
349.965	12399.69
350.416	14912.51
350.866	16357.11
351.317	18455.18
351.767	30546.81
352.217	38606.95
352.668	32107.84
353.118	29428.46
353.568	28276.61
354.018	22374.5
354.468	23578.91
354.918	16902.43
355.368	14752.26
355.818	20858.08
356.268	60020.15
356.718	251235.89
357.168	62669.95
357.617	31468.46
358.067	34967.37
358.517	32717.46
358.966	38359.19
359.416	43088.12
359.865	46475.6
360.315	55347.83
360.764	25826.4
361.213	14482.51
361.663	13682.62
362.112	16844.14
362.561	27187.72
363.01	20501.36
363.459	17269.5
363.908	18637.22
364.357	15794.57
364.806	26672.71
365.255	18362.76
365.703	16856.12
366.152	16850.99
366.601	13691.89
367.05	11145.29
367.498	10124.44
367.947	10573.12
368.395	10972.69
368.844	9721.58
369.292	11685.11
369.74	8058.86
370.189	12333.28
370.637	14394.54
371.085	12435.1
371.533	15111.67
371.981	14493.4
372.429	13803.2
372.877	14374.86
373.325	12056.35
373.773	12256.19
374.221	10914.79
374.669	13555.07
375.116	11666.38
375.564	11772.23
376.012	13144.05
376.459	10815.72
376.907	12932.73
377.354	15598.73
377.801	14507.69
378.249	16647.32
378.696	21263.23
379.143	25725.1
379.591	27372.81
380.038	46431.94
380.485	33534.5
380.932	36065.87
381.379	33070.28
381.826	24338.02
382.273	17260.58
382.72	15056.14
383.166	14650.71
383.613	9507.14
384.06	8559.19
384.506	9900.89
384.953	7242.38
385.4	7258.63
385.846	6355.8
386.292	6165.19
386.739	6006.88
387.185	5920.08
387.631	5914.58
388.078	5741.44
388.524	6117.27
388.97	5639.73
389.416	4700.72
389.862	4990.71
390.308	4731.88
390.754	4791.62
391.2	5192.36
391.645	5303.35
392.091	5102.4
392.537	4936.42
392.983	4936.16
393.428	4887.76
393.874	5228.1
394.319	5263.88
394.765	5011.34
395.21	5145.76
395.655	4841.11
396.101	4545.46
396.546	4117.07
396.991	4142.9
397.436	3856.85
397.881	3731.55
398.326	3525.13
398.771	3357.74
399.216	2931.73
399.661	2644.25
400.106	2653.68
400.551	2735.61
400.995	2468.39
401.44	2454.27
401.885	2319.13
402.329	2354.12
402.774	2270.76
403.218	2218.42
403.663	2148.08
404.107	2224.31
404.551	2255.8
404.995	2077.01
405.44	2008.11
405.884	2047.8
406.328	1995.68
406.772	2002.76
407.216	1834.72
407.66	1784.07
408.104	1698.42
408.547	1598.29
408.991	1556.78
409.435	1503.74
409.879	1490.08
410.322	1474.83
410.766	1431.45
411.209	1365.86
411.653	1318.08
412.096	1297.72
412.54	1301.27
412.983	1299.78
413.426	1312.37
413.869	1315.43
414.312	1297.03
414.756	1253.22
415.199	1201.18
415.642	1170.74
416.085	1177.48
416.527	1171.09
416.97	1193.51
417.413	1136.55
417.856	1129.44
418.298	1119.34
418.741	1113.22
419.184	1111.67
419.626	1160.02
420.069	1161.6
420.511	1172.15
420.953	1149.47
421.396	1142.1
421.838	1114.3
422.28	1142.15
422.722	1147.74
423.164	1161.81
423.606	1145.4
424.048	1144.97
424.49	1090.69
424.932	1089.04
425.374	1073.76
425.816	1092.63
426.258	1112.51
426.699	1124.73
427.141	1110.32
427.582	1123.76
428.024	1117.03
428.465	1108.06
428.907	1081.59
429.348	1067.7
429.789	1068.03
430.231	1046.79
430.672	1061.21
431.113	1035.58
431.554	1020.94
431.995	994.33
432.436	961.04
432.877	941.75
433.318	926.31
433.759	921.98
434.2	923.33
434.64	912.64
435.081	915.76
435.522	866.09
435.962	836.23
436.403	819.98
436.843	832.8
437.284	818.05
437.724	798.93
438.164	801.59
438.604	786.16
439.045	759.25
439.485	732.47
439.925	717.33
440.365	703.47
440.805	697.1
441.245	693.02
441.685	670.31
442.125	667.06
442.564	675.31
443.004	666.99
443.444	669.83
443.883	674.1
444.323	671.46
444.762	676.77
445.202	689.08
445.641	706.3
446.081	705.01
446.52	715.83
446.959	715.5
447.398	702.39
447.837	695.74
448.276	688.42
448.716	699.67
449.154	710.9
449.593	700.84
450.032	704.48
450.471	694.75
450.91	699.58
451.349	700.86
451.787	700.95
452.226	714.23
452.664	719.1
453.103	723.07
453.541	724.39
453.98	724.65
454.418	731.59
454.856	722.19
455.295	723.89
455.733	730.33
456.171	736.01
456.609	735.51
457.047	735.31
457.485	745.53
457.923	746.23
458.361	736.68
458.798	739.15
459.236	736.8
459.674	741.73
460.111	744.07
460.549	735.13
460.987	731.73
461.424	729.39
461.862	725.19
462.299	713.19
462.736	711.93
463.173	713.3
463.611	706
464.048	702.71
464.485	705.72
464.922	698.61
465.359	694.68
465.796	685.57
466.233	681.18
466.67	675.46
467.106	674.55
467.543	668.66
467.98	660.62
468.416	643.61
468.853	638.43
469.29	621.41
469.726	615.59
470.162	600.64
470.599	593.36
471.035	588.58
471.471	574.88
471.907	571.66
472.344	568.95
472.78	572.11
473.216	579.67
473.652	574.41
474.088	574.48
474.523	574.92
474.959	582.07
475.395	578.27
475.831	576.4
476.266	581.54
476.702	581.54
477.138	575.97
477.573	574.78
478.008	573.89
478.444	578.44
478.879	585.05
479.314	588.37
479.75	589.57
480.185	593.12
480.62	598.29
481.055	602.51
481.49	607.89
481.925	618.09
482.36	631.25
482.795	650.48
483.229	668.09
483.664	682.04
484.099	684.5
484.534	696.09
484.968	705.13
485.403	709.72
485.837	710.38
486.271	710.2
486.706	713.17
487.14	706.34
487.574	696.33
488.009	691.46
488.443	687.45
488.877	696.77
489.311	700.73
489.745	710.28
490.179	719.6
490.613	735.16
491.046	744.61
491.48	752.29
491.914	755.13
492.348	763.58
492.781	772.68
493.215	777.67
493.648	782.86
494.082	792.01
494.515	797.08
494.948	810.28
495.382	819.59
495.815	829.18
496.248	840.13
496.681	860.56
497.114	879.63
497.547	895.42
497.98	917.66
498.413	930.65
498.846	948.37
499.279	964.47
499.711	975.33
500.144	984.68
500.577	1004.33
501.009	1023.59
501.442	1041.15
501.874	1048.59
502.306	1058.03
502.739	1071.71
503.171	1096.62
503.603	1106.18
504.036	1122.51
504.468	1133.36
504.9	1152.18
505.332	1165.37
505.764	1175.17
506.196	1188.52
506.627	1211.15
507.059	1232.47
507.491	1247.85
507.923	1247.81
508.354	1270.29
508.786	1287.71
509.217	1314.22
509.649	1336.03
510.08	1361.92
510.512	1386.41
510.943	1408.53
511.374	1425.27
511.805	1452.22
512.237	1478.54
512.668	1521.05
513.099	1557.08
513.53	1592.59
513.961	1619.59
514.391	1661.52
514.822	1704.45
515.253	1749.54
515.684	1780.32
516.114	1815.43
516.545	1840.23
516.975	1870.4
517.406	1891.75
517.836	1890.83
518.267	1895.87
518.697	1914.62
519.127	1915.21
519.558	1919.64
519.988	1918.63
520.418	1926.71
520.848	1944.3
521.278	1950.76
521.708	1967.76
522.138	1978.87
522.567	2015.31
522.997	2042.06
523.427	2057.15
523.857	2075.26
524.286	2083.96
524.716	2098.94
525.145	2118.94
525.575	2129.15
526.004	2143.56
526.433	2130.84
526.863	2128.22
527.292	2110.15
527.721	2114.24
528.15	2118.32
528.579	2114.32
529.008	2125.37
529.437	2151.44
529.866	2165.75
530.295	2185.58
530.724	2198.09
531.152	2230.92
531.581	2244.94
532.01	2266
532.438	2273.37
532.867	2289.88
533.295	2310.71
533.723	2315.66
534.152	2311.28
534.58	2309.15
535.008	2286.73
535.436	2288.37
535.865	2295.66
536.293	2312.62
536.721	2330.53
537.149	2361.15
537.576	2363.52
538.004	2378.12
538.432	2387.18
538.86	2384.9
539.287	2392.14
539.715	2408.61
540.143	2409.22
540.57	2403.71
540.998	2397.71
541.425	2366.27
541.852	2339.39
542.28	2335.06
542.707	2314.51
543.134	2295.48
543.561	2288.5
543.988	2277.84
544.415	2274.52
544.842	2267.51
545.269	2258.08
545.696	2259.55
546.123	2274.89
546.549	2261.71
546.976	2245.93
547.403	2245.93
547.829	2249.23
548.256	2251.86
548.682	2248.67
549.108	2239.88
549.535	2239.96
549.961	2243.24
550.387	2227.86
550.813	2222.99
551.24	2231.31
551.666	2233.75
552.092	2222.07
552.518	2213.96
552.943	2208.01
553.369	2218.99
553.795	2228.26
554.221	2231.9
554.646	2228.71
555.072	2244.69
555.498	2253.93
555.923	2268.11
556.349	2288.94
556.774	2301.5
557.199	2306.84
557.625	2317.28
558.05	2311.78
558.475	2327.77
558.9	2329.29
559.325	2323.03
559.75	2316.84
560.175	2311.36
560.6	2306.59
561.025	2306.73
561.449	2311.95
561.874	2322.06
562.299	2329.97
562.723	2343.53
563.148	2334.84
563.572	2344.26
563.997	2361.14
564.421	2372.44
564.846	2376.26
565.27	2384.15
565.694	2385.46
566.118	2405.21
566.542	2419.13
566.966	2415.7
567.39	2415.04
567.814	2405.56
568.238	2407.64
568.662	2418.4
569.086	2426.71
569.509	2441.72
569.933	2426.16
570.357	2421.4
570.78	2397.05
571.204	2382.98
571.627	2373.29
572.05	2373.22
572.474	2376.85
572.897	2365.39
573.32	2359.22
573.743	2350.72
574.166	2330.97
574.589	2336.21
575.012	2329.83
575.435	2333.11
575.858	2325.95
576.281	2316.06
576.704	2300.03
577.126	2288.56
577.549	2278.16
577.972	2268.98
578.394	2258.95
578.817	2252.2
579.239	2230.92
579.661	2216.24
580.084	2198.77
580.506	2185.62
580.928	2183.69
581.35	2171.43
581.772	2168.23
582.194	2152.83
582.616	2138.55
583.038	2122.3
583.46	2110.83
583.882	2109.25
584.303	2118.54
584.725	2115.54
585.147	2118.91
585.568	2135
585.99	2154.86
586.411	2166.75
586.833	2190.14
587.254	2195.09
587.675	2217.05
588.096	2238.09
588.518	2232.53
588.939	2210.87
589.36	2209.07
589.781	2198.46
590.202	2160.3
590.623	2149.91
591.043	2147.67
591.464	2130.63
591.885	2125.5
592.305	2118.21
592.726	2100.33
593.147	2103.13
593.567	2096.65
593.987	2087.1
594.408	2080.07
594.828	2078.66
595.248	2070.93
595.669	2045.6
596.089	2036.08
596.509	2028.34
596.929	2008.94
597.349	2009.65
597.769	1996.01
598.189	1988.08
598.608	1990.87
599.028	1994
599.448	1994.95
599.867	1978.07
600.287	1973.09
600.706	1967.51
601.126	1954.24
601.545	1953.57
601.965	1953.21
602.384	1946.09
602.803	1951.04
603.222	1946.33
603.641	1938.37
604.061	1933.36
604.48	1929.13
604.898	1942.37
605.317	1952.7
605.736	1958.19
606.155	1956.69
606.574	1945.23
606.992	1956.37
607.411	1952.57
607.829	1942.58
608.248	1941.19
608.666	1941.62
609.085	1942.44
609.503	1932.24
609.921	1924.82
610.339	1930.71
610.758	1934.41
611.176	1931.58
611.594	1920.51
612.012	1918.51
612.43	1926.1
612.847	1937.94
613.265	1942.35
613.683	1952.58
614.101	1958.98
614.518	1958.03
614.936	1945.71
615.353	1924.65
615.771	1922.24
616.188	1925.67
616.606	1921.76
617.023	1914.48
617.44	1895.77
617.857	1888.37
618.274	1877.51
618.691	1869.2
619.108	1855.99
619.525	1849.39
619.942	1861.55
620.359	1865.84
620.776	1858.97
621.192	1854.5
621.609	1850.79
622.026	1861.13
622.442	1869.39
622.859	1876.06
623.275	1866.73
623.691	1876.53
624.108	1893.66
624.524	1916.26
624.94	1918.58
625.356	1934.2
625.772	1954.35
626.188	1973.78
626.604	1976.94
627.02	1970.62
627.436	1966.16
627.852	1975.19
628.268	1992.44
628.683	1978.46
629.099	1963.9
629.514	1955.67
629.93	1960.99
630.345	1967.39
630.761	1961.34
631.176	1966.38
631.591	1958.33
632.007	1949.09
632.422	1946.5
632.837	1928.33
633.252	1924
633.667	1909.15
634.082	1895.29
634.497	1874.72
634.911	1843.74
635.326	1836.78
635.741	1810.2
636.155	1794.16
636.57	1795.23
636.984	1793.26
637.399	1794.71
637.813	1792.51
638.228	1788.1
638.642	1792.16
639.056	1776.32
639.47	1775.07
639.884	1759.07
640.298	1745.95
640.712	1740.78
641.126	1719.57
641.54	1704.01
641.954	1693.91
642.368	1672.52
642.781	1656.37
643.195	1628.5
643.609	1625.38
644.022	1613.82
644.436	1605.32
644.849	1585.89
645.262	1566.38
645.676	1566.5
646.089	1557.95
646.502	1533.34
646.915	1524.35
647.328	1500.75
647.741	1494.75
648.154	1473.58
648.567	1468.48
648.98	1450.11
649.393	1449.67
649.805	1443.79
650.218	1431.67
650.631	1406.97
651.043	1397.42
651.456	1388.13
651.868	1389.26
652.28	1414.44
652.693	1433.62
653.105	1442.65
653.517	1455.39
653.929	1455.45
654.341	1463.32
654.753	1446.09
655.165	1454.2
655.577	1450.96
655.989	1444.27
656.401	1429.69
656.813	1376.87
657.224	1348.31
657.636	1305.5
658.047	1276.82
658.459	1247.7
658.87	1231.59
659.282	1212.5
659.693	1181.62
660.104	1156.21
660.515	1133.9
660.926	1126.88
661.338	1117.82
661.749	1102.87
662.159	1085.12
662.57	1074.65
662.981	1062.56
663.392	1047.2
663.803	1045.07
664.213	1034.05
664.624	1022.01
665.035	1017.59
665.445	993.58
665.855	976.56
666.266	959.18
666.676	949.38
667.086	930.43
667.497	921.09
667.907	906.77
668.317	889.08
668.727	879.03
669.137	874.1
669.547	865.18
669.956	862.4
670.366	859.72
670.776	856.68
671.186	856.35
671.595	856.47
672.005	855.47
672.414	850.39
672.824	844.42
673.233	845.31
673.642	844.91
674.052	844.82
674.461	844.52
674.87	845.34
675.279	840.27
675.688	838.85
676.097	838.26
676.506	833.88
676.915	848.4
677.323	851.33
677.732	849.54
678.141	848.79
678.549	838.65
678.958	839.76
679.366	843.27
679.775	852.24
680.183	869.21
680.592	882.17
681	896.68
681.408	897.73
681.816	916.36
682.224	937.69
682.632	962.58
683.04	1012.81
683.448	1057.35
683.856	1111.93
684.264	1175.55
684.671	1235.77
685.079	1305.79
685.487	1384.8
685.894	1488.86
686.302	1580.17
686.709	1659.44
687.116	1749.52
687.524	1826.13
687.931	1894.24
688.338	1951.15
688.745	2000.11
689.152	2054.25
689.559	2124.2
689.966	2185.35
690.373	2214.38
690.78	2267.71
691.187	2352.52
691.593	2410.09
692	2458.84
692.407	2533.49
692.813	2624.75
693.22	2691.31
693.626	2759.8
694.032	2806.96
694.439	2892.28
694.845	2947.97
695.251	3026.21
695.657	3087.79
696.063	3196.27
696.469	3265.47
696.875	3327.27
697.281	3348.16
697.687	3380.56
698.093	3401.63
698.498	3468.08
698.904	3513.74
699.31	3598.77
699.715	3647.2
700.12	3735.01
700.526	3728.67
700.931	3788.12
701.337	3823.23
701.742	3837.45
702.147	3914.8
702.552	3924.16
702.957	3970.78
703.362	3964.57
703.767	3972.75
704.172	3994.22
704.577	3914.99
704.981	3946.15
705.386	3941.65
705.791	3911.43
706.195	3976.27
706.6	3964.98
707.004	4035.99
707.408	3979.89
707.813	3994.02
708.217	3961.96
708.621	3946.83
709.025	4037.8
709.43	4020.79
709.834	4070.59
710.237	4130.14
710.641	4095.41
711.045	4102.67
711.449	4080.48
711.853	4098.64
712.256	4126.84
712.66	4152.2
713.064	4219.79
713.467	4249.39
713.87	4354.48
714.274	4389.18
714.677	4489.52
715.08	4646.37
715.484	4809.67
715.887	5007.36
716.29	5196.19
716.693	5398.02
717.096	5629.93
717.499	5750.38
717.901	5759.02
718.304	5773.48
718.707	5781.5
719.109	5663.17
719.512	5615.46
719.915	5460.38
720.317	5390.04
720.719	5421.78
721.122	5381.14
721.524	5319.04
721.926	5263.63
722.328	5350.81
722.731	5327.81
723.133	5343.12
723.535	5525.58
723.937	5536.39
724.338	5580.5
724.74	5610.09
725.142	5550.05
725.544	5540.15
725.945	5562.73
726.347	5549.8
726.748	5538.57
727.15	5546.06
727.551	5505.55
727.952	5466.83
728.354	5431.76
728.755	5423.04
729.156	5371.97
729.557	5341.96
729.958	5214.12
730.359	5149.61
730.76	5128.22
731.161	5061.33
731.562	5030.83
731.962	5025.38
732.363	4959.9
732.763	4893.7
733.164	4925.6
733.564	4859.58
733.965	4767.04
734.365	4732.13
734.766	4754.9
735.166	4713.46
735.566	4660.47
735.966	4632.05
736.366	4623.53
736.766	4562.5
737.166	4590.1
737.566	4547.25
737.966	4521.94
738.365	4553.73
738.765	4546.14
739.165	4473.12
739.564	4445.74
739.964	4486.02
740.363	4441.95
740.763	4438.87
741.162	4425.32
741.561	4391.24
741.96	4344.25
742.36	4359.45
742.759	4362.93
743.158	4394.94
743.557	4405.25
743.955	4440.85
744.354	4396.05
744.753	4445.94
745.152	4405.18
745.55	4455.78
745.949	4451.53
746.348	4450.29
746.746	4464.75
747.144	4426.06
747.543	4404.35
747.941	4451.58
748.339	4384.25
748.737	4375.27
749.136	4367.69
749.534	4429.14
749.932	4403.4
750.33	4424.32
750.727	4475.87
751.125	4451.26
751.523	4435.33
751.921	4477.83
752.318	4445.13
752.716	4499.69
753.113	4511.57
753.511	4532.1
753.908	4529.76
754.305	4512.81
754.703	4568.86
755.1	4624.26
755.497	4679.96
755.894	4856.66
756.291	5021.86
756.688	5328.62
757.085	5738.56
757.482	6317.11
757.878	6947.87
758.275	7517.33
758.672	8297.55
759.068	8931.6
759.465	9847.62
759.861	11024.39
760.258	12388.33
760.654	13091.96
761.05	12989.03
761.447	12386.3
761.843	11532.73
762.239	10651.86
762.635	10252.48
763.031	9870.23
763.427	9319.76
763.822	8735.16
764.218	8162.66
764.614	7418.69
765.01	6918.43
765.405	6598.18
765.801	6360.06
766.196	6046.28
766.592	5871.69
766.987	5576.89
767.382	5378.35
767.778	5296.05
768.173	5175.36
768.568	5107.4
768.963	4991.04
769.358	5008.27
769.753	4962.86
770.148	4883.74
770.542	4884.07
770.937	4855.03
771.332	4941.81
771.726	4961.35
772.121	4903.06
772.515	4955.33
772.91	4941.74
773.304	5006.58
773.699	4944.82
774.093	4993.86
774.487	5043.74
774.881	5081.63
775.275	5076.7
775.669	5035.34
776.063	5074.4
776.457	5106.3
776.851	5036.8
777.245	5028.68
777.638	5059.65
778.032	5166.55
778.425	5134.33
778.819	5173.73
779.212	5136.12
779.606	5097.67
779.999	5114.44
780.392	5099.71
780.786	5177.18
781.179	5195.51
781.572	5235.52
781.965	5249.81
782.358	5196
782.751	5247.24
783.143	5204.07
783.536	5268.79
783.929	5312.25
784.322	5418.27
784.714	5448.09
785.107	5440.5
785.499	5507.86
785.891	5486.97
786.284	5467.12
786.676	5602.59
787.068	5585.1
787.46	5631.63
787.852	5651.93
788.245	5731.31
788.636	5763.02
789.028	5827.38
789.42	5869.45
789.812	5880.66
790.204	5968.49
790.595	6065.15
790.987	5880.01
791.378	5904.07
791.77	6024.73
792.161	6152.34
792.553	6206.59
792.944	6102.92
793.335	6037.6
793.726	6106.81
794.117	6192.26
794.508	6324.42
794.899	6296.46
795.29	6429.98
795.681	6485.37
796.072	6355.38
796.463	6193.16
796.853	6204.95
797.244	6357.91
797.634	6393.12
798.025	6389.97
798.415	6402.08
798.806	6486.58
799.196	6568.39
799.586	6619.06
799.976	6581.3
800.366	6802.42
800.756	7021.3
801.146	6981.29
801.536	7006.37
801.926	7075.96
802.316	7106.22
802.706	7172.69
803.095	7060.61
803.485	7155.86
803.874	7195.75
804.264	7446.56
804.653	7419.46
805.043	7555.93
805.432	7665.33
805.821	7666.92
806.21	7689.3
806.599	7797.29
806.988	7840.31
807.377	7938.59
807.766	8060.9
808.155	8329.96
808.544	8081.74
808.933	8100.23
809.321	8087.93
809.71	8360.52
810.098	8511.12
810.487	8945.45
810.875	9403.15
811.264	9424.96
811.652	9705.23
812.04	9837.51
812.428	9991.13
812.816	10706.55
813.204	11099.2
813.592	11608.95
813.98	11933.91
814.368	11849.6
814.756	12300.6
815.144	12223.63
815.531	12665.89
815.919	12599.68
816.306	12895.76
816.694	12603.51
817.081	12658.05
817.469	12984.32
817.856	12983.33
818.243	13227.73
818.63	13598.33
819.017	13206.61
819.404	13258.5
819.791	13618.21
820.178	14189.44
820.565	14426.69
820.952	15309.64
821.339	14844.7
821.725	15024.04
822.112	14321.64
822.498	14286.27
822.885	14411.49
823.271	14322.57
823.657	14727.5
824.044	14736.03
824.43	14810.65
824.816	14785.91
825.202	14370.07
825.588	15328.95
825.974	15337.23
826.36	15836.22
826.746	15872.16
827.132	16208.24
827.517	16190.73
827.903	15456.29
828.289	15495.46
828.674	14758.48
829.06	14661.91
829.445	15040.69
829.83	15379.86
830.216	15827.23
830.601	16164.34
830.986	15781.63
831.371	15651.18
831.756	16174.18
832.141	15764.24
832.526	15752.6
832.911	16025.43
833.295	15918.23
833.68	16352.29
834.065	15766.57
834.449	14916.12
834.834	14844.25
835.218	14841.25
835.603	15161.93
835.987	14959.7
836.371	15733.02
836.755	15631.68
837.139	16001.62
837.524	16213.72
837.908	16048.76
838.291	16098.55
838.675	16152.24
839.059	16351.21
839.443	16333.63
839.827	16109.54
840.21	16552.3
840.594	16420.08
840.977	16617.84
841.361	16591.25
841.744	16940.05
842.127	16780.3
842.511	17004.62
842.894	17552.83
843.277	17896.76
843.66	18394.55
844.043	18467.25
844.426	17706.22
844.809	17401.5
845.191	17424.41
845.574	16986.9
845.957	16650.23
846.339	16553.99
846.722	16063.36
847.104	16129.44
847.487	15963.9
847.869	15982.39
848.252	16238.96
848.634	16545.49
849.016	16798.23
849.398	16918.23
849.78	17712.13
850.162	17712.63
850.544	18096.19
850.926	18679.85
851.307	18594.2
851.689	18863.01
852.071	19279.8
852.452	19590.67
852.834	19577.79
853.215	19947.64
853.597	20084.5
853.978	20360.83
854.359	20787.63
854.741	19858.82
855.122	19764.76
855.503	19493.95
855.884	19612.06
856.265	19561.47
856.646	19674.75
857.026	19311.33
857.407	19246.52
857.788	19398.43
858.169	19669.55
858.549	18879.13
858.93	19467.59
859.31	19522.4
859.69	19720.31
860.071	19344.22
860.451	19137.21
860.831	18438.93
861.211	19512.64
861.591	20026.71
861.971	19994.81
862.351	20179.57
862.731	20542.27
863.111	20791.19
863.491	21101.32
863.87	21924.32
864.25	22255.51
864.629	21898.36
865.009	22378.7
865.388	23192.21
865.768	24858.95
866.147	24767.5
866.526	23390.06
866.905	23663.55
867.284	24994.81
867.663	23738.44
868.042	22745.48
868.421	22673.5
868.8	23034.05
869.179	23264.19
869.558	21899.1
869.936	20188.72
870.315	20550.33
870.693	21058.61
871.072	22716.29
871.45	21637.87
871.828	21904.59
872.207	23040.47
872.585	22695.81
872.963	23322.13
873.341	22518.61
873.719	22254.95
874.097	21984.13
874.475	22402.44
874.853	22918.3
875.23	21959.25
875.608	22880.34
875.986	24756.3
876.363	23671.41
876.741	24401.66
877.118	23786.55
877.495	24967.71
877.873	25385.03
878.25	26718.52
878.627	25626.17
879.004	25982.88
879.381	25861.3
879.758	25170.09
880.135	23431.99
880.512	24772.76
880.889	24098.87
881.265	23838.49
881.642	23616.01
882.019	24011.77
882.395	23512.08
882.772	24443.72
883.148	23372.95
883.524	23276.98
883.901	23147.98
884.277	23488.72
884.653	23336.14
885.029	24012.03
885.405	26603.18
885.781	26390.26
886.157	25305.42
886.532	25612.95
886.908	25579.92
887.284	28446.83
887.659	29369.12
888.035	30265.28
888.411	31040.13
888.786	31456.85
889.161	32533.55
889.537	31904.83
889.912	32931.16
890.287	32885.18
890.662	33720.47
891.037	33115.73
891.412	30864.39
891.787	30538.67
892.162	29468.14
892.536	30145.1
892.911	28998.62
893.286	28388.33
893.66	27237.24
894.035	27917.6
894.409	30401.79
894.784	29189.74
895.158	29669.74
895.532	31416.72
895.906	32276.33
896.281	33029.72
896.655	32513.57
897.029	37158.16
897.402	38685.75
897.776	43074.45
898.15	42924.99
898.524	42438.22
898.898	42989.67
899.271	48133.09
899.645	41709.44
900.018	40084.72
900.392	41589.35
900.765	41902.97
901.138	38774.57
901.511	38191.61
901.884	35083.11
902.258	32386.14
902.631	33474.94
903.003	38515.27
903.376	34746.59
903.749	38975.69
904.122	41692.67
904.495	45879.49
904.867	46481.18
905.24	40354.06
905.612	37574.38
905.985	38421.22
906.357	40182.48
906.729	38364.38
907.102	32778.57
907.474	31526.91
907.846	31730.38
908.218	31327.26
908.59	27698.76
908.962	26791.17
909.334	28876.61
909.705	30336.8
910.077	29459.23
910.449	30653.11
910.82	31509.84
911.192	34686.95
911.563	36063.61
911.935	38585.4
912.306	38643.3
912.677	39931.65
913.048	39554.99
913.419	42886.47
913.79	43128.48
914.161	46260.79
914.532	44239.82
914.903	40678.94
915.274	38631.34
915.645	38065.69
916.015	33495.65
916.386	31948.01
916.756	34005.62
917.127	35073.43
917.497	31343.32
917.868	34136.74
918.238	32421.82
918.608	33358.32
918.978	34054.67
919.348	36072.91
919.718	37303.17
920.088	35955.49
920.458	37348.71
920.828	39296.89
921.198	37257.06
921.567	39809.54
921.937	30817.84
922.306	31130.66
922.676	33551.75
923.045	27989.85
923.415	26583.59
923.784	24201.11
924.153	24892.29
924.522	24879.57
924.891	23380.67
925.26	25048.21
925.629	24447.33
925.998	28111.18
926.367	27419.42
926.736	26122.04
927.104	31107.7
927.473	33451.09
927.842	40374.97
928.21	39971.99
928.578	41996.58
928.947	39749.57
929.315	40018.5
929.683	46961.27
930.051	47307.97
930.42	54962.84
930.788	46971.13
931.156	46630.17
931.523	43725.36
931.891	40424.79
932.259	38814.93
932.627	44982.14
932.994	63619.55
933.362	52522.45
933.729	45598.6
934.097	43666.41
934.464	36940.24
934.831	42645.26
935.199	42032.46
935.566	40746.61
935.933	41247.55
936.3	50001.55
936.667	38919.57
937.034	35118.87
937.401	34709.21
937.767	29951.15
938.134	26633.46
938.501	37583.06
938.867	40050.59
939.234	67688.9
939.6	57740.91
939.967	63686.52
940.333	42626.45
940.699	36339.37
941.065	29164.63
941.431	38318.38
941.798	36955.32
942.163	48609.01
942.529	30372.47
942.895	27978.54
943.261	18109.91
943.627	23773.52
943.992	20818.86
944.358	20835.54
944.723	20909.84
945.089	20392.36
945.454	18824.34
945.82	20084.9
946.185	19309.54
946.55	22397.19
946.915	20072.06
947.28	23579.97
947.645	20773.66
948.01	19205.24
948.375	20046.31
948.74	24006.52
949.104	27986.56
949.469	40425.4
949.834	71516.86
950.198	67860.53
950.562	40634.53
950.927	33854.3
951.291	40680.26
951.655	34648.98
952.02	32504.89
952.384	24598.73
952.748	21421.12
953.112	20873.34
953.476	18191.21
953.839	16813.67
954.203	16650.92
954.567	20827.48
954.931	32823.72
955.294	28101.78
955.658	28269.55
956.021	48065.71
956.385	81399.97
956.748	120288.59
957.111	186560.95
957.474	209219.95
957.837	235759.27
958.2	178379.76
958.563	64245.17
958.926	43453.64
959.289	65957.68
959.652	73740.33
960.015	55383.14
960.377	79507.78
960.74	90597.61
961.102	156559.19
961.465	168221.87
961.827	90235.47
962.189	173100.47
962.552	119911.34
962.914	96065.5
963.276	62246.96
963.638	51411.88
964	50886.33
964.362	34379.48
964.724	33239.42
965.085	23701.87
965.447	19419.21
965.809	22098.25
966.17	22091.08
966.532	23887.39
966.893	21918.47
967.255	19945.66
967.616	23542.58
967.977	18852.68
968.338	20593.1
968.699	16924.14
969.061	16931.15
969.421	17038.02
969.782	19120.31
970.143	16163.86
970.504	16763.66
970.865	19056.67
971.225	19492.65
971.586	19047.67
971.946	27158.05
972.307	23578.72
972.667	30835.48
973.027	31727.06
973.388	38458.19
973.748	26169.5
974.108	28491.8
974.468	38437.35
974.828	29674.37
975.188	22842.94
975.548	21007.07
975.907	17625.89
976.267	19756.74
976.627	16607.08
976.986	17221.5
977.346	16432.57
977.705	15808.14
978.064	14409.18
978.424	12006.52
978.783	12392.12
979.142	14134.25
979.501	13530.98
979.86	14331.94
980.219	13808.77
980.578	17804.98
980.937	19936.63
981.296	17766.97
981.654	18279.74
982.013	28447.52
982.371	36942.05
982.73	34525.1
983.088	39139.37
983.447	41771
983.805	59689.77
984.163	124884.55
984.521	138616.75
984.879	203169.85
985.237	-330455.5
985.595	318912.2
985.953	79198.88
986.311	45741.46
986.669	26547.83
987.026	22894.74
987.384	30788.27
987.741	31778.58
988.099	22701.35
988.456	18084.55
988.814	16923.1
989.171	14696.14
989.528	14486.96
989.885	15301.48
990.242	12108.06
990.599	15085.95
990.956	12334.71
991.313	8622.27
991.67	7072.46
992.027	7500.73
992.383	6671.49
992.74	5858.04
993.096	6153.05
993.453	6364.2
993.809	6591.97
994.165	8796.19
994.522	8074.32
994.878	8895.38
995.234	11156.17
995.59	11020.82
995.946	10436.17
996.302	11906.92
996.658	13748.94
997.013	15132.02
997.369	17978.49
997.725	23049.59
998.08	14896.92
998.436	22927.74
998.791	31685.77
999.147	31715.8
999.502	34557.81
999.857	25150.44
1000.212	40970.22
1000.567	58336.3
1000.922	33650.1
1001.277	21390.31
1001.632	15843.55
1001.987	20429.11
1002.342	14691.49
1002.696	11741.04
1003.051	9353.29
1003.406	11350.07
1003.76	11300.99
1004.114	11148.24
1004.469	9396.87
1004.823	7783.62
1005.177	8406.01
1005.531	6669.34
1005.885	5936.4
1006.239	6677.4
1006.593	8403.31
1006.947	11257.35
1007.301	8451.98
1007.655	9185.19
1008.008	6746.35
1008.362	7559.54
1008.715	10757.54
1009.069	9763.9
1009.422	14720.82
1009.776	29474.37
1010.129	19554.18
1010.482	16237.13
1010.835	13688.31
1011.188	28393.01
1011.541	26785.13
1011.894	-163691.43
1012.247	483261.34
1012.6	32990.23
1012.952	20779.38
1013.305	10693.16
1013.657	7701.76
1014.01	7311.64
1014.362	6051.43
1014.715	5411.65
1015.067	4727.93
1015.419	4624.08
1015.771	4103.49
1016.123	3653.12
1016.475	3771.66
1016.827	4014.7
1017.179	4330.37
1017.531	4379.42
1017.883	4472.61
1018.234	4323.37
1018.586	5444.02
1018.938	5781.35
1019.289	7979.82
1019.64	9114.52
1019.992	8483.35
1020.343	7753.29
1020.694	6158.1
1021.045	5437.75
1021.396	6181.38
1021.747	6652.07
1022.098	7970.43
1022.449	5785.47
1022.8	5372.35
1023.151	3736.08
1023.501	3334.57
1023.852	3620.95
1024.202	3748.1
1024.553	4124.51
1024.903	4034.08
1025.253	3448.54
1025.604	3094.28
1025.954	3841.02
1026.304	4692.37
1026.654	5437.6
1027.004	7979.01
1027.354	12848.36
1027.703	12114.78
1028.053	15993.3
1028.403	23091.89
1028.753	33319.48
1029.102	45415.31
1029.452	233353.19
1029.801	10097.58
1030.15	6497.98
1030.499	5521.94
897.758	2945.74
901.051	2915.13
904.343	2949.6
907.636	2946.77
910.928	3014.71
914.22	2922.03
917.511	2933.82
920.803	3006.85
924.094	3039.27
927.384	3005.35
930.675	2969.39
933.965	2915.79
937.255	2918.58
940.544	2888.82
943.834	2789.25
947.123	2739.02
950.411	2836.9
953.7	2805.7
956.988	2763.54
960.276	2705.13
963.563	2805.64
966.851	2792.39
970.138	2859.43
973.424	2843.74
976.711	2791.8
979.997	2979.42
983.283	3004.64
986.568	2894.91
989.853	2924.47
993.138	2954.06
996.423	3037.62
999.708	2961.39
1002.992	3052.14
1006.275	2839.49
1009.559	2912.59
1012.842	3038.73
1016.125	2955.42
1019.408	2935.34
1022.69	3040.61
1025.972	3055.44
1029.254	3026.39
1032.536	2939.26
1035.817	2977.69
1039.098	2898.93
1042.379	3101.1
1045.659	3078.72
1048.939	2999.42
1052.219	3030.22
1055.498	3051.2
1058.778	3029.51
1062.057	3014.23
1065.335	3034.28
1068.614	3061.27
1071.892	3032.18
1075.17	3122.18
1078.447	3104.53
1081.724	3091.8
1085.001	3136.76
1088.278	3108.75
1091.554	3126.31
1094.83	3122.34
1098.106	3149.98
1101.382	3203.02
1104.657	3203.68
1107.932	3199.7
1111.206	3158.79
1114.481	3114.61
1117.755	3121.9
1121.029	3093.93
1124.302	3142.52
1127.575	3083.36
1130.848	3067.75
1134.121	3018.83
1137.393	2960.08
1140.665	3033.9
1143.937	3005.7
1147.208	2967.88
1150.48	2999.34
1153.75	2980.1
1157.021	3029.05
1160.291	2993.52
1163.561	3039.18
1166.831	3037.82
1170.101	3078.09
1173.37	3058.79
1176.639	2991.81
1179.907	3062.89
1183.176	3060.79
1186.444	3075.37
1189.711	3105.99
1192.979	3110.81
1196.246	3070.09
1199.513	3087.94
1202.78	3084.58
1206.046	3089.37
1209.312	3117.72
1212.578	3149.02
1215.843	3088.95
1219.108	3067.7
1222.373	3089.69
1225.638	3048.01
1228.902	3028.53
1232.166	2999.2
1235.43	2977.45
1238.693	3000.62
1241.956	3001.88
1245.219	3038
1248.482	3033.92
1251.744	3027.45
1255.006	3196.16
1258.268	3153.63
1261.529	3090.17
1264.79	3100.52
1268.051	3210.48
1271.312	3230.66
1274.572	3188.46
1277.832	3179.5
1281.092	3174.05
1284.351	3135.37
1287.61	3110.33
1290.869	3011.63
1294.128	2973.68
1297.386	3088.57
1300.644	3074.55
1303.902	3086.72
1307.159	2935.74
1310.416	2992.58
1313.673	3015.86
1316.93	2994.36
1320.186	3053.17
1323.442	3100.47
1326.697	3082.49
1329.953	3085.74
1333.208	3101.54
1336.463	3085.02
1339.717	3009.92
1342.972	3153.39
1346.226	3136.12
1349.479	3057.17
1352.733	3019.96
1355.986	3051.48
1359.238	3027.05
1362.491	3027.01
1365.743	3034.06
1368.995	3028.7
1372.247	3041.61
1375.498	3069.37
1378.749	3082.53
1382	3038.71
1385.251	3102.07
1388.501	3069.3
1391.751	3045.14
1395	3022.1
1398.25	3059.5
1401.499	3057.41
1404.748	2974.12
1407.996	2952.57
1411.244	2936.65
1414.492	2910.65
1417.74	2885.94
1420.987	2901.06
1424.234	2957.75
1427.481	2944.61
1430.728	3002.01
1433.974	2978.03
1437.22	2999.56
1440.465	3004.13
1443.711	2965.19
1446.956	3007.26
1450.201	3004.94
1453.445	3050.87
1456.689	3024.23
1459.933	3038.34
1463.177	3067.51
1466.42	3038.66
1469.663	3014.07
1472.906	2998.26
1476.148	3108.06
1479.391	3030.79
1482.633	3008.6
1485.874	3013.23
1489.115	2988.67
1492.356	3003.86
1495.597	2977.05
1498.838	2985.62
1502.078	2943.22
1505.318	2881.76
1508.557	2932.88
1511.797	2878
1515.036	2998.55
1518.274	2984.05
1521.513	2962.73
1524.751	2990.44
1527.989	2999.87
1531.227	3008.87
1534.464	2992.15
1537.701	3028.13
1540.938	3051.38
1544.174	3000.53
1547.41	3006.77
1550.646	3046.13
1553.882	3076.46
1557.117	3130.2
1560.352	3150.98
1563.587	3102.1
1566.821	3056.53
1570.055	3104.58
1573.289	3068.74
1576.523	3154.6
1579.756	3162.08
1582.989	3179.23
1586.222	3136.09
1589.454	3179.64
1592.686	3147.96
1595.918	3169.6
1599.15	3155.32
1602.381	3248
1605.612	3188.57
1608.843	3290.64
1612.073	3193.95
1615.303	3174.67
1618.533	3161.21
1621.762	3172.1
1624.992	3164.08
1628.221	3142.48
1631.449	3126.18
1634.678	3198.29
1637.906	3146.19
1641.134	3192.13
1644.361	3139.21
1647.588	3130.1
1650.815	3141.81
1654.042	3127.27
1657.269	3158.82
1660.495	3104.86
1663.72	3089.81
1666.946	3062.35
1670.171	2984.94
1673.396	2961.69
1676.621	2953.36
1679.845	2988.82
1683.069	3018.71
1686.293	3071.66
1689.517	3032.44
1692.74	2943.92
1695.963	2973.44
1699.185	3025.74
1702.408	2991.77
1705.63	3043.96
1708.852	3048.84
1712.073	3021.26
1715.294	2992.63
1718.515	3062.17
1721.736	3000.46
1724.956	3001.38
1728.176	3030.82
1731.396	3052.96
1734.616	3047.95
1737.835	3068.98
1741.054	3046.7
1744.272	3043.99
1747.491	3070.1
1750.709	3140.6
1753.927	3017.49
1757.144	3077.12
1760.361	3112.3
1763.578	3116.31
1766.795	3049.35
1770.011	3062.6
1773.227	3112.66
1776.443	3150.39
1779.658	3195.73
1782.874	3138.19
1786.089	3107.25
1789.303	3112.31
1792.518	3116.54
1795.732	3103.55
1798.945	3108.29
1802.159	3167.26
1805.372	3042.69
1808.585	3023.09
1811.797	3024.56
1815.01	3090.46
1818.222	3092.06
1821.434	3020.12
1824.645	3098.23
1827.856	3070.22
1831.067	3112.68
1834.278	3080.25
1837.488	3064.43
1840.698	3236.43
1843.908	3148.04
1847.117	3107.79
1850.326	2963.03
1853.535	3085.41
1856.744	3157.84
1859.952	3057.18
1863.16	3059.47
1866.368	3079.51
1869.575	3180.77
1872.782	3064.24
1875.989	3003.07
1879.196	3111.01
1882.402	3102.24
1885.608	3147.74
1888.814	3028.44
1892.019	2917.01
1895.224	2968
1898.429	2954.85
1901.634	2930.51
1904.838	2910.46
1908.042	2958.52
1911.246	2960.24
1914.449	2870.59
1917.652	2878.41
1920.855	2862.8
1924.058	2926.44
1927.26	2957.03
1930.462	2991.15
1933.664	3011.44
1936.865	2942.63
1940.066	2946.36
1943.267	2891.47
1946.467	2915.79
1949.668	2946.26
1952.868	3013.41
1956.067	2981.89
1959.267	2907.05
1962.466	2937.96
1965.665	2923.48
1968.863	2920.9
1972.061	2947.72
1975.259	2949.9
1978.457	3034.77
1981.654	2987.35
1984.852	2988.91
1988.048	2907.99
1991.245	2919.36
1994.441	3006.82
1997.637	3005.44
2000.833	2986.77
2004.028	3030.44
2007.223	3076.63
2010.418	3048.75
2013.613	3012.15
2016.807	2966.7
2020.001	2983.28
2023.194	3040.71
2026.388	3012.82
2029.581	2954.93
2032.774	2997.7
2035.966	2999.23
2039.158	2919.36
2042.35	2955.48
2045.542	2879.34
2048.733	2993.63
2051.924	3033.05
2055.115	3069.26
2058.306	2997.75
2061.496	3061.09
2064.686	3135.29
2067.875	3054.79
2071.065	3076.65
2074.254	3108.98
2077.442	3056.73
2080.631	3154.28
2083.819	3020.19
2087.007	2995.07
2090.195	2955.79
2093.382	3004.85
2096.569	2981.15
2099.756	2927.55
2102.942	2937.22
2106.128	2935.97
2109.314	2930.59
2112.5	2881.04
2115.685	2861.06
2118.87	2873.75
2122.055	2943.6
2125.239	2900.37
2128.424	2863.07
2131.608	2994.66
2134.791	2975.77
2137.974	3047.14
2141.157	3031.49
2144.34	2968.53
2147.523	2999.68
2150.705	3005.33
2153.887	2988.88
2157.068	2926.21
2160.25	2940.4
2163.431	2988.67
2166.611	2917.2
2169.792	2934.69
2172.972	2814.19
2176.152	2910.99
2179.331	2952.93
2182.511	2922.69
2185.69	2954.94
2188.868	2943.76
2192.047	3015.88
2195.225	2990.51
2198.403	2938.46
2201.58	2936.2
2204.758	2932.38
2207.935	3024.98
2211.111	2893.55
2214.288	2875.65
2217.464	2917.51
2220.64	2895.91
2223.815	2958.47
2226.991	2868.41
2230.166	2892.07
2233.34	2915.09
2236.515	2947.01
2239.689	3027.58
2242.863	2966.75
2246.036	3026.51
2249.209	3037.46
2252.382	3080.85
2255.555	3058.47
2258.727	2983.68
2261.9	3031.39
2265.071	3021.8
2268.243	3029.41
2271.414	2949.56
2274.585	2897.76
2277.756	2968.45
2280.926	2923.82
2284.096	2970.04
2287.266	2862
2290.436	2926.56
2293.605	2960.48
2296.774	2986.95
2299.942	3020.07
2303.111	3034.5
2306.279	3080.21
2309.447	3068.23
2312.614	3046.87
2315.781	3063.64
2318.948	3027.09
2322.115	3069.24
2325.281	2966.33
2328.447	2995.74
2331.613	2972.2
2334.779	2930.77
2337.944	2943.11
2341.109	2938.97
2344.274	2916.81
2347.438	2878.72
2350.602	2908.13
2353.766	2928.61
2356.929	2911.38
2360.092	2956.77
2363.255	2898.44
2366.418	2810.46
2369.58	2953.93
2372.742	2681.4
2375.904	2709.89
2379.066	2679.99
2382.227	2725.3
2385.388	2685.43
2388.548	2595.07
2391.709	2659.97
2394.869	2633.67
2398.029	2759.61
2401.188	2783.73
2404.347	2699.43
2407.506	2879.92
2410.665	2903.16
2413.823	2922.19
2416.981	2863.01
2420.139	2904.47
2423.296	2961.77
2426.453	2934.67
2429.61	2961.47
2432.767	2873.72
2435.923	2913.4
2439.079	2842.15
2442.235	2906.23
2445.391	2823.6
2448.546	2841.35
2451.701	2903.58
2454.855	2858.58
2458.009	2929.35
2461.163	2937.68
2464.317	2888.92
2467.471	2923.92
2470.624	2970.86
2473.777	2970.57
2476.929	2980.62
2480.082	3005.77
2483.234	2966.95
2486.385	2894.16
2489.537	2886.66
2492.688	2825.42
2495.839	2846.11
2498.989	2852.86
2502.14	2836.94
2505.29	2807.72
2508.439	2840.22
2511.589	2749.27
2514.738	2769.43
2517.887	2805.41
2521.035	2895.58
2524.183	2892.05
2527.331	2869.97
2530.479	2830.93
2533.627	2846.21
