Data from N_3_DEC_NC_4N_Splice17_13-06-51-602.txt Node
Date: Sat Mar 14 13:06:51 EDT 2020
User: sa697716
Spectrometer: FLMS03696
Trigger mode: 0
Integration Time (sec): 3.180400E-1
Scans to average: 20
Electric dark correction enabled: true
Nonlinearity correction enabled: true
Boxcar width: 5
XAxis mode: Wavelengths
Number of Pixels in Spectrum: 2048
>>>>>Begin Spectral Data<<<<<
187.83	-339975.5
188.298	2533.68
188.766	1323.56
189.233	1212.09
189.701	1700
190.169	2252.45
190.636	804.44
191.104	601.54
191.571	67.1
192.039	-65.75
192.506	-20.78
192.974	509.83
193.441	-734.16
193.908	-118.08
194.375	-40.24
194.842	33.66
195.31	37.12
195.777	141.19
196.244	335.89
196.711	384.12
197.177	491.38
197.644	708.1
198.111	1213.43
198.578	1663.67
199.045	1311.45
199.511	2166.19
199.978	2469.62
200.445	2127.49
200.911	2315.98
201.378	2583.68
201.844	2336.14
202.31	3954.09
202.777	4051.36
203.243	2230.65
203.709	2127.3
204.176	2532.4
204.642	2055.56
205.108	1966.69
205.574	1602.37
206.04	1470.53
206.506	1365.15
206.972	1280.1
207.438	1247.66
207.903	1420.66
208.369	1256.57
208.835	1262.03
209.301	1322.67
209.766	1360.63
210.232	1327.55
210.697	1613.59
211.163	1971.23
211.628	2971.43
212.094	2539.7
212.559	3104.44
213.024	1932.77
213.49	2325.45
213.955	2257.8
214.42	2189.24
214.885	2039.39
215.35	1956.22
215.815	1925.38
216.28	2038.97
216.745	1658.24
217.21	1772.84
217.675	1612.51
218.14	1812.53
218.604	2017.91
219.069	2298.18
219.534	2405.79
219.998	2777.92
220.463	3341.7
220.927	4040.32
221.392	3780.55
221.856	3813.79
222.32	4776.49
222.785	5885.08
223.249	7357.31
223.713	8189.01
224.177	8175.27
224.642	10430.84
225.106	12764.28
225.57	13927.48
226.034	10367.16
226.497	15796.94
226.961	14265.34
227.425	16592.95
227.889	18404.03
228.353	18382.38
228.816	37867.99
229.28	36192.74
229.744	30474.75
230.207	18554.21
230.671	18198.37
231.134	29974.32
231.597	34459.2
232.061	34351.94
232.524	33428.32
232.987	22985.02
233.45	20652.5
233.914	18503.94
234.377	18895.21
234.84	17273.34
235.303	20308.39
235.766	22647.28
236.229	23375.59
236.691	14709.8
237.154	16519.35
237.617	12431.27
238.08	12718.05
238.542	14871.61
239.005	10647.28
239.468	10581.03
239.93	9987.81
240.393	9095.17
240.855	7993.71
241.317	8187.79
241.78	9956.6
242.242	10286.27
242.704	11128.39
243.166	9692.87
243.629	8831.71
244.091	10169.25
244.553	11112.51
245.015	11951.82
245.477	15414.78
245.939	22590.86
246.4	23966.21
246.862	23316.57
247.324	22024.7
247.786	24644.6
248.247	32241.65
248.709	33194.94
249.17	24824.85
249.632	23503.25
250.093	27244.15
250.555	23581
251.016	14407.62
251.477	13687.35
251.939	14776.4
252.4	15487.25
252.861	18369.18
253.322	17124.4
253.783	20395.77
254.244	26456.1
254.705	20814.64
255.166	18497.7
255.627	18203.46
256.088	25678.75
256.549	27288.99
257.009	23511.38
257.47	28528.9
257.931	23289.27
258.391	17490.83
258.852	18060.41
259.312	18957.01
259.773	23452.58
260.233	19879.56
260.694	16798.46
261.154	19021.72
261.614	15311.76
262.074	13689.16
262.534	14243.15
262.994	13426.98
263.455	17862.25
263.915	15061.57
264.374	14174.99
264.834	15478.15
265.294	17123.72
265.754	17737.38
266.214	16811.6
266.673	15706.48
267.133	19821.36
267.593	19659.95
268.052	24080.52
268.512	20943.06
268.971	25273.57
269.431	27736.7
269.89	24832.49
270.349	37264.26
270.809	41569.88
271.268	37371.28
271.727	83947.23
272.186	54416.79
272.645	40831.08
273.104	29387.04
273.563	42569.57
274.022	33399.99
274.481	28447.38
274.94	21916.19
275.399	16280.34
275.857	18943.39
276.316	25611.99
276.775	22788.29
277.233	22454.47
277.692	21044.31
278.15	23860.58
278.609	24557.54
279.067	22755.23
279.525	21164.32
279.984	27315.3
280.442	32867.44
280.9	32478.68
281.358	21401.62
281.816	19971.03
282.274	19548.67
282.732	20167.3
283.19	20277.57
283.648	17522.43
284.106	18659.87
284.564	18944.49
285.021	17624.88
285.479	13121.37
285.937	11909.08
286.394	10452.04
286.852	10758.54
287.309	11323.25
287.767	10973.54
288.224	10437.81
288.682	11438.92
289.139	12579.53
289.596	11540.62
290.053	11978.74
290.511	15139.56
290.968	18386.84
291.425	25001.77
291.882	20823.86
292.339	18126.34
292.796	17969.74
293.252	16943.06
293.709	13495.39
294.166	12105.67
294.623	13376.48
295.079	12823.14
295.536	12893.83
295.992	11703.88
296.449	11556.25
296.905	12032.86
297.362	11545.04
297.818	12141.58
298.274	12620.67
298.731	12849.07
299.187	12693.08
299.643	13607.93
300.099	16466.89
300.555	18043.17
301.011	15086.09
301.467	14567.91
301.923	16990.15
302.379	16602.32
302.835	16336.75
303.291	16329.35
303.746	18592.79
304.202	23508.27
304.658	23578.75
305.113	15870.45
305.569	15559.31
306.024	16591.68
306.479	15784.52
306.935	13326.98
307.39	14545.48
307.845	13429.83
308.301	13543.69
308.756	13171.77
309.211	12717.28
309.666	13053.96
310.121	16219.39
310.576	16441.55
311.031	16329.52
311.486	18698.94
311.94	18729.99
312.395	25044.41
312.85	47030.76
313.305	230346.76
313.759	1195909.42
314.214	86666.56
314.668	68779.83
315.123	57924.63
315.577	20846.59
316.032	18564.77
316.486	23259.74
316.94	18357.57
317.394	12802.43
317.849	9948.37
318.303	9430.09
318.757	8925.78
319.211	9872.61
319.665	8645.18
320.119	8748.6
320.572	12518.95
321.026	11687.5
321.48	9738.48
321.934	10581.41
322.387	10603.95
322.841	11476.21
323.295	10341.35
323.748	11863.15
324.202	12018.51
324.655	14456.04
325.108	20265.11
325.562	14337.51
326.015	17038.68
326.468	12872.1
326.921	14435.34
327.374	13458.68
327.827	14003.44
328.28	15842.97
328.733	10619.9
329.186	9356.49
329.639	8918.73
330.092	7508.77
330.545	7168.66
330.997	7227.89
331.45	7921.61
331.903	9304.63
332.355	15994.16
332.808	15558.53
333.26	12844.07
333.713	13970.86
334.165	14058.25
334.617	18710.64
335.069	15078.87
335.522	27157.55
335.974	30158.33
336.426	27521.24
336.878	18997.08
337.33	9673.95
337.782	9430.68
338.234	11820.9
338.686	14141.72
339.137	16771.83
339.589	15827.62
340.041	12448.68
340.493	10729.11
340.944	10979.44
341.396	11858.23
341.847	9981.65
342.299	11791.39
342.75	14471.23
343.201	12670.37
343.653	14593.84
344.104	17910.93
344.555	14110.13
345.006	21923.92
345.457	16858.07
345.908	13397.24
346.359	12602.82
346.81	10283.79
347.261	10814.31
347.712	10607.06
348.163	11329.08
348.613	11504.44
349.064	10761.12
349.515	9429.07
349.965	9664.84
350.416	11589.2
350.866	12698.49
351.317	14331.16
351.767	23752.05
352.217	30103.42
352.668	25023.45
353.118	22978.3
353.568	22085.02
354.018	17514.44
354.468	18469.39
354.918	13300.95
355.368	11657.53
355.818	16476.15
356.268	47357.83
356.718	198907.51
357.168	49360.63
357.617	24805.43
358.067	27585.63
358.517	25923.94
358.966	30342.67
359.416	34144.21
359.865	36828.64
360.315	43812.18
360.764	20501.3
361.213	11508.41
361.663	10850.1
362.112	13394.38
362.561	21592.56
363.01	16310.06
363.459	13722.56
363.908	14817.36
364.357	12585.6
364.806	21230.93
365.255	14597.41
365.703	13429.89
366.152	13480.43
366.601	10942.21
367.05	8914.38
367.498	8121.81
367.947	8486.44
368.395	8784.73
368.844	7813.95
369.292	9388.45
369.74	6496.82
370.189	9952.28
370.637	11641.91
371.085	10025.98
371.533	12217.95
371.981	11757
372.429	11215.18
372.877	11664.69
373.325	9794.31
373.773	9968.24
374.221	8895.11
374.669	11046.62
375.116	9568.04
375.564	9643.68
376.012	10791.32
376.459	8915.53
376.907	10647.53
377.354	12872.33
377.801	12088.52
378.249	13925.06
378.696	17814.88
379.143	21588.25
379.591	23037.32
380.038	38955.62
380.485	28233.68
380.932	30590.2
381.379	28045.38
381.826	20740.52
382.273	14755.55
382.72	12849.38
383.166	12539.51
383.613	8163.24
384.06	7368.85
384.506	8537.39
384.953	6290.41
385.4	6325.38
385.846	5530.91
386.292	5385.74
386.739	5270.88
387.185	5221.44
387.631	5242.67
388.078	5101.53
388.524	5451.42
388.97	5048.83
389.416	4216.68
389.862	4486.55
390.308	4254.92
390.754	4336.69
391.2	4718.57
391.645	4831.12
392.091	4654.94
392.537	4509.78
392.983	4518.87
393.428	4479.85
393.874	4807.58
394.319	4844.26
394.765	4621.82
395.21	4768.14
395.655	4482.93
396.101	4200.94
396.546	3807.16
396.991	3834.59
397.436	3565.86
397.881	3455.36
398.326	3268.29
398.771	3095.6
399.216	2711.07
399.661	2437.79
400.106	2437.83
400.551	2503.45
400.995	2249.25
401.44	2225.6
401.885	2097.12
402.329	2121.68
402.774	2036.23
403.218	1976.76
403.663	1903.74
404.107	1959.31
404.551	1972.26
404.995	1805.43
405.44	1734.2
405.884	1757.74
406.328	1695.33
406.772	1683.07
407.216	1533.91
407.66	1480.75
408.104	1402.27
408.547	1313.49
408.991	1268.64
409.435	1221.88
409.879	1203.69
410.322	1188.31
410.766	1152.32
411.209	1098.07
411.653	1054.49
412.096	1033.05
412.54	1031.2
412.983	1022.64
413.426	1025.55
413.869	1023.11
414.312	1006.03
414.756	970.98
415.199	926.38
415.642	898.22
416.085	900.07
416.527	893
416.97	903.78
417.413	860.59
417.856	850.76
418.298	842.2
418.741	835.67
419.184	831.52
419.626	861.28
420.069	861.55
420.511	866.25
420.953	850.21
421.396	842.9
421.838	822.91
422.28	841.71
422.722	846.32
423.164	855.08
423.606	840.08
424.048	835.15
424.49	796.41
424.932	791.61
425.374	780.22
425.816	790.53
426.258	804.54
426.699	810.97
427.141	797.35
427.582	810.12
428.024	806.37
428.465	801.9
428.907	783.2
429.348	772.33
429.789	770.58
430.231	753.93
430.672	761.88
431.113	742.27
431.554	728.97
431.995	709.66
432.436	684.23
432.877	668.12
433.318	656.81
433.759	652.51
434.2	652.36
434.64	646.47
435.081	646.29
435.522	611.95
435.962	590.55
436.403	580.44
436.843	586.54
437.284	570.41
437.724	553.78
438.164	553.24
438.604	540.7
439.045	518.94
439.485	498.81
439.925	489.52
440.365	477.19
440.805	469.52
441.245	462.74
441.685	444.69
442.125	441.59
442.564	444.97
443.004	435.11
443.444	434.85
443.883	436.4
444.323	429.3
444.762	425.88
445.202	429.98
445.641	439.12
446.081	434.11
446.52	438.7
446.959	435.6
447.398	424.36
447.837	417.13
448.276	407.16
448.716	409.35
449.154	413.7
449.593	407.24
450.032	406.31
450.471	396.53
450.91	395.09
451.349	393.59
451.787	389.96
452.226	396.8
452.664	396.27
453.103	398.14
453.541	395.46
453.98	395.47
454.418	396.47
454.856	391.18
455.295	389.84
455.733	394.19
456.171	395.04
456.609	395.71
457.047	393.96
457.485	401.76
457.923	402.98
458.361	398.39
458.798	398.44
459.236	397.93
459.674	398.38
460.111	401.07
460.549	396.95
460.987	396.01
461.424	393.76
461.862	392.41
462.299	385.65
462.736	383.49
463.173	384.2
463.611	381.18
464.048	379.43
464.485	383.36
464.922	379.38
465.359	375.75
465.796	376.04
466.233	373.68
466.67	370.35
467.106	369.15
467.543	366.05
467.98	361.66
468.416	350.82
468.853	347.45
469.29	335.65
469.726	331.54
470.162	324.47
470.599	315.02
471.035	312.19
471.471	304.25
471.907	301.94
472.344	299.67
472.78	300.5
473.216	304.19
473.652	301.13
474.088	301.4
474.523	301.38
474.959	303.01
475.395	300.77
475.831	299.45
476.266	301.6
476.702	300.54
477.138	297.87
477.573	296.41
478.008	295.95
478.444	296.7
478.879	299.77
479.314	301.17
479.75	301.28
480.185	301.8
480.62	303.27
481.055	304.08
481.49	306.26
481.925	309.94
482.36	317.43
482.795	324.93
483.229	334.1
483.664	341.18
484.099	341.6
484.534	347.1
484.968	351.87
485.403	352.73
485.837	351.32
486.271	350.63
486.706	351.5
487.14	346.29
487.574	341
488.009	337.39
488.443	333.65
488.877	336.96
489.311	337.13
489.745	340.59
490.179	344.2
490.613	352.93
491.046	357.11
491.48	359.62
491.914	360.34
492.348	363.08
492.781	365.9
493.215	367.03
493.648	367.95
494.082	372.25
494.515	372.87
494.948	378.9
495.382	380.84
495.815	383.97
496.248	388.23
496.681	396.03
497.114	403.48
497.547	410.93
497.98	420.53
498.413	426.2
498.846	433.16
499.279	440.4
499.711	444.26
500.144	447.61
500.577	456.12
501.009	464.46
501.442	473.22
501.874	477.17
502.306	480.37
502.739	489.34
503.171	500.56
503.603	505.56
504.036	513.95
504.468	520.47
504.9	530.53
505.332	536.55
505.764	542.87
506.196	549.49
506.627	561.46
507.059	573.05
507.491	579.45
507.923	581.42
508.354	594.29
508.786	604.08
509.217	618.33
509.649	631.06
510.08	646.26
510.512	660.7
510.943	674.32
511.374	685.41
511.805	700.95
512.237	717.22
512.668	742.58
513.099	764.09
513.53	786.11
513.961	803.26
514.391	828.5
514.822	855.98
515.253	883.92
515.684	904.09
516.114	928.12
516.545	947.7
516.975	969.05
517.406	984.4
517.836	990.08
518.267	999.12
518.697	1016.21
519.127	1023.05
519.558	1031.5
519.988	1037.4
520.418	1048.51
520.848	1063.2
521.278	1073.13
521.708	1106.9
522.138	1120.97
522.567	1146.82
522.997	1168.48
523.427	1183.59
523.857	1199.69
524.286	1209.93
524.716	1223.58
525.145	1241.21
525.575	1253.53
526.004	1266.44
526.433	1249.04
526.863	1251.33
527.292	1246.62
527.721	1253.42
528.15	1259.3
528.579	1261.39
529.008	1272.18
529.437	1291.67
529.866	1303.54
530.295	1317.67
530.724	1329.63
531.152	1351.32
531.581	1363.29
532.01	1378.08
532.438	1384.44
532.867	1396.31
533.295	1411.42
533.723	1416.56
534.152	1415.25
534.58	1416.44
535.008	1405.32
535.436	1406.45
535.865	1412.37
536.293	1423.38
536.721	1435.04
537.149	1455.08
537.576	1457.91
538.004	1468.22
538.432	1474.53
538.86	1473.45
539.287	1478.16
539.715	1489.29
540.143	1492.02
540.57	1489.01
540.998	1486
541.425	1469.4
541.852	1453.19
542.28	1450.89
542.707	1438.13
543.134	1427.84
543.561	1425.44
543.988	1419.29
544.415	1418.49
544.842	1414.71
545.269	1408.66
545.696	1411.14
546.123	1421.07
546.549	1413.22
546.976	1403.06
547.403	1402.76
547.829	1403.49
548.256	1404.58
548.682	1402.71
549.108	1397.4
549.535	1397.13
549.961	1400.84
550.387	1390.6
550.813	1386.61
551.24	1392.46
551.666	1394.52
552.092	1387.54
552.518	1383.41
552.943	1379.24
553.369	1385.92
553.795	1390.35
554.221	1390.76
554.646	1388.19
555.072	1396.7
555.498	1400.3
555.923	1407.11
556.349	1419.4
556.774	1425.39
557.199	1425.51
557.625	1430.06
558.05	1424.39
558.475	1431.18
558.9	1430.05
559.325	1422.42
559.75	1415.86
560.175	1409.18
560.6	1402.93
561.025	1399.18
561.449	1399.67
561.874	1402.78
562.299	1405.14
562.723	1409.28
563.148	1400.53
563.572	1403.03
563.997	1408.38
564.421	1410.82
564.846	1409.94
565.27	1410.94
565.694	1407.65
566.118	1414.05
566.542	1418.48
566.966	1410.34
567.39	1404.47
567.814	1394.29
568.238	1391.66
568.662	1393.53
569.086	1393.29
569.509	1396.14
569.933	1382.56
570.357	1374.11
570.78	1355.22
571.204	1343.76
571.627	1335.12
572.05	1331.88
572.474	1329.71
572.897	1316.75
573.32	1309.91
573.743	1300.46
574.166	1285.71
574.589	1283.21
575.012	1276.52
575.435	1274.26
575.858	1265.63
576.281	1254.28
576.704	1240.57
577.126	1230.05
577.549	1220.42
577.972	1210.66
578.394	1201.7
578.817	1196.37
579.239	1182.08
579.661	1170.63
580.084	1158.7
580.506	1146.56
580.928	1142.24
581.35	1133.59
581.772	1128.65
582.194	1119.39
582.616	1109.9
583.038	1098.8
583.46	1087.9
583.882	1084.04
584.303	1086.23
584.725	1081.5
585.147	1084.02
585.568	1091.15
585.99	1098.9
586.411	1102.85
586.833	1110.47
587.254	1109.57
587.675	1118.39
588.096	1126.29
588.518	1122.31
588.939	1110.19
589.36	1108.45
589.781	1098.12
590.202	1078.53
590.623	1071.44
591.043	1068.56
591.464	1060.68
591.885	1057.24
592.305	1052.11
592.726	1042.49
593.147	1042.37
593.567	1037.21
593.987	1030.48
594.408	1025.12
594.828	1022.43
595.248	1018.42
595.669	1006.01
596.089	999.34
596.509	994.41
596.929	984.55
597.349	984.57
597.769	976.38
598.189	970.82
598.608	971.64
599.028	974.15
599.448	972.53
599.867	962.1
600.287	957.33
600.706	954.53
601.126	947.56
601.545	946.39
601.965	944.6
602.384	940.51
602.803	942.14
603.222	938.59
603.641	932.76
604.061	930.4
604.48	926.88
604.898	932.78
605.317	935.15
605.736	935.26
606.155	933.42
606.574	926.34
606.992	928.47
607.411	924.2
607.829	916.37
608.248	912.58
608.666	909.1
609.085	908.73
609.503	900.59
609.921	895.84
610.339	895.68
610.758	892.53
611.176	888.05
611.594	882.6
612.012	879.48
612.43	881.17
612.847	883.87
613.265	884.64
613.683	885.19
614.101	885.64
614.518	881.34
614.936	874.29
615.353	864.32
615.771	861.91
616.188	860.05
616.606	856.68
617.023	852.02
617.44	843.09
617.857	835.83
618.274	829.56
618.691	824.44
619.108	817.5
619.525	812.88
619.942	815.97
620.359	816.49
620.776	812.05
621.192	808.89
621.609	806.98
622.026	810.26
622.442	814.15
622.859	815.33
623.275	809.46
623.691	812.23
624.108	818.74
624.524	826.82
624.94	826.43
625.356	832.28
625.772	840.23
626.188	845.74
626.604	846.96
627.02	844.25
627.436	843.16
627.852	849.17
628.268	856.38
628.683	850.46
629.099	845.27
629.514	841.39
629.93	843.42
630.345	844.96
630.761	841.58
631.176	841.67
631.591	838.55
632.007	834.14
632.422	830.05
632.837	822.3
633.252	819.42
633.667	811.67
634.082	804.21
634.497	795.85
634.911	783.18
635.326	780.16
635.741	768.17
636.155	758.52
636.57	757.78
636.984	755.84
637.399	754.98
637.813	752.13
638.228	749.62
638.642	749.31
639.056	739.48
639.47	736.34
639.884	727.72
640.298	721.15
640.712	718.53
641.126	706.75
641.54	698.82
641.954	691.41
642.368	682.52
642.781	676.3
643.195	664.16
643.609	662.35
644.022	656.87
644.436	651.55
644.849	641.95
645.262	631.56
645.676	630.24
646.089	625.96
646.502	617.01
646.915	612.02
647.328	599.4
647.741	595.97
648.154	586.54
648.567	584.79
648.98	577.4
649.393	576.71
649.805	575.56
650.218	570.94
650.631	561.87
651.043	557.47
651.456	553.64
651.868	553.32
652.28	563.28
652.693	570.25
653.105	571.37
653.517	575.99
653.929	575.75
654.341	577.74
654.753	570.04
655.165	571.76
655.577	568.03
655.989	563.06
656.401	557.03
656.813	537.62
657.224	525.07
657.636	508.6
658.047	498.98
658.459	487.33
658.87	480.42
659.282	473.41
659.693	461.88
660.104	453.88
660.515	446.25
660.926	443.45
661.338	439.88
661.749	434.9
662.159	429.68
662.57	425.12
662.981	421.35
663.392	415.69
663.803	416.51
664.213	413.03
664.624	409.96
665.035	409.28
665.445	401.98
665.855	397.82
666.266	394.71
666.676	392.94
667.086	387.84
667.497	387.5
667.907	385.32
668.317	380.2
668.727	381.94
669.137	381.7
669.547	382.23
669.956	384.63
670.366	385.86
670.776	387.25
671.186	389.47
671.595	391.48
672.005	393.81
672.414	393.65
672.824	395.03
673.233	394.91
673.642	397.39
674.052	399.52
674.461	401.96
674.87	404.83
675.279	404.66
675.688	405.13
676.097	407.82
676.506	406.56
676.915	414.86
677.323	416.29
677.732	416.58
678.141	418.12
678.549	414.06
678.958	414.39
679.366	414.93
679.775	417.86
680.183	426.76
680.592	430.97
681	435.57
681.408	434.1
681.816	439.66
682.224	445.98
682.632	452.49
683.04	470.01
683.448	485.3
683.856	505.01
684.264	527.17
684.671	545.41
685.079	568.59
685.487	596.34
685.894	633.08
686.302	665.52
686.709	692.86
687.116	724.78
687.524	752.09
687.931	777.18
688.338	799.3
688.745	818.2
689.152	841.91
689.559	873.75
689.966	904.46
690.373	923.42
690.78	954.12
691.187	998.99
691.593	1036.3
692	1069.72
692.407	1115.28
692.813	1172.27
693.22	1220.65
693.626	1268.99
694.032	1310.94
694.439	1371.01
694.845	1418.53
695.251	1477.33
695.657	1531.11
696.063	1606.48
696.469	1666.79
696.875	1724.92
697.281	1760.3
697.687	1803.19
698.093	1840.53
698.498	1904.39
698.904	1954.32
699.31	2029.2
699.715	2086.79
700.12	2165.15
700.526	2190.44
700.931	2252.74
701.337	2301.75
701.742	2338.01
702.147	2409.93
702.552	2443.26
702.957	2496.21
703.362	2520.23
703.767	2550.02
704.172	2588.11
704.577	2560.28
704.981	2605.37
705.386	2625.31
705.791	2627.26
706.195	2691.87
706.6	2707.52
707.004	2776.52
707.408	2759.41
707.813	2788.81
708.217	2787.74
708.621	2797.04
709.025	2880.6
709.43	2887.02
709.834	2942.35
710.237	3004.66
710.641	2998.3
711.045	3023.33
711.449	3025.52
711.853	3056.35
712.256	3097.15
712.66	3132.81
713.064	3199.25
713.467	3240.27
713.87	3337.79
714.274	3381.3
714.677	3475.69
715.08	3614.85
715.484	3757.44
715.887	3933.29
716.29	4101.83
716.693	4278.2
717.096	4483.36
717.499	4595.72
717.901	4621.15
718.304	4648.73
718.707	4673.96
719.109	4594.04
719.512	4572.03
719.915	4464.76
720.317	4419.1
720.719	4462.52
721.122	4442.41
721.524	4404.39
721.926	4375.15
722.328	4461.67
722.731	4459.48
723.133	4486.26
723.535	4652.78
723.937	4672.73
724.338	4721.49
724.74	4758.86
725.142	4720.24
725.544	4725.39
725.945	4753.16
726.347	4752.24
726.748	4749.16
727.15	4762.83
727.551	4735.54
727.952	4712.69
728.354	4691.23
728.755	4692.19
729.156	4659.78
729.557	4639.1
729.958	4535.02
730.359	4488.28
730.76	4477.3
731.161	4428.82
731.562	4408.59
731.962	4410.91
732.363	4359.23
732.763	4304.99
733.164	4337
733.564	4281.02
733.965	4201.08
734.365	4173.1
734.766	4196.31
735.166	4162.73
735.566	4116.9
735.966	4095.26
736.366	4093.25
736.766	4040.47
737.166	4070.51
737.566	4035.88
737.966	4015.75
738.365	4050.88
738.765	4046.23
739.165	3984.02
739.564	3963.98
739.964	4004.22
740.363	3967.06
740.763	3962.46
741.162	3953.64
741.561	3926.22
741.96	3886.8
742.36	3903.45
742.759	3907.02
743.158	3939.35
743.557	3954.98
743.955	3987.14
744.354	3948.66
744.753	3996.96
745.152	3963.37
745.55	4011.51
745.949	4007.58
746.348	4011.1
746.746	4025.74
747.144	3993.5
747.543	3978.54
747.941	4017.68
748.339	3957.82
748.737	3951.41
749.136	3944
749.534	4001.24
749.932	3977.47
750.33	3998.3
750.727	4043.91
751.125	4024.85
751.523	4011.61
751.921	4046.91
752.318	4017.31
752.716	4067.33
753.113	4079.98
753.511	4101.94
753.908	4099.96
754.305	4087.71
754.703	4138.29
755.1	4189.78
755.497	4240.61
755.894	4402.22
756.291	4551.92
756.688	4832.3
757.085	5202.9
757.482	5725.65
757.878	6294.2
758.275	6809.91
758.672	7515.06
759.068	8093.68
759.465	8917.42
759.861	9972.62
760.258	11200.23
760.654	11838.43
761.05	11741.49
761.447	11201.8
761.843	10424.73
762.239	9630.13
762.635	9276.84
763.031	8928.56
763.427	8425.63
763.822	7901.7
764.218	7385.52
764.614	6707.93
765.01	6256.35
765.405	5964.57
765.801	5746.8
766.196	5464.88
766.592	5304.57
766.987	5035.27
767.382	4854.95
767.778	4780.62
768.173	4668.53
768.568	4609.35
768.963	4505.46
769.358	4522.18
769.753	4483.81
770.148	4413.84
770.542	4413.6
770.937	4388.56
771.332	4464.93
771.726	4482.95
772.121	4431.52
772.515	4480.35
772.91	4465.01
773.304	4524.86
773.699	4467.86
774.093	4512.38
774.487	4558.37
774.881	4593.83
775.275	4588.93
775.669	4554.25
776.063	4590.66
776.457	4618.75
776.851	4555.45
777.245	4549.25
777.638	4579.57
778.032	4677.99
778.425	4649.43
778.819	4685.3
779.212	4650.02
779.606	4617.31
779.999	4633.45
780.392	4621.64
780.786	4694.82
781.179	4713.36
781.572	4751.04
781.965	4760.83
782.358	4713.46
782.751	4758.67
783.143	4717.21
783.536	4780.28
783.929	4819.06
784.322	4917.73
784.714	4943.91
785.107	4936.77
785.499	4998.25
785.891	4978.1
786.284	4962.4
786.676	5079.45
787.068	5063.52
787.46	5108.38
787.852	5125.61
788.245	5196.98
788.636	5221.02
789.028	5276.84
789.42	5313.82
789.812	5320.21
790.204	5403.93
790.595	5488.29
790.987	5323.74
791.378	5345.13
791.77	5455.55
792.161	5566.46
792.553	5612.64
792.944	5519.09
793.335	5463.56
793.726	5526.64
794.117	5606.02
794.508	5723.91
794.899	5701.32
795.29	5821.08
795.681	5871.4
796.072	5753.21
796.463	5604.29
796.853	5613.95
797.244	5744.72
797.634	5775.18
798.025	5773.06
798.415	5782.42
798.806	5853.37
799.196	5924.03
799.586	5967.45
799.976	5932.81
800.366	6123.71
800.756	6320.4
801.146	6286.39
801.536	6316.25
801.926	6376.93
802.316	6397.6
802.706	6456.79
803.095	6359.1
803.485	6444.73
803.874	6477.96
804.264	6700.14
804.653	6684.32
805.043	6811.74
805.432	6907.55
805.821	6910.25
806.21	6928.57
806.599	7029.3
806.988	7071.88
807.377	7166.21
807.766	7279.37
808.155	7522
808.544	7295.98
808.933	7306.13
809.321	7286.42
809.71	7537.71
810.098	7671.06
810.487	8063.63
810.875	8468.46
811.264	8486.64
811.652	8726.49
812.04	8849.88
812.428	8987.4
812.816	9641.27
813.204	9998.71
813.592	10467.21
813.98	10744.17
814.368	10669.38
814.756	11076.28
815.144	11014.31
815.531	11411.12
815.919	11349.06
816.306	11611.98
816.694	11356.33
817.081	11397.74
817.469	11689.3
817.856	11690.49
818.243	11922.6
818.63	12258.57
819.017	11908.28
819.404	11956.04
819.791	12280.32
820.178	12804.16
820.565	13013.98
820.952	13810.65
821.339	13392.73
821.725	13546.47
822.112	12914.99
822.498	12877.59
822.885	12985.63
823.271	12898.18
823.657	13258.56
824.044	13260.47
824.43	13314.45
824.816	13285.51
825.202	12910.1
825.588	13768.64
825.974	13794.43
826.36	14236.16
826.746	14274.41
827.132	14574.54
827.517	14555.83
827.903	13886.11
828.289	13920.07
828.674	13263.61
829.06	13177.66
829.445	13514.57
829.83	13821.78
830.216	14213.01
830.601	14514.86
830.986	14171.81
831.371	14061.06
831.756	14536.21
832.141	14182.57
832.526	14176.13
832.911	14423.8
833.295	14322.77
833.68	14715.56
834.065	14180.08
834.449	13408.47
834.834	13351.1
835.218	13337.25
835.603	13613.33
835.987	13431.56
836.371	14130.31
836.755	14044.51
837.139	14377.63
837.524	14583.24
837.908	14433.33
838.291	14493.06
838.675	14549
839.059	14725.56
839.443	14716.13
839.827	14517.59
840.21	14906.88
840.594	14774.37
840.977	14946.41
841.361	14925.58
841.744	15235.76
842.127	15103.46
842.511	15308.31
842.894	15799.15
843.277	16108.55
843.66	16560.11
844.043	16633.24
844.426	15958.65
844.809	15698.39
845.191	15716.06
845.574	15329.85
845.957	15017.15
846.339	14923.74
846.722	14482.57
847.104	14544.79
847.487	14393.77
847.869	14403.87
848.252	14638.12
848.634	14922.22
849.016	15140.31
849.398	15239.76
849.78	15948.59
850.162	15959.46
850.544	16307.38
850.926	16826.71
851.307	16756.36
851.689	16997.01
852.071	17376.95
852.452	17642.34
852.834	17624.83
853.215	17960.29
853.597	18094.1
853.978	18346.62
854.359	18725.64
854.741	17883.17
855.122	17798.99
855.503	17554.73
855.884	17669.57
856.265	17620.46
856.646	17723.32
857.026	17380.47
857.407	17324.98
857.788	17448.26
858.169	17688.82
858.549	16970.5
858.93	17497.86
859.31	17538.7
859.69	17718.05
860.071	17373.07
860.451	17193.6
860.831	16576.86
861.211	17555.61
861.591	18019.61
861.971	18005.73
862.351	18165.93
862.731	18503.84
863.111	18726.74
863.491	19022.54
863.87	19759.23
864.25	20062.17
864.629	19722.85
865.009	20140.82
865.388	20861.96
865.768	22348.66
866.147	22267.84
866.526	21043.02
866.905	21291.19
867.284	22490.36
867.663	21340.93
868.042	20433.75
868.421	20365.1
868.8	20703.06
869.179	20916.14
869.558	19697.6
869.936	18155.96
870.315	18482.85
870.693	18922.58
871.072	20408.48
871.45	19443.25
871.828	19689.53
872.207	20723.58
872.585	20410.27
872.963	20969.41
873.341	20252.2
873.719	20022.49
874.097	19787.44
874.475	20164.63
874.853	20632.31
875.23	19771.45
875.608	20582.45
875.986	22263.3
876.363	21292.46
876.741	21941.67
877.118	21383.19
877.495	22424.86
877.873	22797.02
878.25	23982.14
878.627	22991.24
879.004	23315.09
879.381	23203.26
879.758	22598.37
880.135	21040.05
880.512	22237.47
880.889	21656.46
881.265	21437.67
881.642	21267.41
882.019	21610.45
882.395	21177.97
882.772	22029.79
883.148	21063.57
883.524	20981.82
883.901	20863.98
884.277	21182.83
884.653	21036.65
885.029	21637.22
885.405	23970.23
885.781	23777.41
886.157	22805.93
886.532	23082.79
886.908	23053.56
887.284	25648.7
887.659	26479.02
888.035	27305.96
888.411	27995.97
888.786	28369.97
889.161	29345.06
889.537	28796.63
889.912	29717.84
890.287	29680.76
890.662	30438.11
891.037	29897.57
891.412	27862.23
891.787	27572.25
892.162	26589.75
892.536	27207.06
892.911	26180.84
893.286	25615.66
893.66	24570.3
894.035	25182.08
894.409	27415.27
894.784	26313.27
895.158	26730.61
895.532	28314.57
895.906	29082.14
896.281	29771.35
896.655	29290.32
897.029	33476.4
897.402	34871.49
897.776	38819.21
898.15	38692.63
898.524	38277.43
898.898	38784.65
899.271	43447.92
899.645	37636.4
900.018	36164.93
900.392	37502.8
900.765	37799.8
901.138	34964.52
901.511	34427.05
901.884	31594.21
902.258	29139.13
902.631	30107.23
903.003	34630.2
903.376	31237.21
903.749	35022.33
904.122	37482.95
904.495	41274.18
904.867	41796.2
905.24	36291.22
905.612	33789.55
905.985	34560.51
906.357	36150.62
906.729	34513.82
907.102	29493.86
907.474	28365.85
907.846	28549.26
908.218	28173.25
908.59	24905.19
908.962	24097.89
909.334	25966.45
909.705	27284.66
910.077	26517.74
910.449	27609.64
910.82	28386.18
911.192	31243.25
911.563	32476.57
911.935	34753.93
912.306	34795.62
912.677	35952.49
913.048	35597.8
913.419	38607.14
913.79	38804.29
914.161	41586.53
914.532	39746.12
914.903	36516.42
915.274	34675.84
915.645	34167.49
916.015	30067.45
916.386	28674.56
916.756	30517.75
917.127	31482.78
917.497	28136.41
917.868	30662.09
918.238	29161.24
918.608	30005.38
918.978	30646.44
919.348	32461.09
919.718	33548.32
920.088	32344.58
920.458	33611.28
920.828	35366.58
921.198	33525.35
921.567	35837.09
921.937	27739.81
922.306	27998.76
922.676	30190.6
923.045	25189.07
923.415	23927.9
923.784	21788.18
924.153	22390.24
924.522	22390.38
924.891	21046.3
925.26	22552.25
925.629	22014.36
925.998	25308.91
926.367	24699.44
926.736	23528.66
927.104	28005.71
927.473	30108.21
927.842	36372.6
928.21	36027.58
928.578	37830.57
928.947	35770.43
929.315	35994.45
929.683	42205.77
930.051	42525.27
930.42	49413.17
930.788	42246.85
931.156	41966.02
931.523	39343.91
931.891	36342.13
932.259	34887.06
932.627	40447.88
932.994	57192.17
933.362	47233.13
933.729	41027.56
934.097	39274.51
934.464	33209.81
934.831	38295.92
935.199	37722.82
935.566	36560.06
935.933	37019.75
936.3	44871.64
936.667	34911.15
937.034	31531.55
937.401	31192.79
937.767	26924.2
938.134	23963.62
938.501	33780.07
938.867	36000.35
939.234	60866.32
939.6	51963.19
939.967	57371.05
940.333	38438.47
940.699	32744.08
941.065	26296.17
941.431	34505.42
941.798	33258.77
942.163	43735.09
942.529	27324.89
942.895	25159.73
943.261	16277.73
943.627	21382.65
943.992	18728.19
944.358	18740.07
944.723	18807.92
945.089	18312.64
945.454	16937.91
945.82	18119.27
946.185	17422.26
946.55	20224.7
946.915	18174.21
947.28	21329.08
947.645	18759.99
948.01	17316.44
948.375	18052.98
948.74	21643.04
949.104	25231.64
949.469	36411.47
949.834	64288.39
950.198	60915.79
950.562	36433.35
950.927	30310.03
951.291	36473.4
951.655	31094.89
952.02	29195.39
952.384	22113.58
952.748	19272.44
953.112	18799.76
953.476	16341.73
953.839	15122.22
954.203	14972.68
954.567	18755.75
954.931	29514.38
955.294	25253.21
955.658	25364.81
956.021	43091.49
956.385	73036.04
956.748	107743.77
957.111	167078.9
957.474	187589.77
957.837	211075.15
958.2	159685.25
958.563	57451.16
958.926	38860.7
959.289	58997.12
959.652	65950.8
960.015	49578.28
960.377	71061.12
960.74	81095.49
961.102	140017.35
961.465	150394.01
961.827	80576.91
962.189	154701.3
962.552	107174.84
962.914	85910.01
963.276	55735.95
963.638	46098.96
964	45573.32
964.362	30820.46
964.724	29756.14
965.085	21256.96
965.447	17423.33
965.809	19854.03
966.17	19845.69
966.532	21450.3
966.893	19707.85
967.255	17922.04
967.616	21137.12
967.977	16945.78
968.338	18484.82
968.699	15195.33
969.061	15180.4
969.421	15272.34
969.782	17125.96
970.143	14469.84
970.504	15024.49
970.865	17070.34
971.225	17466.87
971.586	17084.83
971.946	24329.23
972.307	21143.08
972.667	27658.45
973.027	28481.96
973.388	34542
973.748	23517.03
974.108	25646.81
974.468	34665.32
974.828	26722.51
975.188	20550.62
975.548	18896.89
975.907	15867.8
976.267	17793.91
976.627	14949.93
976.986	15481.49
977.346	14770.03
977.705	14209.38
978.064	12940.85
978.424	10756.87
978.783	11111.07
979.142	12683.76
979.501	12139.9
979.86	12832.81
980.219	12357.17
980.578	15941.22
980.937	17853.63
981.296	15901.02
981.654	16360.87
982.013	25409.7
982.371	33002.71
982.73	30867.93
983.088	34952.79
983.447	37266.26
983.805	53284.33
984.163	111505.28
984.521	123616.47
984.879	181264.95
985.237	-295011.71
985.595	283625.83
985.953	70557.2
986.311	40772.87
986.669	23681.69
987.026	20388.49
987.384	27462.1
987.741	28398.19
988.099	20300.94
988.456	16192.62
988.814	15138.77
989.171	13161
989.528	13000.79
989.885	13746.46
990.242	10885.99
990.599	13551.63
990.956	11116.8
991.313	7774.45
991.67	6381.09
992.027	6766.42
992.383	6013.5
992.74	5279.6
993.096	5544.45
993.453	5752.31
993.809	5966.63
994.165	7933.97
994.522	7281.89
994.878	8023.35
995.234	10066.96
995.59	9934.31
995.946	9389.27
996.302	10707.51
996.658	12368.37
997.013	13604.7
997.369	16150.52
997.725	20620.54
998.08	13361.84
998.436	20570.61
998.791	28394.07
999.147	28366.09
999.502	30919.05
999.857	22491.79
1000.212	36655.9
1000.567	52407.87
1000.922	30245.77
1001.277	19187.54
1001.632	14258.54
1001.987	18390.8
1002.342	13156.74
1002.696	10500.4
1003.051	8372.43
1003.406	10148.49
1003.76	10101.1
1004.114	9980.24
1004.469	8374.26
1004.823	6926.54
1005.177	7471.25
1005.531	5915.24
1005.885	5255.54
1006.239	5942.38
1006.593	7479.04
1006.947	10015.42
1007.301	7513.99
1007.655	8169.35
1008.008	5982.63
1008.362	6717
1008.715	9608.79
1009.069	8735.42
1009.422	13152.96
1009.776	26305.13
1010.129	17493.19
1010.482	14593.04
1010.835	12318.83
1011.188	25632.68
1011.541	24189.15
1011.894	-148118.28
1012.247	436292.29
1012.6	29725.39
1012.952	18770.58
1013.305	9641.07
1013.657	6992.34
1014.01	6581.13
1014.362	5424.34
1014.715	4823.02
1015.067	4193.16
1015.419	4090.96
1015.771	3629
1016.123	3224.53
1016.475	3311.44
1016.827	3532.38
1017.179	3815.9
1017.531	3821.74
1017.883	3925.73
1018.234	3812.14
1018.586	4825.33
1018.938	5136.44
1019.289	7120.6
1019.64	8148.4
1019.992	7575.63
1020.343	6908.74
1020.694	5451.57
1021.045	4811.93
1021.396	5530.43
1021.747	5957.76
1022.098	7129.14
1022.449	5166.2
1022.8	4796.75
1023.151	3335.57
1023.501	2957.43
1023.852	3230.27
1024.202	3351.48
1024.553	3670.42
1024.903	3599.5
1025.253	3073.42
1025.604	2753.89
1025.954	3402.45
1026.304	4128.95
1026.654	4796.38
1027.004	7027.03
1027.354	11331.06
1027.703	10659.1
1028.053	14083.83
1028.403	20724.25
1028.753	29703.28
1029.102	40393.55
1029.452	208333.75
1029.801	9050.56
1030.15	5869.98
1030.499	4970.7
897.758	2698.54
901.051	2654.54
904.343	2691.9
907.636	2691.5
910.928	2755.66
914.22	2665.93
917.511	2673.62
920.803	2734.77
924.094	2755.71
927.384	2735.82
930.675	2698.28
933.965	2650.43
937.255	2660.94
940.544	2626.3
943.834	2563.78
947.123	2508.57
950.411	2604.76
953.7	2578.11
956.988	2547.02
960.276	2483.72
963.563	2567.02
966.851	2562.95
970.138	2622.12
973.424	2613.97
976.711	2562
979.997	2700.81
983.283	2733.63
986.568	2637.19
989.853	2653.69
993.138	2681.46
996.423	2766.93
999.708	2699.7
1002.992	2766.1
1006.275	2597.43
1009.559	2646.48
1012.842	2764.79
1016.125	2692.14
1019.408	2671.59
1022.69	2760.22
1025.972	2778.94
1029.254	2751.37
1032.536	2680.81
1035.817	2711.68
1039.098	2652.09
1042.379	2803.68
1045.659	2796.4
1048.939	2729.52
1052.219	2750.15
1055.498	2762.48
1058.778	2747.28
1062.057	2734.93
1065.335	2755.15
1068.614	2775.98
1071.892	2755.29
1075.17	2833.25
1078.447	2819.07
1081.724	2811.93
1085.001	2846.99
1088.278	2822.49
1091.554	2836.54
1094.83	2830.96
1098.106	2857.66
1101.382	2903.2
1104.657	2901.5
1107.932	2900.97
1111.206	2866.57
1114.481	2822.5
1117.755	2822.1
1121.029	2802.53
1124.302	2856.02
1127.575	2804.92
1130.848	2792.6
1134.121	2750.7
1137.393	2700.46
1140.665	2769.99
1143.937	2741.39
1147.208	2701.33
1150.48	2739.94
1153.75	2726.87
1157.021	2761.03
1160.291	2730.06
1163.561	2777.26
1166.831	2765.63
1170.101	2798.35
1173.37	2773.94
1176.639	2716
1179.907	2776.41
1183.176	2778.35
1186.444	2786.31
1189.711	2816.33
1192.979	2827.48
1196.246	2783.63
1199.513	2799.77
1202.78	2800.32
1206.046	2807.82
1209.312	2835.24
1212.578	2863.09
1215.843	2813.99
1219.108	2790.25
1222.373	2814.68
1225.638	2779.13
1228.902	2760.22
1232.166	2726.02
1235.43	2707.9
1238.693	2732.06
1241.956	2730.03
1245.219	2766.11
1248.482	2757.36
1251.744	2751.11
1255.006	2904.24
1258.268	2859.17
1261.529	2801.05
1264.79	2808.66
1268.051	2912.51
1271.312	2931.81
1274.572	2890.81
1277.832	2881.35
1281.092	2872.85
1284.351	2844.19
1287.61	2822.59
1290.869	2736.1
1294.128	2711.71
1297.386	2803.51
1300.644	2792.56
1303.902	2806.08
1307.159	2660.17
1310.416	2716.81
1313.673	2743.62
1316.93	2726.82
1320.186	2772.98
1323.442	2818.18
1326.697	2805.03
1329.953	2795.43
1333.208	2819.84
1336.463	2800.67
1339.717	2736.91
1342.972	2878.31
1346.226	2854.94
1349.479	2784.38
1352.733	2755.45
1355.986	2781.18
1359.238	2755.83
1362.491	2762.36
1365.743	2765.6
1368.995	2759.37
1372.247	2770.79
1375.498	2797.44
1378.749	2807.93
1382	2762.96
1385.251	2818.99
1388.501	2781.81
1391.751	2762.92
1395	2737.23
1398.25	2765.94
1401.499	2774.22
1404.748	2699.33
1407.996	2693.03
1411.244	2677.03
1414.492	2659.6
1417.74	2639.41
1420.987	2646.76
1424.234	2705.08
1427.481	2687.83
1430.728	2746.04
1433.974	2720.44
1437.22	2735.18
1440.465	2736.05
1443.711	2696.83
1446.956	2734.73
1450.201	2722.43
1453.445	2767.44
1456.689	2746.97
1459.933	2758.46
1463.177	2791.17
1466.42	2760.73
1469.663	2742.53
1472.906	2737.02
1476.148	2815.28
1479.391	2773.88
1482.633	2741.54
1485.874	2752.27
1489.115	2735.66
1492.356	2743.84
1495.597	2718.07
1498.838	2720.75
1502.078	2689.84
1505.318	2638.25
1508.557	2679.39
1511.797	2653.56
1515.036	2723.88
1518.274	2715.29
1521.513	2689.99
1524.751	2711.3
1527.989	2722.97
1531.227	2735.82
1534.464	2726.96
1537.701	2749.8
1540.938	2768.31
1544.174	2722.33
1547.41	2720.91
1550.646	2762.44
1553.882	2794.58
1557.117	2847.8
1560.352	2864.97
1563.587	2819.1
1566.821	2777.51
1570.055	2814.44
1573.289	2782.58
1576.523	2860.16
1579.756	2865.34
1582.989	2884.94
1586.222	2846.14
1589.454	2887.02
1592.686	2854.87
1595.918	2880.98
1599.15	2870.44
1602.381	2947.98
1605.612	2898.99
1608.843	2996.46
1612.073	2908.36
1615.303	2893.2
1618.533	2881.57
1621.762	2882.27
1624.992	2869.68
1628.221	2856.28
1631.449	2839.23
1634.678	2897.12
1637.906	2851
1641.134	2891.15
1644.361	2846.9
1647.588	2836.4
1650.815	2852.75
1654.042	2834.18
1657.269	2863.81
1660.495	2813.86
1663.72	2837.33
1666.946	2801.27
1670.171	2741.91
1673.396	2717.11
1676.621	2706.93
1679.845	2730.8
1683.069	2750.72
1686.293	2792.32
1689.517	2760.83
1692.74	2690.38
1695.963	2722.54
1699.185	2736.58
1702.408	2712.11
1705.63	2757.4
1708.852	2766.38
1712.073	2739.43
1715.294	2719.96
1718.515	2783.63
1721.736	2731.54
1724.956	2727.92
1728.176	2755.04
1731.396	2776.56
1734.616	2764.21
1737.835	2790.48
1741.054	2770.96
1744.272	2766.42
1747.491	2797.04
1750.709	2853.06
1753.927	2753.64
1757.144	2801.32
1760.361	2841.75
1763.578	2834.56
1766.795	2776.02
1770.011	2785.24
1773.227	2826.98
1776.443	2859.34
1779.658	2904.71
1782.874	2847.83
1786.089	2824.76
1789.303	2827.84
1792.518	2834.52
1795.732	2821.6
1798.945	2830.75
1802.159	2880.9
1805.372	2779.98
1808.585	2765.36
1811.797	2767.11
1815.01	2819.09
1818.222	2819.48
1821.434	2792.14
1824.645	2853.35
1827.856	2834.13
1831.067	2871.09
1834.278	2831.47
1837.488	2814.22
1840.698	2966.54
1843.908	2890.72
1847.117	2851.04
1850.326	2731.46
1853.535	2839.81
1856.744	2865.77
1859.952	2777.79
1863.16	2780.69
1866.368	2806.98
1869.575	2907.95
1872.782	2793.53
1875.989	2732.46
1879.196	2818.82
1882.402	2813.87
1885.608	2855.2
1888.814	2753.55
1892.019	2647.93
1895.224	2701.19
1898.429	2683.64
1901.634	2657.82
1904.838	2638.26
1908.042	2689.02
1911.246	2695.91
1914.449	2624.36
1917.652	2623.46
1920.855	2605.44
1924.058	2658.06
1927.26	2695.22
1930.462	2721.02
1933.664	2747.89
1936.865	2682.61
1940.066	2689.5
1943.267	2636.26
1946.467	2653.95
1949.668	2683.07
1952.868	2749.07
1956.067	2725.63
1959.267	2656.5
1962.466	2684.82
1965.665	2672.12
1968.863	2663.83
1972.061	2683.29
1975.259	2684.02
1978.457	2762.59
1981.654	2719.94
1984.852	2718.72
1988.048	2651.45
1991.245	2655.3
1994.441	2739.23
1997.637	2726.63
2000.833	2709.3
2004.028	2750.86
2007.223	2804.31
2010.418	2779.53
2013.613	2741.54
2016.807	2710.12
2020.001	2718.01
2023.194	2764.61
2026.388	2739.09
2029.581	2686.43
2032.774	2734.82
2035.966	2740.73
2039.158	2671.41
2042.35	2698.86
2045.542	2624.39
2048.733	2728.74
2051.924	2750.8
2055.115	2783.39
2058.306	2723.46
2061.496	2783.66
2064.686	2850.2
2067.875	2762.28
2071.065	2773.6
2074.254	2802.97
2077.442	2755.81
2080.631	2844.85
2083.819	2732.45
2087.007	2716.94
2090.195	2683.16
2093.382	2720.34
2096.569	2700.82
2099.756	2653.35
2102.942	2679.06
2106.128	2685.31
2109.314	2676.89
2112.5	2637.99
2115.685	2613.32
2118.87	2624.77
2122.055	2691.21
2125.239	2656.88
2128.424	2630.33
2131.608	2736.26
2134.791	2716.18
2137.974	2774.54
2141.157	2759.88
2144.34	2710.46
2147.523	2724.58
2150.705	2740.69
2153.887	2719.43
2157.068	2664.99
2160.25	2670.18
2163.431	2708.77
2166.611	2651.74
2169.792	2667.3
2172.972	2558.22
2176.152	2640.21
2179.331	2673.99
2182.511	2656.42
2185.69	2687.7
2188.868	2680.66
2192.047	2739.8
2195.225	2727.09
2198.403	2676.95
2201.58	2669.52
2204.758	2665.85
2207.935	2751.42
2211.111	2639.72
2214.288	2622.1
2217.464	2661.48
2220.64	2633.29
2223.815	2689.1
2226.991	2607.51
2230.166	2628.07
2233.34	2655.72
2236.515	2684.67
2239.689	2757.19
2242.863	2701.18
2246.036	2755.3
2249.209	2761.87
2252.382	2796.89
2255.555	2780.13
2258.727	2717.41
2261.9	2758.64
2265.071	2751.08
2268.243	2752.75
2271.414	2682.6
2274.585	2642.97
2277.756	2711.03
2280.926	2667.02
2284.096	2705.92
2287.266	2613.35
2290.436	2671.83
2293.605	2699.24
2296.774	2729.17
2299.942	2752.96
2303.111	2770.1
2306.279	2819.54
2309.447	2805.61
2312.614	2778.36
2315.781	2798.82
2318.948	2766.2
2322.115	2804.16
2325.281	2706.79
2328.447	2727.38
2331.613	2703.89
2334.779	2672.03
2337.944	2675.44
2341.109	2671.02
2344.274	2654.43
2347.438	2620.76
2350.602	2647.27
2353.766	2665.32
2356.929	2650.17
2360.092	2690.56
2363.255	2644.07
2366.418	2573.35
2369.58	2690.61
2372.742	2472.14
2375.904	2488.73
2379.066	2463.23
2382.227	2502.54
2385.388	2461.56
2388.548	2385.95
2391.709	2445.36
2394.869	2424.8
2398.029	2527.11
2401.188	2541.58
2404.347	2472.65
2407.506	2620.57
2410.665	2650.45
2413.823	2657.88
2416.981	2611.42
2420.139	2645.24
2423.296	2697.11
2426.453	2667.17
2429.61	2692.35
2432.767	2620.94
2435.923	2660.45
2439.079	2625.09
2442.235	2675.87
2445.391	2600.02
2448.546	2629.09
2451.701	2680.01
2454.855	2648.7
2458.009	2705.63
2461.163	2708.02
2464.317	2664.46
2467.471	2699.52
2470.624	2738.08
2473.777	2706.62
2476.929	2719.3
2480.082	2744.36
2483.234	2707.15
2486.385	2663.88
2489.537	2656.24
2492.688	2612.77
2495.839	2630.81
2498.989	2643.46
2502.14	2629.05
2505.29	2608.89
2508.439	2638.33
2511.589	2558.25
2514.738	2572.57
2517.887	2604.9
2521.035	2667.81
2524.183	2653.83
2527.331	2633.31
2530.479	2606.87
2533.627	2616.92
