Data from N_3_DEC_OH_4N_Splice17_13-34-51-525.txt Node
Date: Sat Mar 14 13:34:51 EDT 2020
User: sa697716
Spectrometer: FLMS03696
Trigger mode: 0
Integration Time (sec): 3.180400E-1
Scans to average: 20
Electric dark correction enabled: true
Nonlinearity correction enabled: true
Boxcar width: 5
XAxis mode: Wavelengths
Number of Pixels in Spectrum: 2048
>>>>>Begin Spectral Data<<<<<
187.83	-373178.75
188.298	2770.47
188.766	1541.88
189.233	1389.3
189.701	1958.05
190.169	2673.75
190.636	1027.65
191.104	842.68
191.571	144.31
192.039	-95.39
192.506	-128.99
192.974	595.84
193.441	-887.03
193.908	-141.89
194.375	-22.69
194.842	33.47
195.31	104.63
195.777	157.38
196.244	383.8
196.711	485.17
197.177	613.28
197.644	871.71
198.111	1561.85
198.578	2198.93
199.045	1758.55
199.511	2871.42
199.978	3357.31
200.445	2886.38
200.911	3200.3
201.378	3604.68
201.844	3280.25
202.31	5643.68
202.777	5850.99
203.243	3245.43
203.709	3095.19
204.176	3690.01
204.642	3048.4
205.108	2870.26
205.574	2325.84
206.04	2129.65
206.506	1999.88
206.972	1882.48
207.438	1814.67
207.903	2078.99
208.369	1819.32
208.835	1816.34
209.301	1917.47
209.766	1965.93
210.232	1944.53
210.697	2410.28
211.163	2978.54
211.628	4508.27
212.094	3763.26
212.559	4671.14
213.024	2924.53
213.49	3574.28
213.955	3490.76
214.42	3420.18
214.885	3208.04
215.35	3084.69
215.815	2990.69
216.28	3199.73
216.745	2609.64
217.21	2853.54
217.675	2627.03
218.14	2969.53
218.604	3357.24
219.069	3885.58
219.534	4121.19
219.998	4827.33
220.463	5883.35
220.927	7313.78
221.392	6953.77
221.856	7089.05
222.32	9003.32
222.785	11198.48
223.249	14180.54
223.713	15910.46
224.177	15981.66
224.642	20590.89
225.106	25429.21
225.57	27888.19
226.034	20766.2
226.497	31636.89
226.961	28625.66
227.425	33420.64
227.889	37071.69
228.353	37110.34
228.816	76611.5
229.28	73310.22
229.744	61854.16
230.207	37614.91
230.671	37060.7
231.134	61374.08
231.597	70819.74
232.061	70853.5
232.524	69059.93
232.987	47671
233.45	42910.28
233.914	38483.73
234.377	39467.59
234.84	36150.14
235.303	42628.19
235.766	47579.45
236.229	49231.08
236.691	30998.14
237.154	34823.61
237.617	26201.9
238.08	26822.53
238.542	31399.7
239.005	22460.22
239.468	22289.31
239.93	20994.26
240.393	19089.91
240.855	16756.91
241.317	17143.81
241.78	20879.52
242.242	21593.18
242.704	23309.06
243.166	20283.68
243.629	18420.89
244.091	21230.74
244.553	23281.73
245.015	25029.55
245.477	32387.63
245.939	47518
246.4	50477.68
246.862	49072.08
247.324	46290.8
247.786	51857.41
248.247	68071.65
248.709	70340.06
249.17	52687.35
249.632	49726.62
250.093	57666.11
250.555	49785.04
251.016	30366.08
251.477	28807.52
251.939	31090.01
252.4	32628.77
252.861	38786.03
253.322	36101.14
253.783	43015.2
254.244	55835.64
254.705	43971.71
255.166	39149.23
255.627	38614.35
256.088	54519.2
256.549	57958.82
257.009	50006.39
257.47	60746.38
257.931	49568.27
258.391	37189.69
258.852	38364.76
259.312	40263.15
259.773	49796
260.233	42127.15
260.694	35579
261.154	40428.06
261.614	32501.74
262.074	29097.02
262.534	30289.58
262.994	28548.61
263.455	38076.82
263.915	32133.19
264.374	30298.78
264.834	33130.76
265.294	36769.69
265.754	38124.11
266.214	36130.02
266.673	33890.04
267.133	42819.38
267.593	42518.79
268.052	52158.77
268.512	45393.06
268.971	54755.67
269.431	60111.05
269.89	53879.64
270.349	80918.27
270.809	90285.73
271.268	81192.08
271.727	182138.75
272.186	118038.17
272.645	88624.5
273.104	63969.73
273.563	92738.53
274.022	72985.22
274.481	62154.65
274.94	47912.77
275.399	35641.57
275.857	41548.17
276.316	56243.44
276.775	50126.68
277.233	49398.07
277.692	46230.32
278.15	52324.84
278.609	53852.71
279.067	49889.61
279.525	46342.84
279.984	59905.28
280.442	71907.55
280.9	70852.39
281.358	46612.59
281.816	43434.1
282.274	42544.99
282.732	43998.4
283.19	44219.19
283.648	38177.68
284.106	40680.04
284.564	41376.86
285.021	38367.58
285.479	28610.09
285.937	26063.99
286.394	22897.69
286.852	23592.31
287.309	24812.39
287.767	23971.52
288.224	22817.79
288.682	25046.46
289.139	27508.71
289.596	25186.3
290.053	26192.19
290.511	33085.78
290.968	40121.65
291.425	54447.26
291.882	45288.4
292.339	39435.34
292.796	39132.4
293.252	36865.73
293.709	29287.98
294.166	26259.91
294.623	28999.87
295.079	27849.72
295.536	27988.55
295.992	25412.58
296.449	25126.53
296.905	26097.07
297.362	25031.19
297.818	26366.92
298.274	27374.16
298.731	27890.82
299.187	27610.96
299.643	29670.33
300.099	35871.61
300.555	39323.11
301.011	32860.01
301.467	31679.88
301.923	37141.55
302.379	36240.67
302.835	35594.29
303.291	35634.37
303.746	40594.47
304.202	51298.06
304.658	51542.5
305.113	34678.67
305.569	34005.44
306.024	36284.73
306.479	34586.47
306.935	29174.5
307.39	31881.23
307.845	29458.09
308.301	29650.08
308.756	28915.43
309.211	27876.26
309.666	28556.21
310.121	35461.49
310.576	35988.44
311.031	35698.49
311.486	40900.59
311.94	40847.56
312.395	54671.73
312.85	102653.56
313.305	504755.12
313.759	2610112.65
314.214	188807.2
314.668	149524.16
315.123	125656.27
315.577	45057.78
316.032	40108.56
316.486	50310.02
316.94	39738.91
317.394	27669.9
317.849	21514.79
318.303	20348.73
318.757	19205.13
319.211	21252.01
319.665	18628.39
320.119	18879.88
320.572	27098.06
321.026	25306.28
321.48	21034.68
321.934	22929.5
322.387	22972.27
322.841	24787.29
323.295	22281.92
323.748	25672.97
324.202	26058.96
324.655	31301.25
325.108	43672.39
325.562	30846.37
326.015	36650.19
326.468	27686.86
326.921	30958.4
327.374	28840.03
327.827	30028.67
328.28	33998.26
328.733	22753.05
329.186	20009.38
329.639	19055.12
330.092	16071.77
330.545	15291.46
330.997	15417.29
331.45	16844.5
331.903	19728.04
332.355	33977.02
332.808	33030.54
333.26	27241.25
333.713	29581.47
334.165	29783.82
334.617	39759.63
335.069	32136.55
335.522	58132.18
335.974	64428.85
336.426	58914.24
336.878	40814.3
337.33	20670.56
337.782	20200.99
338.234	25279.16
338.686	30249.74
339.137	35802.02
339.589	33688.38
340.041	26405.31
340.493	22734.92
340.944	23268.76
341.396	25046.04
341.847	21055.67
342.299	24876.21
342.75	30360.06
343.201	26562.3
343.653	30568.1
344.104	37565.32
344.555	29632.49
345.006	46118.06
345.457	35277.91
345.908	28044.62
346.359	26390.74
346.81	21517.58
347.261	22683.53
347.712	22353.26
348.163	23994.95
348.613	24286.55
349.064	22707.75
349.515	19856.63
349.965	20347.93
350.416	24523.72
350.866	26920.5
351.317	30452.4
351.767	50425.31
352.217	63717.81
352.668	52891.04
353.118	48434.8
353.568	46703.66
354.018	36943.21
354.468	38992.02
354.918	27976.66
355.368	24467.78
355.818	34561.43
356.268	99456.77
356.718	416174.92
357.168	103535.4
357.617	51924.17
358.067	57769.06
358.517	54131.65
358.966	63453.91
359.416	71192.72
359.865	76968.97
360.315	91580.81
360.764	42803.39
361.213	23963.34
361.663	22696.29
362.112	28046.79
362.561	45300.56
363.01	34140.2
363.459	28712.47
363.908	31071.15
364.357	26304.32
364.806	44433.65
365.255	30541.17
365.703	27924.68
366.152	27970.3
366.601	22692.44
367.05	18393.27
367.498	16716.35
367.947	17488.63
368.395	18185.61
368.844	16107.41
369.292	19449.14
369.74	13431.29
370.189	20596.67
370.637	24136.52
371.085	20836.11
371.533	25353.51
371.981	24448.3
372.429	23291.23
372.877	24233.04
373.325	20267.19
373.773	20613.85
374.221	18355.45
374.669	22734.02
375.116	19613.23
375.564	19765
376.012	22075.45
376.459	18196.35
376.907	21718.13
377.354	26204.81
377.801	24384.02
378.249	28003.58
378.696	35760.03
379.143	43266.39
379.591	46183.99
380.038	78073.59
380.485	56407.98
380.932	60871.31
381.379	55542.97
381.826	40836.39
382.273	29046.92
382.72	25391.29
383.166	24747.23
383.613	16039.87
384.06	14420.03
384.506	16642.88
384.953	12216.2
385.4	12271.23
385.846	10730.35
386.292	10456.8
386.739	10239.61
387.185	10112.78
387.631	10103.3
388.078	9797.68
388.524	10477.84
388.97	9689.02
389.416	8088.22
389.862	8576.16
390.308	8127.23
390.754	8249.03
391.2	8956.84
391.645	9148.14
392.091	8751.61
392.537	8474.52
392.983	8495.88
393.428	8349.51
393.874	8949.82
394.319	8977.18
394.765	8530.86
395.21	8775.6
395.655	8235.97
396.101	7706.4
396.546	6973.93
396.991	7034
397.436	6514.98
397.881	6299.06
398.326	5979.86
398.771	5655.07
399.216	4944.78
399.661	4453.08
400.106	4435.92
400.551	4547.75
400.995	4080.61
401.44	4034.47
401.885	3795.32
402.329	3851.65
402.774	3691
403.218	3568.39
403.663	3439.55
404.107	3535.72
404.551	3566.72
404.995	3275.3
405.44	3153.09
405.884	3201.14
406.328	3091.89
406.772	3080.34
407.216	2798.63
407.66	2702.31
408.104	2562.15
408.547	2394.59
408.991	2313.66
409.435	2224.24
409.879	2187.93
410.322	2158.38
410.766	2083.58
411.209	1980.82
411.653	1900.5
412.096	1859.13
412.54	1858.22
412.983	1845.9
413.426	1850.88
413.869	1847.25
414.312	1806.3
414.756	1741.04
415.199	1654.43
415.642	1604.11
416.085	1605.73
416.527	1593.35
416.97	1616.53
417.413	1531.49
417.856	1511.77
418.298	1495.99
418.741	1484.61
419.184	1481.69
419.626	1540.71
420.069	1543.98
420.511	1550.37
420.953	1513.41
421.396	1498.84
421.838	1460.24
422.28	1492.1
422.722	1500.65
423.164	1518.69
423.606	1494.25
424.048	1492.2
424.49	1417.09
424.932	1408.25
425.374	1389.49
425.816	1414.18
426.258	1438.22
426.699	1451.14
427.141	1430.33
427.582	1450.03
428.024	1441.85
428.465	1430.51
428.907	1392.81
429.348	1375.02
429.789	1372.31
430.231	1343.01
430.672	1359.27
431.113	1323.91
431.554	1303.01
431.995	1268.58
432.436	1224.28
432.877	1196.49
433.318	1176.12
433.759	1169.02
434.2	1168.99
434.64	1155.52
435.081	1155.67
435.522	1094.19
435.962	1054.7
436.403	1032.97
436.843	1047.2
437.284	1023.89
437.724	994.35
438.164	997.62
438.604	974.23
439.045	935.03
439.485	898.71
439.925	880.86
440.365	859.3
440.805	847.14
441.245	835.27
441.685	806.4
442.125	799.66
442.564	807.8
443.004	790.32
443.444	791.99
443.883	794.47
444.323	788.41
444.762	791.02
445.202	802.72
445.641	822.28
446.081	821.13
446.52	827.63
446.959	822.98
447.398	804.93
447.837	796.85
448.276	785.47
448.716	795.56
449.154	806.04
449.593	790.22
450.032	792.34
450.471	777.78
450.91	779.47
451.349	781.19
451.787	779.48
452.226	793.53
452.664	796.33
453.103	798.11
453.541	799.61
453.98	799.34
454.418	805.36
454.856	792.61
455.295	791.57
455.733	799.72
456.171	804.23
456.609	805.12
457.047	804.99
457.485	815.98
457.923	818.58
458.361	807.4
458.798	810.47
459.236	808
459.674	813.17
460.111	818.14
460.549	810.02
460.987	807.57
461.424	805.3
461.862	800.13
462.299	786.76
462.736	784.99
463.173	786.48
463.611	777.41
464.048	775.21
464.485	780.87
464.922	771.87
465.359	766.55
465.796	758.03
466.233	751.98
466.67	744.64
467.106	743.97
467.543	736.02
467.98	727.62
468.416	708.62
468.853	703.3
469.29	683.15
469.726	677.05
470.162	659.75
470.599	649.43
471.035	643.68
471.471	629.52
471.907	626.64
472.344	624.03
472.78	627.21
473.216	636.81
473.652	631.02
474.088	630.86
474.523	630.6
474.959	638.59
475.395	634.56
475.831	633.29
476.266	637.64
476.702	637.65
477.138	632.11
477.573	630.98
478.008	629.27
478.444	632.82
478.879	639.87
479.314	643.12
479.75	643.65
480.185	646.97
480.62	653.13
481.055	658.07
481.49	663.56
481.925	674.85
482.36	687.7
482.795	709.09
483.229	730.21
483.664	746.38
484.099	750.43
484.534	763.3
484.968	773.68
485.403	777.85
485.837	777.85
486.271	778.17
486.706	780.36
487.14	772.92
487.574	760.78
488.009	754.83
488.443	750.21
488.877	760.74
489.311	765.64
489.745	775.67
490.179	784.55
490.613	801.63
491.046	809.53
491.48	818
491.914	821.99
492.348	830.83
492.781	839.19
493.215	843.91
493.648	848.22
494.082	857.53
494.515	861.03
494.948	874.37
495.382	883.95
495.815	894.73
496.248	905.2
496.681	925.27
497.114	944.39
497.547	961.08
497.98	982.04
498.413	993.69
498.846	1010.06
499.279	1026.25
499.711	1036.58
500.144	1043.62
500.577	1061.7
501.009	1081.34
501.442	1097.54
501.874	1103.21
502.306	1109.97
502.739	1124.52
503.171	1148.91
503.603	1157.81
504.036	1174.37
504.468	1185.97
504.9	1205.68
505.332	1218.19
505.764	1227.29
506.196	1240.17
506.627	1263.61
507.059	1284.81
507.491	1300.31
507.923	1299.73
508.354	1322.89
508.786	1339.33
509.217	1365.7
509.649	1388.31
510.08	1415.39
510.512	1438.86
510.943	1460.94
511.374	1475.76
511.805	1504.18
512.237	1530.66
512.668	1575.51
513.099	1612.58
513.53	1650.09
513.961	1677.29
514.391	1719.62
514.822	1763.37
515.253	1810.9
515.684	1843.4
516.114	1882.84
516.545	1909.27
516.975	1942.02
517.406	1962.74
517.836	1962.87
518.267	1969.26
518.697	1989.36
519.127	1992.12
519.558	1998.71
519.988	1999.01
520.418	2010.03
520.848	2029.99
521.278	2038.46
521.708	2057.35
522.138	2071.62
522.567	2109.42
522.997	2139.38
523.427	2156.51
523.857	2174.3
524.286	2184.69
524.716	2202.17
525.145	2224.32
525.575	2236.37
526.004	2252
526.433	2240.19
526.863	2236.84
527.292	2220.47
527.721	2224.83
528.15	2230.2
528.579	2228.15
529.008	2239.73
529.437	2266.93
529.866	2283.51
530.295	2303.6
530.724	2318.31
531.152	2351.63
531.581	2369.21
532.01	2390.85
532.438	2400.41
532.867	2418.27
533.295	2441.7
533.723	2448.5
534.152	2444.13
534.58	2440.22
535.008	2416.18
535.436	2416.04
535.865	2424.59
536.293	2440.54
536.721	2459.89
537.149	2490.18
537.576	2491.64
538.004	2505.63
538.432	2514.12
538.86	2510.9
539.287	2520.34
539.715	2538.35
540.143	2540.71
540.57	2534.5
540.998	2529.53
541.425	2497.78
541.852	2468.98
542.28	2466.2
542.707	2444.77
543.134	2426.36
543.561	2419.95
543.988	2407.63
544.415	2405.89
544.842	2398.52
545.269	2387.76
545.696	2389.36
546.123	2406.89
546.549	2393.79
546.976	2376.76
547.403	2376.51
547.829	2377.65
548.256	2381.55
548.682	2378.06
549.108	2368.73
549.535	2368.48
549.961	2372.42
550.387	2356.09
550.813	2348.88
551.24	2357.45
551.666	2360.02
552.092	2348.16
552.518	2340.94
552.943	2333.76
553.369	2345.57
553.795	2355.16
554.221	2357.71
554.646	2355.31
555.072	2371.79
555.498	2380.89
555.923	2395.8
556.349	2417.98
556.774	2431.74
557.199	2437.25
557.625	2446.9
558.05	2440.92
558.475	2456.39
558.9	2458.53
559.325	2450.18
559.75	2444.12
560.175	2437.61
560.6	2432.13
561.025	2431.96
561.449	2436.23
561.874	2446.45
562.299	2455.92
562.723	2468.54
563.148	2457.24
563.572	2465.28
563.997	2482.24
564.421	2491.93
564.846	2495.18
565.27	2503.8
565.694	2503.83
566.118	2523.43
566.542	2537.06
566.966	2531.09
567.39	2527.78
567.814	2517.29
568.238	2521.28
568.662	2532.41
569.086	2540.62
569.509	2554.21
569.933	2535.35
570.357	2529.66
570.78	2504.45
571.204	2489.44
571.627	2479.75
572.05	2481.29
572.474	2486.95
572.897	2471.3
573.32	2463.47
573.743	2452.14
574.166	2430.84
574.589	2435.84
575.012	2429.06
575.435	2430.89
575.858	2421.87
576.281	2407.78
576.704	2389.51
577.126	2374.96
577.549	2364.84
577.972	2356.11
578.394	2346.07
578.817	2338.42
579.239	2314.29
579.661	2297.71
580.084	2277.79
580.506	2262.02
580.928	2260.8
581.35	2247.79
581.772	2244.07
582.194	2226.79
582.616	2209.93
583.038	2192.62
583.46	2180.76
583.882	2179.75
584.303	2188.86
584.725	2185.12
585.147	2188.07
585.568	2205.15
585.99	2225.05
586.411	2235.68
586.833	2259.87
587.254	2264.94
587.675	2287.96
588.096	2308.45
588.518	2301.57
588.939	2277.61
589.36	2276.58
589.781	2264.21
590.202	2224.04
590.623	2210.96
591.043	2208.79
591.464	2190.89
591.885	2184.73
592.305	2175.53
592.726	2155.96
593.147	2158.88
593.567	2150.67
593.987	2141.26
594.408	2135.25
594.828	2132.65
595.248	2125.07
595.669	2098.32
596.089	2088.34
596.509	2080.63
596.929	2061.52
597.349	2063.55
597.769	2048.97
598.189	2042.18
598.608	2043.61
599.028	2046.24
599.448	2047.58
599.867	2030.62
600.287	2025.73
600.706	2020.28
601.126	2006.13
601.545	2005.43
601.965	2003.58
602.384	1997.25
602.803	2001.64
603.222	1996.95
603.641	1989.59
604.061	1985.71
604.48	1981.36
604.898	1994.37
605.317	2003.85
605.736	2009.39
606.155	2006.51
606.574	1997.39
606.992	2007.36
607.411	2002.42
607.829	1991.45
608.248	1988.45
608.666	1987.6
609.085	1987.57
609.503	1977.42
609.921	1970.14
610.339	1974.47
610.758	1975.7
611.176	1969.64
611.594	1957.68
612.012	1955.02
612.43	1960.65
612.847	1971.64
613.265	1974.15
613.683	1983.56
614.101	1986.58
614.518	1982.87
614.936	1968.75
615.353	1948.9
615.771	1946.09
616.188	1947.88
616.606	1942.92
617.023	1934.36
617.44	1915.27
617.857	1907.11
618.274	1895.85
618.691	1887.81
619.108	1874.86
619.525	1869.22
619.942	1879.29
620.359	1882.68
620.776	1875.65
621.192	1871.59
621.609	1870.03
622.026	1879.99
622.442	1888.4
622.859	1894.82
623.275	1885.05
623.691	1893.36
624.108	1908.72
624.524	1932.23
624.94	1933.85
625.356	1949.1
625.772	1967.69
626.188	1986.03
626.604	1989.08
627.02	1983.38
627.436	1979.23
627.852	1988.4
628.268	2006.06
628.683	1993.47
629.099	1979.24
629.514	1971.7
629.93	1977.82
630.345	1984.89
630.761	1978.56
631.176	1983.19
631.591	1972.53
632.007	1961.42
632.422	1958.45
632.837	1942.1
633.252	1937.28
633.667	1921.22
634.082	1906.13
634.497	1883.8
634.911	1852.9
635.326	1845.72
635.741	1817.85
636.155	1802.21
636.57	1803.87
636.984	1802.54
637.399	1802.08
637.813	1800.07
638.228	1797.39
638.642	1802.86
639.056	1787.69
639.47	1787.19
639.884	1772.11
640.298	1761.6
640.712	1758
641.126	1737.83
641.54	1721.17
641.954	1712.26
642.368	1692.6
642.781	1677.77
643.195	1648.66
643.609	1647.33
644.022	1635.82
644.436	1627.98
644.849	1608.28
645.262	1589.81
645.676	1589.79
646.089	1581.24
646.502	1555.69
646.915	1545.14
647.328	1519.05
647.741	1513.48
648.154	1491.4
648.567	1485.19
648.98	1464.14
649.393	1461.6
649.805	1452.99
650.218	1440.1
650.631	1416.91
651.043	1407.15
651.456	1398.76
651.868	1399.23
652.28	1424.16
652.693	1444.07
653.105	1451.66
653.517	1464.9
653.929	1465.27
654.341	1473.51
654.753	1455.04
655.165	1463.35
655.577	1459.29
655.989	1450.55
656.401	1437.07
656.813	1383.45
657.224	1353.36
657.636	1312.4
658.047	1284.82
658.459	1255.63
658.87	1241.43
659.282	1222.52
659.693	1190.42
660.104	1167.54
660.515	1145.72
660.926	1139.56
661.338	1132.65
661.749	1120.84
662.159	1103.63
662.57	1092.55
662.981	1081.84
663.392	1065.83
663.803	1066.7
664.213	1057.8
664.624	1045.8
665.035	1043.27
665.445	1020.99
665.855	1006.37
666.266	990.39
666.676	982.98
667.086	966.41
667.497	961.19
667.907	949.01
668.317	932.35
668.727	924.82
669.137	921.78
669.547	916.31
669.956	916.16
670.366	914.56
670.776	913.99
671.186	915.48
671.595	918.59
672.005	918.95
672.414	916.19
672.824	913.06
673.233	915.6
673.642	917.77
674.052	919.35
674.461	918.88
674.87	921.75
675.279	917.03
675.688	915.73
676.097	915.39
676.506	912.05
676.915	927.82
677.323	929.69
677.732	928.7
678.141	927.62
678.549	915.42
678.958	916.28
679.366	918.39
679.775	926.93
680.183	944.95
680.592	956.79
681	967.99
681.408	965.76
681.816	981.6
682.224	997.94
682.632	1019.44
683.04	1064.8
683.448	1105.66
683.856	1155.07
684.264	1211.52
684.671	1266.19
685.079	1332.27
685.487	1404.58
685.894	1501.74
686.302	1588.34
686.709	1661.3
687.116	1742.96
687.524	1814.55
687.931	1875.87
688.338	1928.57
688.745	1973.33
689.152	2022.67
689.559	2084.73
689.966	2145.66
690.373	2174.75
690.78	2227.74
691.187	2312.84
691.593	2372.23
692	2422
692.407	2498.66
692.813	2592.03
693.22	2663.12
693.626	2737.17
694.032	2788.86
694.439	2876.75
694.845	2938.12
695.251	3020.7
695.657	3092.33
696.063	3208.38
696.469	3286.28
696.875	3357.46
697.281	3388.75
697.687	3429.84
698.093	3458.59
698.498	3537.11
698.904	3590.63
699.31	3685.79
699.715	3745.72
700.12	3841.96
700.526	3842.55
700.931	3911.4
701.337	3956.02
701.742	3977.74
702.147	4062.44
702.552	4080.89
702.957	4136.85
703.362	4145.13
703.767	4161.85
704.172	4192.18
704.577	4113.62
704.981	4154.65
705.386	4158
705.791	4130.76
706.195	4205.05
706.6	4197.95
707.004	4276.43
707.408	4222.91
707.813	4238.62
708.217	4207.92
708.621	4194.32
709.025	4296.61
709.43	4282
709.834	4337.47
710.237	4404.52
710.641	4370
711.045	4384.84
711.449	4365.72
711.853	4388.33
712.256	4423.75
712.66	4454.74
713.064	4529.47
713.467	4563.79
713.87	4679.42
714.274	4720.36
714.677	4833.6
715.08	5006.31
715.484	5183.48
715.887	5400.17
716.29	5609.82
716.693	5829.21
717.096	6085.65
717.499	6219.87
717.901	6233.16
718.304	6253.37
718.707	6264.3
719.109	6135.81
719.512	6091.78
719.915	5929.48
720.317	5853.14
720.719	5891.54
721.122	5849.9
721.524	5784.41
721.926	5731.13
722.328	5833.31
722.731	5810.28
723.133	5831.26
723.535	6035.17
723.937	6043.26
724.338	6092.44
724.74	6128.96
725.142	6057.66
725.544	6047.79
725.945	6070.41
726.347	6056.39
726.748	6040.58
727.15	6050.66
727.551	6006.67
727.952	5967.89
728.354	5931.99
728.755	5923.75
729.156	5874.53
729.557	5848.75
729.958	5712.62
730.359	5644.81
730.76	5618.57
731.161	5549.66
731.562	5516.75
731.962	5514.07
732.363	5443.36
732.763	5370.81
733.164	5405.34
733.564	5329.12
733.965	5224.88
734.365	5186.32
734.766	5212.49
735.166	5169.61
735.566	5109.2
735.966	5080.79
736.366	5071.05
736.766	5002.73
737.166	5034.25
737.566	4988.74
737.966	4958.95
738.365	4995.73
738.765	4985.62
739.165	4908.14
739.564	4878.66
739.964	4921.79
740.363	4873.03
740.763	4869.49
741.162	4857.34
741.561	4823.06
741.96	4772.51
742.36	4791.36
742.759	4795.99
743.158	4833.5
743.557	4846.27
743.955	4884.97
744.354	4837.78
744.753	4893.19
745.152	4850.35
745.55	4902.31
745.949	4892.79
746.348	4893.94
746.746	4909.5
747.144	4868.27
747.543	4847.41
747.941	4898.01
748.339	4824.76
748.737	4816.92
749.136	4807.23
749.534	4871.35
749.932	4843.93
750.33	4867.04
750.727	4925.97
751.125	4902.86
751.523	4883.3
751.921	4924.95
752.318	4886.02
752.716	4945.54
753.113	4957.63
753.511	4980.7
753.908	4979.21
754.305	4961.63
754.703	5025.96
755.1	5087.07
755.497	5144.41
755.894	5339.75
756.291	5523.17
756.688	5863.52
757.085	6314.75
757.482	6950.35
757.878	7645.56
758.275	8272.07
758.672	9129.36
759.068	9827.82
759.465	10829.12
759.861	12129.39
760.258	13630.75
760.654	14409.34
761.05	14291.7
761.447	13640.5
761.843	12698.6
762.239	11727.14
762.635	11294.17
763.031	10877.05
763.427	10266.82
763.822	9624.24
764.218	8992.43
764.614	8170.21
765.01	7619.56
765.405	7264.34
765.801	6993.53
766.196	6651.43
766.592	6458.92
766.987	6134.2
767.382	5914.79
767.778	5826.79
768.173	5692.7
768.568	5616.21
768.963	5487.82
769.358	5506.75
769.753	5459.43
770.148	5375.21
770.542	5372.6
770.937	5341.73
771.332	5435.88
771.726	5455.95
772.121	5391.63
772.515	5448.69
772.91	5435.97
773.304	5508.87
773.699	5440.1
774.093	5493.82
774.487	5550.4
774.881	5591.97
775.275	5587.72
775.669	5539.61
776.063	5583
776.457	5617.79
776.851	5539.76
777.245	5529.26
777.638	5562.97
778.032	5680.14
778.425	5641.84
778.819	5684.85
779.212	5646.38
779.606	5601.99
779.999	5624.82
780.392	5607.73
780.786	5692.85
781.179	5713.75
781.572	5756.31
781.965	5772.89
782.358	5712.28
782.751	5772.16
783.143	5720.28
783.536	5793.45
783.929	5837
784.322	5954.1
784.714	5985.02
785.107	5978.28
785.499	6053.56
785.891	6032.07
786.284	6007.27
786.676	6153.44
787.068	6133.71
787.46	6186.53
787.852	6205.84
788.245	6293.66
788.636	6322.15
789.028	6394.7
789.42	6434.85
789.812	6444.08
790.204	6540.05
790.595	6645.36
790.987	6444.84
791.378	6471.9
791.77	6607.78
792.161	6744.29
792.553	6805
792.944	6696.85
793.335	6626.9
793.726	6704.65
794.117	6797.95
794.508	6946.78
794.899	6917.97
795.29	7066.15
795.681	7121.08
796.072	6977.24
796.463	6798.46
796.853	6811.41
797.244	6974.45
797.634	7011.62
798.025	7014.82
798.415	7029.42
798.806	7118.47
799.196	7209.47
799.586	7265.19
799.976	7232.78
800.366	7473.14
800.756	7719.78
801.146	7676.98
801.536	7707.26
801.926	7784.67
802.316	7814.05
802.706	7888
803.095	7760.62
803.485	7862.57
803.874	7901.31
804.264	8171.05
804.653	8141.93
805.043	8290.62
805.432	8404.86
805.821	8408.82
806.21	8435.14
806.599	8554.55
806.988	8607.74
807.377	8728.64
807.766	8869.18
808.155	9167.03
808.544	8894.05
808.933	8912.66
809.321	8893.94
809.71	9205.21
810.098	9371.03
810.487	9848.68
810.875	10348.84
811.264	10373.07
811.652	10673.38
812.04	10820.16
812.428	10993.44
812.816	11789.22
813.204	12226.26
813.592	12798.45
813.98	13145.39
814.368	13053.44
814.756	13551.95
815.144	13471.92
815.531	13955.59
815.919	13877.61
816.306	14204.58
816.694	13890.18
817.081	13940.33
817.469	14301.06
817.856	14298.72
818.243	14586.72
818.63	14998.58
819.017	14564.16
819.404	14632.66
819.791	15029.3
820.178	15669.35
820.565	15919.21
820.952	16886.2
821.339	16374.05
821.725	16567.88
822.112	15793.98
822.498	15747.54
822.885	15879.17
823.271	15780.34
823.657	16216.56
824.044	16227.23
824.43	16305.59
824.816	16279.76
825.202	15824.97
825.588	16879.71
825.974	16895.42
826.36	17434.6
826.746	17465.78
827.132	17829.45
827.517	17801.64
827.903	16983.67
828.289	17016.09
828.674	16201.64
829.06	16089.94
829.445	16500.24
829.83	16869.85
830.216	17353.15
830.601	17731.01
830.986	17312.71
831.371	17174.54
831.756	17749.78
832.141	17292.66
832.526	17284.48
832.911	17579.37
833.295	17460.48
833.68	17940
834.065	17302.85
834.449	16358.94
834.834	16279.64
835.218	16265.57
835.603	16613.89
835.987	16385.86
836.371	17248.69
836.755	17135.48
837.139	17540.12
837.524	17785.63
837.908	17594.71
838.291	17648.49
838.675	17713.46
839.059	17918.08
839.443	17903.65
839.827	17649.89
840.21	18146.99
840.594	17992.78
840.977	18210.37
841.361	18177.71
841.744	18561.78
842.127	18403.19
842.511	18653.93
842.894	19262.91
843.277	19654.07
843.66	20206.58
844.043	20300.66
844.426	19464.58
844.809	19134.8
845.191	19151.58
845.574	18681.78
845.957	18305.82
846.339	18181.76
846.722	17642.7
847.104	17715.51
847.487	17534.13
847.869	17544.57
848.252	17825.67
848.634	18163.47
849.016	18434
849.398	18563.36
849.78	19436.86
850.162	19434.01
850.544	19862.59
850.926	20496
851.307	20397.6
851.689	20683.16
852.071	21144.68
852.452	21477.61
852.834	21452.39
853.215	21862.44
853.597	22022.07
853.978	22320.05
854.359	22789.1
854.741	21774.61
855.122	21673.74
855.503	21371.74
855.884	21507.27
856.265	21447.53
856.646	21564.3
857.026	21162.59
857.407	21098.91
857.788	21256.9
858.169	21544.22
858.549	20667.23
858.93	21304.69
859.31	21351.6
859.69	21575.68
860.071	21169.34
860.451	20946.52
860.831	20190.75
861.211	21373.65
861.591	21933.64
861.971	21907.44
862.351	22102.7
862.731	22504.18
863.111	22776.38
863.491	23118.91
863.87	24015.12
864.25	24361.15
864.629	23955.6
865.009	24475.47
865.388	25356.07
865.768	27163.1
866.147	27063.96
866.526	25576.88
866.905	25880.67
867.284	27319.62
867.663	25938.37
868.042	24854.21
868.421	24785.93
868.8	25193.54
869.179	25441.65
869.558	23965.71
869.936	22097.01
870.315	22478.55
870.693	23024.88
871.072	24829.18
871.45	23664.11
871.828	23978.47
872.207	25226.05
872.585	24838.07
872.963	25506.43
873.341	24641.21
873.719	24352.06
874.097	24062.57
874.475	24528.32
874.853	25095.8
875.23	24054.63
875.608	25060.98
875.986	27103.56
876.363	25913.03
876.741	26704.95
877.118	26049.46
877.495	27315.84
877.873	27765
878.25	29206.25
878.627	28017.6
879.004	28406.26
879.381	28266.21
879.758	27518.68
880.135	25615.63
880.512	27079.44
880.889	26360.25
881.265	26073.87
881.642	25855.33
882.019	26287.78
882.395	25758.18
882.772	26781.45
883.148	25615.92
883.524	25510.94
883.901	25365.57
884.277	25739.51
884.653	25561.05
885.029	26290.09
885.405	29123.2
885.781	28905.78
886.157	27710.15
886.532	28038.68
886.908	28013.8
887.284	31148.63
887.659	32175.59
888.035	33161.59
888.411	34015.72
888.786	34472.48
889.161	35655.39
889.537	34987.64
889.912	36101.49
890.287	36062.96
890.662	36985.77
891.037	36294.81
891.412	33823.89
891.787	33457.92
892.162	32288.41
892.536	33022.59
892.911	31771.49
893.286	31089.65
893.66	29824.55
894.035	30569.53
894.409	33269.13
894.784	31916.74
895.158	32451.02
895.532	34377.79
895.906	35311.16
896.281	36129.77
896.655	35566.75
897.029	40637.69
897.402	42325.34
897.776	47112.43
898.15	46921.25
898.524	46431.24
898.898	47060.07
899.271	52698.13
899.645	45649.94
900.018	43871.22
900.392	45498.5
900.765	45856.74
901.138	42438.4
901.511	41796.41
901.884	38380.47
902.258	35411.45
902.631	36579.07
903.003	42096.8
903.376	37985.44
903.749	42600.74
904.122	45578.46
904.495	50180.33
904.867	50821.51
905.24	44127.02
905.612	41072.23
905.985	42011.24
906.357	43952.3
906.729	41956.69
907.102	35829.49
907.474	34439.64
907.846	34643.69
908.218	34200.81
908.59	30229.63
908.962	29227.87
909.334	31474.57
909.705	33076.33
910.077	32126.8
910.449	33414.8
910.82	34350.09
911.192	37802.07
911.563	39293.87
911.935	42044.04
912.306	42093.75
912.677	43443.75
913.048	43026.39
913.419	46680.76
913.79	46949.8
914.161	50314.06
914.532	48126.02
914.903	44237.39
915.274	42013.94
915.645	41397.08
916.015	36446.29
916.386	34753.75
916.756	37012.6
917.127	38171.61
917.497	34107.66
917.868	37095.42
918.238	35270.85
918.608	36279.36
918.978	37037.01
919.348	39237.24
919.718	40535.7
920.088	39049.06
920.458	40581.67
920.828	42705.65
921.198	40488.34
921.567	43259.51
921.937	33538.98
922.306	33853.51
922.676	36538.11
923.045	30475.93
923.415	28962.51
923.784	26396.22
924.153	27150.04
924.522	27127.39
924.891	25494.15
925.26	27313.31
925.629	26672.29
925.998	30658.75
926.367	29914.49
926.736	28466.4
927.104	33918.85
927.473	36464.07
927.842	44029.35
928.21	43582.12
928.578	45797.69
928.947	43333.68
929.315	43621.36
929.683	51163.79
930.051	51577.64
930.42	59900.61
930.788	51226.74
931.156	50827.81
931.523	47636.19
931.891	44015.87
932.259	42323.87
932.627	49093.22
932.994	69487.33
933.362	57398.59
933.729	49855.44
934.097	47718.65
934.464	40416.2
934.831	46606.54
935.199	45963.29
935.566	44582.25
935.933	45144.22
936.3	54641.79
936.667	42515.66
937.034	38367.44
937.401	37953.64
937.767	32771.1
938.134	29176.09
938.501	41119.62
938.867	43861.89
939.234	74139.17
939.6	63214.25
939.967	69752.24
940.333	46703.01
940.699	39753.5
941.065	31844.69
941.431	41743.76
941.798	40231.61
942.163	52871.3
942.529	33018.09
942.895	30374.5
943.261	19665.95
943.627	25822.03
943.992	22626.52
944.358	22671.83
944.723	22739.42
945.089	22194
945.454	20521.76
945.82	21899.11
946.185	21029.92
946.55	24374.99
946.915	21886.03
947.28	25641.29
947.645	22577.34
948.01	20812.97
948.375	21689.51
948.74	26014.02
949.104	30346.86
949.469	43825.57
949.834	77446.14
950.198	73407.24
950.562	44007.45
950.927	36638.48
951.291	44093.85
951.655	37554.98
952.02	35273.42
952.384	26683.03
952.748	23219.85
953.112	22661.7
953.476	19703.04
953.839	18215.48
954.203	18042.13
954.567	22563.67
954.931	35521.58
955.294	30386.01
955.658	30559.75
956.021	51952.51
956.385	88143.91
956.748	130014.01
957.111	201478.21
957.474	226338.21
957.837	254816.51
958.2	192815.53
958.563	69252.57
958.926	46842.07
959.289	71085.7
959.652	79373.59
960.015	59585.59
960.377	85410.7
960.74	97555.37
961.102	168421.25
961.465	180817.54
961.827	97047.84
962.189	186280.07
962.552	129267.08
962.914	103621.31
963.276	67261.42
963.638	55605.9
964	55054.98
964.362	37183.32
964.724	35969.31
965.085	25661.47
965.447	21018.77
965.809	23907.64
966.17	23909.13
966.532	25900.2
966.893	23777.98
967.255	21646.42
967.616	25564.3
967.977	20443.95
968.338	22348.77
968.699	18346.54
969.061	18321.54
969.421	18442.97
969.782	20694.54
970.143	17490.62
970.504	18122.76
970.865	20588.48
971.225	21034.51
971.586	20548.67
971.946	29285.26
972.307	25419.21
972.667	33224.95
973.027	34254.9
973.388	41529.7
973.748	28236.38
974.108	30763.48
974.468	41553.82
974.828	32092.61
975.188	24701.3
975.548	22715.11
975.907	19092.48
976.267	21419.11
976.627	18005.88
976.986	18657.57
977.346	17780.02
977.705	17123.06
978.064	15587.49
978.424	12974.27
978.783	13397.97
979.142	15287.54
979.501	14612.36
979.86	15451.75
980.219	14870.04
980.578	19171.42
980.937	21475.23
981.296	19135.82
981.654	19682.84
982.013	30630.93
982.371	39697.32
982.73	37054.12
983.088	41989.76
983.447	44911.57
983.805	64229.01
984.163	134317.24
984.521	148993.69
984.879	218190.57
985.237	-355414.23
985.595	343025.41
985.953	85183.54
986.311	49233.51
986.669	28582.09
987.026	24650.25
987.384	33139.2
987.741	34240.89
988.099	24509.07
988.456	19544.26
988.814	18303.54
989.171	15912.81
989.528	15680.83
989.885	16570.95
990.242	13132.58
990.599	16346.78
990.956	13355.24
991.313	9345.21
991.67	7662.56
992.027	8130.03
992.383	7225.56
992.74	6335.24
993.096	6651.08
993.453	6898.48
993.809	7153.42
994.165	9530.58
994.522	8764.19
994.878	9689.56
995.234	12148.1
995.59	12006.71
995.946	11371.38
996.302	12988.91
996.658	15030.45
997.013	16530.09
997.369	19609.07
997.725	25087.91
998.08	16270.46
998.436	25018.95
998.791	34442.66
999.147	34480.5
999.502	37590.43
999.857	27224.6
1000.212	44382.46
1000.567	63058.33
1000.922	36381.28
1001.277	23101.36
1001.632	17120.99
1001.987	22035.91
1002.342	15806.6
1002.696	12634.22
1003.051	10072.26
1003.406	12209.78
1003.76	12176.46
1004.114	11971.1
1004.469	10105.16
1004.823	8380.6
1005.177	9045.93
1005.531	7176.03
1005.885	6374.2
1006.239	7202.09
1006.593	9029.91
1006.947	12095.71
1007.301	9062.72
1007.655	9865.4
1008.008	7247.81
1008.362	8128.84
1008.715	11604.43
1009.069	10534.1
1009.422	15891.76
1009.776	31841.38
1010.129	21145.95
1010.482	17707.48
1010.835	14937.16
1011.188	31138.44
1011.541	29305.77
1011.894	-179270.7
1012.247	527687.94
1012.6	35843.51
1012.952	22615.11
1013.305	11623.24
1013.657	8411.24
1014.01	7971.94
1014.362	6568.97
1014.715	5841.78
1015.067	5075.79
1015.419	4967.84
1015.771	4407.74
1016.123	3926.56
1016.475	4034.66
1016.827	4302.39
1017.179	4630.54
1017.531	4651.47
1017.883	4732.47
1018.234	4591.43
1018.586	5803.91
1018.938	6177.2
1019.289	8532.18
1019.64	9754.13
1019.992	9083.62
1020.343	8311.44
1020.694	6541.01
1021.045	5769.66
1021.396	6568.44
1021.747	7093.3
1022.098	8479.25
1022.449	6160.56
1022.8	5716.7
1023.151	3995.14
1023.501	3559.16
1023.852	3855.5
1024.202	4015.22
1024.553	4442.14
1024.903	4360.21
1025.253	3737.56
1025.604	3348.92
1025.954	4154.48
1026.304	5051.93
1026.654	5874.01
1027.004	8564.15
1027.354	13765.51
1027.703	13055.23
1028.053	17105.97
1028.403	24922
1028.753	35908.74
1029.102	49065.49
1029.452	253106.36
1029.801	10969.48
1030.15	7078.5
1030.499	6006.63
897.758	3280.64
901.051	3263.63
904.343	3301.1
907.636	3290.3
910.928	3359.22
914.22	3259.76
917.511	3271.78
920.803	3358.76
924.094	3405.37
927.384	3352.68
930.675	3318.72
933.965	3258.77
937.255	3250.35
940.544	3214.85
943.834	3071
947.123	3029.45
950.411	3136.92
953.7	3098.84
956.988	3045.97
960.276	2993.79
963.563	3117.39
966.851	3094
970.138	3173.63
973.424	3148.52
976.711	3099.4
979.997	3354.9
983.283	3370.52
986.568	3238.03
989.853	3286.51
993.138	3317.4
996.423	3397.48
999.708	3307.82
1002.992	3428.13
1006.275	3154.79
1009.559	3266.25
1012.842	3402.52
1016.125	3305.02
1019.408	3281.61
1022.69	3409.27
1025.972	3415.13
1029.254	3379.29
1032.536	3272.19
1035.817	3321.14
1039.098	3218.58
1042.379	3490.36
1045.659	3437.48
1048.939	3348.26
1052.219	3391.81
1055.498	3424.13
1058.778	3393.14
1062.057	3384.3
1065.335	3403.29
1068.614	3437.59
1071.892	3396.91
1075.17	3504.17
1078.447	3478.03
1081.724	3462.31
1085.001	3518.21
1088.278	3481.3
1091.554	3503.15
1094.83	3502.45
1098.106	3524.5
1101.382	3588.33
1104.657	3588.21
1107.932	3585.06
1111.206	3530.29
1114.481	3486.13
1117.755	3500.47
1121.029	3458.56
1124.302	3506.3
1127.575	3436.63
1130.848	3413.11
1134.121	3361.69
1137.393	3292.79
1140.665	3374.62
1143.937	3354.57
1147.208	3259.11
1150.48	3286.74
1153.75	3262.73
1157.021	3335.77
1160.291	3291.42
1163.561	3330.75
1166.831	3352.45
1170.101	3390.97
1173.37	3381.05
1176.639	3300.27
1179.907	3376.03
1183.176	3426.94
1186.444	3432.86
1189.711	3468.35
1192.979	3467.21
1196.246	3427.93
1199.513	3449.87
1202.78	3442.86
1206.046	3446.95
1209.312	3481.58
1212.578	3520.54
1215.843	3448.21
1219.108	3431.61
1222.373	3455
1225.638	3399.49
1228.902	3374.9
1232.166	3343.96
1235.43	3319.67
1238.693	3339.44
1241.956	3345.25
1245.219	3372.49
1248.482	3375.77
1251.744	3365.61
1255.006	3552.15
1258.268	3518
1261.529	3447.39
1264.79	3461.96
1268.051	3587.55
1271.312	3610.14
1274.572	3558.8
1277.832	3550.19
1281.092	3553.11
1284.351	3498.85
1287.61	3468.67
1290.869	3357.76
1294.128	3302.64
1297.386	3447.09
1300.644	3432.08
1303.902	3441.33
1307.159	3283.73
1310.416	3344.74
1313.673	3363.48
1316.93	3330.43
1320.186	3401.47
1323.442	3459.48
1326.697	3431.15
1329.953	3445.65
1333.208	3453.28
1336.463	3437.7
1339.717	3363.18
1342.972	3455.39
1346.226	3461.92
1349.479	3371.14
1352.733	3326.91
1355.986	3371.82
1359.238	3339.39
1362.491	3337.3
1365.743	3344.46
1368.995	3346.48
1372.247	3362.89
1375.498	3376.78
1378.749	3437.95
1382	3379.46
1385.251	3455.05
1388.501	3430.47
1391.751	3392.92
1395	3373.37
1398.25	3414.57
1401.499	3406.59
1404.748	3314.27
1407.996	3227.93
1411.244	3223.99
1414.492	3197.28
1417.74	3167.53
1420.987	3193.6
1424.234	3239.95
1427.481	3245.91
1430.728	3302.67
1433.974	3276.06
1437.22	3307.39
1440.465	3312.24
1443.711	3315.39
1446.956	3348.82
1450.201	3361.69
1453.445	3407.65
1456.689	3367.01
1459.933	3386.12
1463.177	3412.79
1466.42	3381.2
1469.663	3361.53
1472.906	3328.4
1476.148	3476.64
1479.391	3355.36
1482.633	3344.52
1485.874	3339.13
1489.115	3301.29
1492.356	3332.34
1495.597	3301.17
1498.838	3315.03
1502.078	3262.16
1505.318	3179.44
1508.557	3236.44
1511.797	3145.13
1515.036	3324.31
1518.274	3305.18
1521.513	3292.63
1524.751	3329
1527.989	3330.43
1531.227	3336.78
1534.464	3300.38
1537.701	3356.03
1540.938	3386.56
1544.174	3343.09
1547.41	3359.22
1550.646	3395.65
1553.882	3417.01
1557.117	3469.53
1560.352	3496.29
1563.587	3444.08
1566.821	3391.43
1570.055	3457.81
1573.289	3414.01
1576.523	3514.83
1579.756	3513.86
1582.989	3526.08
1586.222	3483.4
1589.454	3539.15
1592.686	3500.18
1595.918	3519.57
1599.15	3495.7
1602.381	3612.71
1605.612	3531.78
1608.843	3636.01
1612.073	3533.2
1615.303	3509.72
1618.533	3489.42
1621.762	3504.34
1624.992	3502.66
1628.221	3465.82
1631.449	3451.38
1634.678	3549.62
1637.906	3488.06
1641.134	3541.37
1644.361	3485.77
1647.588	3469.94
1650.815	3479.56
1654.042	3476.37
1657.269	3515.65
1660.495	3463.28
1663.72	3405.21
1666.946	3393.42
1670.171	3291.41
1673.396	3269.67
1676.621	3269.96
1679.845	3322.12
1683.069	3364.2
1686.293	3428.79
1689.517	3375.38
1692.74	3264.06
1695.963	3282
1699.185	3382.75
1702.408	3326.69
1705.63	3385.99
1708.852	3388.93
1712.073	3360.91
1715.294	3319.92
1718.515	3346.05
1721.736	3286.93
1724.956	3252.15
1728.176	3289.46
1731.396	3308.22
1734.616	3308.25
1737.835	3313.03
1741.054	3310.85
1744.272	3308.16
1747.491	3320.65
1750.709	3410.57
1753.927	3306.99
1757.144	3369.95
1760.361	3441.82
1763.578	3452.13
1766.795	3379.97
1770.011	3404.76
1773.227	3469.55
1776.443	3496.19
1779.658	3541.94
1782.874	3488.37
1786.089	3452.48
1789.303	3456.65
1792.518	3466.73
1795.732	3456.78
1798.945	3457.96
1802.159	3520.52
1805.372	3370.89
1808.585	3342.99
1811.797	3344.57
1815.01	3430.7
1818.222	3433.36
1821.434	3301.08
1824.645	3413.17
1827.856	3369.73
1831.067	3419.89
1834.278	3343.3
1837.488	3333.94
1840.698	3520.41
1843.908	3417.38
1847.117	3376.34
1850.326	3194.12
1853.535	3337.41
1856.744	3469.07
1859.952	3343.02
1863.16	3337.93
1866.368	3364.13
1869.575	3521.11
1872.782	3396.12
1875.989	3342.82
1879.196	3477.94
1882.402	3471.3
1885.608	3523.38
1888.814	3379.76
1892.019	3250.7
1895.224	3303.84
1898.429	3305.38
1901.634	3270.98
1904.838	3254.78
1908.042	3297.95
1911.246	3295.2
1914.449	3180.68
1917.652	3198.1
1920.855	3184.98
1924.058	3261.81
1927.26	3289.16
1930.462	3328.28
1933.664	3338.19
1936.865	3270.4
1940.066	3261.83
1943.267	3213.78
1946.467	3241.56
1949.668	3280.68
1952.868	3346.6
1956.067	3303.93
1959.267	3224.48
1962.466	3259.25
1965.665	3246.19
1968.863	3244.96
1972.061	3277.64
1975.259	3287.29
1978.457	3372.7
1981.654	3323.82
1984.852	3320.22
1988.048	3224.27
1991.245	3246.52
1994.441	3331.96
1997.637	3350.57
2000.833	3328.95
2004.028	3377.62
2007.223	3422.01
2010.418	3380.62
2013.613	3353.19
2016.807	3289.06
2020.001	3316.24
2023.194	3394.59
2026.388	3359.63
2029.581	3307.22
2032.774	3336.42
2035.966	3337.77
2039.158	3242.41
2042.35	3278.49
2045.542	3208.44
2048.733	3338.92
2051.924	3402.37
2055.115	3447.04
2058.306	3354.52
2061.496	3423.12
2064.686	3503.99
2067.875	3429.65
2071.065	3460.35
2074.254	3499.59
2077.442	3450.35
2080.631	3552.6
2083.819	3384.4
2087.007	3349.58
2090.195	3302.08
2093.382	3363.26
2096.569	3336.11
2099.756	3277.33
2102.942	3273.22
2106.128	3263.6
2109.314	3262.9
2112.5	3193.42
2115.685	3179.44
2118.87	3194.38
2122.055	3269.7
2125.239	3214.83
2128.424	3168.54
2131.608	3334.39
2134.791	3314.29
2137.974	3402.84
2141.157	3379.28
2144.34	3303.52
2147.523	3323.76
2150.705	3316.55
2153.887	3315.46
2157.068	3232.76
2160.25	3263.18
2163.431	3325.13
2166.611	3233.11
2169.792	3246.61
2172.972	3114.9
2176.152	3236.23
2179.331	3282.92
2182.511	3262.89
2185.69	3298.87
2188.868	3281.53
2192.047	3366.08
2195.225	3323.37
2198.403	3270.38
2201.58	3272.58
2204.758	3273.49
2207.935	3369.75
2211.111	3219.24
2214.288	3197.31
2217.464	3247.61
2220.64	3240.58
2223.815	3305.97
2226.991	3213.3
2230.166	3236.22
2233.34	3248.72
2236.515	3290.26
2239.689	3386.24
2242.863	3316.93
2246.036	3379.55
2249.209	3405.78
2252.382	3457.43
2255.555	3421.45
2258.727	3335.34
2261.9	3385.91
2265.071	3379.58
2268.243	3396.88
2271.414	3303.76
2274.585	3228.09
2277.756	3310.03
2280.926	3264.32
2284.096	3316.98
2287.266	3192.84
2290.436	3263.04
2293.605	3306.37
2296.774	3325.63
2299.942	3370.15
2303.111	3380.74
2306.279	3423.74
2309.447	3413.33
2312.614	3392.03
2315.781	3408.25
2318.948	3363.4
2322.115	3408.09
2325.281	3303.54
2328.447	3343.36
2331.613	3323.17
2334.779	3268.73
2337.944	3285.62
2341.109	3277.17
2344.274	3254.19
2347.438	3213.06
2350.602	3245.04
2353.766	3270.96
2356.929	3250.44
2360.092	3299.75
2363.255	3219.94
2366.418	3110.22
2369.58	3289.2
2372.742	2954.97
2375.904	2995.53
2379.066	2955.47
2382.227	3008.93
2385.388	2968.18
2388.548	2864.06
2391.709	2936.96
2394.869	2906.62
2398.029	3069.78
2401.188	3109.65
2404.347	3001.73
2407.506	3225.46
2410.665	3247.33
2413.823	3278.77
2416.981	3203.88
2420.139	3259.05
2423.296	3317.92
2426.453	3296.96
2429.61	3323.4
2432.767	3206.74
2435.923	3256.57
2439.079	3132.33
2442.235	3227.78
2445.391	3130.89
2448.546	3136.32
2451.701	3212.8
2454.855	3146.43
2458.009	3232.36
2461.163	3253.27
2464.317	3192.2
2467.471	3236.23
2470.624	3275.21
2473.777	3335.02
2476.929	3320.23
2480.082	3350.34
2483.234	3318.26
2486.385	3183.42
2489.537	3185.92
2492.688	3112.9
2495.839	3128.63
2498.989	3130.43
2502.14	3110.54
2505.29	3075.34
2508.439	3103.77
2511.589	3003.9
2514.738	3034.96
2517.887	3062.94
2521.035	3224.05
2524.183	3223.7
2527.331	3188.68
2530.479	3135.52
2533.627	3159.76
