Data from N_3_DIV_WI_4N_Splice17_12-57-28-379.txt Node
Date: Sat Mar 14 12:57:28 EDT 2020
User: sa697716
Spectrometer: FLMS03696
Trigger mode: 0
Integration Time (sec): 3.180400E-1
Scans to average: 20
Electric dark correction enabled: true
Nonlinearity correction enabled: true
Boxcar width: 5
XAxis mode: Wavelengths
Number of Pixels in Spectrum: 2048
>>>>>Begin Spectral Data<<<<<
187.83	-380426.82
188.298	2832.81
188.766	1531.11
189.233	1315.86
189.701	1857.55
190.169	2599.02
190.636	968.81
191.104	758.66
191.571	158.22
192.039	-1.14
192.506	49.05
192.974	604.25
193.441	-759.97
193.908	-40.24
194.375	0.52
194.842	69.57
195.31	208.87
195.777	177.97
196.244	343.85
196.711	267.35
197.177	269.82
197.644	298.24
198.111	457.65
198.578	584.11
199.045	434.8
199.511	619.16
199.978	669.16
200.445	589.41
200.911	621.2
201.378	596.6
201.844	575.99
202.31	947.91
202.777	962.78
203.243	554.48
203.709	540.49
204.176	648.5
204.642	567.4
205.108	534.97
205.574	416.55
206.04	350.25
206.506	328.52
206.972	288.99
207.438	281.82
207.903	317.38
208.369	304.24
208.835	323.44
209.301	355.12
209.766	336.3
210.232	335.33
210.697	418.79
211.163	494.57
211.628	724.96
212.094	621.99
212.559	864.03
213.024	563.08
213.49	710.23
213.955	671.83
214.42	615.92
214.885	593.97
215.35	592.99
215.815	658.22
216.28	746.52
216.745	614.96
217.21	708.17
217.675	625.41
218.14	735.25
218.604	817.91
219.069	975.05
219.534	1094.09
219.998	1290.01
220.463	1603.9
220.927	1943.6
221.392	1866.37
221.856	1950.62
222.32	2446.1
222.785	3106.85
223.249	3981.55
223.713	4527.09
224.177	4587.34
224.642	5885.02
225.106	7319.79
225.57	8053.98
226.034	6093.03
226.497	9376.74
226.961	8598.46
227.425	10160.35
227.889	11312.74
228.353	11347.19
228.816	23496.91
229.28	22643.07
229.744	19252.63
230.207	11844.7
230.671	11779.07
231.134	19550.96
231.597	22819.86
232.061	22942.29
232.524	22476.52
232.987	15646.32
233.45	14233.38
233.914	12909.85
234.377	13340.71
234.84	12326.17
235.303	14637.52
235.766	16447.99
236.229	17125.32
236.691	10840.98
237.154	12263.37
237.617	9327.29
238.08	9605.19
238.542	11326.02
239.005	8167.32
239.468	8168.78
239.93	7742.66
240.393	7094.89
240.855	6277.93
241.317	6483.53
241.78	7934.65
242.242	8267.12
242.704	9018.13
243.166	7927.14
243.629	7287.96
244.091	8454.97
244.553	9313.53
245.015	10090.92
245.477	13125.28
245.939	19378.75
246.4	20738.66
246.862	20289.99
247.324	19269.14
247.786	21696.91
248.247	28563.02
248.709	29559.46
249.17	22282.95
249.632	21248.58
250.093	24875.47
250.555	21677.09
251.016	13322.56
251.477	12705.06
251.939	13808.45
252.4	14597.21
252.861	17402.82
253.322	16315.83
253.783	19486.73
254.244	25333.15
254.705	20018.75
255.166	17830.17
255.627	17630.18
256.088	24929.39
256.549	26564.05
257.009	22987.86
257.47	27970.13
257.931	22879.01
258.391	17188.25
258.852	17799.31
259.312	18732.93
259.773	23227.58
260.233	19739.07
260.694	16703.64
261.154	19025.09
261.614	15351.58
262.074	13754.59
262.534	14320.45
262.994	13556.24
263.455	18131.11
263.915	15333.43
264.374	14473.79
264.834	15817.99
265.294	17572.74
265.754	18256.9
266.214	17329.4
266.673	16263.15
267.133	20560.68
267.593	20432.94
268.052	25050.84
268.512	21775.27
268.971	26325.11
269.431	28931.9
269.89	25946.18
270.349	38951.54
270.809	43440.15
271.268	39076.43
271.727	87589
272.186	56830.69
272.645	42651.83
273.104	30771.3
273.563	44672.05
274.022	35091.56
274.481	29884.39
274.94	23038.74
275.399	17127.47
275.857	19955.4
276.316	27016.64
276.775	24128.7
277.233	23783.39
277.692	22341.65
278.15	25309.85
278.609	26073.96
279.067	24181.32
279.525	22500.77
279.984	29094.54
280.442	34988.29
280.9	34572.8
281.358	22761.65
281.816	21205.77
282.274	20792.43
282.732	21448.19
283.19	21565.03
283.648	18603.15
284.106	19818.99
284.564	20174.88
285.021	18764.05
285.479	14003.41
285.937	12735.92
286.394	11217.55
286.852	11554.21
287.309	12165.93
287.767	11794.96
288.224	11253.93
288.682	12387.24
289.139	13669.81
289.596	12573.94
290.053	13114.24
290.511	16644.96
290.968	20299.24
291.425	27641.52
291.882	23187.06
292.339	20297.13
292.796	20254.4
293.252	19176.74
293.709	15317.63
294.166	13771.35
294.623	15257.55
295.079	14682.63
295.536	14784.53
295.992	13452.58
296.449	13333.86
296.905	13888.73
297.362	13339.03
297.818	14048.27
298.274	14606.78
298.731	14911.24
299.187	14787.92
299.643	15903.08
300.099	19262.66
300.555	21156.15
301.011	17711
301.467	17111.81
301.923	20014.26
302.379	19583.14
302.835	19272.17
303.291	19312.53
303.746	21999.78
304.202	27830.61
304.658	27995.93
305.113	18868.55
305.569	18503.65
306.024	19742.41
306.479	18785.42
306.935	15865.3
307.39	17346.12
307.845	16015.11
308.301	16141.04
308.756	15730.64
309.211	15186.15
309.666	15528.53
310.121	19283.63
310.576	19574.73
311.031	19407.49
311.486	22210.15
311.94	22169.77
312.395	29630.29
312.85	55683.99
313.305	273434.79
313.759	1417733.42
314.214	102624.48
314.668	81664.86
315.123	68767.79
315.577	24694.85
316.032	22033.49
316.486	27714.5
316.94	21951.31
317.394	15328.4
317.849	11948.58
318.303	11331.96
318.757	10714.37
319.211	11863.96
319.665	10397.84
320.119	10540.07
320.572	15139.31
321.026	14180.63
321.48	11807.94
321.934	12856.74
322.387	12883.93
322.841	13927.56
323.295	12542.11
323.748	14447.14
324.202	14684.71
324.655	17659.14
325.108	24720.02
325.562	17461.77
326.015	20734.55
326.468	15669.7
326.921	17556.05
327.374	16380.35
327.827	17083.8
328.28	19372.7
328.733	13008.56
329.186	11444.32
329.639	10903.16
330.092	9200.09
330.545	8768.55
330.997	8864.21
331.45	9724.28
331.903	11410.41
332.355	19638.91
332.808	19093.53
333.26	15721.86
333.713	17057.82
334.165	17185.94
334.617	22937.99
335.069	18470.54
335.522	33364.47
335.974	36892.19
336.426	33673.01
336.878	23335.07
337.33	11850.61
337.782	11563.45
338.234	14498.12
338.686	17338.81
339.137	20493.84
339.589	19289.1
340.041	15188.5
340.493	13098.35
340.944	13444.68
341.396	14498.58
341.847	12207.79
342.299	14429.86
342.75	17676.47
343.201	15476.92
343.653	17865.28
344.104	22069.15
344.555	17435.43
345.006	27107.88
345.457	20837.89
345.908	16558.74
346.359	15614.63
346.81	12746.85
347.261	13446.23
347.712	13239.98
348.163	14208.03
348.613	14410.08
349.064	13470.81
349.515	11786.99
349.965	12133.19
350.416	14619.88
350.866	16082.77
351.317	18191.8
351.767	30141.52
352.217	38114.85
352.668	31698.56
353.118	29085.9
353.568	28107.59
354.018	22257.15
354.468	23543.55
354.918	16886.56
355.368	14783.55
355.818	20923.1
356.268	60153.59
356.718	252243.61
357.168	62847.77
357.617	31560.61
358.067	35078.7
358.517	32834.8
358.966	38494.77
359.416	43097.84
359.865	46593.29
360.315	55495.78
360.764	25937.82
361.213	14572.53
361.663	13805.7
362.112	17047.13
362.561	27518.53
363.01	20798.29
363.459	17533.31
363.908	19008.78
364.357	16203.64
364.806	27382.3
365.255	18833.09
365.703	17266.17
366.152	17282.83
366.601	14010.68
367.05	11391.56
367.498	10353.93
367.947	10820.09
368.395	11229.1
368.844	9942.47
369.292	11984.92
369.74	8294.01
370.189	12676.3
370.637	14816.19
371.085	12796.21
371.533	15618.61
371.981	15052.38
372.429	14380.27
372.877	14982.64
373.325	12576
373.773	12803.07
374.221	11392.05
374.669	14127.64
375.116	12248.55
375.564	12337.47
376.012	13796.45
376.459	11358.4
376.907	13562.27
377.354	16376.66
377.801	15255.05
378.249	17458.21
378.696	22290.19
379.143	26949.61
379.591	28724.74
380.038	48543.92
380.485	35127.13
380.932	37775.58
381.379	34557.18
381.826	25375.62
382.273	18016.58
382.72	15726.87
383.166	15337.27
383.613	9931.26
384.06	8967.02
384.506	10368.91
384.953	7602.97
385.4	7635.5
385.846	6706.54
386.292	6506.45
386.739	6352.69
387.185	6253.2
387.631	6247.51
388.078	6058.74
388.524	6468.15
388.97	5948.34
389.416	4944.74
389.862	5240.85
390.308	4957.98
390.754	5016.98
391.2	5434.3
391.645	5552.89
392.091	5315.55
392.537	5130.13
392.983	5114.96
393.428	5022.22
393.874	5357.32
394.319	5372.14
394.765	5082.21
395.21	5206.5
395.655	4868.61
396.101	4544.48
396.546	4096.9
396.991	4116.39
397.436	3805.15
397.881	3664.73
398.326	3464.89
398.771	3272.33
399.216	2841.31
399.661	2551.91
400.106	2538.53
400.551	2595.09
400.995	2326.53
401.44	2301.53
401.885	2157.09
402.329	2178.67
402.774	2089.9
403.218	2024.76
403.663	1951.52
404.107	2006.92
404.551	2018
404.995	1846.42
405.44	1771.26
405.884	1792.7
406.328	1724.1
406.772	1718.32
407.216	1562.62
407.66	1501.29
408.104	1413.08
408.547	1318.43
408.991	1273.59
409.435	1224.29
409.879	1206.94
410.322	1189.24
410.766	1145.28
411.209	1086.42
411.653	1037.51
412.096	1017.83
412.54	1019.62
412.983	1014.59
413.426	1016.87
413.869	1011.54
414.312	990.89
414.756	949.35
415.199	904.29
415.642	880.03
416.085	881.71
416.527	875.21
416.97	882.79
417.413	836.41
417.856	824.87
418.298	814.97
418.741	808.83
419.184	806.09
419.626	839.04
420.069	839.62
420.511	844.13
420.953	826.6
421.396	818.76
421.838	797.92
422.28	814.45
422.722	817.85
423.164	826.51
423.606	811.92
424.048	807.41
424.49	768.11
424.932	762.79
425.374	747.61
425.816	755.48
426.258	769.44
426.699	776.7
427.141	769.49
427.582	780.28
428.024	777.87
428.465	771.15
428.907	752.21
429.348	739.55
429.789	738.22
430.231	723.91
430.672	730.89
431.113	709.17
431.554	697
431.995	671.22
432.436	646.68
432.877	629.1
433.318	617.88
433.759	610.92
434.2	607.97
434.64	597.02
435.081	595.47
435.522	563.92
435.962	542.51
436.403	530.26
436.843	534.43
437.284	519.51
437.724	499.78
438.164	495.95
438.604	484.52
439.045	466.66
439.485	448.67
439.925	437.21
440.365	425.04
440.805	418.31
441.245	411.98
441.685	396.37
442.125	390.32
442.564	392.59
443.004	384.16
443.444	380.45
443.883	380.21
444.323	373.7
444.762	369.86
445.202	373.44
445.641	380.06
446.081	374.79
446.52	377.68
446.959	374.5
447.398	365.06
447.837	357.67
448.276	349.98
448.716	350.97
449.154	352.12
449.593	345.01
450.032	343.35
450.471	332.78
450.91	330.3
451.349	328.55
451.787	324.14
452.226	328.23
452.664	328.11
453.103	328.45
453.541	325.75
453.98	326.51
454.418	328.88
454.856	324.26
455.295	324.59
455.733	328
456.171	329.06
456.609	329.36
457.047	329.37
457.485	335.7
457.923	337.93
458.361	333.24
458.798	333.3
459.236	331.46
459.674	330.66
460.111	331.69
460.549	328.57
460.987	326.31
461.424	325.89
461.862	325.25
462.299	319.52
462.736	318.07
463.173	319.48
463.611	318.17
464.048	318
464.485	321.8
464.922	318.38
465.359	315.34
465.796	318.03
466.233	316.61
466.67	313.85
467.106	313.98
467.543	309.25
467.98	305
468.416	295.07
468.853	291.46
469.29	282.75
469.726	280.21
470.162	273.78
470.599	265.02
471.035	261.26
471.471	254.22
471.907	250.84
472.344	249.99
472.78	251.61
473.216	253.46
473.652	249.75
474.088	248.14
474.523	247.35
474.959	248.31
475.395	246.17
475.831	244.86
476.266	245.19
476.702	244.86
477.138	242.5
477.573	241.26
478.008	240.98
478.444	244.52
478.879	248.29
479.314	249.75
479.75	250.09
480.185	250.42
480.62	253.24
481.055	255.7
481.49	257.45
481.925	261.45
482.36	267.68
482.795	274.99
483.229	280.19
483.664	285.98
484.099	286.43
484.534	291.54
484.968	294.87
485.403	294.78
485.837	292.83
486.271	292.23
486.706	291.17
487.14	285.72
487.574	281.59
488.009	279
488.443	275.36
488.877	278.77
489.311	278.62
489.745	281.58
490.179	283.71
490.613	290.38
491.046	291.28
491.48	293.09
491.914	293.05
492.348	292.85
492.781	294.42
493.215	294.1
493.648	292.46
494.082	292.99
494.515	292.13
494.948	294.9
495.382	293.99
495.815	294.78
496.248	295.9
496.681	299.42
497.114	302.45
497.547	304.35
497.98	308.79
498.413	310.5
498.846	312.97
499.279	313.53
499.711	312.73
500.144	310.81
500.577	313.9
501.009	315.29
501.442	317.39
501.874	315.96
502.306	313.78
502.739	316.21
503.171	318.05
503.603	316.88
504.036	317.45
504.468	316.13
504.9	317.6
505.332	316.26
505.764	315.02
506.196	313.54
506.627	315.59
507.059	317.55
507.491	313.83
507.923	310.63
508.354	311.79
508.786	311.93
509.217	314.77
509.649	316.18
510.08	317.49
510.512	320.01
510.943	321.2
511.374	321.07
511.805	322.58
512.237	323.97
512.668	328.92
513.099	332.3
513.53	336.14
513.961	337.6
514.391	342.62
514.822	349.92
515.253	355.13
515.684	357.46
516.114	360.84
516.545	363.16
516.975	366.82
517.406	367.48
517.836	363.94
518.267	361.79
518.697	363.84
519.127	360.38
519.558	356.86
519.988	353.8
520.418	353.25
520.848	353.62
521.278	351.5
521.708	385.66
522.138	386.43
522.567	390.45
522.997	393.91
523.427	393.14
523.857	395.22
524.286	395.39
524.716	396.32
525.145	398.8
525.575	400.22
526.004	401.34
526.433	364.56
526.863	361.38
527.292	359.33
527.721	359
528.15	358.99
528.579	357.42
529.008	358.36
529.437	360.87
529.866	361.18
530.295	362.42
530.724	364.94
531.152	369.31
531.581	371.99
532.01	373.72
532.438	373.82
532.867	375.66
533.295	378.82
533.723	379.04
534.152	378.51
534.58	377.89
535.008	374.11
535.436	374.18
535.865	375.46
536.293	377.08
536.721	379
537.149	383
537.576	383.32
538.004	385.44
538.432	385.4
538.86	385.85
539.287	386.73
539.715	389.28
540.143	387.98
540.57	386.16
540.998	384.85
541.425	382.09
541.852	378.7
542.28	377.76
542.707	373.43
543.134	371.24
543.561	369.41
543.988	368.25
544.415	367.63
544.842	366.7
545.269	365.48
545.696	366.45
546.123	368.31
546.549	365.56
546.976	362.97
547.403	363.3
547.829	362.62
548.256	362.14
548.682	361.5
549.108	361
549.535	360.66
549.961	360.52
550.387	356.89
550.813	356.7
551.24	357.81
551.666	357.6
552.092	355.47
552.518	355.31
552.943	354.96
553.369	355.93
553.795	356.91
554.221	357.69
554.646	357.5
555.072	361.92
555.498	361.17
555.923	363.4
556.349	367.08
556.774	369.6
557.199	369.63
557.625	370.87
558.05	370.79
558.475	373.33
558.9	373.19
559.325	372.36
559.75	371.02
560.175	370.58
560.6	369.41
561.025	369.85
561.449	371.16
561.874	372.71
562.299	374.86
562.723	376.36
563.148	374.34
563.572	375.71
563.997	379.28
564.421	380.34
564.846	381.24
565.27	383.94
565.694	384.49
566.118	388.1
566.542	392.4
566.966	391.99
567.39	393.01
567.814	393.19
568.238	394.99
568.662	396.09
569.086	398.81
569.509	401.22
569.933	400.62
570.357	400.5
570.78	397.01
571.204	396.75
571.627	395.96
572.05	396.86
572.474	398.84
572.897	397.45
573.32	398.66
573.743	396.97
574.166	395.51
574.589	395.29
575.012	395.06
575.435	396.05
575.858	394.32
576.281	393.42
576.704	391.26
577.126	388.45
577.549	387.28
577.972	385.37
578.394	385.4
578.817	387.22
579.239	383.76
579.661	382.43
580.084	381.15
580.506	379.5
580.928	378.97
581.35	377.49
581.772	377.83
582.194	375.31
582.616	372.94
583.038	369.12
583.46	365.26
583.882	366.17
584.303	366.32
584.725	365.11
585.147	370.7
585.568	375.21
585.99	379.12
586.411	382.13
586.833	386.95
587.254	387.86
587.675	392.11
588.096	395.96
588.518	394.8
588.939	392.54
589.36	392.16
589.781	384.37
590.202	380.39
590.623	378.71
591.043	377.2
591.464	374.75
591.885	375.83
592.305	375.04
592.726	372.02
593.147	373.58
593.567	373.28
593.987	371.61
594.408	371.19
594.828	367.87
595.248	367.52
595.669	364.34
596.089	362.89
596.509	360.66
596.929	357.3
597.349	358.35
597.769	355.89
598.189	354.2
598.608	355.55
599.028	356.56
599.448	356.86
599.867	353.49
600.287	352.46
600.706	352.25
601.126	350.69
601.545	352.24
601.965	351.95
602.384	350.73
602.803	351.43
603.222	350.76
603.641	349.41
604.061	350.07
604.48	349.25
604.898	351.85
605.317	353.88
605.736	354.91
606.155	354.62
606.574	352.54
606.992	355.48
607.411	356.1
607.829	355.16
608.248	355.12
608.666	354.06
609.085	355.89
609.503	355.04
609.921	354.73
610.339	356.54
610.758	357.43
611.176	357.66
611.594	356.5
612.012	356.19
612.43	358.13
612.847	360.94
613.265	363.63
613.683	365.1
614.101	366.82
614.518	366.4
614.936	364.66
615.353	362.3
615.771	363.21
616.188	364.27
616.606	364.08
617.023	362.77
617.44	359.68
617.857	357.57
618.274	356.17
618.691	354.95
619.108	352.92
619.525	351.93
619.942	354.09
620.359	355.21
620.776	353.9
621.192	354.19
621.609	354.47
622.026	357.41
622.442	359.76
622.859	360.29
623.275	358.51
623.691	360.69
624.108	364.27
624.524	367.82
624.94	367.9
625.356	370.77
625.772	373.59
626.188	376.07
626.604	376.86
627.02	376.82
627.436	377.88
627.852	381.44
628.268	384.77
628.683	382.09
629.099	380.34
629.514	377.99
629.93	379.48
630.345	381.87
630.761	381.34
631.176	381.4
631.591	381.59
632.007	380.29
632.422	378.43
632.837	374.6
633.252	375.48
633.667	373.51
634.082	372.84
634.497	370.36
634.911	367.07
635.326	367.49
635.741	364.58
636.155	360.88
636.57	363.49
636.984	364.47
637.399	369
637.813	368.81
638.228	369.35
638.642	371.86
639.056	369.99
639.47	370.16
639.884	369.94
640.298	369.94
640.712	372.48
641.126	369.11
641.54	368.35
641.954	366.14
642.368	366.16
642.781	368.44
643.195	365.35
643.609	367.85
644.022	368.79
644.436	367.73
644.849	364.57
645.262	361.22
645.676	363.26
646.089	364.37
646.502	362.84
646.915	361.73
647.328	356.41
647.741	357.15
648.154	354.13
648.567	356.91
648.98	355.96
649.393	357.79
649.805	359.47
650.218	358.78
650.631	354.52
651.043	353.74
651.456	353.1
651.868	353.85
652.28	359.89
652.693	365.28
653.105	366.43
653.517	369.42
653.929	371.22
654.341	373.57
654.753	370.27
655.165	374.31
655.577	374.67
655.989	374.59
656.401	372.64
656.813	362.84
657.224	357.64
657.636	347.21
658.047	343.89
658.459	339.06
658.87	336.54
659.282	333.01
659.693	327.95
660.104	324.33
660.515	320.23
660.926	322.88
661.338	323.5
661.749	322.19
662.159	322.44
662.57	321.06
662.981	320.55
663.392	319.76
663.803	324.33
664.213	323.91
664.624	323.14
665.035	326.16
665.445	319.42
665.855	318.6
666.266	317.25
666.676	315.85
667.086	312.71
667.497	312.91
667.907	311.52
668.317	307.39
668.727	309.58
669.137	310.11
669.547	309.48
669.956	311.16
670.366	310.71
670.776	312.26
671.186	313.69
671.595	315.8
672.005	317.19
672.414	316.59
672.824	316.48
673.233	314.73
673.642	315.38
674.052	317.17
674.461	318.46
674.87	320.12
675.279	318.98
675.688	318.75
676.097	319.69
676.506	318.12
676.915	322.72
677.323	323.09
677.732	321.47
678.141	319.8
678.549	313.24
678.958	311.39
679.366	309.29
679.775	308.03
680.183	312.82
680.592	313.03
681	313.96
681.408	309.4
681.816	310.34
682.224	312.11
682.632	316.05
683.04	325
683.448	331.35
683.856	340.75
684.264	351.56
684.671	357.93
685.079	367.89
685.487	378.78
685.894	396.73
686.302	408.62
686.709	416.14
687.116	425.48
687.524	433.64
687.931	438.61
688.338	440.59
688.745	439.82
689.152	440.17
689.559	443.95
689.966	446.98
690.373	443.06
690.78	444.6
691.187	451.92
691.593	454
692	452.08
692.407	457.28
692.813	467.29
693.22	472.54
693.626	476.12
694.032	478.38
694.439	485.8
694.845	489.06
695.251	495.47
695.657	502
696.063	512.01
696.469	518.17
696.875	523.61
697.281	521.39
697.687	521.71
698.093	521.61
698.498	527.87
698.904	529.54
699.31	538.06
699.715	545.04
700.12	553.34
700.526	550.45
700.931	557.03
701.337	560.22
701.742	559.48
702.147	567.87
702.552	569.01
702.957	572.09
703.362	571.51
703.767	570.78
704.172	570.04
704.577	555.66
704.981	558.63
705.386	557.81
705.791	550.68
706.195	557.44
706.6	555.06
707.004	560.94
707.408	552.11
707.813	553.77
708.217	550.47
708.621	547.51
709.025	560.69
709.43	559.49
709.834	565.97
710.237	574.92
710.641	569.84
711.045	571.2
711.449	570.04
711.853	576.21
712.256	576.99
712.66	577.94
713.064	586.39
713.467	590.99
713.87	603.1
714.274	606.76
714.677	618.98
715.08	639.2
715.484	659.95
715.887	688.57
716.29	709.41
716.693	738.36
717.096	770.73
717.499	786.79
717.901	784.94
718.304	785.3
718.707	784.28
719.109	768.57
719.512	761.25
719.915	742.54
720.317	729.75
720.719	731.23
721.122	724.13
721.524	715.52
721.926	712.34
722.328	724.33
722.731	719.92
723.133	722.43
723.535	746.38
723.937	747.77
724.338	753.26
724.74	757.89
725.142	815.32
725.544	818.49
725.945	834.88
726.347	828.58
726.748	826.95
727.15	829.81
727.551	828.35
727.952	819.6
728.354	812.54
728.755	809.11
729.156	800.13
729.557	732.35
729.958	709.88
730.359	686.88
730.76	683.4
731.161	674.82
731.562	668.64
731.962	663.28
732.363	657.12
732.763	650.81
733.164	652.1
733.564	644.3
733.965	633.86
734.365	629.81
734.766	634.08
735.166	628.38
735.566	621.99
735.966	619.76
736.366	620.05
736.766	610.96
737.166	612.28
737.566	607.98
737.966	604.17
738.365	609.56
738.765	609.37
739.165	598.13
739.564	593.77
739.964	597.45
740.363	589.66
740.763	586.62
741.162	587.32
741.561	583.56
741.96	578.12
742.36	578.69
742.759	578.85
743.158	581.92
743.557	583.12
743.955	587.14
744.354	581.59
744.753	589.73
745.152	586.93
745.55	591.12
745.949	590.72
746.348	590.36
746.746	591.34
747.144	588.44
747.543	584.97
747.941	590.82
748.339	582
748.737	582.06
749.136	581.52
749.534	587.23
749.932	585.89
750.33	588.48
750.727	593.98
751.125	591.93
751.523	587.83
751.921	598.12
752.318	594.36
752.716	604.54
753.113	604.63
753.511	605.42
753.908	605.6
754.305	607.69
754.703	614.54
755.1	624.84
755.497	632.29
755.894	654.5
756.291	672.26
756.688	711.82
757.085	762.84
757.482	838.5
757.878	925.15
758.275	1000.99
758.672	1091.14
759.068	1173.48
759.465	1283.53
759.861	1432.48
760.258	1603.78
760.654	1691.97
761.05	1679.95
761.447	1598.1
761.843	1490.22
762.239	1373.62
762.635	1318.39
763.031	1270.29
763.427	1200.61
763.822	1128.72
764.218	1056.72
764.614	963.76
765.01	898.76
765.405	857.25
765.801	829.36
766.196	787.51
766.592	763.35
766.987	728.11
767.382	701.79
767.778	692.11
768.173	676.91
768.568	667.92
768.963	654.18
769.358	657.75
769.753	654.41
770.148	644.06
770.542	644.26
770.937	641.82
771.332	654.26
771.726	657.13
772.121	654.03
772.515	662.22
772.91	661.54
773.304	668.33
773.699	659.91
774.093	663.95
774.487	670.71
774.881	675.8
775.275	675.2
775.669	669.06
776.063	673.7
776.457	674.84
776.851	664.45
777.245	662.78
777.638	667.42
778.032	680.49
778.425	677.89
778.819	686.41
779.212	684.5
779.606	682.22
779.999	682.13
780.392	683.4
780.786	691.57
781.179	694.06
781.572	700.05
781.965	702.36
782.358	696.89
782.751	701.29
783.143	692.7
783.536	700.2
783.929	702.99
784.322	717.83
784.714	719.87
785.107	719.86
785.499	730.59
785.891	729.83
786.284	725.02
786.676	739.87
787.068	740.89
787.46	746.39
787.852	746.72
788.245	755.82
788.636	757.91
789.028	767.66
789.42	775.06
789.812	775.23
790.204	784.27
790.595	801.1
790.987	778.59
791.378	781.6
791.77	797.1
792.161	812.58
792.553	819.8
792.944	807.9
793.335	795.93
793.726	804
794.117	815.18
794.508	830.96
794.899	823.42
795.29	839.26
795.681	842.77
796.072	826.08
796.463	829.11
796.853	835.25
797.244	855.04
797.634	862.41
798.025	859.34
798.415	857.03
798.806	871.96
799.196	883.25
799.586	895.02
799.976	893.82
800.366	919.48
800.756	919.17
801.146	910.16
801.536	912.28
801.926	918.26
802.316	922.41
802.706	934.48
803.095	916.95
803.485	929.04
803.874	927.05
804.264	956.25
804.653	956.28
805.043	980.35
805.432	994.75
805.821	997.82
806.21	1001.29
806.599	1018.01
806.988	1021.85
807.377	1030.45
807.766	1043.23
808.155	1078.62
808.544	1043.24
808.933	1044.44
809.321	1041.77
809.71	1071.18
810.098	1087
810.487	1138.55
810.875	1190.58
811.264	1193.47
811.652	1244.26
812.04	1261.78
812.428	1280.45
812.816	1372.08
813.204	1419.91
813.592	1477.66
813.98	1519.58
814.368	1513.54
814.756	1571
815.144	1559.33
815.531	1616.17
815.919	1589.61
816.306	1628.75
816.694	1593.71
817.081	1598.8
817.469	1641.81
817.856	1640.09
818.243	1670.71
818.63	1707.44
819.017	1661.54
819.404	1674.66
819.791	1714.96
820.178	1779.35
820.565	1807.48
820.952	1926.43
821.339	1869.97
821.725	1886.07
822.112	1802.62
822.498	1799.38
822.885	1817.64
823.271	1802.12
823.657	1841.4
824.044	1844.95
824.43	1857.92
824.816	1862.23
825.202	1802.5
825.588	1919.01
825.974	1927.81
826.36	1987.15
826.746	1985.87
827.132	2021.76
827.517	2022.76
827.903	1933.89
828.289	1939.74
828.674	1848.13
829.06	1827.46
829.445	1870.99
829.83	1911.84
830.216	1961.73
830.601	2009.79
830.986	1972.95
831.371	1961.5
831.756	2031.72
832.141	1991.1
832.526	1990.46
832.911	2024.77
833.295	2010.51
833.68	2061.32
834.065	1991.6
834.449	1882.73
834.834	1871.27
835.218	1866.21
835.603	1905.67
835.987	1874.63
836.371	1963.55
836.755	1952.51
837.139	1996.34
837.524	2021.96
837.908	2001
838.291	2012.81
838.675	2016.31
839.059	2038.69
839.443	2034.69
839.827	2002.14
840.21	2053.79
840.594	2041.44
840.977	2062.42
841.361	2062.12
841.744	2099.66
842.127	2082.53
842.511	2100.12
842.894	2167.65
843.277	2207.56
843.66	2264.59
844.043	2277.58
844.426	2190.6
844.809	2142.07
845.191	2148.36
845.574	2097.95
845.957	2065.2
846.339	2059.24
846.722	2001.69
847.104	2010.34
847.487	1987.68
847.869	1996.45
848.252	2030.05
848.634	2067.29
849.016	2099.87
849.398	2107.57
849.78	2200.03
850.162	2197.39
850.544	2239.15
850.926	2308.3
851.307	2298.76
851.689	2333.23
852.071	2375.24
852.452	2412.13
852.834	2407.03
853.215	2460.36
853.597	2479.69
853.978	2522.98
854.359	2572.55
854.741	2456.17
855.122	2443.11
855.503	2408.95
855.884	2423.55
856.265	2422.13
856.646	2426.34
857.026	2385.66
857.407	2376.29
857.788	2389.56
858.169	2411.86
858.549	2328.86
858.93	2403.43
859.31	2413.54
859.69	2444.05
860.071	2399.92
860.451	2377.9
860.831	2298.22
861.211	2422.99
861.591	2479.42
861.971	2478.73
862.351	2500.66
862.731	2533.69
863.111	2563.17
863.491	2604.77
863.87	2702.83
864.25	2738.27
864.629	2696.62
865.009	2751.98
865.388	2856.75
865.768	3058.83
866.147	3051.77
866.526	2887.71
866.905	2917.9
867.284	3072.69
867.663	2912.46
868.042	2798.43
868.421	2791.05
868.8	2826.11
869.179	2864.51
869.558	2690.96
869.936	2488.8
870.315	2527.61
870.693	2595.27
871.072	2797.54
871.45	2670.53
871.828	2708.19
872.207	2838.05
872.585	2792.64
872.963	2864.28
873.341	2769.47
873.719	2753.73
874.097	2718.31
874.475	2774.7
874.853	2830.58
875.23	2717.37
875.608	2834.24
875.986	3062.39
876.363	2935.77
876.741	3038.91
877.118	2987.44
877.495	3135.91
877.873	3179.21
878.25	3345.39
878.627	3206.02
879.004	3246.37
879.381	3230.91
879.758	3153.62
880.135	2938.98
880.512	3101.4
880.889	3010.17
881.265	2964.39
881.642	2928.14
882.019	2975.79
882.395	2929.76
882.772	3059.3
883.148	2932.21
883.524	2924.7
883.901	2902.36
884.277	2943.58
884.653	2917.61
885.029	3011.61
885.405	3345.05
885.781	3318.57
886.157	3179.3
886.532	3201.33
886.908	3184.32
887.284	3538.75
887.659	3657.4
888.035	3767.79
888.411	3863.49
888.786	3923.57
889.161	4053.78
889.537	3962.72
889.912	4089.69
890.287	4090.55
890.662	4195.83
891.037	4120.17
891.412	3839.32
891.787	3787.1
892.162	3662.25
892.536	3743.17
892.911	3603.81
893.286	3522.59
893.66	3384.96
894.035	3474.86
894.409	3773.57
894.784	3626.37
895.158	3680.9
895.532	3900.81
895.906	4017.61
896.281	4111.42
896.655	4060.18
897.029	4640.21
897.402	4829.94
897.776	5369.26
898.15	5353.27
898.524	5299.89
898.898	5371.64
899.271	6042.3
899.645	5239.67
900.018	5034.41
900.392	5215.14
900.765	5238.98
901.138	4845.51
901.511	4776.33
901.884	4408.75
902.258	4069.54
902.631	4223.71
903.003	4854.38
903.376	4365.28
903.749	4897.72
904.122	5233.23
904.495	5757.8
904.867	5834.93
905.24	5074.04
905.612	4721.34
905.985	4805.54
906.357	5025.57
906.729	4790.44
907.102	4098.03
907.474	3957.51
907.846	3994.16
908.218	3950.85
908.59	3500.77
908.962	3392.49
909.334	3659.16
909.705	3856.67
910.077	3742.84
910.449	3891.09
910.82	4007.16
911.192	4412.49
911.563	4578.8
911.935	4875.4
912.306	4867.26
912.677	5021.81
913.048	4985.41
913.419	5400.78
913.79	5415.07
914.161	5810.74
914.532	5571.32
914.903	5099.68
915.274	4850.89
915.645	4780.38
916.015	4205.08
916.386	4020.09
916.756	4285.45
917.127	4399.71
917.497	3931.32
917.868	4284.22
918.238	4077.8
918.608	4184.21
918.978	4292.97
919.348	4538.67
919.718	4708.72
920.088	4549.38
920.458	4745.32
920.828	4982.13
921.198	4754.03
921.567	5086.02
921.937	3953.35
922.306	3978.75
922.676	4289.55
923.045	3600.29
923.415	3433.72
923.784	3119.84
924.153	3227.28
924.522	3216.18
924.891	3023.85
925.26	3226.9
925.629	3144.02
925.998	3606.33
926.367	3537.62
926.736	3399.66
927.104	4012.39
927.473	4298.16
927.842	5201.38
928.21	5114.9
928.578	5371.27
928.947	5094.38
929.315	5145.53
929.683	6050.11
930.051	6086.42
930.42	7077.2
930.788	6034.74
931.156	6008.62
931.523	5655.24
931.891	5219.51
932.259	5037.47
932.627	5859.95
932.994	8295.74
933.362	6876.06
933.729	5974.21
934.097	5740.89
934.464	4863.15
934.831	5579.22
935.199	5471.9
935.566	5317.65
935.933	5476.11
936.3	6625.13
936.667	5155.29
937.034	4762.18
937.401	4706.03
937.767	4078.15
938.134	3613.49
938.501	5095.84
938.867	5483.49
939.234	9275.46
939.6	7847.72
939.967	8479.51
940.333	5705.19
940.699	4830.81
941.065	3743.07
941.431	4899.65
941.798	4773.45
942.163	6339.56
942.529	3933.46
942.895	3572.32
943.261	2333.03
943.627	3103.61
943.992	2722.06
944.358	2712.69
944.723	2758.02
945.089	2704.38
945.454	2496.75
945.82	2618.13
946.185	2485.3
946.55	2894.3
946.915	2599.86
947.28	3020.34
947.645	2626.46
948.01	2460.35
948.375	2578.21
948.74	3061.26
949.104	3547.97
949.469	5053.66
949.834	9016.56
950.198	8703.37
950.562	5257.49
950.927	4420.32
951.291	5366.48
951.655	4595.03
952.02	4240.15
952.384	3217.67
952.748	2836.65
953.112	2817.26
953.476	2463.91
953.839	2263.3
954.203	2249.88
954.567	2791.32
954.931	4339.13
955.294	3733.37
955.658	3770.13
956.021	6437.84
956.385	10829.79
956.748	15906.85
957.111	24246.32
957.474	27138
957.837	30514.28
958.2	22899.78
958.563	8250.31
958.926	5662.08
959.289	8568.84
959.652	9550.08
960.015	7187.44
960.377	10325.06
960.74	11754.38
961.102	20304.08
961.465	22083.06
961.827	12367.8
962.189	23707.17
962.552	16474.19
962.914	13128.23
963.276	8501.29
963.638	7062.36
964	6958.08
964.362	4742.11
964.724	4576.03
965.085	3271.59
965.447	2675.97
965.809	2935.4
966.17	2945.55
966.532	3179.49
966.893	2936.34
967.255	2688.34
967.616	3148.09
967.977	2531.83
968.338	2754.56
968.699	2296.45
969.061	2299.19
969.421	2326.96
969.782	2597.59
970.143	2204.03
970.504	2346.35
970.865	2678.83
971.225	2766.89
971.586	2715.64
971.946	3871.05
972.307	3369.09
972.667	4342.39
973.027	4491.51
973.388	5399.46
973.748	3732.06
974.108	4066.42
974.468	5333.06
974.828	4180.08
975.188	3174.25
975.548	2903.12
975.907	2455.02
976.267	2748.94
976.627	2347.85
976.986	2427.24
977.346	2321.08
977.705	2216.39
978.064	2017.7
978.424	1698.48
978.783	1708.24
979.142	1956.98
979.501	1900.06
979.86	1997.3
980.219	1909.39
980.578	2428.47
980.937	2694.74
981.296	2412.23
981.654	2490.33
982.013	3841.31
982.371	5002.13
982.73	4675.37
983.088	5268.22
983.447	5585.76
983.805	8066.38
984.163	16888.64
984.521	18633.8
984.879	27379.24
985.237	-44680.24
985.595	43301.85
985.953	10834.33
986.311	6186.17
986.669	3622.64
987.026	3127.51
987.384	4178.15
987.741	4271.17
988.099	3153.02
988.456	2538.79
988.814	2399.67
989.171	2082.49
989.528	2029.58
989.885	2127.63
990.242	1721.03
990.599	2107.67
990.956	1732.37
991.313	1221.61
991.67	1011.54
992.027	1125.17
992.383	1003.15
992.74	896.69
993.096	952.22
993.453	988.24
993.809	1012.91
994.165	1326.77
994.522	1305.18
994.878	1439.81
995.234	1815.1
995.59	1794.8
995.946	1588.85
996.302	1812.16
996.658	2060.08
997.013	2250.96
997.369	2717.66
997.725	3557.37
998.08	2350.76
998.436	3342.61
998.791	4577.99
999.147	4582.98
999.502	4937.5
999.857	3587.61
1000.212	5852.26
1000.567	8352.12
1000.922	4877.55
1001.277	3107.68
1001.632	2317.31
1001.987	2914.05
1002.342	2122.15
1002.696	1722.63
1003.051	1403.27
1003.406	1716.49
1003.76	1691.31
1004.114	1667.06
1004.469	1432.14
1004.823	1166.4
1005.177	1239.69
1005.531	986.11
1005.885	910.7
1006.239	1053.88
1006.593	1342.9
1006.947	1796.18
1007.301	1333.63
1007.655	1445.37
1008.008	1086.5
1008.362	1197.55
1008.715	1691.37
1009.069	1536.46
1009.422	2403.68
1009.776	4710.91
1010.129	3064.12
1010.482	2493.62
1010.835	2034.67
1011.188	4261.62
1011.541	4078.12
1011.894	-24739.09
1012.247	72685.27
1012.6	4912.63
1012.952	3136.57
1013.305	1501.44
1013.657	1100.75
1014.01	1037.01
1014.362	855.27
1014.715	813.47
1015.067	730.53
1015.419	709.46
1015.771	634.53
1016.123	588.06
1016.475	614.7
1016.827	657.87
1017.179	739.99
1017.531	721.73
1017.883	734.59
1018.234	764.53
1018.586	947.48
1018.938	1041.55
1019.289	1476.72
1019.64	1606.1
1019.992	1440.43
1020.343	1345.81
1020.694	1085.24
1021.045	934.53
1021.396	1081.42
1021.747	1202.83
1022.098	1328.48
1022.449	976.01
1022.8	876.36
1023.151	608.04
1023.501	581.03
1023.852	618.93
1024.202	652.04
1024.553	696.45
1024.903	732.57
1025.253	654.52
1025.604	601.79
1025.954	741.38
1026.304	882.28
1026.654	1034.79
1027.004	1471.78
1027.354	2289.59
1027.703	2274.51
1028.053	2830.5
1028.403	4218.32
1028.753	5578.86
1029.102	7098.82
1029.452	33558.2
1029.801	1475.24
1030.15	924.82
1030.499	712.02
897.758	2649.33
901.051	2603.44
904.343	2635.64
907.636	2636.8
910.928	2701.35
914.22	2609.63
917.511	2616.88
920.803	2678.7
924.094	2695.93
927.384	2677.43
930.675	2639.44
933.965	2592.39
937.255	2601.19
940.544	2568.3
943.834	2513.13
947.123	2455.83
950.411	2551.72
953.7	2524.55
956.988	2491.77
960.276	2432.61
963.563	2509.15
966.851	2503.61
970.138	2559.91
973.424	2555.36
976.711	2505.84
979.997	2628.62
983.283	2663.43
986.568	2569.16
989.853	2582.61
993.138	2609.22
996.423	2688.55
999.708	2627.18
1002.992	2688.86
1006.275	2532.89
1009.559	2570.71
1012.842	2682.75
1016.125	2614.57
1019.408	2593.39
1022.69	2678.12
1025.972	2693.75
1029.254	2668.48
1032.536	2602.73
1035.817	2628.01
1039.098	2572.19
1042.379	2704.6
1045.659	2703.44
1048.939	2638.93
1052.219	2657.38
1055.498	2668.36
1058.778	2652.12
1062.057	2635.87
1065.335	2653.67
1068.614	2669.69
1071.892	2650.95
1075.17	2725.31
1078.447	2713.86
1081.724	2706.05
1085.001	2738.02
1088.278	2710.05
1091.554	2719.07
1094.83	2714.4
1098.106	2740.04
1101.382	2783.83
1104.657	2783.28
1107.932	2779.25
1111.206	2742.62
1114.481	2699.91
1117.755	2702.11
1121.029	2681.91
1124.302	2735.54
1127.575	2688.56
1130.848	2675.49
1134.121	2639.57
1137.393	2588.4
1140.665	2654.92
1143.937	2628.75
1147.208	2589.53
1150.48	2625.54
1153.75	2613.72
1157.021	2643.41
1160.291	2611.18
1163.561	2653.21
1166.831	2647.11
1170.101	2674.52
1173.37	2650.91
1176.639	2594.72
1179.907	2653.07
1183.176	2659.17
1186.444	2667.74
1189.711	2693.33
1192.979	2703.93
1196.246	2665.01
1199.513	2680.12
1202.78	2677.43
1206.046	2687.64
1209.312	2711.62
1212.578	2736.77
1215.843	2690.69
1219.108	2665.44
1222.373	2689.72
1225.638	2655.72
1228.902	2641.08
1232.166	2608.89
1235.43	2592.91
1238.693	2616.8
1241.956	2614.39
1245.219	2656.15
1248.482	2647.58
1251.744	2643.02
1255.006	2787.85
1258.268	2741.9
1261.529	2686.04
1264.79	2690.16
1268.051	2790.01
1271.312	2807.76
1274.572	2765.72
1277.832	2753.9
1281.092	2741.3
1284.351	2715.22
1287.61	2691.71
1290.869	2610.69
1294.128	2587.05
1297.386	2677.5
1300.644	2666.45
1303.902	2678.8
1307.159	2540.63
1310.416	2597.56
1313.673	2622.75
1316.93	2611.55
1320.186	2655.75
1323.442	2699.1
1326.697	2687.53
1329.953	2682.28
1333.208	2702.86
1336.463	2687.14
1339.717	2627.05
1342.972	2764.52
1346.226	2740.32
1349.479	2677.48
1352.733	2650.08
1355.986	2674.73
1359.238	2652
1362.491	2658.87
1365.743	2661.19
1368.995	2657.08
1372.247	2673.12
1375.498	2698.4
1378.749	2711.41
1382	2674.93
1385.251	2728.58
1388.501	2687.64
1391.751	2674.05
1395	2653.71
1398.25	2683.4
1401.499	2694.65
1404.748	2625.94
1407.996	2617.72
1411.244	2605.7
1414.492	2590.23
1417.74	2566.52
1420.987	2575.68
1424.234	2639.46
1427.481	2617.97
1430.728	2670.93
1433.974	2649.86
1437.22	2662.99
1440.465	2664.04
1443.711	2629.62
1446.956	2664.34
1450.201	2647.1
1453.445	2693.81
1456.689	2672.65
1459.933	2682.63
1463.177	2712.38
1466.42	2686.36
1469.663	2665.48
1472.906	2661.03
1476.148	2727.2
1479.391	2697.55
1482.633	2661.88
1485.874	2671.81
1489.115	2655.56
1492.356	2659.69
1495.597	2632.04
1498.838	2631.24
1502.078	2599.71
1505.318	2549.01
1508.557	2587.34
1511.797	2567.25
1515.036	2622.66
1518.274	2612.79
1521.513	2586.88
1524.751	2605.41
1527.989	2612.44
1531.227	2626.15
1534.464	2621.7
1537.701	2636.86
1540.938	2653.7
1544.174	2605.24
1547.41	2602.23
1550.646	2637.24
1553.882	2671.33
1557.117	2719.34
1560.352	2732.53
1563.587	2691
1566.821	2651.29
1570.055	2682.66
1573.289	2652.95
1576.523	2724.46
1579.756	2730.29
1582.989	2744.8
1586.222	2704.7
1589.454	2742.9
1592.686	2713.42
1595.918	2736.38
1599.15	2724.33
1602.381	2796.88
1605.612	2751.14
1608.843	2844.39
1612.073	2761.65
1615.303	2744.47
1618.533	2736.93
1621.762	2741.16
1624.992	2725.54
1628.221	2711
1631.449	2699.06
1634.678	2752.68
1637.906	2706.19
1641.134	2744.44
1644.361	2700.88
1647.588	2689.12
1650.815	2707.71
1654.042	2685.28
1657.269	2715.69
1660.495	2670.23
1663.72	2696.66
1666.946	2660.75
1670.171	2607.52
1673.396	2584.57
1676.621	2572.56
1679.845	2591.37
1683.069	2611.09
1686.293	2651.86
1689.517	2625.93
1692.74	2557.74
1695.963	2587.28
1699.185	2597.84
1702.408	2576.81
1705.63	2616.11
1708.852	2626.41
1712.073	2602.28
1715.294	2589.95
1718.515	2651.5
1721.736	2599.85
1724.956	2596.29
1728.176	2622.84
1731.396	2644.23
1734.616	2633.16
1737.835	2659.81
1741.054	2641.22
1744.272	2636.04
1747.491	2666.82
1750.709	2720.59
1753.927	2628.41
1757.144	2675.57
1760.361	2716.24
1763.578	2707.76
1766.795	2651.42
1770.011	2662.15
1773.227	2700.47
1776.443	2735.49
1779.658	2779.52
1782.874	2727.64
1786.089	2705.75
1789.303	2709.37
1792.518	2712.32
1795.732	2701.35
1798.945	2712.62
1802.159	2761.18
1805.372	2667.14
1808.585	2655.12
1811.797	2655.19
1815.01	2706.47
1818.222	2707.55
1821.434	2693.73
1824.645	2748.14
1827.856	2739.1
1831.067	2773.7
1834.278	2730.84
1837.488	2718.71
1840.698	2864.61
1843.908	2791.4
1847.117	2758.11
1850.326	2646.18
1853.535	2749.43
1856.744	2766.99
1859.952	2686.79
1863.16	2689.86
1866.368	2716.7
1869.575	2823.05
1872.782	2711.48
1875.989	2656.3
1879.196	2743.74
1882.402	2740.95
1885.608	2784.29
1888.814	2690.76
1892.019	2590.51
1895.224	2646.98
1898.429	2627.32
1901.634	2605.89
1904.838	2587.54
1908.042	2641.17
1911.246	2647.11
1914.449	2578.05
1917.652	2575.11
1920.855	2557.59
1924.058	2605.21
1927.26	2641.69
1930.462	2671.41
1933.664	2698.76
1936.865	2640.42
1940.066	2646.45
1943.267	2592.59
1946.467	2607.16
1949.668	2636.7
1952.868	2704.09
1956.067	2681.23
1959.267	2614.23
1962.466	2642.05
1965.665	2623.36
1968.863	2619.65
1972.061	2631.04
1975.259	2630.65
1978.457	2708.36
1981.654	2668.69
1984.852	2665.75
1988.048	2601.13
1991.245	2604.55
1994.441	2691.19
1997.637	2673.49
2000.833	2655.17
2004.028	2691.81
2007.223	2747.95
2010.418	2726.76
2013.613	2686.89
2016.807	2657.52
2020.001	2666.01
2023.194	2707.06
2026.388	2682.18
2029.581	2627.7
2032.774	2678.56
2035.966	2682.79
2039.158	2616.45
2042.35	2641.02
2045.542	2565.61
2048.733	2665.67
2051.924	2686.2
2055.115	2712.65
2058.306	2657.11
2061.496	2716.36
2064.686	2777.28
2067.875	2690.68
2071.065	2705.97
2074.254	2733.32
2077.442	2685.83
2080.631	2776.43
2083.819	2670.07
2087.007	2654.62
2090.195	2624.94
2093.382	2656.89
2096.569	2637.31
2099.756	2591.87
2102.942	2619.12
2106.128	2627.23
2109.314	2616.32
2112.5	2580.22
2115.685	2554.19
2118.87	2564.32
2122.055	2628.92
2125.239	2596.06
2128.424	2572.09
2131.608	2671.65
2134.791	2652.47
2137.974	2708.71
2141.157	2691.18
2144.34	2645.07
2147.523	2659.74
2150.705	2674.67
2153.887	2655.82
2157.068	2606.09
2160.25	2605.84
2163.431	2643.45
2166.611	2589.89
2169.792	2607.26
2172.972	2500.38
2176.152	2578.96
2179.331	2615.25
2182.511	2598.22
2185.69	2627.12
2188.868	2621.79
2192.047	2675.75
2195.225	2668.96
2198.403	2619.93
2201.58	2611.24
2204.758	2606.66
2207.935	2691.05
2211.111	2582.46
2214.288	2565.4
2217.464	2605.46
2220.64	2574.7
2223.815	2629.56
2226.991	2551.21
2230.166	2571.8
2233.34	2603.09
2236.515	2629.78
2239.689	2702.77
2242.863	2646.94
2246.036	2701.4
2249.209	2702.05
2252.382	2735.09
2255.555	2724.74
2258.727	2662.52
2261.9	2703.39
2265.071	2693.19
2268.243	2692.66
2271.414	2628
2274.585	2590.37
2277.756	2657.83
2280.926	2618.34
2284.096	2654.25
2287.266	2563.81
2290.436	2620.33
2293.605	2647.38
2296.774	2680.99
2299.942	2702.05
2303.111	2721.19
2306.279	2766.41
2309.447	2754.22
2312.614	2731.38
2315.781	2744.86
2318.948	2721.75
2322.115	2758.65
2325.281	2658.77
2328.447	2680.81
2331.613	2652.19
2334.779	2627.31
2337.944	2629.12
2341.109	2630.48
2344.274	2613.63
2347.438	2575.76
2350.602	2602.3
2353.766	2615.91
2356.929	2603.54
2360.092	2645.3
2363.255	2597.57
2366.418	2533.58
2369.58	2646.06
2372.742	2435.34
2375.904	2447.72
2379.066	2424.09
2382.227	2462.4
2385.388	2424.48
2388.548	2351.57
2391.709	2405.47
2394.869	2389.12
2398.029	2484.09
2401.188	2494.24
2404.347	2428.52
2407.506	2571.09
2410.665	2600.54
2413.823	2605.46
2416.981	2562.89
2420.139	2593.24
2423.296	2645
2426.453	2617.98
2429.61	2638.72
2432.767	2575.86
2435.923	2619.15
2439.079	2578.11
2442.235	2625.8
2445.391	2552.83
2448.546	2583.16
2451.701	2629.26
2454.855	2605.41
2458.009	2654.89
2461.163	2654.62
2464.317	2616.89
2467.471	2648.31
2470.624	2685.04
2473.777	2657.61
2476.929	2671.46
2480.082	2695.72
2483.234	2660.18
2486.385	2616.95
2489.537	2608.56
2492.688	2569.42
2495.839	2589.94
2498.989	2602.03
2502.14	2587.82
2505.29	2569.67
2508.439	2597.83
2511.589	2519.87
2514.738	2531.69
2517.887	2561.83
2521.035	2627.46
2524.183	2609.66
2527.331	2590.48
2530.479	2564.33
2533.627	2572.43
