Data from N_3_DIV_WI_4N_Splice17_12-57-45-484.txt Node
Date: Sat Mar 14 12:57:45 EDT 2020
User: sa697716
Spectrometer: FLMS03696
Trigger mode: 0
Integration Time (sec): 3.180400E-1
Scans to average: 20
Electric dark correction enabled: true
Nonlinearity correction enabled: true
Boxcar width: 5
XAxis mode: Wavelengths
Number of Pixels in Spectrum: 2048
>>>>>Begin Spectral Data<<<<<
187.83	-286887.8
188.298	2176.98
188.766	1129
189.233	1008.9
189.701	1370
190.169	1945.58
190.636	730.97
191.104	657.67
191.571	98.87
192.039	-79.61
192.506	-90.25
192.974	406.11
193.441	-537.78
193.908	-165.29
194.375	-30.38
194.842	-46.87
195.31	62.12
195.777	144.74
196.244	317.43
196.711	212.64
197.177	250.61
197.644	325.04
198.111	540.05
198.578	734.67
199.045	579.46
199.511	898.46
199.978	992.52
200.445	856.91
200.911	918.51
201.378	963.87
201.844	955.99
202.31	1595.8
202.777	1639.88
203.243	908.96
203.709	846.67
204.176	1003.73
204.642	858.84
205.108	838
205.574	651.09
206.04	558.31
206.506	543.12
206.972	478.76
207.438	454.01
207.903	505.26
208.369	471.39
208.835	489.36
209.301	522.88
209.766	521.69
210.232	525.18
210.697	679.48
211.163	873.49
211.628	1300.87
212.094	1142.62
212.559	1536.44
213.024	994.92
213.49	1234.15
213.955	1226.28
214.42	1172.52
214.885	1109.31
215.35	1069.2
215.815	1101.82
216.28	1198
216.745	985.43
217.21	1118.57
217.675	1029.42
218.14	1213.12
218.604	1387.93
219.069	1647.71
219.534	1854.08
219.998	2233.22
220.463	2814.6
220.927	3534.36
221.392	3412.4
221.856	3544.96
222.32	4525.11
222.785	5698.95
223.249	7245.04
223.713	8233.98
224.177	8342.53
224.642	10749.75
225.106	13356.87
225.57	14721.86
226.034	11060.8
226.497	16973.23
226.961	15476.66
227.425	18164.06
227.889	20275.88
228.353	20427.83
228.816	42356.73
229.28	40749.74
229.744	34577.76
230.207	21153.87
230.671	20911.75
231.134	34763.87
231.597	40343.3
232.061	40535.4
232.524	39727.7
232.987	27483.74
233.45	24920.77
233.914	22457.16
234.377	23181.18
234.84	21321.66
235.303	25227.04
235.766	28304.18
236.229	29374.89
236.691	18543.97
237.154	20924.77
237.617	15819.93
238.08	16273.32
238.542	19088.17
239.005	13722.81
239.468	13660.12
239.93	12905.28
240.393	11784.71
240.855	10375.51
241.317	10664.45
241.78	13033.68
242.242	13525.76
242.704	14654.58
243.166	12831.82
243.629	11723.86
244.091	13569.55
244.553	14939.14
245.015	16163.79
245.477	20992.97
245.939	30916.32
246.4	32946.56
246.862	32183.53
247.324	30508.67
247.786	34320.96
248.247	45163.26
248.709	46833.97
249.17	35178.33
249.632	33325.76
250.093	38787.33
250.555	33667.86
251.016	20648.28
251.477	19700.15
251.939	21372.89
252.4	22524.51
252.861	26868.52
253.322	25090.9
253.783	29954.02
254.244	39002.36
254.705	30858.29
255.166	27537.73
255.627	27188.99
256.088	38500.23
256.549	40976.07
257.009	35330.8
257.47	42986.87
257.931	35152.94
258.391	26426.02
258.852	27294.7
259.312	28672.9
259.773	35495.51
260.233	30120.87
260.694	25479.86
261.154	28954.08
261.614	23296.3
262.074	20918.78
262.534	21805.26
262.994	20608.59
263.455	27540.8
263.915	23290.26
264.374	22026.26
264.834	24113.72
265.294	26760.06
265.754	27794.13
266.214	26381.07
266.673	24796.69
267.133	31340.92
267.593	31131.03
268.052	38168.66
268.512	33228.24
268.971	40150.41
269.431	44047.3
269.89	39484.89
270.349	59255.49
270.809	66140.57
271.268	59555.53
271.727	133629.97
272.186	86671.63
272.645	65074.58
273.104	46946.95
273.563	68052.7
274.022	53476.86
274.481	45557.32
274.94	35160.83
275.399	26181.37
275.857	30524.56
276.316	41257.99
276.775	36764.46
277.233	36228.32
277.692	33960.04
278.15	38493.79
278.609	39635.41
279.067	36757.94
279.525	34137.95
279.984	44071.82
280.442	52970.76
280.9	52229.4
281.358	34394.39
281.816	32036.5
282.274	31379.1
282.732	32406.17
283.19	32562.2
283.648	28095.69
284.106	29893.53
284.564	30428.47
285.021	28231.24
285.479	21030.43
285.937	19120.26
286.394	16790.94
286.852	17308.86
287.309	18203.68
287.767	17617.84
288.224	16785.89
288.682	18464.29
289.139	20351.86
289.596	18665.63
290.053	19479.01
290.511	24698.47
290.968	30067.48
291.425	40944.61
291.882	34210.3
292.339	29874.98
292.796	29727.14
293.252	28103.44
293.709	22386.57
294.166	20109.19
294.623	22281.93
295.079	21398.33
295.536	21523.36
295.992	19577.78
296.449	19391.89
296.905	20153.54
297.362	19376.84
297.818	20422.74
298.274	21223.66
298.731	21653.45
299.187	21431.59
299.643	23014.65
300.099	27880.5
300.555	30609.3
301.011	25597.96
301.467	24679.9
301.923	28893.09
302.379	28185.61
302.835	27682.69
303.291	27675.71
303.746	31514.3
304.202	39872.51
304.658	40083.42
305.113	26969.31
305.569	26422.6
306.024	28180.05
306.479	26829.6
306.935	22653.49
307.39	24774.37
307.845	22869.29
308.301	23043.34
308.756	22445.81
309.211	21608.83
309.666	22132.63
310.121	27450.52
310.576	27843.89
311.031	27629.28
311.486	31644.14
311.94	31613.29
312.395	42256.6
312.85	79422.5
313.305	389794.73
313.759	2018179.95
314.214	146217.31
314.668	115991.43
315.123	97545.68
315.577	35017.96
316.032	31213.22
316.486	39181.46
316.94	30969.67
317.394	21587.88
317.849	16803.55
318.303	15950.48
318.757	15076.03
319.211	16725.11
319.665	14677.36
320.119	14890.67
320.572	21401.42
321.026	19986.34
321.48	16644.52
321.934	18149.94
322.387	18197.92
322.841	19699.04
323.295	17689.41
323.748	20399.59
324.202	20669.87
324.655	24776.46
325.108	34632.52
325.562	24471.23
326.015	29101.54
326.468	22031.37
326.921	24697.1
327.374	23048.9
327.827	23993.96
328.28	27225.31
328.733	18251.79
329.186	16075.92
329.639	15345.99
330.092	12929.98
330.545	12326.27
330.997	12439.98
331.45	13597.38
331.903	15899.66
332.355	27364.59
332.808	26589.12
333.26	21913.97
333.713	23764.65
334.165	23899.71
334.617	31853.15
335.069	25720.85
335.522	46411.69
335.974	51412.29
336.426	46969.12
336.878	32572.32
337.33	16531.89
337.782	16146.15
338.234	20223.05
338.686	24199.67
339.137	28670.7
339.589	27068.24
340.041	21274.85
340.493	18321.2
340.944	18773.22
341.396	20227.82
341.847	17053.96
342.299	20126.64
342.75	24608.68
343.201	21570.41
343.653	24876.54
344.104	30657.56
344.555	24191.69
345.006	37642.25
345.457	28900.03
345.908	23017.52
346.359	21724.71
346.81	17719.14
347.261	18712.27
347.712	18432.22
348.163	19751.07
348.613	20004.34
349.064	18715.03
349.515	16363.31
349.965	16813.41
350.416	20256.1
350.866	22222.98
351.317	25087.26
351.767	41567.55
352.217	52591.63
352.668	43708.86
353.118	40107.04
353.568	38707.46
354.018	30600.35
354.468	32315.47
354.918	23216.29
355.368	20311.44
355.818	28679.77
356.268	82615.62
356.718	345024.82
357.168	85824.14
357.617	43070.07
358.067	47909.56
358.517	44878.03
358.966	52652.87
359.416	59075.72
359.865	63810.7
360.315	75995.42
360.764	35523.32
361.213	19924.62
361.663	18914.46
362.112	23352.69
362.561	37717.3
363.01	28479.42
363.459	23979.68
363.908	25910.64
364.357	21983.02
364.806	37175.73
365.255	25531.06
365.703	23381.26
366.152	23381.11
366.601	18966.44
367.05	15395.52
367.498	13962.02
367.947	14584.79
368.395	15175.37
368.844	13446.11
369.292	16241.66
369.74	11215.87
370.189	17217.71
370.637	20172.27
371.085	17392.13
371.533	21146.1
371.981	20371.1
372.429	19454.8
372.877	20237.3
373.325	16926.49
373.773	17243.59
374.221	15341.11
374.669	18994.97
375.116	16400.16
375.564	16548.9
376.012	18504.9
376.459	15259.86
376.907	18223.39
377.354	22012.75
377.801	20505.72
378.249	23541.12
378.696	30092.45
379.143	36387.98
379.591	38795.15
380.038	65490.68
380.485	47266.6
380.932	50949.49
381.379	46570.05
381.826	34223.16
382.273	24306.47
382.72	21268.36
383.166	20721.82
383.613	13418.28
384.06	12082.09
384.506	13965.53
384.953	10265.24
385.4	10312.91
385.846	9029.41
386.292	8786.72
386.739	8581.91
387.185	8476.45
387.631	8452.48
388.078	8187.45
388.524	8748.16
388.97	8054.46
389.416	6707.01
389.862	7104.46
390.308	6712.74
390.754	6812.13
391.2	7370.48
391.645	7528.57
392.091	7177.98
392.537	6909.5
392.983	6900.3
393.428	6770.76
393.874	7243.28
394.319	7246.75
394.765	6859.09
395.21	7053.79
395.655	6596.87
396.101	6172.57
396.546	5566.61
396.991	5604.37
397.436	5208.26
397.881	5020.39
398.326	4744.7
398.771	4484.19
399.216	3915.82
399.661	3518.02
400.106	3496.27
400.551	3572.41
400.995	3204.87
401.44	3167.69
401.885	2976.59
402.329	3008.59
402.774	2888.39
403.218	2793.8
403.663	2688.18
404.107	2760.34
404.551	2782.23
404.995	2549.6
405.44	2456.04
405.884	2488.45
406.328	2404.08
406.772	2395.64
407.216	2177.23
407.66	2100.68
408.104	1991.93
408.547	1866.09
408.991	1805.67
409.435	1736.97
409.879	1713.72
410.322	1692.78
410.766	1632.14
411.209	1550.12
411.653	1486.65
412.096	1455.24
412.54	1453.26
412.983	1440.87
413.426	1443.03
413.869	1439.6
414.312	1410.33
414.756	1349.71
415.199	1280.99
415.642	1242.85
416.085	1245.11
416.527	1233.11
416.97	1251.23
417.413	1188.93
417.856	1179.59
418.298	1165.62
418.741	1158.62
419.184	1156.4
419.626	1211.04
420.069	1212.65
420.511	1218.68
420.953	1193.13
421.396	1184.59
421.838	1154.08
422.28	1177.64
422.722	1182.2
423.164	1198.35
423.606	1176.99
424.048	1173.1
424.49	1112.04
424.932	1105.35
425.374	1088.29
425.816	1105.21
426.258	1125.17
426.699	1138.15
427.141	1123.01
427.582	1136.37
428.024	1130.62
428.465	1119.76
428.907	1089.52
429.348	1071.3
429.789	1070.08
430.231	1047.26
430.672	1058.72
431.113	1029.1
431.554	1008.84
431.995	977.6
432.436	940.93
432.877	916.53
433.318	899.87
433.759	891.1
434.2	891.4
434.64	877.38
435.081	876.16
435.522	826.79
435.962	794.49
436.403	776.59
436.843	784.93
437.284	766.82
437.724	744
438.164	742.99
438.604	726.08
439.045	695.93
439.485	668.46
439.925	650.75
440.365	633.01
440.805	623.41
441.245	613.66
441.685	589.47
442.125	583.37
442.564	586.08
443.004	571.45
443.444	569.47
443.883	569.54
444.323	562.32
444.762	562.07
445.202	567.55
445.641	576.95
446.081	572.91
446.52	577.07
446.959	571.18
447.398	555.98
447.837	547.55
448.276	536.21
448.716	539.77
449.154	541.62
449.593	529.3
450.032	527.2
450.471	515.09
450.91	512.45
451.349	511.27
451.787	507.29
452.226	513.29
452.664	514.36
453.103	515.81
453.541	515.06
453.98	517.47
454.418	520.51
454.856	513.69
455.295	513.27
455.733	517.22
456.171	519.56
456.609	519.96
457.047	520.62
457.485	527.6
457.923	528.56
458.361	521.42
458.798	521.31
459.236	520.12
459.674	522.7
460.111	524.48
460.549	520.79
460.987	518.55
461.424	516.3
461.862	513.51
462.299	504.97
462.736	503.62
463.173	502.94
463.611	498.82
464.048	497.33
464.485	500.54
464.922	496.31
465.359	491.08
465.796	488.36
466.233	484.89
466.67	480.81
467.106	480.24
467.543	474.91
467.98	470.18
468.416	456.46
468.853	452.65
469.29	438.8
469.726	433.78
470.162	423.38
470.599	413.68
471.035	409.48
471.471	398.84
471.907	395.47
472.344	393.18
472.78	394.41
473.216	399.17
473.652	394.73
474.088	394.25
474.523	393.93
474.959	398.17
475.395	396.29
475.831	394.33
476.266	397.59
476.702	397.24
477.138	394.02
477.573	392.61
478.008	391.66
478.444	394.7
478.879	400.07
479.314	402.01
479.75	401.4
480.185	402.35
480.62	406.49
481.055	407.94
481.49	411.75
481.925	417.39
482.36	425.94
482.795	437.52
483.229	447.87
483.664	455.79
484.099	457.67
484.534	466.15
484.968	471.84
485.403	473.49
485.837	473.51
486.271	471.47
486.706	471.62
487.14	466.34
487.574	459.31
488.009	455.38
488.443	451.21
488.877	455.89
489.311	456.98
489.745	462.14
490.179	465.95
490.613	474.9
491.046	478.12
491.48	480.98
491.914	481.49
492.348	484.32
492.781	487.51
493.215	488.51
493.648	488.71
494.082	491.04
494.515	490.34
494.948	495.34
495.382	497.43
495.815	501.45
496.248	505.66
496.681	512.93
497.114	520.31
497.547	525.16
497.98	533.58
498.413	537.01
498.846	543.13
499.279	548.07
499.711	549.24
500.144	549.45
500.577	555.44
501.009	560.99
501.442	567.3
501.874	566.53
502.306	566.8
502.739	571.6
503.171	580.04
503.603	580.53
504.036	584.61
504.468	586.57
504.9	591.61
505.332	593.28
505.764	594.03
506.196	595.41
506.627	602.47
507.059	609.06
507.491	610
507.923	605.47
508.354	612.2
508.786	616.35
509.217	625.65
509.649	632.91
510.08	641.58
510.512	649.75
510.943	655.57
511.374	658.73
511.805	666.8
512.237	674.96
512.668	690.91
513.099	702.71
513.53	714.36
513.961	721.59
514.391	735.56
514.822	751.32
515.253	766.68
515.684	777.02
516.114	789.77
516.545	797.78
516.975	808.53
517.406	813.74
517.836	810.55
518.267	810.18
518.697	816.66
519.127	814.96
519.558	814.05
519.988	811.69
520.418	811.95
520.848	816.95
521.278	817.26
521.708	843.21
522.138	846.62
522.567	859.21
522.997	868.53
523.427	872.3
523.857	877.42
524.286	878.62
524.716	883.38
525.145	891.23
525.575	894.91
526.004	900.26
526.433	873.01
526.863	869.9
527.292	863.59
527.721	865.67
528.15	866.61
528.579	864.79
529.008	868.72
529.437	877.43
529.866	881.94
530.295	888.06
530.724	892.19
531.152	903.34
531.581	909.83
532.01	916.12
532.438	918.35
532.867	923.93
533.295	932.43
533.723	933.71
534.152	931.26
534.58	930.93
535.008	921.56
535.436	921.91
535.865	924.27
536.293	929.74
536.721	936.89
537.149	947.11
537.576	948.42
538.004	953.58
538.432	957.56
538.86	957.23
539.287	959.25
539.715	966.01
540.143	966.23
540.57	964.35
540.998	962.22
541.425	951.61
541.852	941.4
542.28	939.18
542.707	930.14
543.134	922.7
543.561	920.32
543.988	916.08
544.415	914.03
544.842	910.8
545.269	907.67
545.696	908.3
546.123	913.54
546.549	908.26
546.976	901.88
547.403	902.1
547.829	902.25
548.256	902.52
548.682	901.83
549.108	900.23
549.535	900.15
549.961	900.99
550.387	894.78
550.813	892.96
551.24	896.27
551.666	896.77
552.092	892.46
552.518	889.88
552.943	887.84
553.369	891.57
553.795	893.81
554.221	894.52
554.646	893.14
555.072	898.82
555.498	901.11
555.923	906.19
556.349	914.77
556.774	919.39
557.199	920.3
557.625	922.85
558.05	920.12
558.475	926.67
558.9	928.19
559.325	926.41
559.75	925.41
560.175	923.14
560.6	920.98
561.025	920.79
561.449	922.83
561.874	926.55
562.299	932.08
562.723	937.66
563.148	934.25
563.572	936.47
563.997	942.25
564.421	944.99
564.846	947.29
565.27	950.74
565.694	951.07
566.118	958.59
566.542	966.5
566.966	964.62
567.39	963.92
567.814	961.2
568.238	964.37
568.662	969.6
569.086	973.74
569.509	978.42
569.933	973.69
570.357	972.56
570.78	962.97
571.204	958.06
571.627	954.91
572.05	956.12
572.474	958.14
572.897	953.26
573.32	951.01
573.743	948.24
574.166	942.02
574.589	943.68
575.012	941.75
575.435	943.77
575.858	940.73
576.281	936.28
576.704	929.92
577.126	923.7
577.549	919.75
577.972	915.86
578.394	911.51
578.817	910.21
579.239	901.03
579.661	895.28
580.084	889.05
580.506	883.18
580.928	882.45
581.35	878.16
581.772	877.48
582.194	871.35
582.616	865.28
583.038	858.17
583.46	852.16
583.882	851.94
584.303	855.08
584.725	853.56
585.147	858.13
585.568	865.02
585.99	872.16
586.411	877.43
586.833	886.93
587.254	888.59
587.675	897.74
588.096	906.6
588.518	904.57
588.939	896.19
589.36	894.5
589.781	886.34
590.202	873.39
590.623	869.79
591.043	867.67
591.464	861.43
591.885	861.23
592.305	858.65
592.726	850.88
593.147	852.44
593.567	850.72
593.987	847.82
594.408	844.79
594.828	841.38
595.248	839.58
595.669	831.01
596.089	827.48
596.509	823.63
596.929	816.51
597.349	818.46
597.769	813.18
598.189	809.3
598.608	810.51
599.028	813.16
599.448	813.97
599.867	805.67
600.287	804.38
600.706	803.57
601.126	799.5
601.545	799.92
601.965	799.46
602.384	797.19
602.803	800.66
603.222	799.16
603.641	795.11
604.061	794.99
604.48	793.71
604.898	798.36
605.317	800.44
605.736	802.24
606.155	801.84
606.574	797.4
606.992	802.01
607.411	800.41
607.829	801.52
608.248	801.57
608.666	800.6
609.085	801.98
609.503	798.27
609.921	797.27
610.339	800.76
610.758	800.75
611.176	799.26
611.594	794.81
612.012	793.48
612.43	791.78
612.847	796.15
613.265	798.71
613.683	802.72
614.101	805.62
614.518	803.14
614.936	797.51
615.353	791.12
615.771	790.53
616.188	791.94
616.606	790.94
617.023	788.11
617.44	781.2
617.857	776.57
618.274	772.88
618.691	769.73
619.108	764.76
619.525	760.94
619.942	765.26
620.359	767.15
620.776	765.21
621.192	763.92
621.609	763.49
622.026	768.75
622.442	774.49
622.859	776.59
623.275	772.28
623.691	776.85
624.108	785.01
624.524	794.36
624.94	795.01
625.356	801.51
625.772	809.24
626.188	815.62
626.604	815.66
627.02	812.37
627.436	811.44
627.852	816.73
628.268	824.8
628.683	819.49
629.099	813.57
629.514	810.29
629.93	811.76
630.345	814.96
630.761	813.05
631.176	816.13
631.591	813.58
632.007	810.47
632.422	809.13
632.837	801.63
633.252	800.78
633.667	796
634.082	792.1
634.497	785.26
634.911	775.13
635.326	772.69
635.741	762.77
636.155	756.8
636.57	758.98
636.984	759.58
637.399	762.99
637.813	763.43
638.228	763.24
638.642	766.25
639.056	760.88
639.47	761.44
639.884	757.7
640.298	755.88
640.712	756.7
641.126	749.26
641.54	745.55
641.954	743.03
642.368	737.14
642.781	736.11
643.195	726.54
643.609	729.1
644.022	726.64
644.436	725.15
644.849	718.09
645.262	711.83
645.676	714.45
646.089	712.53
646.502	705.03
646.915	702.44
647.328	691.75
647.741	691.75
648.154	684.48
648.567	684.06
648.98	678.17
649.393	679.08
649.805	678.06
650.218	674.07
650.631	664.58
651.043	660.77
651.456	658.3
651.868	658.97
652.28	671.17
652.693	680.29
653.105	684.38
653.517	690.59
653.929	692.59
654.341	697.23
654.753	690.42
655.165	695.12
655.577	694.04
655.989	691.68
656.401	686.99
656.813	665.27
657.224	653.71
657.636	635.7
658.047	625.41
658.459	614.02
658.87	608.96
659.282	601.98
659.693	589.55
660.104	580.33
660.515	571.51
660.926	572.64
661.338	570.33
661.749	566.43
662.159	561.89
662.57	559.46
662.981	556.52
663.392	552.29
663.803	555.22
664.213	554.43
664.624	552.37
665.035	555.29
665.445	543.25
665.855	538.72
666.266	532.8
666.676	530.52
667.086	524.73
667.497	524.11
667.907	519.19
668.317	512.65
668.727	510.41
669.137	510.11
669.547	507.23
669.956	509.47
670.366	510.61
670.776	511.72
671.186	513.27
671.595	514.26
672.005	515.22
672.414	514.23
672.824	512.89
673.233	513.27
673.642	514.13
674.052	516.54
674.461	516.54
674.87	517.9
675.279	515.88
675.688	516.57
676.097	516.88
676.506	514.04
676.915	521.38
677.323	521.26
677.732	519.72
678.141	517.95
678.549	510.03
678.958	508.44
679.366	506.59
679.775	508.71
680.183	515.39
680.592	519.12
681	522.78
681.408	518.91
681.816	524.03
682.224	529.21
682.632	536.85
683.04	556.49
683.448	573.47
683.856	594.82
684.264	617.34
684.671	636.47
685.079	660.58
685.487	687.59
685.894	724.96
686.302	755.06
686.709	779.79
687.116	808.04
687.524	829.42
687.931	845.79
688.338	857.53
688.745	866.4
689.152	876.65
689.559	893.74
689.966	909.97
690.373	912.88
690.78	925.78
691.187	949.91
691.593	965.1
692	974.85
692.407	997.79
692.813	1030.04
693.22	1050.3
693.626	1071.91
694.032	1086.23
694.439	1113.36
694.845	1131.74
695.251	1158.24
695.657	1180.25
696.063	1217.05
696.469	1240.35
696.875	1260.63
697.281	1263.31
697.687	1274.3
698.093	1280.28
698.498	1304.83
698.904	1319.37
699.31	1350.64
699.715	1370.58
700.12	1403.34
700.526	1401.52
700.931	1423.99
701.337	1438.3
701.742	1444.41
702.147	1472.32
702.552	1477.13
702.957	1493.95
703.362	1493.83
703.767	1495.08
704.172	1501.6
704.577	1470.17
704.981	1481.32
705.386	1479.75
705.791	1468.51
706.195	1492.14
706.6	1488.26
707.004	1514.03
707.408	1494.13
707.813	1499.88
708.217	1489.63
708.621	1484.49
709.025	1520.24
709.43	1516.28
709.834	1537.37
710.237	1559.68
710.641	1547.91
711.045	1553.12
711.449	1546.16
711.853	1557.06
712.256	1568.13
712.66	1578.56
713.064	1604.97
713.467	1617.34
713.87	1656.06
714.274	1669.63
714.677	1707.85
715.08	1766.08
715.484	1826
715.887	1902.61
716.29	1968.34
716.693	2045.2
717.096	2133.03
717.499	2175.94
717.901	2179.5
718.304	2184.75
718.707	2186.56
719.109	2142.15
719.512	2125.09
719.915	2070.9
720.317	2045.27
720.719	2058.59
721.122	2042.05
721.524	2019.74
721.926	2005.41
722.328	2039.63
722.731	2032.46
723.133	2040.35
723.535	2110.53
723.937	2115.86
724.338	2128.77
724.74	2141.02
725.142	2163.15
725.544	2163.26
725.945	2181.07
726.347	2171.13
726.748	2165.45
727.15	2167.79
727.551	2154.08
727.952	2140.73
728.354	2127.47
728.755	2127.64
729.156	2108.46
729.557	2053.94
729.958	2003.4
730.359	1969.72
730.76	1961.34
731.161	1938.38
731.562	1926.09
731.962	1922.82
732.363	1897.76
732.763	1872.31
733.164	1881.03
733.564	1855.62
733.965	1820.99
734.365	1808.32
734.766	1817.38
735.166	1802.84
735.566	1781.74
735.966	1771.98
736.366	1769.25
736.766	1745.85
737.166	1756.05
737.566	1742.13
737.966	1729.6
738.365	1743.19
738.765	1739.41
739.165	1711.01
739.564	1700.73
739.964	1714.32
740.363	1697.15
740.763	1693.64
741.162	1690.33
741.561	1678.71
741.96	1661.15
742.36	1667.5
742.759	1668.15
743.158	1680.45
743.557	1685.4
743.955	1700.47
744.354	1683.04
744.753	1702.74
745.152	1689.09
745.55	1705.69
745.949	1701.95
746.348	1700.02
746.746	1705.82
747.144	1693.73
747.543	1685.28
747.941	1702.84
748.339	1675.25
748.737	1675.34
749.136	1672.67
749.534	1693.5
749.932	1685.73
750.33	1695.8
750.727	1717.63
751.125	1709.54
751.523	1701.43
751.921	1720.52
752.318	1707.78
752.716	1731.49
753.113	1735.5
753.511	1744.64
753.908	1747.06
754.305	1743.89
754.703	1764.07
755.1	1786.47
755.497	1807.91
755.894	1873.9
756.291	1933.41
756.688	2050.05
757.085	2203.19
757.482	2422.7
757.878	2663.1
758.275	2877.12
758.672	3166.08
759.068	3406.82
759.465	3744.6
759.861	4183.34
760.258	4699.72
760.654	4961.85
761.05	4925.3
761.447	4694.65
761.843	4371.05
762.239	4032.64
762.635	3882.17
763.031	3735.56
763.427	3528.71
763.822	3312.04
764.218	3099.39
764.614	2820.38
765.01	2634.06
765.405	2511.2
765.801	2421.56
766.196	2302.07
766.592	2236.1
766.987	2126.25
767.382	2053.21
767.778	2021.09
768.173	1977.13
768.568	1950.47
768.963	1905
769.358	1911.93
769.753	1897.17
770.148	1869.74
770.542	1870.48
770.937	1860.39
771.332	1894.68
771.726	1901.78
772.121	1884.29
772.515	1902.98
772.91	1898.52
773.304	1922.7
773.699	1899.23
774.093	1918.02
774.487	1935.47
774.881	1950.4
775.275	1948.98
775.669	1931.97
776.063	1947.76
776.457	1958.15
776.851	1930.72
777.245	1927.98
777.638	1942.7
778.032	1983.74
778.425	1971.64
778.819	1991.85
779.212	1978.83
779.606	1965.78
779.999	1973.46
780.392	1967.58
780.786	1992.71
781.179	2001.37
781.572	2016.81
781.965	2020.84
782.358	2000.16
782.751	2018.04
783.143	1997
783.536	2021.25
783.929	2034.52
784.322	2076.45
784.714	2085.79
785.107	2087.67
785.499	2112.71
785.891	2107.03
786.284	2097.96
786.676	2148.47
787.068	2142.08
787.46	2161.02
787.852	2166.79
788.245	2196.46
788.636	2203.86
789.028	2230.25
789.42	2244.74
789.812	2248.86
790.204	2280.38
790.595	2317.32
790.987	2246.76
791.378	2254.83
791.77	2298.2
792.161	2343.68
792.553	2366.43
792.944	2327.43
793.335	2301.68
793.726	2329.77
794.117	2363.9
794.508	2410.22
794.899	2398.13
795.29	2447.51
795.681	2468.14
796.072	2418.9
796.463	2374.52
796.853	2380.92
797.244	2436.22
797.634	2448.26
798.025	2445.42
798.415	2446.18
798.806	2482.37
799.196	2513.6
799.586	2535.89
799.976	2523.43
800.366	2604.24
800.756	2667.95
801.146	2649.61
801.536	2657.29
801.926	2679.69
802.316	2688.09
802.706	2712.99
803.095	2669.05
803.485	2703.74
803.874	2713.99
804.264	2803.23
804.653	2794.06
805.043	2849.77
805.432	2887.35
805.821	2894.64
806.21	2908.49
806.599	2948.45
806.988	2970.15
807.377	3005.02
807.766	3049.63
808.155	3151.71
808.544	3057.9
808.933	3065.25
809.321	3056.64
809.71	3159.5
810.098	3212.74
810.487	3370.07
810.875	3537.51
811.264	3537.21
811.652	3649.64
812.04	3701.58
812.428	3759.19
812.816	4024.72
813.204	4168.7
813.592	4355.53
813.98	4473.97
814.368	4437.57
814.756	4606.04
815.144	4580.16
815.531	4747.6
815.919	4709.26
816.306	4815.2
816.694	4704.57
817.081	4727.95
817.469	4850.83
817.856	4857.64
818.243	4950.7
818.63	5089.61
819.017	4941.51
819.404	4966.73
819.791	5095.64
820.178	5305.25
820.565	5396.44
820.952	5730.18
821.339	5550.66
821.725	5613.1
822.112	5343.52
822.498	5328.47
822.885	5370.08
823.271	5332.55
823.657	5473.7
824.044	5473.91
824.43	5499.31
824.816	5495.46
825.202	5339.31
825.588	5698.81
825.974	5707.33
826.36	5890.42
826.746	5901.58
827.132	6026.19
827.517	6024.85
827.903	5748.83
828.289	5769.98
828.674	5495.87
829.06	5450.5
829.445	5586.47
829.83	5710.13
830.216	5872.71
830.601	5999.91
830.986	5863.99
831.371	5813.5
831.756	6012.12
832.141	5869.21
832.526	5867.66
832.911	5968.89
833.295	5925.97
833.68	6086.09
834.065	5868.48
834.449	5550.32
834.834	5525.21
835.218	5517.07
835.603	5638.98
835.987	5556.94
836.371	5839.73
836.755	5800.52
837.139	5935.73
837.524	6019.87
837.908	5954.44
838.291	5977
838.675	5993.95
839.059	6062.04
839.443	6061.23
839.827	5977.85
840.21	6138.54
840.594	6087.91
840.977	6154.45
841.361	6151.81
841.744	6273.39
842.127	6222.41
842.511	6301.77
842.894	6509.8
843.277	6644.47
843.66	6825.33
844.043	6860.82
844.426	6588.41
844.809	6474.05
845.191	6483.95
845.574	6319.87
845.957	6202.98
846.339	6167.89
846.722	5985.13
847.104	6007.57
847.487	5941.38
847.869	5944.66
848.252	6036.41
848.634	6145.61
849.016	6234.62
849.398	6275.32
849.78	6570.64
850.162	6566.94
850.544	6700.87
850.926	6916.81
851.307	6881.79
851.689	6978.42
852.071	7131.88
852.452	7240.43
852.834	7241.93
853.215	7386.39
853.597	7441.05
853.978	7545.36
854.359	7703.14
854.741	7365.87
855.122	7328.08
855.503	7231.21
855.884	7280.69
856.265	7263.2
856.646	7297.43
857.026	7151.56
857.407	7126.11
857.788	7179.18
858.169	7270.41
858.549	6982.74
858.93	7200.97
859.31	7223.19
859.69	7297.23
860.071	7158.53
860.451	7085.47
860.831	6837.65
861.211	7246.82
861.591	7433.29
861.971	7426.67
862.351	7491.88
862.731	7616.34
863.111	7705.4
863.491	7822.98
863.87	8125.7
864.25	8245.71
864.629	8109.8
865.009	8276.16
865.388	8561.57
865.768	9169.96
866.147	9134.22
866.526	8635.15
866.905	8744.34
867.284	9225.91
867.663	8752.14
868.042	8390.45
868.421	8357.01
868.8	8487.42
869.179	8580.47
869.558	8080.44
869.936	7455.47
870.315	7583.72
870.693	7775.73
871.072	8382.83
871.45	7986.41
871.828	8088.63
872.207	8503.01
872.585	8377.22
872.963	8601.91
873.341	8313.84
873.719	8224.29
874.097	8122.11
874.475	8280.06
874.853	8460.88
875.23	8114.8
875.608	8459.75
875.986	9157.34
876.363	8756.91
876.741	9037.13
877.118	8825.54
877.495	9253.07
877.873	9403.03
878.25	9897.22
878.627	9488.51
879.004	9623.14
879.381	9572.87
879.758	9318.84
880.135	8673.29
880.512	9167.81
880.889	8911.01
881.265	8815.23
881.642	8736.18
882.019	8879.31
882.395	8700.51
882.772	9050.54
883.148	8652.99
883.524	8617.13
883.901	8569.54
884.277	8691.83
884.653	8638.08
885.029	8896.53
885.405	9859.89
885.781	9774.97
886.157	9374.1
886.532	9485.06
886.908	9474.89
887.284	10536.39
887.659	10887.35
888.035	11220.76
888.411	11514.77
888.786	11663.95
889.161	12061.15
889.537	11823.34
889.912	12210.53
890.287	12198.29
890.662	12511.08
891.037	12281.52
891.412	11451.02
891.787	11324.86
892.162	10929.65
892.536	11175.42
892.911	10760.95
893.286	10529.02
893.66	10110.84
894.035	10369.2
894.409	11277.36
894.784	10827.02
895.158	11008.37
895.532	11656.77
895.906	11971.2
896.281	12253.67
896.655	12068.05
897.029	13781.47
897.402	14348.91
897.776	15964.78
898.15	15901.18
898.524	15738.32
898.898	15944.54
899.271	17849.56
899.645	15467.45
900.018	14856.58
900.392	15399.86
900.765	15523.22
901.138	14364.5
901.511	14132.09
901.884	12978.42
902.258	11977.82
902.631	12388.41
903.003	14243.19
903.376	12848
903.749	14399.63
904.122	15417.21
904.495	16968.62
904.867	17185.2
905.24	14917.22
905.612	13907.63
905.985	14204
906.357	14855.31
906.729	14169.59
907.102	12118.16
907.474	11645.64
907.846	11730.8
908.218	11581.05
908.59	10246.11
908.962	9893.08
909.334	10657.27
909.705	11196.51
910.077	10869.25
910.449	11301.73
910.82	11619.25
911.192	12782.82
911.563	13301.21
911.935	14214.72
912.306	14217.63
912.677	14690.37
913.048	14564.72
913.419	15788.87
913.79	15863.09
914.161	17007.65
914.532	16273.02
914.903	14956.99
915.274	14216.65
915.645	14001.04
916.015	12335.89
916.386	11775.97
916.756	12527.99
917.127	12914.25
917.497	11559.5
917.868	12585.88
918.238	11966.28
918.608	12299.68
918.978	12548.33
919.348	13272.73
919.718	13715.67
920.088	13193.23
920.458	13710.89
920.828	14416.71
921.198	13666.5
921.567	14586.63
921.937	11306.63
922.306	11409.23
922.676	12302.4
923.045	10287.57
923.415	9782.89
923.784	8912.31
924.153	9186.35
924.522	9178.22
924.891	8613.72
925.26	9233.67
925.629	9006.04
925.998	10334.48
926.367	10097.95
926.736	9643.32
927.104	11471.04
927.473	12318.5
927.842	14854.74
928.21	14676.07
928.578	15385.07
928.947	14571.97
929.315	14649.84
929.683	17187.9
930.051	17358.52
930.42	20149.95
930.788	17199.01
931.156	17037.09
931.523	15990.66
931.891	14806.85
932.259	14247.75
932.627	16546.75
932.994	23429.85
933.362	19388.39
933.729	16854.93
934.097	16118.72
934.464	13638.25
934.831	15701.38
935.199	15479.56
935.566	14994.45
935.933	15249.11
936.3	18458.06
936.667	14336.61
937.034	12998.88
937.401	12835.6
937.767	11059.81
938.134	9825.47
938.501	13835.15
938.867	14786.35
939.234	25005.9
939.6	21318.36
939.967	23302.15
940.333	15595.83
940.699	13286.65
941.065	10556.5
941.431	13873.97
941.798	13441.28
942.163	17692.87
942.529	11060.18
942.895	10139.17
943.261	6555.64
943.627	8607.23
943.992	7545.63
944.358	7528.57
944.723	7573.87
945.089	7382
945.454	6817.2
945.82	7249.27
946.185	6943.63
946.55	8058.93
946.915	7239.88
947.28	8507.77
947.645	7502.94
948.01	6948.53
948.375	7273.73
948.74	8685.77
949.104	10129.34
949.469	14592.07
949.834	25807.65
950.198	24638.39
950.562	14789.56
950.927	12339.49
951.291	14838.93
951.655	12623.05
952.02	11796.73
952.384	8927.04
952.748	7822.8
953.112	7663.64
953.476	6666.31
953.839	6154.1
954.203	6094.94
954.567	7614.71
954.931	11951.27
955.294	10238.92
955.658	10277.9
956.021	17534.11
956.385	29689.67
956.748	43746.31
957.111	67675.68
957.474	75894.11
957.837	85340.7
958.2	64335.62
958.563	23100.94
958.926	15633.68
959.289	23672.68
959.652	26533.47
960.015	19867.41
960.377	28495.35
960.74	32511.7
961.102	56060.15
961.465	60353.05
961.827	32749.5
962.189	62930.22
962.552	43602.12
962.914	34988.96
963.276	22711.21
963.638	18739.1
964	18567.72
964.362	12586.6
964.724	12147.4
965.085	8659.4
965.447	7104.37
965.809	8016.21
966.17	8005.45
966.532	8673.02
966.893	7960.01
967.255	7262.26
967.616	8565.27
967.977	6882.61
968.338	7499.98
968.699	6179.26
969.061	6181.2
969.421	6220.14
969.782	6956.35
970.143	5904.59
970.504	6149.94
970.865	7013.03
971.225	7201.97
971.586	7055.54
971.946	10037.1
972.307	8705.25
972.667	11324.04
973.027	11647.25
973.388	14129.7
973.748	9662.34
974.108	10520.43
974.468	14145.73
974.828	10917.29
975.188	8357.11
975.548	7654.65
975.907	6431.38
976.267	7205.94
976.627	6085.11
976.986	6322.48
977.346	6009.48
977.705	5764.6
978.064	5235.18
978.424	4356.61
978.783	4471.09
979.142	5083.46
979.501	4883.03
979.86	5164.73
980.219	4972.92
980.578	6387.39
980.937	7122.66
981.296	6350.67
981.654	6538.9
982.013	10139.22
982.371	13190.42
982.73	12365.78
983.088	14011.27
983.447	14943.82
983.805	21387.69
984.163	44829.89
984.521	49659.86
984.879	72936.03
985.237	-118970.57
985.595	115323
985.953	28658.21
986.311	16483.35
986.669	9556.24
987.026	8261.75
987.384	11119.35
987.741	11423.72
988.099	8188.76
988.456	6569.22
988.814	6182.2
989.171	5368.86
989.528	5247.5
989.885	5546.44
990.242	4429.06
990.599	5509.64
990.956	4508.5
991.313	3146.84
991.67	2586.31
992.027	2781.93
992.383	2466.35
992.74	2167.53
993.096	2283.78
993.453	2369.79
993.809	2455.96
994.165	3253.02
994.522	3039.41
994.878	3356.77
995.234	4200.15
995.59	4151.12
995.946	3849.1
996.302	4410.87
996.658	5072.79
997.013	5579.99
997.369	6680.35
997.725	8571.53
998.08	5550.12
998.436	8356.78
998.791	11488.09
999.147	11497.16
999.502	12538.94
999.857	9101.42
1000.212	14775.4
1000.567	21051.68
1000.922	12123.2
1001.277	7690.56
1001.632	5723.55
1001.987	7358.48
1002.342	5327.23
1002.696	4247.53
1003.051	3418.15
1003.406	4157
1003.76	4147.64
1004.114	4094.18
1004.469	3453.41
1004.823	2865.12
1005.177	3057.77
1005.531	2417.36
1005.885	2166.38
1006.239	2434.38
1006.593	3085.13
1006.947	4135.26
1007.301	3096.01
1007.655	3382.96
1008.008	2488.93
1008.362	2809.15
1008.715	3992.68
1009.069	3637.26
1009.422	5544.43
1009.776	11092.36
1010.129	7336.48
1010.482	6055.64
1010.835	5053.69
1011.188	10467.02
1011.541	9787.05
1011.894	-59691.85
1012.247	174052.44
1012.6	11844.88
1012.952	7510.78
1013.305	3787.05
1013.657	2726.67
1014.01	2588.15
1014.362	2170.43
1014.715	1989.71
1015.067	1745.45
1015.419	1720.25
1015.771	1525.06
1016.123	1373.01
1016.475	1413.4
1016.827	1485.67
1017.179	1617.33
1017.531	1618.89
1017.883	1658.28
1018.234	1625.26
1018.586	2002.23
1018.938	2143.53
1019.289	2968.6
1019.64	3348.93
1019.992	3080.13
1020.343	2808.69
1020.694	2288.51
1021.045	2037.84
1021.396	2312.5
1021.747	2501.59
1022.098	2934.48
1022.449	2152.95
1022.8	1991.35
1023.151	1394.22
1023.501	1265.13
1023.852	1363.2
1024.202	1431.94
1024.553	1549
1024.903	1517.55
1025.253	1330.22
1025.604	1202.89
1025.954	1479.36
1026.304	1771.89
1026.654	2041.1
1027.004	2950.15
1027.354	4670.13
1027.703	4487.13
1028.053	5760.2
1028.403	8498.49
1028.753	11954.77
1029.102	15860.87
1029.452	79433.64
1029.801	3431.75
1030.15	2221.6
1030.499	1859.58
897.758	2647.15
901.051	2598.59
904.343	2633.63
907.636	2636.73
910.928	2700.58
914.22	2608.78
917.511	2616.84
920.803	2675.74
924.094	2693.28
927.384	2674.61
930.675	2636.02
933.965	2590.04
937.255	2602.47
940.544	2568.38
943.834	2511.85
947.123	2454.49
950.411	2552.59
953.7	2522.94
956.988	2495.1
960.276	2433.8
963.563	2508.56
966.851	2506.25
970.138	2561.48
973.424	2556.28
976.711	2505.32
979.997	2628.08
983.283	2664.55
986.568	2568.81
989.853	2582.95
993.138	2607.15
996.423	2691.21
999.708	2629.08
1002.992	2689.83
1006.275	2534.5
1009.559	2571.36
1012.842	2684.61
1016.125	2616.22
1019.408	2594.73
1022.69	2678.6
1025.972	2696.94
1029.254	2671.66
1032.536	2603.72
1035.817	2632.01
1039.098	2575.22
1042.379	2706.92
1045.659	2708.57
1048.939	2644.11
1052.219	2662.14
1055.498	2670.98
1058.778	2656.59
1062.057	2638.76
1065.335	2658.98
1068.614	2675.42
1071.892	2655.38
1075.17	2729.32
1078.447	2720.01
1081.724	2711.92
1085.001	2744.66
1088.278	2718.17
1091.554	2728.23
1094.83	2722.48
1098.106	2751.05
1101.382	2793.17
1104.657	2792.33
1107.932	2789.33
1111.206	2754.22
1114.481	2710.45
1117.755	2710.07
1121.029	2688.94
1124.302	2742.25
1127.575	2696.93
1130.848	2684.05
1134.121	2646.24
1137.393	2596.55
1140.665	2661.85
1143.937	2635.93
1147.208	2597.2
1150.48	2634.14
1153.75	2623.73
1157.021	2654.6
1160.291	2624.23
1163.561	2665.89
1166.831	2656.18
1170.101	2685.49
1173.37	2660.47
1176.639	2606.49
1179.907	2663.01
1183.176	2668.69
1186.444	2675.19
1189.711	2701.37
1192.979	2712.33
1196.246	2671.24
1199.513	2687.36
1202.78	2688.52
1206.046	2697.72
1209.312	2720.27
1212.578	2744.58
1215.843	2699.29
1219.108	2673.75
1222.373	2699.95
1225.638	2665.31
1228.902	2649.06
1232.166	2615.23
1235.43	2602.48
1238.693	2622.28
1241.956	2619.59
1245.219	2663.03
1248.482	2654.08
1251.744	2650.66
1255.006	2797.12
1258.268	2748.5
1261.529	2693.13
1264.79	2699.06
1268.051	2799.65
1271.312	2813.33
1274.572	2775.88
1277.832	2762.76
1281.092	2750.85
1284.351	2725.59
1287.61	2703.02
1290.869	2621.03
1294.128	2600.05
1297.386	2686.08
1300.644	2676.24
1303.902	2689.08
1307.159	2550.35
1310.416	2606.62
1313.673	2634
1316.93	2619.04
1320.186	2664.76
1323.442	2706.91
1326.697	2693.94
1329.953	2688.21
1333.208	2712.87
1336.463	2695.43
1339.717	2636.94
1342.972	2772.84
1346.226	2748.11
1349.479	2682.46
1352.733	2656.63
1355.986	2681.83
1359.238	2657.84
1362.491	2666.69
1365.743	2669.81
1368.995	2662.53
1372.247	2676.83
1375.498	2701.24
1378.749	2716.04
1382	2677.97
1385.251	2731.22
1388.501	2691.8
1391.751	2676.42
1395	2655.39
1398.25	2684.55
1401.499	2694.47
1404.748	2627.12
1407.996	2617.6
1411.244	2605.93
1414.492	2589.31
1417.74	2565.51
1420.987	2577.15
1424.234	2638.29
1427.481	2615.99
1430.728	2672.23
1433.974	2648.58
1437.22	2663.11
1440.465	2664.03
1443.711	2631.18
1446.956	2664.24
1450.201	2649.34
1453.445	2696.37
1456.689	2673.91
1459.933	2685.78
1463.177	2716.56
1466.42	2687.8
1469.663	2667.85
1472.906	2661.67
1476.148	2730.04
1479.391	2699.69
1482.633	2666.18
1485.874	2676.98
1489.115	2662.13
1492.356	2665.85
1495.597	2638.33
1498.838	2637.47
1502.078	2606.68
1505.318	2557.65
1508.557	2596.77
1511.797	2574.51
1515.036	2633.4
1518.274	2622.32
1521.513	2593.92
1524.751	2612.68
1527.989	2621.63
1531.227	2634.77
1534.464	2630.85
1537.701	2646.93
1540.938	2663.71
1544.174	2616.97
1547.41	2614.05
1550.646	2649.63
1553.882	2685
1557.117	2733.54
1560.352	2748.78
1563.587	2707.83
1566.821	2668.11
1570.055	2700.33
1573.289	2669.71
1576.523	2743.57
1579.756	2747.85
1582.989	2765.51
1586.222	2724.68
1589.454	2763.5
1592.686	2736.01
1595.918	2757.38
1599.15	2744.14
1602.381	2816.57
1605.612	2770.56
1608.843	2865.98
1612.073	2780.11
1615.303	2764.99
1618.533	2755.62
1621.762	2762.32
1624.992	2744.45
1628.221	2730.05
1631.449	2716.5
1634.678	2773.44
1637.906	2726.51
1641.134	2765.7
1644.361	2720.59
1647.588	2709.04
1650.815	2726.8
1654.042	2705.68
1657.269	2731.76
1660.495	2687.71
1663.72	2712.38
1666.946	2678.35
1670.171	2621.55
1673.396	2601.17
1676.621	2586.29
1679.845	2607.76
1683.069	2627.64
1686.293	2667.55
1689.517	2641.09
1692.74	2573.23
1695.963	2602.83
1699.185	2615.12
1702.408	2594.61
1705.63	2633.04
1708.852	2642.07
1712.073	2619.63
1715.294	2605.3
1718.515	2664.92
1721.736	2615.51
1724.956	2610.41
1728.176	2637.73
1731.396	2659.9
1734.616	2646.4
1737.835	2671.52
1741.054	2655.77
1744.272	2650.37
1747.491	2682.49
1750.709	2734.34
1753.927	2644.32
1757.144	2687.19
1760.361	2730.38
1763.578	2719.55
1766.795	2664.32
1770.011	2677.08
1773.227	2716.18
1776.443	2750.6
1779.658	2794.76
1782.874	2739.43
1786.089	2718.23
1789.303	2721.62
1792.518	2726.15
1795.732	2713.21
1798.945	2727.54
1802.159	2773.83
1805.372	2678.79
1808.585	2665.91
1811.797	2666.22
1815.01	2716.19
1818.222	2718.35
1821.434	2704.14
1824.645	2758.71
1827.856	2749.63
1831.067	2785.6
1834.278	2741.13
1837.488	2728.17
1840.698	2875.77
1843.908	2801.88
1847.117	2767.85
1850.326	2656.75
1853.535	2756.98
1856.744	2775.12
1859.952	2695.17
1863.16	2698.2
1866.368	2723.86
1869.575	2830.4
1872.782	2717.03
1875.989	2659.39
1879.196	2744.96
1882.402	2741.51
1885.608	2784.83
1888.814	2692.64
1892.019	2591.23
1895.224	2645.82
1898.429	2624.66
1901.634	2603.36
1904.838	2583.49
1908.042	2639.37
1911.246	2643.38
1914.449	2575.66
1917.652	2573.07
1920.855	2554.83
1924.058	2602.88
1927.26	2640.58
1930.462	2667.89
1933.664	2696.5
1936.865	2636.65
1940.066	2645.26
1943.267	2587.28
1946.467	2606.29
1949.668	2635.82
1952.868	2702.89
1956.067	2680.6
1959.267	2612.72
1962.466	2640.61
1965.665	2625.62
1968.863	2621.92
1972.061	2634.55
1975.259	2631.38
1978.457	2712.54
1981.654	2670.25
1984.852	2667.58
1988.048	2601.46
1991.245	2605.54
1994.441	2692.27
1997.637	2673.65
2000.833	2654.43
2004.028	2692.46
2007.223	2747.9
2010.418	2726.38
2013.613	2685.15
2016.807	2656.25
2020.001	2665.4
2023.194	2705.84
2026.388	2679.78
2029.581	2627.43
2032.774	2679.58
2035.966	2682.48
2039.158	2616.02
2042.35	2641.85
2045.542	2566.56
2048.733	2666.68
2051.924	2685.8
2055.115	2712.76
2058.306	2658.58
2061.496	2717.35
2064.686	2778.23
2067.875	2691.04
2071.065	2707.87
2074.254	2731.98
2077.442	2683.39
2080.631	2775.51
2083.819	2670.05
2087.007	2655.06
2090.195	2623.5
2093.382	2655.41
2096.569	2636.4
2099.756	2590.83
2102.942	2616.82
2106.128	2624.41
2109.314	2616.21
2112.5	2579.9
2115.685	2552.73
2118.87	2563.13
2122.055	2627.13
2125.239	2597.13
2128.424	2570.59
2131.608	2671.1
2134.791	2650.71
2137.974	2707.88
2141.157	2690.43
2144.34	2644.4
2147.523	2658.73
2150.705	2674.31
2153.887	2653.61
2157.068	2604.43
2160.25	2602.17
2163.431	2641.48
2166.611	2588.1
2169.792	2605.72
2172.972	2499.99
2176.152	2578.62
2179.331	2613.28
2182.511	2597.61
2185.69	2626.31
2188.868	2620.71
2192.047	2675.75
2195.225	2669.48
2198.403	2620.37
2201.58	2611.71
2204.758	2605.95
2207.935	2689.68
2211.111	2579.57
2214.288	2564.39
2217.464	2603.56
2220.64	2573.06
2223.815	2630.68
2226.991	2550.9
2230.166	2570.86
2233.34	2601.66
2236.515	2629.27
2239.689	2703.56
2242.863	2644.69
2246.036	2700.73
2249.209	2701.52
2252.382	2734.19
2255.555	2723.66
2258.727	2660.56
2261.9	2700.86
2265.071	2692.07
2268.243	2693.22
2271.414	2624.81
2274.585	2587.65
2277.756	2659.65
2280.926	2614.98
2284.096	2652.71
2287.266	2562.99
2290.436	2619.78
2293.605	2646.2
2296.774	2678.77
2299.942	2698.98
2303.111	2715.66
2306.279	2765.32
2309.447	2750.38
2312.614	2723.85
2315.781	2743.44
2318.948	2716.28
2322.115	2753.12
2325.281	2652.61
2328.447	2674.39
2331.613	2647.52
2334.779	2621.74
2337.944	2624.02
2341.109	2622.55
2344.274	2608.04
2347.438	2569.77
2350.602	2595.42
2353.766	2611.1
2356.929	2597.73
2360.092	2639.6
2363.255	2592.38
2366.418	2528.31
2369.58	2641.76
2372.742	2432.75
2375.904	2445.94
2379.066	2422.58
2382.227	2460.76
2385.388	2421.61
2388.548	2348.97
2391.709	2404.21
2394.869	2388.22
2398.029	2482.97
2401.188	2492.09
2404.347	2425.83
2407.506	2567.63
2410.665	2595.88
2413.823	2599.76
2416.981	2559.04
2420.139	2589.04
2423.296	2638.56
2426.453	2611.69
2429.61	2630.29
2432.767	2567.25
2435.923	2610.9
2439.079	2571.01
2442.235	2618.53
2445.391	2544.85
2448.546	2576.29
2451.701	2622.38
2454.855	2600.31
2458.009	2650.91
2461.163	2650.6
2464.317	2613.52
2467.471	2645.04
2470.624	2682.04
2473.777	2654.9
2476.929	2668.72
2480.082	2696.39
2483.234	2660.56
2486.385	2614.79
2489.537	2605.44
2492.688	2566.57
2495.839	2587.69
2498.989	2600.04
2502.14	2586.67
2505.29	2568.79
2508.439	2596.22
2511.589	2519.33
2514.738	2527.85
2517.887	2557.31
2521.035	2626.45
2524.183	2606.15
2527.331	2588.85
2530.479	2561.18
2533.627	2570.75
