Data from N_3_HIR_WI_4N_Splice17_13-11-42-474.txt Node
Date: Sat Mar 14 13:11:42 EDT 2020
User: sa697716
Spectrometer: FLMS03696
Trigger mode: 0
Integration Time (sec): 3.180400E-1
Scans to average: 20
Electric dark correction enabled: true
Nonlinearity correction enabled: true
Boxcar width: 5
XAxis mode: Wavelengths
Number of Pixels in Spectrum: 2048
>>>>>Begin Spectral Data<<<<<
187.83	-368278.6
188.298	2734.83
188.766	1527.78
189.233	1365.64
189.701	1916.19
190.169	2480.49
190.636	983.1
191.104	764.42
191.571	145.32
192.039	-59.36
192.506	-55.78
192.974	615.29
193.441	-791.86
193.908	-94.48
194.375	-22.12
194.842	91.57
195.31	150.41
195.777	217.55
196.244	412.8
196.711	484.92
197.177	563.17
197.644	804.96
198.111	1416
198.578	1931.99
199.045	1547.16
199.511	2519.04
199.978	2899.87
200.445	2466.48
200.911	2736.5
201.378	3038.3
201.844	2754.68
202.31	4717.57
202.777	4899.85
203.243	2711.66
203.709	2600.01
204.176	3104.96
204.642	2553.16
205.108	2400.58
205.574	1960.83
206.04	1781.3
206.506	1690.29
206.972	1597.67
207.438	1550.88
207.903	1752.45
208.369	1550.25
208.835	1548.06
209.301	1626.79
209.766	1663.6
210.232	1649.82
210.697	2039.58
211.163	2533.53
211.628	3814.53
212.094	3230.99
212.559	4010.13
213.024	2525.37
213.49	3096.64
213.955	3062.21
214.42	2991.48
214.885	2820.44
215.35	2714.25
215.815	2627.52
216.28	2804.33
216.745	2325.82
217.21	2551.51
217.675	2396.08
218.14	2755.71
218.604	3150.31
219.069	3663.79
219.534	3936.62
219.998	4688.36
220.463	5804.08
220.927	7280.66
221.392	6961.44
221.856	7134.9
222.32	9086.42
222.785	11266.23
223.249	14300.02
223.713	16013.52
224.177	16113.01
224.642	20815.34
225.106	25642.31
225.57	28064.29
226.034	20909
226.497	31853.64
226.961	28718
227.425	33492.82
227.889	37209.05
228.353	37175.17
228.816	76927.81
229.28	73545.43
229.744	61946.68
230.207	37654.81
230.671	37102.37
231.134	61415.29
231.597	70774.92
232.061	70840.59
232.524	69091.44
232.987	47618.23
233.45	42897.19
233.914	38464.81
234.377	39448.39
234.84	36083.19
235.303	42603.82
235.766	47542.88
236.229	49111.65
236.691	30935.52
237.154	34777.98
237.617	26141.54
238.08	26781.17
238.542	31337
239.005	22395.14
239.468	22170.75
239.93	20900.46
240.393	18968.38
240.855	16624.02
241.317	17024.79
241.78	20703.88
242.242	21378.26
242.704	23065.48
243.166	20060.02
243.629	18199.08
244.091	20953.07
244.553	23005.47
245.015	24694.75
245.477	31920.64
245.939	46816.37
246.4	49691.35
246.862	48319.37
247.324	45556
247.786	51002.35
248.247	66850.37
248.709	69023.03
249.17	51615.12
249.632	48624.31
250.093	56410.94
250.555	48753.11
251.016	29703.3
251.477	28149.59
251.939	30364.18
252.4	31831.32
252.861	37810.17
253.322	35155.82
253.783	41874.54
254.244	54330.72
254.705	42797.17
255.166	38054.87
255.627	37454.2
256.088	52802.17
256.549	56059.28
257.009	48278.93
257.47	58604.65
257.931	47760.27
258.391	35804.63
258.852	36845.04
259.312	38610.22
259.773	47694.27
260.233	40251.96
260.694	33928.88
261.154	38525.76
261.614	30928.4
262.074	27619.67
262.534	28683.3
262.994	27019.97
263.455	35984.13
263.915	30333.73
264.374	28565.7
264.834	31164.68
265.294	34540.88
265.754	35778.86
266.214	33823.85
266.673	31681.64
267.133	40014.31
267.593	39664.96
268.052	48533.06
268.512	42183.65
268.971	50827.14
269.431	55748.43
269.89	49911.95
270.349	74820.23
270.809	83361.43
271.268	74894.95
271.727	167765.79
272.186	108567.98
272.645	81368.73
273.104	58629.9
273.563	84884.56
274.022	66766.4
274.481	56716.11
274.94	43651.16
275.399	32434.75
275.857	37729.71
276.316	51003.87
276.775	45346.23
277.233	44624
277.692	41719.02
278.15	47131.75
278.609	48381.55
279.067	44699.02
279.525	41454.79
279.984	53516.8
280.442	64220.03
280.9	63236.16
281.358	41583.16
281.816	38746.97
282.274	37912.92
282.732	39189.64
283.19	39408.23
283.648	34023.82
284.106	36235.17
284.564	36822.2
285.021	34112.08
285.479	25391.49
285.937	23090.95
286.394	20241.86
286.852	20815.91
287.309	21846.96
287.767	21067.88
288.224	19999.7
288.682	21916.63
289.139	24022.71
289.596	21976.44
290.053	22847.82
290.511	28841.44
290.968	35001.77
291.425	47450.93
291.882	39504.2
292.339	34373.39
292.796	34135.72
293.252	32174.17
293.709	25545.6
294.166	22874.81
294.623	25276.06
295.079	24220.81
295.536	24303.23
295.992	22019.98
296.449	21760.39
296.905	22571.36
297.362	21625.34
297.818	22751.12
298.274	23592.61
298.731	24040.09
299.187	23779.89
299.643	25517.99
300.099	30849.26
300.555	33819.28
301.011	28244.46
301.467	27191.82
301.923	31878.75
302.379	31139.66
302.835	30533.91
303.291	30533.31
303.746	34713.38
304.202	43813.23
304.658	43971.67
305.113	29543.83
305.569	28907.13
306.024	30785.77
306.479	29290.96
306.935	24642.43
307.39	26864.4
307.845	24793.12
308.301	24919.71
308.756	24287.28
309.211	23402.78
309.666	23924.37
310.121	29681.57
310.576	30117.05
311.031	29873.02
311.486	34203.92
311.94	34148.08
312.395	45631.46
312.85	85597.23
313.305	419931.57
313.759	2168930.68
314.214	156923.54
314.668	124304.3
315.123	104409.04
315.577	37367.74
316.032	33227.66
316.486	41624.34
316.94	32801.39
317.394	22838.71
317.849	17742.3
318.303	16813.06
318.757	15851.78
319.211	17517.93
319.665	15339.98
320.119	15510.57
320.572	22259.4
321.026	20788.17
321.48	17291.67
321.934	18844.57
322.387	18862.8
322.841	20377.29
323.295	18291.37
323.748	21063.82
324.202	21333.66
324.655	25601.08
325.108	35756.99
325.562	25216.2
326.015	29916.23
326.468	22590.86
326.921	25227.95
327.374	23516.68
327.827	24434.89
328.28	27635.58
328.733	18505.87
329.186	16283.69
329.639	15491.65
330.092	13061.93
330.545	12448.67
330.997	12547.89
331.45	13696.25
331.903	16027.77
332.355	27585.26
332.808	26840.31
333.26	22150.45
333.713	24027.22
334.165	24190.32
334.617	32288
335.069	26014.95
335.522	46990.28
335.974	52024.09
336.426	47572.66
336.878	32975.52
337.33	16675.44
337.782	16261.2
338.234	20327.9
338.686	24299.85
339.137	28744.81
339.589	27053.04
340.041	21210.73
340.493	18219.2
340.944	18651.73
341.396	20087.81
341.847	16872.87
342.299	19920.28
342.75	24308.09
343.201	21242.88
343.653	24430.78
344.104	30013.42
344.555	23618.45
345.006	36777.63
345.457	28117.11
345.908	22305.14
346.359	20948.54
346.81	17064.19
347.261	17965.5
347.712	17669.64
348.163	18940.53
348.613	19142.1
349.064	17882.22
349.515	15652.24
349.965	16027.46
350.416	19301.98
350.866	21182.17
351.317	23970.78
351.767	39608.33
352.217	50048.26
352.668	41497.46
353.118	37971.8
353.568	36595.67
354.018	28877.75
354.468	30431.15
354.918	21818.34
355.368	19083.59
355.818	26898.51
356.268	77232.61
356.718	323304.88
357.168	80298.91
357.617	40229.63
358.067	44698.9
358.517	41847.88
358.966	49015.74
359.416	54938.71
359.865	59317.99
360.315	70547.24
360.764	32943.33
361.213	18435.29
361.663	17460.21
362.112	21536.42
362.561	34806.72
363.01	26242.88
363.459	22074.19
363.908	23873.05
364.357	20260.07
364.806	34218.28
365.255	23535.54
365.703	21553.1
366.152	21565.18
366.601	17467.45
367.05	14162.56
367.498	12849.79
367.947	13441.3
368.395	13951.34
368.844	12356.55
369.292	14867.65
369.74	10252.2
370.189	15693.99
370.637	18389.96
371.085	15845.04
371.533	19275.82
371.981	18587.54
372.429	17726.86
372.877	18416.68
373.325	15424.84
373.773	15707.53
374.221	13979.14
374.669	17328.06
375.116	14926.23
375.564	15022.59
376.012	16806.17
376.459	13841.09
376.907	16518.7
377.354	19966.51
377.801	18592.71
378.249	21322.7
378.696	27249.15
379.143	32963.5
379.591	35094.37
380.038	59434.69
380.485	42983.68
380.932	46426.14
381.379	42543.98
381.826	31274.54
382.273	22176.95
382.72	19395.85
383.166	18912.28
383.613	12266.19
384.06	11066.39
384.506	12840.92
384.953	9429.87
385.4	9478.51
385.846	8304.68
386.292	8083.95
386.739	7916.44
387.185	7820.47
387.631	7821.75
388.078	7601.79
388.524	8115.44
388.97	7497.44
389.416	6241.63
389.862	6628.83
390.308	6287.76
390.754	6373.16
391.2	6908.3
391.645	7062.53
392.091	6763.45
392.537	6538.05
392.983	6537.74
393.428	6428.49
393.874	6883.43
394.319	6900.61
394.765	6556.82
395.21	6726.39
395.655	6301.55
396.101	5898.76
396.546	5319.58
396.991	5372.72
397.436	4983.07
397.881	4808.23
398.326	4547.76
398.771	4294.84
399.216	3749.88
399.661	3365.41
400.106	3349.67
400.551	3426.05
400.995	3064.12
401.44	3027.54
401.885	2836.34
402.329	2859.26
402.774	2737.91
403.218	2644.55
403.663	2545.82
404.107	2612.58
404.551	2624.18
404.995	2399.47
405.44	2303.83
405.884	2337.33
406.328	2256.52
406.772	2242.84
407.216	2037.5
407.66	1964.14
408.104	1863.47
408.547	1736.43
408.991	1676.3
409.435	1610.63
409.879	1587.09
410.322	1563.51
410.766	1507.6
411.209	1432.81
411.653	1373.52
412.096	1343.8
412.54	1342.39
412.983	1330.74
413.426	1336.68
413.869	1332.58
414.312	1309.14
414.756	1259.44
415.199	1200.78
415.642	1164.57
416.085	1162.06
416.527	1153.17
416.97	1169.51
417.413	1109.2
417.856	1094.43
418.298	1084.11
418.741	1076.31
419.184	1070.74
419.626	1113.84
420.069	1112.8
420.511	1116.64
420.953	1095.26
421.396	1080.87
421.838	1051
422.28	1075.46
422.722	1081.65
423.164	1090.9
423.606	1072.28
424.048	1069.47
424.49	1014.86
424.932	1007.4
425.374	993.51
425.816	1008.8
426.258	1029.61
426.699	1042.31
427.141	1025.92
427.582	1039.95
428.024	1033.32
428.465	1025.46
428.907	998.24
429.348	984.46
429.789	986.99
430.231	965.89
430.672	979.57
431.113	955.23
431.554	940.17
431.995	914.35
432.436	882.42
432.877	862.85
433.318	851.02
433.759	847.14
434.2	847.68
434.64	836.45
435.081	836.21
435.522	790.31
435.962	761.5
436.403	747.07
436.843	756.86
437.284	738.62
437.724	718.83
438.164	717.58
438.604	701.28
439.045	675.34
439.485	647.2
439.925	634.76
440.365	618.79
440.805	609.68
441.245	601.04
441.685	579.86
442.125	575.22
442.564	579.55
443.004	568.02
443.444	567.72
443.883	568.96
444.323	564.38
444.762	564.92
445.202	574.28
445.641	587.96
446.081	584.06
446.52	590.5
446.959	586.52
447.398	573.25
447.837	565.92
448.276	554.87
448.716	561.05
449.154	566.69
449.593	555.79
450.032	552.39
450.471	539.9
450.91	539.73
451.349	538.16
451.787	535.81
452.226	543.18
452.664	543.34
453.103	544.39
453.541	544.34
453.98	544.14
454.418	546.95
454.856	539.29
455.295	539.18
455.733	544.61
456.171	547.71
456.609	547.15
457.047	546.48
457.485	554.71
457.923	557.13
458.361	548.36
458.798	549.93
459.236	548.46
459.674	551.09
460.111	552.7
460.549	545.8
460.987	542.54
461.424	540.62
461.862	537.47
462.299	529.29
462.736	527.98
463.173	528.99
463.611	524.67
464.048	521.49
464.485	526.12
464.922	521.93
465.359	519.04
465.796	515.93
466.233	513.31
466.67	510.39
467.106	508.36
467.543	502.52
467.98	496.11
468.416	481.53
468.853	478.84
469.29	464.14
469.726	459.06
470.162	447.31
470.599	439
471.035	434.72
471.471	423
471.907	419.59
472.344	417.35
472.78	418.46
473.216	424.27
473.652	419.89
474.088	419.58
474.523	418.71
474.959	423.41
475.395	419.21
475.831	418.46
476.266	421.01
476.702	420.88
477.138	416.95
477.573	415.55
478.008	413.55
478.444	415.84
478.879	419.97
479.314	421.67
479.75	421.92
480.185	424.03
480.62	426.15
481.055	428.31
481.49	431.02
481.925	437.42
482.36	446.32
482.795	458.66
483.229	469.7
483.664	478.37
484.099	480.19
484.534	486.7
484.968	491.86
485.403	493.1
485.837	492.36
486.271	492.31
486.706	492.38
487.14	486.9
487.574	479.36
488.009	475.39
488.443	471.94
488.877	477.56
489.311	479.88
489.745	485.51
490.179	490.9
490.613	501.37
491.046	505.07
491.48	509.09
491.914	509.83
492.348	514.34
492.781	518.15
493.215	520.22
493.648	521.76
494.082	526.49
494.515	527.89
494.948	535.04
495.382	539.51
495.815	544.53
496.248	550.51
496.681	561.09
497.114	570.93
497.547	580.18
497.98	592.36
498.413	598.46
498.846	607.16
499.279	615.86
499.711	621.67
500.144	624.65
500.577	635.84
501.009	646.58
501.442	657.49
501.874	662.36
502.306	667.51
502.739	677.22
503.171	692.45
503.603	698.76
504.036	708.94
504.468	715.79
504.9	729.11
505.332	737.58
505.764	744.69
506.196	753.17
506.627	767.37
507.059	781.32
507.491	790.6
507.923	791.95
508.354	807.49
508.786	820.1
509.217	838.96
509.649	854.29
510.08	873.94
510.512	891.59
510.943	908.24
511.374	921.19
511.805	941.04
512.237	961.34
512.668	993.2
513.099	1019.89
513.53	1046.58
513.961	1067.46
514.391	1097.79
514.822	1129.12
515.253	1163.42
515.684	1187.81
516.114	1216.97
516.545	1240.21
516.975	1266.32
517.406	1284.02
517.836	1288.96
518.267	1297.53
518.697	1316.84
519.127	1323.43
519.558	1332.62
519.988	1337.54
520.418	1349.69
520.848	1367.26
521.278	1376.68
521.708	1387.21
522.138	1400.68
522.567	1431.34
522.997	1455.99
523.427	1470.94
523.857	1488.75
524.286	1500.11
524.716	1516.17
525.145	1534.61
525.575	1546.77
526.004	1561.58
526.433	1564.28
526.863	1566.04
527.292	1558.04
527.721	1564.01
528.15	1570.89
528.579	1573.1
529.008	1584.18
529.437	1606.3
529.866	1620.35
530.295	1637.36
530.724	1649.43
531.152	1675.3
531.581	1689.99
532.01	1706.14
532.438	1715.04
532.867	1729.58
533.295	1746.75
533.723	1752.78
534.152	1750.15
534.58	1749.83
535.008	1735.27
535.436	1737.02
535.865	1744.75
536.293	1757.68
536.721	1773.7
537.149	1798.19
537.576	1799.9
538.004	1811.8
538.432	1818.76
538.86	1817.53
539.287	1824.11
539.715	1836.88
540.143	1840.1
540.57	1835.3
540.998	1831.28
541.425	1809.62
541.852	1789.64
542.28	1787.98
542.707	1772.47
543.134	1759.81
543.561	1755.73
543.988	1749.41
544.415	1749.64
544.842	1745.23
545.269	1739.77
545.696	1742.07
546.123	1754.13
546.549	1743.52
546.976	1732.28
547.403	1733.17
547.829	1734.43
548.256	1737.64
548.682	1734.68
549.108	1728.48
549.535	1728.44
549.961	1731.43
550.387	1719.04
550.813	1715.23
551.24	1722.54
551.666	1723.86
552.092	1714
552.518	1710.04
552.943	1705.06
553.369	1713.29
553.795	1717.94
554.221	1718.35
554.646	1715.78
555.072	1727.56
555.498	1731.5
555.923	1740.17
556.349	1754.75
556.774	1765.16
557.199	1766.53
557.625	1771.79
558.05	1764.93
558.475	1775.06
558.9	1775.55
559.325	1768.48
559.75	1761.78
560.175	1755.34
560.6	1749.7
561.025	1748.2
561.449	1747.76
561.874	1752.38
562.299	1757.94
562.723	1766.01
563.148	1756.46
563.572	1759.58
563.997	1767.68
564.421	1772.95
564.846	1773.67
565.27	1776.73
565.694	1773.85
566.118	1784.96
566.542	1791.2
566.966	1783.36
567.39	1778.18
567.814	1767.04
568.238	1766.5
568.662	1771.21
569.086	1772.88
569.509	1779.11
569.933	1763.01
570.357	1755.89
570.78	1734.78
571.204	1721.44
571.627	1710.16
572.05	1707.12
572.474	1705.67
572.897	1692.23
573.32	1683.72
573.743	1673.64
574.166	1656.71
574.589	1657.66
575.012	1648.92
575.435	1647.36
575.858	1638.15
576.281	1628.36
576.704	1613.68
577.126	1602.31
577.549	1592.45
577.972	1583.56
578.394	1573.61
578.817	1566.18
579.239	1548.01
579.661	1536.01
580.084	1521.17
580.506	1508.35
580.928	1503.69
581.35	1492.78
581.772	1487.85
582.194	1474.55
582.616	1461.55
583.038	1447.28
583.46	1437.18
583.882	1433.53
584.303	1436.8
584.725	1432.43
585.147	1435.78
585.568	1446.08
585.99	1456.76
586.411	1463.59
586.833	1476.65
587.254	1478.46
587.675	1491.63
588.096	1502.13
588.518	1497.53
588.939	1481.76
589.36	1479.83
589.781	1467.68
590.202	1440.08
590.623	1432.14
591.043	1429.55
591.464	1417.23
591.885	1413.47
592.305	1408.33
592.726	1395.76
593.147	1397.04
593.567	1392.01
593.987	1384.33
594.408	1380.39
594.828	1378.47
595.248	1372.35
595.669	1355.5
596.089	1348.26
596.509	1341.2
596.929	1328.14
597.349	1329.05
597.769	1318.6
598.189	1311.88
598.608	1313.41
599.028	1314.38
599.448	1313.91
599.867	1302.38
600.287	1297.56
600.706	1294.75
601.126	1285.84
601.545	1284.29
601.965	1281.83
602.384	1276.91
602.803	1279.95
603.222	1274.61
603.641	1268.74
604.061	1265
604.48	1260.25
604.898	1267.16
605.317	1270.72
605.736	1271.52
606.155	1269.24
606.574	1260.03
606.992	1264.75
607.411	1259.56
607.829	1250.77
608.248	1246.51
608.666	1244.04
609.085	1243.62
609.503	1235.05
609.921	1228.22
610.339	1229.91
610.758	1227.86
611.176	1223.87
611.594	1214.19
612.012	1209.49
612.43	1213.41
612.847	1218.82
613.265	1218.64
613.683	1220.93
614.101	1221.56
614.518	1217.67
614.936	1207.8
615.353	1193.72
615.771	1189.66
616.188	1188.92
616.606	1185.55
617.023	1177.59
617.44	1164.14
617.857	1157.88
618.274	1149.59
618.691	1143.86
619.108	1134.24
619.525	1127.5
619.942	1133.64
620.359	1135.26
620.776	1130.28
621.192	1126.56
621.609	1124.34
622.026	1129.64
622.442	1133.32
622.859	1135.3
623.275	1127.23
623.691	1132.27
624.108	1141.85
624.524	1152.64
624.94	1152.72
625.356	1160.61
625.772	1171.6
626.188	1181.99
626.604	1183.19
627.02	1179.94
627.436	1178.73
627.852	1185.41
628.268	1196.31
628.683	1188.04
629.099	1181.13
629.514	1175.69
629.93	1178.65
630.345	1182.08
630.761	1177.09
631.176	1179.12
631.591	1174.24
632.007	1168.69
632.422	1166.09
632.837	1154.28
633.252	1152.14
633.667	1141.9
634.082	1133.25
634.497	1122.04
634.911	1104.25
635.326	1099.55
635.741	1082.64
636.155	1072.2
636.57	1071.75
636.984	1069.24
637.399	1069.46
637.813	1067.28
638.228	1064.97
638.642	1066.38
639.056	1055.11
639.47	1053.06
639.884	1043.91
640.298	1037.1
640.712	1033.82
641.126	1020.75
641.54	1011.59
641.954	1004.68
642.368	991.53
642.781	983.1
643.195	965.7
643.609	963.71
644.022	955.28
644.436	948.86
644.849	935.71
645.262	921.86
645.676	920.98
646.089	914.34
646.502	900.22
646.915	894.59
647.328	877.63
647.741	874.23
648.154	862.35
648.567	858.9
648.98	847.59
649.393	846.7
649.805	843.13
650.218	835.01
650.631	820.91
651.043	814.32
651.456	808.12
651.868	807.68
652.28	820.4
652.693	829.41
653.105	833.32
653.517	838.74
653.929	837.44
654.341	840.52
654.753	830.07
655.165	833.64
655.577	829.94
655.989	824.95
656.401	816.38
656.813	787.02
657.224	768.37
657.636	743.4
658.047	728.49
658.459	712.11
658.87	702.85
659.282	691.02
659.693	673.75
660.104	660.05
660.515	646.45
660.926	642.85
661.338	638.53
661.749	631.74
662.159	623.73
662.57	617.96
662.981	611.82
663.392	604.31
663.803	605.72
664.213	601.99
664.624	597.29
665.035	598.32
665.445	585.83
665.855	578.73
666.266	572.19
666.676	568.81
667.086	560.48
667.497	559.19
667.907	553.06
668.317	543.76
668.727	540.49
669.137	539.14
669.547	535.68
669.956	536.84
670.366	536.9
670.776	537.23
671.186	538.42
671.595	541.17
672.005	543.03
672.414	543.28
672.824	542.96
673.233	544.76
673.642	547.32
674.052	549.05
674.461	551.54
674.87	555.02
675.279	553.2
675.688	555.27
676.097	556.89
676.506	555.21
676.915	565.78
677.323	568.47
677.732	567.71
678.141	567.41
678.549	561.86
678.958	561.36
679.366	561.89
679.775	567
680.183	576.93
680.592	582.34
681	588.97
681.408	585.33
681.816	594.29
682.224	603.11
682.632	615.05
683.04	639.87
683.448	662.71
683.856	689.93
684.264	721.22
684.671	749.71
685.079	783.92
685.487	821.56
685.894	875.62
686.302	919.72
686.709	961.05
687.116	1006.67
687.524	1046.1
687.931	1081.63
688.338	1112.89
688.745	1140.02
689.152	1171.76
689.559	1213.55
689.966	1255.89
690.373	1279.68
690.78	1319.19
691.187	1375.75
691.593	1420.33
692	1460.91
692.407	1517.98
692.813	1588.6
693.22	1645.02
693.626	1702.08
694.032	1749.41
694.439	1819.15
694.845	1871.93
695.251	1940.79
695.657	2003.15
696.063	2093.8
696.469	2161.54
696.875	2223.8
697.281	2257.44
697.687	2299.65
698.093	2335.62
698.498	2402.66
698.904	2455.61
699.31	2537.21
699.715	2593.84
700.12	2678.01
700.526	2695.12
700.931	2759.39
701.337	2808.47
701.742	2841.14
702.147	2918.74
702.552	2946.26
702.957	3003.37
703.362	3021.76
703.767	3048.13
704.172	3085.68
704.577	3041.75
704.981	3085.61
705.386	3098.67
705.791	3090.51
706.195	3158.29
706.6	3167.3
707.004	3241.95
707.408	3213.96
707.813	3240.74
708.217	3231.02
708.621	3232.85
709.025	3322.05
709.43	3322.26
709.834	3378.37
710.237	3444
710.641	3430.81
711.045	3451.87
711.449	3447.18
711.853	3474.77
712.256	3509.29
712.66	3542.6
713.064	3612.97
713.467	3651.26
713.87	3754.19
714.274	3795.69
714.677	3893.2
715.08	4040.51
715.484	4194.83
715.887	4377.91
716.29	4555.17
716.693	4748.24
717.096	4967.81
717.499	5084.26
717.901	5107.07
718.304	5130.71
718.707	5154.14
719.109	5061.17
719.512	5031.77
719.915	4907.45
720.317	4858.87
720.719	4902.02
721.122	4876.67
721.524	4832.5
721.926	4796.97
722.328	4888.1
722.731	4878
723.133	4901.85
723.535	5078.35
723.937	5096.8
724.338	5143.3
724.74	5178.17
725.142	5126.3
725.544	5124.4
725.945	5148.94
726.347	5144.36
726.748	5138.66
727.15	5153.96
727.551	5118.61
727.952	5093.15
728.354	5065.3
728.755	5067.14
729.156	5029.43
729.557	5012.74
729.958	4899.45
730.359	4847.38
730.76	4832.49
731.161	4778.63
731.562	4755.57
731.962	4761.62
732.363	4702.72
732.763	4644.45
733.164	4675.92
733.564	4614.07
733.965	4526.55
734.365	4497.64
734.766	4522.17
735.166	4486.14
735.566	4435.55
735.966	4411.22
736.366	4406.11
736.766	4350.88
737.166	4380.29
737.566	4341.37
737.966	4318.77
738.365	4356.34
738.765	4350.64
739.165	4283.31
739.564	4258.63
739.964	4298.05
740.363	4256.31
740.763	4256.47
741.162	4245.17
741.561	4218.39
741.96	4178.47
742.36	4196.29
742.759	4199.09
743.158	4233.94
743.557	4247.29
743.955	4284.14
744.354	4244.68
744.753	4295.2
745.152	4255.39
745.55	4306.36
745.949	4299.92
746.348	4300.54
746.746	4317.16
747.144	4284.35
747.543	4262.27
747.941	4306.63
748.339	4241.44
748.737	4235.46
749.136	4228.96
749.534	4287.35
749.932	4262.67
750.33	4283.84
750.727	4335.97
751.125	4311.47
751.523	4294.69
751.921	4335.18
752.318	4305.33
752.716	4360.34
753.113	4372.56
753.511	4395.9
753.908	4396.38
754.305	4379.61
754.703	4432.2
755.1	4485.07
755.497	4540.04
755.894	4711.54
756.291	4872.17
756.688	5166.27
757.085	5557.54
757.482	6110.01
757.878	6710.85
758.275	7254.56
758.672	8004.55
759.068	8617.13
759.465	9492.18
759.861	10610.28
760.258	11907.39
760.654	12567.57
761.05	12466.65
761.447	11895.01
761.843	11066.91
762.239	10219.99
762.635	9836.49
763.031	9472.94
763.427	8941.4
763.822	8382.54
764.218	7838.52
764.614	7128.07
765.01	6652.94
765.405	6346.56
765.801	6115.56
766.196	5822.19
766.592	5657.84
766.987	5379.29
767.382	5188.56
767.778	5113.89
768.173	4998.31
768.568	4935.87
768.963	4825.48
769.358	4844.21
769.753	4802.34
770.148	4724.39
770.542	4721.65
770.937	4692.67
771.332	4772.23
771.726	4789.47
772.121	4729.45
772.515	4777.48
772.91	4763.01
773.304	4826.75
773.699	4767.4
774.093	4816.83
774.487	4869.93
774.881	4909.43
775.275	4905.99
775.669	4866.41
776.063	4904.49
776.457	4939.91
776.851	4874.43
777.245	4869.43
777.638	4899.17
778.032	5002.5
778.425	4967.75
778.819	5005.47
779.212	4967.85
779.606	4933.77
779.999	4952.83
780.392	4938.67
780.786	5011.24
781.179	5030.66
781.572	5066.38
781.965	5075.88
782.358	5023.48
782.751	5073.24
783.143	5027.55
783.536	5093.74
783.929	5130.94
784.322	5236.85
784.714	5265.91
785.107	5262.57
785.499	5325.63
785.891	5303.7
786.284	5289.5
786.676	5418.15
787.068	5403.19
787.46	5451.11
787.852	5467.84
788.245	5544
788.636	5570.21
789.028	5629.55
789.42	5660.97
789.812	5668.29
790.204	5757.81
790.595	5843.66
790.987	5668.08
791.378	5686.01
791.77	5798.51
792.161	5917.31
792.553	5969.62
792.944	5867.68
793.335	5805.92
793.726	5876.87
794.117	5959.09
794.508	6080.84
794.899	6054.05
795.29	6178.01
795.681	6226.01
796.072	6104.46
796.463	5945
796.853	5952.3
797.244	6096.21
797.634	6128.18
798.025	6125.42
798.415	6136.37
798.806	6216.1
799.196	6298.19
799.586	6345.51
799.976	6317.56
800.366	6525.38
800.756	6737.02
801.146	6701.42
801.536	6726.77
801.926	6790.82
802.316	6815.81
802.706	6878.46
803.095	6768.45
803.485	6857.82
803.874	6900.13
804.264	7133.72
804.653	7113.29
805.043	7245.28
805.432	7345.4
805.821	7353.28
806.21	7379.6
806.599	7484.94
806.988	7531.96
807.377	7633.83
807.766	7748.64
808.155	8002.59
808.544	7768.21
808.933	7783.39
809.321	7768.84
809.71	8037.23
810.098	8175.24
810.487	8585.27
810.875	9020.11
811.264	9038.14
811.652	9297.9
812.04	9430.82
812.428	9578.69
812.816	10267.12
813.204	10634.66
813.592	11126.95
813.98	11427.12
814.368	11347.2
814.756	11787.78
815.144	11713.98
815.531	12136.69
815.919	12067.73
816.306	12340.46
816.694	12064.13
817.081	12109.59
817.469	12425.61
817.856	12426.1
818.243	12672.52
818.63	13020.19
819.017	12636.36
819.404	12691.04
819.791	13027.33
820.178	13581.33
820.565	13800.33
820.952	14637.44
821.339	14191.63
821.725	14358.63
822.112	13688.34
822.498	13657.25
822.885	13780.61
823.271	13697.01
823.657	14078.33
824.044	14087.22
824.43	14151.47
824.816	14133.26
825.202	13736.59
825.588	14651.36
825.974	14663.47
826.36	15130.51
826.746	15153.74
827.132	15467.03
827.517	15448.16
827.903	14743.71
828.289	14773.33
828.674	14075.21
829.06	13981.26
829.445	14338.79
829.83	14659.22
830.216	15089.38
830.601	15415.79
830.986	15049.21
831.371	14925.34
831.756	15413.82
832.141	15020.12
832.526	15013.86
832.911	15266.95
833.295	15157.21
833.68	15573.11
834.065	15016.67
834.449	14190.69
834.834	14124.17
835.218	14117.85
835.603	14423.91
835.987	14233.22
836.371	14978.66
836.755	14884.45
837.139	15237.24
837.524	15453.07
837.908	15287.05
838.291	15326.6
838.675	15391.78
839.059	15568.92
839.443	15553.36
839.827	15334.26
840.21	15761
840.594	15632.29
840.977	15810.68
841.361	15793.64
841.744	16128.27
842.127	15992.25
842.511	16217.13
842.894	16732.17
843.277	17075.84
843.66	17551.18
844.043	17628.51
844.426	16906.75
844.809	16619.21
845.191	16649.6
845.574	16236.43
845.957	15908.06
846.339	15810.4
846.722	15340.58
847.104	15410.1
847.487	15249.81
847.869	15272
848.252	15520.53
848.634	15818.85
849.016	16053.55
849.398	16162.82
849.78	16916.35
850.162	16916.34
850.544	17280.99
850.926	17841.8
851.307	17765.68
851.689	18019.73
852.071	18415.18
852.452	18701.27
852.834	18678.02
853.215	19037.04
853.597	19173.64
853.978	19432.07
854.359	19834
854.741	18957.96
855.122	18874.59
855.503	18615.52
855.884	18736.19
856.265	18672.55
856.646	18774.36
857.026	18428.77
857.407	18363.49
857.788	18507.94
858.169	18765.8
858.549	18018.74
858.93	18568.13
859.31	18604.49
859.69	18788.82
860.071	18424.56
860.451	18244.42
860.831	17584.68
861.211	18619.45
861.591	19111.53
861.971	19090.28
862.351	19260.37
862.731	19606.61
863.111	19837.88
863.491	20136.2
863.87	20902.43
864.25	21220.95
864.629	20859.55
865.009	21321.28
865.388	22078.39
865.768	23656.09
866.147	23558.23
866.526	22257.01
866.905	22512.81
867.284	23773.34
867.663	22575.4
868.042	21643.9
868.421	21568.22
868.8	21922.79
869.179	22136.71
869.558	20840.05
869.936	19209.05
870.315	19546.99
870.693	20027.13
871.072	21591.68
871.45	20572.14
871.828	20827.17
872.207	21912.07
872.585	21575.57
872.963	22169.59
873.341	21399.87
873.719	21159.97
874.097	20898.98
874.475	21297.43
874.853	21786.94
875.23	20894.14
875.608	21772.02
875.986	23555.44
876.363	22511.72
876.741	23203.84
877.118	22617.9
877.495	23736.37
877.873	24112.48
878.25	25377.62
878.627	24338.34
879.004	24673.34
879.381	24540.6
879.758	23898.69
880.135	22248.44
880.512	23524.17
880.889	22888.44
881.265	22665.29
881.642	22472.31
882.019	22850
882.395	22394.5
882.772	23285.55
883.148	22274.57
883.524	22195.01
883.901	22065.51
884.277	22395.89
884.653	22254.17
885.029	22899.9
885.405	25347.67
885.781	25146.81
886.157	24120.68
886.532	24410.95
886.908	24389.76
887.284	27115.45
887.659	27985.76
888.035	28860.13
888.411	29602.63
888.786	29989.4
889.161	31033.51
889.537	30446.8
889.912	31414.6
890.287	31372.34
890.662	32184.5
891.037	31594.57
891.412	29445.63
891.787	29151.32
892.162	28107.61
892.536	28746.28
892.911	27662.49
893.286	27060.73
893.66	25960.7
894.035	26623.26
894.409	28980.55
894.784	27808.27
895.158	28264.32
895.532	29933.74
895.906	30745.94
896.281	31455.69
896.655	30963.15
897.029	35390.05
897.402	36846.74
897.776	41025
898.15	40886.59
898.524	40430.52
898.898	40940.65
899.271	45856.9
899.645	39744.38
900.018	38170
900.392	39610.68
900.765	39913.81
901.138	36927.57
901.511	36378.84
901.884	33401.98
902.258	30813.73
902.631	31856.12
903.003	36667.02
903.376	33074.27
903.749	37068.45
904.122	39678.71
904.495	43687.42
904.867	44241.05
905.24	38414.94
905.612	35767.05
905.985	36573.64
906.357	38213.55
906.729	36474.12
907.102	31156.72
907.474	29960.37
907.846	30159.99
908.218	29757.13
908.59	26279.25
908.962	25420.84
909.334	27363.07
909.705	28736.25
910.077	27898.89
910.449	29055.64
910.82	29872.29
911.192	32875.92
911.563	34175.42
911.935	36575.09
912.306	36619.96
912.677	37845.06
913.048	37468.09
913.419	40652.92
913.79	40875.42
914.161	43800.75
914.532	41857.32
914.903	38464.1
915.274	36523.55
915.645	35978.63
916.015	31663.66
916.386	30220.8
916.756	32165.32
917.127	33178.23
917.497	29653.21
917.868	32295.11
918.238	30723.89
918.608	31615.56
918.978	32271.45
919.348	34196.11
919.718	35370.08
920.088	34057.92
920.458	35362.86
920.828	37225.15
921.198	35277.81
921.567	37686.59
921.937	29181.24
922.306	29447.91
922.676	31766.82
923.045	26508.25
923.415	25178.27
923.784	22923.96
924.153	23582.08
924.522	23562.21
924.891	22147.11
925.26	23744.49
925.629	23179.08
925.998	26640.32
926.367	26021.42
926.736	24774.7
927.104	29521.16
927.473	31747.97
927.842	38314.19
928.21	37934.92
928.578	39870.48
928.947	37709.65
929.315	37943.69
929.683	44501.23
930.051	44874.43
930.42	52109.74
930.788	44538.8
931.156	44165.25
931.523	41384.19
931.891	38239.46
932.259	36738.74
932.627	42565.59
932.994	60214.95
933.362	49720.96
933.729	43199.04
934.097	41328.29
934.464	34950.13
934.831	40320.83
935.199	39752.96
935.566	38535.23
935.933	39008.62
936.3	47225.3
936.667	36793.11
937.034	33167.73
937.401	32816.7
937.767	28306.43
938.134	25211.49
938.501	35545.37
938.867	37902.88
939.234	64090.67
939.6	54690.17
939.967	60340.8
940.333	40428.5
940.699	34417.29
941.065	27662.97
941.431	36301.65
941.798	35043.7
942.163	46057.06
942.529	28822.31
942.895	26527.45
943.261	17183.41
943.627	22556.53
943.992	19776.05
944.358	19816.78
944.723	19887.99
945.089	19375.57
945.454	17909.8
945.82	19109.55
946.185	18378.77
946.55	21273.83
946.915	19091.19
947.28	22401.25
947.645	19719.4
948.01	18199.04
948.375	18982.74
948.74	22762.08
949.104	26530.21
949.469	38299.71
949.834	67684.71
950.198	64125.37
950.562	38499.07
950.927	32060.05
951.291	38577.42
951.655	32858.63
952.02	30858.51
952.384	23307.58
952.748	20279.32
953.112	19811.81
953.476	17227.03
953.839	15923.52
954.203	15782.17
954.567	19719.41
954.931	31064.85
955.294	26554.29
955.658	26700.53
956.021	45385.07
956.385	77022.06
956.748	113667.95
957.111	176148.07
957.474	197825.44
957.837	222754.72
958.2	168275.39
958.563	60474.73
958.926	40846.8
959.289	61952.26
959.652	69230.76
960.015	51976.46
960.377	74570.84
960.74	85172.35
961.102	146993.03
961.465	157796.72
961.827	84628.95
962.189	162351.75
962.552	112589.22
962.914	90273.29
963.276	58572.41
963.638	48464.39
964	47963.51
964.362	32392.63
964.724	31301.69
965.085	22313.5
965.447	18296.89
965.809	20814.34
966.17	20843.25
966.532	22542.34
966.893	20710.56
967.255	18869.38
967.616	22258.84
967.977	17825.73
968.338	19461.71
968.699	15970.08
969.061	15963.11
969.421	16061.81
969.782	18026.69
970.143	15216.87
970.504	15786.95
970.865	17925.62
971.225	18325.73
971.586	17922.08
971.946	25525.11
972.307	22200.41
972.667	29046.72
973.027	29959.15
973.388	36330.26
973.748	24693.51
974.108	26911.57
974.468	36365.76
974.828	28058.26
975.188	21587.77
975.548	19840.44
975.907	16653.07
976.267	18644.79
976.627	15688.6
976.986	16227.71
977.346	15464.85
977.705	14884.37
978.064	13539.91
978.424	11267.97
978.783	11629.07
979.142	13274.53
979.501	12688.69
979.86	13425.07
980.219	12940.81
980.578	16678.32
980.937	18683.82
981.296	16649.78
981.654	17110.6
982.013	26652.29
982.371	34589.44
982.73	32364.87
983.088	36655.88
983.447	39169.3
983.805	56015.24
984.163	117114.66
984.521	129807.16
984.879	190497.12
985.237	-310256.38
985.595	299794.74
985.953	74500.08
986.311	43023.33
986.669	24990.95
987.026	21516.92
987.384	28902.98
987.741	29867.08
988.099	21360.16
988.456	17021.39
988.814	15937.21
989.171	13842.47
989.528	13632.75
989.885	14393.38
990.242	11411.98
990.599	14194.55
990.956	11613.62
991.313	8130.09
991.67	6674.06
992.027	7077.93
992.383	6296.59
992.74	5526.44
993.096	5800.01
993.453	6025.32
993.809	6243.95
994.165	8305.23
994.522	7631.89
994.878	8424.43
995.234	10553.7
995.59	10417.68
995.946	9857.08
996.302	11240.13
996.658	12962.94
997.013	14275.88
997.369	16906.74
997.725	21625.06
998.08	14004.74
998.436	21511.29
998.791	29645.13
999.147	29675.11
999.502	32388.26
999.857	23519.57
1000.212	38338.94
1000.567	54592.41
1000.922	31531.27
1001.277	20076.19
1001.632	14912.81
1001.987	19226.05
1002.342	13805.7
1002.696	11052.51
1003.051	8828.77
1003.406	10695.66
1003.76	10640.95
1004.114	10505.64
1004.469	8842.72
1004.823	7312.7
1005.177	7896.94
1005.531	6262.62
1005.885	5553.94
1006.239	6263.1
1006.593	7852.87
1006.947	10500.25
1007.301	7864.75
1007.655	8581.87
1008.008	6285.81
1008.362	7060.18
1008.715	10096.42
1009.069	9152.08
1009.422	13781.41
1009.776	27695.45
1010.129	18398.94
1010.482	15378.39
1010.835	12985.29
1011.188	27062.62
1011.541	25496.4
1011.894	-156240.44
1012.247	460143.76
1012.6	31292.22
1012.952	19772.33
1013.305	10175.84
1013.657	7344.29
1014.01	6971.71
1014.362	5772.72
1014.715	5141.05
1015.067	4475.34
1015.419	4389.81
1015.771	3885.97
1016.123	3470.02
1016.475	3559.89
1016.827	3789.52
1017.179	4079.62
1017.531	4096.11
1017.883	4172.62
1018.234	4027.78
1018.586	5087.72
1018.938	5397.13
1019.289	7420.84
1019.64	8486.47
1019.992	7887.12
1020.343	7214.86
1020.694	5704.47
1021.045	5040.07
1021.396	5730.86
1021.747	6169.47
1022.098	7408.83
1022.449	5374.7
1022.8	5008.28
1023.151	3488.29
1023.501	3113.28
1023.852	3388
1024.202	3522.73
1024.553	3873.32
1024.903	3802.79
1025.253	3261.6
1025.604	2932.75
1025.954	3623.52
1026.304	4411.35
1026.654	5124.35
1027.004	7512.06
1027.354	12066.2
1027.703	11291.35
1028.053	14827.1
1028.403	21516.98
1028.753	30945.48
1029.102	42311.47
1029.452	217856.96
1029.801	9414.48
1030.15	6073.7
1030.499	5124.18
897.758	2753.37
901.051	2712.56
904.343	2746.93
907.636	2746.28
910.928	2811.71
914.22	2721.16
917.511	2729.59
920.803	2796.89
924.094	2817.48
927.384	2794.15
930.675	2757.77
933.965	2708.44
937.255	2716.38
940.544	2684.68
943.834	2613.86
947.123	2560.64
950.411	2656.8
953.7	2629.38
956.988	2594.17
960.276	2534.84
963.563	2620.78
966.851	2615.89
970.138	2677.46
973.424	2668.66
976.711	2616.66
979.997	2762.76
983.283	2794.2
986.568	2695.11
989.853	2716.76
993.138	2743.68
996.423	2829.32
999.708	2761.52
1002.992	2832.48
1006.275	2652.93
1009.559	2704.83
1012.842	2826.02
1016.125	2754.87
1019.408	2735.15
1022.69	2827.53
1025.972	2841.25
1029.254	2815.97
1032.536	2742.02
1035.817	2772.83
1039.098	2709.76
1042.379	2872.98
1045.659	2867.38
1048.939	2792.79
1052.219	2820.72
1055.498	2834.23
1058.778	2816.8
1062.057	2803.62
1065.335	2823.68
1068.614	2845.32
1071.892	2826.49
1075.17	2906.67
1078.447	2892.17
1081.724	2881.08
1085.001	2923.8
1088.278	2894.41
1091.554	2906.46
1094.83	2904.7
1098.106	2932.8
1101.382	2979.36
1104.657	2978.49
1107.932	2975.47
1111.206	2937.73
1114.481	2893.9
1117.755	2896.65
1121.029	2872.63
1124.302	2925.62
1127.575	2874.52
1130.848	2860.45
1134.121	2817.87
1137.393	2766.44
1140.665	2836.14
1143.937	2806.82
1147.208	2768.59
1150.48	2807.65
1153.75	2795.9
1157.021	2830.76
1160.291	2798.68
1163.561	2847.51
1166.831	2837.25
1170.101	2871.22
1173.37	2845.76
1176.639	2786.84
1179.907	2850.65
1183.176	2852.49
1186.444	2860.22
1189.711	2887.8
1192.979	2899.36
1196.246	2856.05
1199.513	2871.21
1202.78	2870.6
1206.046	2880.2
1209.312	2909.34
1212.578	2934.83
1215.843	2883.49
1219.108	2857.87
1222.373	2879.85
1225.638	2842.77
1228.902	2825.51
1232.166	2791.71
1235.43	2774.83
1238.693	2796.55
1241.956	2795.02
1245.219	2831.29
1248.482	2826.65
1251.744	2819.87
1255.006	2978.82
1258.268	2936.71
1261.529	2876.31
1264.79	2884.58
1268.051	2990.41
1271.312	3005.67
1274.572	2967.05
1277.832	2956.13
1281.092	2947.79
1284.351	2917.23
1287.61	2893.16
1290.869	2805.24
1294.128	2776.36
1297.386	2875.56
1300.644	2864.39
1303.902	2874.49
1307.159	2729.37
1310.416	2786.72
1313.673	2813.29
1316.93	2797.1
1320.186	2844.83
1323.442	2891.93
1326.697	2876.26
1329.953	2871
1333.208	2889.67
1336.463	2868.66
1339.717	2805.52
1342.972	2949.53
1346.226	2924.34
1349.479	2851.06
1352.733	2818.15
1355.986	2846.49
1359.238	2821.63
1362.491	2823.67
1365.743	2826.69
1368.995	2823.26
1372.247	2840.29
1375.498	2866.8
1378.749	2875.19
1382	2828.84
1385.251	2887.8
1388.501	2851.93
1391.751	2830.87
1395	2802.92
1398.25	2837.25
1401.499	2842.89
1404.748	2765.88
1407.996	2758.25
1411.244	2741.96
1414.492	2721.25
1417.74	2703.66
1420.987	2712.83
1424.234	2770.6
1427.481	2752.43
1430.728	2812.45
1433.974	2786.72
1437.22	2803.29
1440.465	2803.38
1443.711	2758.1
1446.956	2799.26
1450.201	2789.51
1453.445	2834.44
1456.689	2810.1
1459.933	2823.55
1463.177	2858.15
1466.42	2828.04
1469.663	2810.56
1472.906	2800.49
1476.148	2888.15
1479.391	2837.68
1482.633	2806.11
1485.874	2816.64
1489.115	2799.99
1492.356	2808.78
1495.597	2781.53
1498.838	2785.64
1502.078	2753.19
1505.318	2696.82
1508.557	2743.01
1511.797	2709.65
1515.036	2793.14
1518.274	2783.06
1521.513	2756.5
1524.751	2778.46
1527.989	2790.08
1531.227	2805.56
1534.464	2794.63
1537.701	2819.11
1540.938	2837.36
1544.174	2790.59
1547.41	2790.08
1550.646	2831.58
1553.882	2864.66
1557.117	2919.94
1560.352	2937.68
1563.587	2892.65
1566.821	2848.06
1570.055	2888.44
1573.289	2856.04
1576.523	2939
1579.756	2942.62
1582.989	2962.69
1586.222	2922.71
1589.454	2961.87
1592.686	2933.32
1595.918	2957.59
1599.15	2946.72
1602.381	3027.79
1605.612	2976.46
1608.843	3076.94
1612.073	2983.79
1615.303	2970.8
1618.533	2957.8
1621.762	2961.18
1624.992	2952.89
1628.221	2935.69
1631.449	2920.48
1634.678	2979.72
1637.906	2930.94
1641.134	2971.13
1644.361	2925.83
1647.588	2914.37
1650.815	2928.4
1654.042	2912.81
1657.269	2941.92
1660.495	2888.08
1663.72	2901.31
1666.946	2865.15
1670.171	2802.53
1673.396	2781.31
1676.621	2770.49
1679.845	2793.79
1683.069	2817.29
1686.293	2862.72
1689.517	2830.3
1692.74	2754.55
1695.963	2787.65
1699.185	2811.52
1702.408	2786.78
1705.63	2834.24
1708.852	2842.84
1712.073	2815.27
1715.294	2796
1718.515	2860.15
1721.736	2805.44
1724.956	2800.91
1728.176	2829.62
1731.396	2852.02
1734.616	2840.09
1737.835	2865.92
1741.054	2846.38
1744.272	2836.73
1747.491	2870.45
1750.709	2928.94
1753.927	2825.03
1757.144	2873.55
1760.361	2913.44
1763.578	2908.21
1766.795	2845.87
1770.011	2857.6
1773.227	2900.09
1776.443	2931.87
1779.658	2982.35
1782.874	2920.32
1786.089	2897.66
1789.303	2900.69
1792.518	2907.73
1795.732	2894.41
1798.945	2904.06
1802.159	2957.09
1805.372	2849.47
1808.585	2834.89
1811.797	2837.66
1815.01	2888.46
1818.222	2889.26
1821.434	2848.27
1824.645	2911.45
1827.856	2891.22
1831.067	2929.49
1834.278	2886.58
1837.488	2870.48
1840.698	3027.6
1843.908	2947.26
1847.117	2907.22
1850.326	2783.4
1853.535	2898.38
1856.744	2935.13
1859.952	2846.3
1863.16	2848.08
1866.368	2873.07
1869.575	2979.24
1872.782	2856.43
1875.989	2798.13
1879.196	2888.43
1882.402	2882.85
1885.608	2925.56
1888.814	2818.77
1892.019	2711.08
1895.224	2765.38
1898.429	2748.31
1901.634	2722.56
1904.838	2699.28
1908.042	2753.33
1911.246	2755.57
1914.449	2681.82
1917.652	2679.92
1920.855	2661.85
1924.058	2715.84
1927.26	2752.27
1930.462	2778.56
1933.664	2801.75
1936.865	2736.99
1940.066	2745.48
1943.267	2692.57
1946.467	2710.43
1949.668	2738.02
1952.868	2807.2
1956.067	2781.38
1959.267	2711.77
1962.466	2740.01
1965.665	2726.15
1968.863	2720.87
1972.061	2739.32
1975.259	2739.27
1978.457	2816.91
1981.654	2775.83
1984.852	2777.37
1988.048	2705.54
1991.245	2711.72
1994.441	2796.66
1997.637	2786.33
2000.833	2771.09
2004.028	2812.17
2007.223	2865.01
2010.418	2840.5
2013.613	2804.38
2016.807	2769.34
2020.001	2777.92
2023.194	2826.88
2026.388	2802.49
2029.581	2750.74
2032.774	2796.01
2035.966	2798.89
2039.158	2727.35
2042.35	2757.85
2045.542	2681.37
2048.733	2788.58
2051.924	2815.44
2055.115	2848.36
2058.306	2785.96
2061.496	2845.31
2064.686	2914.01
2067.875	2827.54
2071.065	2844.17
2074.254	2872.41
2077.442	2822.77
2080.631	2917.34
2083.819	2798.89
2087.007	2781.26
2090.195	2746.24
2093.382	2784.12
2096.569	2764.02
2099.756	2711.51
2102.942	2735.97
2106.128	2738.2
2109.314	2732.3
2112.5	2690.96
2115.685	2666.06
2118.87	2677.49
2122.055	2743.88
2125.239	2708.67
2128.424	2680.38
2131.608	2792.39
2134.791	2771.32
2137.974	2833.37
2141.157	2819.47
2144.34	2766.04
2147.523	2784.26
2150.705	2797.35
2153.887	2780.74
2157.068	2725.23
2160.25	2730.48
2163.431	2771.2
2166.611	2711.38
2169.792	2730.31
2172.972	2619.2
2176.152	2700.61
2179.331	2739.03
2182.511	2720.11
2185.69	2748.99
2188.868	2739.13
2192.047	2801.01
2195.225	2786.53
2198.403	2734.74
2201.58	2730.13
2204.758	2724.76
2207.935	2810.45
2211.111	2696.59
2214.288	2678.63
2217.464	2717.36
2220.64	2692.49
2223.815	2750.62
2226.991	2666.29
2230.166	2687.2
2233.34	2718.23
2236.515	2746.76
2239.689	2821.86
2242.863	2765.85
2246.036	2818.92
2249.209	2823.68
2252.382	2861.03
2255.555	2844.13
2258.727	2776.92
2261.9	2819.55
2265.071	2812.8
2268.243	2814.11
2271.414	2738.1
2274.585	2695.61
2277.756	2762.45
2280.926	2722.54
2284.096	2765.35
2287.266	2666.61
2290.436	2726.89
2293.605	2758.7
2296.774	2787.59
2299.942	2813.26
2303.111	2827.73
2306.279	2877.37
2309.447	2866.04
2312.614	2842.35
2315.781	2860.07
2318.948	2823.22
2322.115	2865.22
2325.281	2764.65
2328.447	2785.73
2331.613	2761.96
2334.779	2727.81
2337.944	2735.74
2341.109	2732.63
2344.274	2713.54
2347.438	2675.08
2350.602	2702.4
2353.766	2724.39
2356.929	2709.03
2360.092	2749.83
2363.255	2698.6
2366.418	2625.13
2369.58	2749.89
2372.742	2518.43
2375.904	2537.14
2379.066	2511.77
2382.227	2550.64
2385.388	2512.44
2388.548	2430.69
2391.709	2488.06
2394.869	2468.94
2398.029	2575.86
2401.188	2594.44
2404.347	2521.58
2407.506	2676.6
2410.665	2703.19
2413.823	2711.43
2416.981	2666.12
2420.139	2699.73
2423.296	2754.18
2426.453	2727.95
2429.61	2750.48
2432.767	2677.11
2435.923	2712.75
2439.079	2672.92
2442.235	2725.49
2445.391	2649.5
2448.546	2679.81
2451.701	2732.24
2454.855	2698.96
2458.009	2757.34
2461.163	2761.87
2464.317	2718.44
2467.471	2755.87
2470.624	2797.06
2473.777	2767.95
2476.929	2781.3
2480.082	2808.14
2483.234	2768.39
2486.385	2723.45
2489.537	2715.36
2492.688	2671.39
2495.839	2689.38
2498.989	2700.8
2502.14	2684.45
2505.29	2663.95
2508.439	2693.92
2511.589	2612.04
2514.738	2627.87
2517.887	2658.95
2521.035	2721.75
2524.183	2710.47
2527.331	2687.86
2530.479	2658.11
2533.627	2670.4
