Data from N_3_DIV_WI_4N_Splice17_12-57-22-018.txt Node
Date: Sat Mar 14 12:57:22 EDT 2020
User: sa697716
Spectrometer: FLMS03696
Trigger mode: 0
Integration Time (sec): 3.180400E-1
Scans to average: 20
Electric dark correction enabled: true
Nonlinearity correction enabled: true
Boxcar width: 5
XAxis mode: Wavelengths
Number of Pixels in Spectrum: 2048
>>>>>Begin Spectral Data<<<<<
187.83	-385156.65
188.298	2827.96
188.766	1524.33
189.233	1388.28
189.701	1896.38
190.169	2495.06
190.636	924.48
191.104	770.69
191.571	155.37
192.039	-19.22
192.506	-97.54
192.974	303.58
193.441	-332.41
193.908	193.81
194.375	98.73
194.842	83.37
195.31	175.02
195.777	163.17
196.244	315.28
196.711	207.33
197.177	181.05
197.644	142.66
198.111	224.16
198.578	269.98
199.045	198.45
199.511	267
199.978	288.77
200.445	252.49
200.911	262.92
201.378	204.72
201.844	236.58
202.31	359.31
202.777	421.02
203.243	225.47
203.709	228.2
204.176	290.4
204.642	266.85
205.108	256.57
205.574	190.18
206.04	141.28
206.506	143.41
206.972	104.09
207.438	97.1
207.903	98.68
208.369	127.33
208.835	142.74
209.301	149.43
209.766	137.05
210.232	156.96
210.697	184.89
211.163	221.52
211.628	302.44
212.094	286.53
212.559	502.02
213.024	323.61
213.49	401.55
213.955	389.31
214.42	349.26
214.885	336.4
215.35	320.4
215.815	414.42
216.28	472.61
216.745	393.25
217.21	472.74
217.675	389.38
218.14	464.12
218.604	517.45
219.069	611.19
219.534	706.19
219.998	838.42
220.463	1038.22
220.927	1217.73
221.392	1172.07
221.856	1245.2
222.32	1514.17
222.785	1936.54
223.249	2439.55
223.713	2757.38
224.177	2781.31
224.642	3525.23
225.106	4361.6
225.57	4768.28
226.034	3661.19
226.497	5666.56
226.961	5191.31
227.425	6195.52
227.889	6879.56
228.353	6953.33
228.816	14408.3
229.28	13969.32
229.744	11834.13
230.207	7278.45
230.671	7230.26
231.134	11944.25
231.597	13910
232.061	13887.27
232.524	13566.59
232.987	9451.53
233.45	8631.37
233.914	7781.43
234.377	7939.5
234.84	7351.43
235.303	8719.15
235.766	9820.23
236.229	10158.75
236.691	6407.76
237.154	7215.35
237.617	5476.58
238.08	5626.01
238.542	6584.36
239.005	4760.02
239.468	4786.42
239.93	4530.39
240.393	4132.55
240.855	3642.89
241.317	3737.1
241.78	4530.55
242.242	4720.86
242.704	5153.72
243.166	4506.54
243.629	4150.96
244.091	4788.18
244.553	5258.76
245.015	5699.69
245.477	7376.26
245.939	10830.39
246.4	11579.89
246.862	11327.22
247.324	10767.45
247.786	12065.48
248.247	15849.72
248.709	16286.26
249.17	12279.49
249.632	11722.16
250.093	13697.32
250.555	11929
251.016	7347.46
251.477	7017.32
251.939	7635.17
252.4	8020.47
252.861	9517.03
253.322	8939.41
253.783	10668.68
254.244	13856.72
254.705	10926.99
255.166	9700.65
255.627	9570.94
256.088	13568.02
256.549	14446.12
257.009	12451.97
257.47	15139.89
257.931	12411
258.391	9319.29
258.852	9650.22
259.312	10129.6
259.773	12539.89
260.233	10692.57
260.694	9096.21
261.154	10344.99
261.614	8372.61
262.074	7526.86
262.534	7874.12
262.994	7448.32
263.455	9929.22
263.915	8418.57
264.374	7987.3
264.834	8764.8
265.294	9703.24
265.754	10077.88
266.214	9551.46
266.673	8969.49
267.133	11315.11
267.593	11230.47
268.052	13821.41
268.512	12076.68
268.971	14628.18
269.431	16072.67
269.89	14393.85
270.349	21678.92
270.809	24182.55
271.268	21783.94
271.727	48708.79
272.186	31655.31
272.645	23756.56
273.104	17093.48
273.563	24786
274.022	19438.52
274.481	16596.37
274.94	12837.8
275.399	9545.57
275.857	11136.55
276.316	15110.56
276.775	13505.87
277.233	13325.97
277.692	12555.77
278.15	14288.35
278.609	14772.75
279.067	13727.08
279.525	12780.28
279.984	16490.31
280.442	19871.64
280.9	19673.61
281.358	12932.59
281.816	12102.14
282.274	11871.06
282.732	12259.62
283.19	12299.4
283.648	10601.22
284.106	11274.44
284.564	11464.82
285.021	10690.36
285.479	7958.28
285.937	7233.4
286.394	6388.65
286.852	6582.4
287.309	6955.57
287.767	6763.32
288.224	6480.29
288.682	7133.62
289.139	7907.75
289.596	7277.02
290.053	7576.37
290.511	9637.53
290.968	11784.56
291.425	16073.68
291.882	13511.84
292.339	11836.96
292.796	11773.73
293.252	11130.43
293.709	8927.84
294.166	8019.18
294.623	8907.09
295.079	8587.01
295.536	8658.58
295.992	7886.49
296.449	7817.29
296.905	8145.14
297.362	7847.08
297.818	8281.43
298.274	8630.44
298.731	8790.81
299.187	8722.41
299.643	9363.26
300.099	11356.06
300.555	12485.43
301.011	10439.42
301.467	10138.67
301.923	11831.29
302.379	11548.48
302.835	11355.07
303.291	11392.4
303.746	12952.96
304.202	16357.19
304.658	16441.85
305.113	11061.98
305.569	10845.63
306.024	11558.5
306.479	10933.78
306.935	9234.22
307.39	10067.29
307.845	9302.32
308.301	9339.97
308.756	9107.8
309.211	8793.19
309.666	8995.71
310.121	11180.5
310.576	11325.71
311.031	11207.31
311.486	12795.15
311.94	12780.11
312.395	17079.21
312.85	32012.66
313.305	156813.13
313.759	815057.86
314.214	59033.61
314.668	46840.46
315.123	39458.93
315.577	14150.94
316.032	12640.41
316.486	15849.33
316.94	12531.65
317.394	8757.59
317.849	6829.27
318.303	6471.65
318.757	6128.37
319.211	6789.35
319.665	5965.77
320.119	6039.76
320.572	8652.86
321.026	8103.57
321.48	6781.04
321.934	7395.08
322.387	7377.73
322.841	7972.31
323.295	7212.41
323.748	8254.73
324.202	8369.36
324.655	10075.8
325.108	14166.67
325.562	10065.54
326.015	11959.83
326.468	9036.61
326.921	10098.17
327.374	9469.8
327.827	9904.84
328.28	11225.54
328.733	7539.21
329.186	6630.22
329.639	6315.85
330.092	5289.62
330.545	5028.37
330.997	5082.47
331.45	5571
331.903	6545.7
332.355	11196.77
332.808	10827.58
333.26	8897.85
333.713	9674.6
334.165	9723.25
334.617	12912.05
335.069	10400.18
335.522	18791.44
335.974	20771.38
336.426	18886.87
336.878	13031.18
337.33	6626.77
337.782	6467.34
338.234	8141.79
338.686	9721.73
339.137	11534.67
339.589	10857.65
340.041	8526.09
340.493	7315.41
340.944	7479
341.396	8090.61
341.847	6843.77
342.299	8139.8
342.75	10002.49
343.201	8702.31
343.653	10023.96
344.104	12343.56
344.555	9785.45
345.006	15222.49
345.457	11786.59
345.908	9399.46
346.359	8878.7
346.81	7239.7
347.261	7600.74
347.712	7463.44
348.163	8034.42
348.613	8215.08
349.064	7698.11
349.515	6735.92
349.965	6943.38
350.416	8324.44
350.866	9146.57
351.317	10288.02
351.767	17083.21
352.217	21664.06
352.668	18023.8
353.118	16499.39
353.568	15777.13
354.018	12507.29
354.468	13230.21
354.918	9509.66
355.368	8335.48
355.818	11791.33
356.268	34029.27
356.718	142580.76
357.168	35537.42
357.617	17769.23
358.067	19770.04
358.517	18595.36
358.966	21818.04
359.416	24485.81
359.865	26400.27
360.315	31448.29
360.764	14684.61
361.213	8236.55
361.663	7767.41
362.112	9589.36
362.561	15568.71
363.01	11761.48
363.459	9893.23
363.908	10697.02
364.357	9141.65
364.806	15439.22
365.255	10621.43
365.703	9761.72
366.152	9752.24
366.601	7915.15
367.05	6434.43
367.498	5855.57
367.947	6108.58
368.395	6347.1
368.844	5640.92
369.292	6753.27
369.74	4667
370.189	7115.56
370.637	8334.36
371.085	7208.75
371.533	8771.82
371.981	8446.06
372.429	8079.2
372.877	8389.26
373.325	7015.94
373.773	7106.21
374.221	6305.84
374.669	7841.47
375.116	6776.46
375.564	6799.9
376.012	7579.92
376.459	6259.22
376.907	7444.66
377.354	8910.06
377.801	8358.7
378.249	9600.86
378.696	12272.58
379.143	14850.97
379.591	15757.44
380.038	26644.3
380.485	19300.93
380.932	20905.4
381.379	19156.17
381.826	14117.3
382.273	10058.42
382.72	8721.62
383.166	8509.34
383.613	5515.35
384.06	4968.47
384.506	5769.89
384.953	4244.22
385.4	4252.69
385.846	3696.48
386.292	3572.6
386.739	3481.62
387.185	3411.24
387.631	3402.92
388.078	3304.71
388.524	3518.24
388.97	3232.2
389.416	2685.63
389.862	2847.03
390.308	2696.62
390.754	2743.24
391.2	2971.43
391.645	3030.82
392.091	2928.76
392.537	2837.83
392.983	2814.7
393.428	2790.18
393.874	2981.56
394.319	2994.49
394.765	2842.4
395.21	2904.08
395.655	2703.38
396.101	2529.2
396.546	2272.59
396.991	2260.96
397.436	2084.31
397.881	2006.77
398.326	1870.93
398.771	1769.3
399.216	1523.93
399.661	1356.75
400.106	1345.06
400.551	1381.11
400.995	1232.54
401.44	1215.53
401.885	1146.07
402.329	1155.48
402.774	1106.77
403.218	1082.36
403.663	1036.61
404.107	1067.8
404.551	1073.88
404.995	981.37
405.44	936.26
405.884	943.13
406.328	908.53
406.772	901.93
407.216	820.13
407.66	787.51
408.104	734.32
408.547	685.75
408.991	660.66
409.435	632.96
409.879	624.18
410.322	613.49
410.766	594.18
411.209	566.5
411.653	540.91
412.096	531.75
412.54	529.36
412.983	528.01
413.426	530.48
413.869	527.66
414.312	518.38
414.756	496.77
415.199	474.14
415.642	460.7
416.085	459.42
416.527	453.55
416.97	454.95
417.413	433.89
417.856	424.17
418.298	417.78
418.741	411.71
419.184	407.01
419.626	419.8
420.069	420.6
420.511	420.42
420.953	412.33
421.396	410.99
421.838	400.23
422.28	408.83
422.722	413.08
423.164	416.92
423.606	412.18
424.048	410.09
424.49	391.94
424.932	388.09
425.374	380.83
425.816	383.4
426.258	387.29
426.699	391.88
427.141	387.27
427.582	390.64
428.024	387.87
428.465	383.54
428.907	374.45
429.348	367.4
429.789	368
430.231	363.44
430.672	368.83
431.113	359.07
431.554	351.57
431.995	338.28
432.436	329.26
432.877	321.19
433.318	316.7
433.759	314.16
434.2	313.77
434.64	307.63
435.081	305.3
435.522	287.35
435.962	275.25
436.403	268.98
436.843	269.22
437.284	257.98
437.724	248.24
438.164	244.81
438.604	236.61
439.045	229.5
439.485	222.76
439.925	218.2
440.365	213.58
440.805	209.98
441.245	206.88
441.685	200.5
442.125	197.52
442.564	197.22
443.004	193.02
443.444	193.08
443.883	191.79
444.323	183.96
444.762	178.57
445.202	178.3
445.641	182.74
446.081	179.26
446.52	179.76
446.959	179.37
447.398	174.58
447.837	171.88
448.276	166.9
448.716	166.5
449.154	167.48
449.593	165.4
450.032	164.89
450.471	158.25
450.91	156.13
451.349	155.67
451.787	152.98
452.226	155.19
452.664	153.91
453.103	154.89
453.541	153.64
453.98	156.7
454.418	156.84
454.856	156.22
455.295	156.4
455.733	160.8
456.171	160.95
456.609	161.59
457.047	162.56
457.485	166.9
457.923	168.52
458.361	166.35
458.798	165.79
459.236	165.3
459.674	163.22
460.111	164.81
460.549	162.67
460.987	161.15
461.424	160.93
461.862	159.6
462.299	156.51
462.736	155.14
463.173	154.81
463.611	156.43
464.048	157.31
464.485	160.5
464.922	158.42
465.359	156.34
465.796	164.31
466.233	164.18
466.67	164.72
467.106	165.99
467.543	163.78
467.98	162.01
468.416	155.49
468.853	153.08
469.29	146.62
469.726	144.38
470.162	140.4
470.599	130.46
471.035	126.75
471.471	122.65
471.907	118.19
472.344	116.88
472.78	118.12
473.216	116.83
473.652	115.47
474.088	114.56
474.523	115.25
474.959	116.49
475.395	115.8
475.831	116.85
476.266	116.9
476.702	117.53
477.138	117.18
477.573	116.53
478.008	117.88
478.444	119.66
478.879	123.14
479.314	123.94
479.75	123.74
480.185	123.66
480.62	123.73
481.055	124.65
481.49	126.43
481.925	128.35
482.36	133.42
482.795	136.59
483.229	139.2
483.664	141.09
484.099	140.47
484.534	142.9
484.968	145.17
485.403	144.91
485.837	143.18
486.271	142.07
486.706	141.68
487.14	136.59
487.574	133.91
488.009	131.85
488.443	130.51
488.877	133.11
489.311	132.68
489.745	133.52
490.179	135.1
490.613	139.33
491.046	138.91
491.48	138.63
491.914	138.96
492.348	139.54
492.781	140.29
493.215	139.01
493.648	136.45
494.082	136.42
494.515	135.48
494.948	136.2
495.382	133.98
495.815	134.7
496.248	135.17
496.681	135.83
497.114	136.02
497.547	137
497.98	139.85
498.413	141.58
498.846	142.4
499.279	142.03
499.711	140.9
500.144	139.93
500.577	141.15
501.009	140.86
501.442	142.45
501.874	141.61
502.306	139.22
502.739	141.45
503.171	141.5
503.603	140.72
504.036	140.23
504.468	139.42
504.9	139.44
505.332	138.12
505.764	138.05
506.196	136.27
506.627	136.29
507.059	136.99
507.491	132.48
507.923	130.53
508.354	129.99
508.786	130
509.217	130.79
509.649	131.01
510.08	130.66
510.512	131.04
510.943	130.66
511.374	130.64
511.805	130.57
512.237	129.95
512.668	129.97
513.099	130.14
513.53	130.22
513.961	130.41
514.391	132.28
514.822	135.49
515.253	136.25
515.684	136.95
516.114	137.49
516.545	138.2
516.975	139.67
517.406	139.95
517.836	138.1
518.267	137.71
518.697	137.84
519.127	135.76
519.558	132.92
519.988	131.01
520.418	129.36
520.848	127.91
521.278	126.51
521.708	165.85
522.138	166.45
522.567	167.66
522.997	168.2
523.427	167.48
523.857	167.67
524.286	167.18
524.716	167.89
525.145	169.25
525.575	170.23
526.004	169.49
526.433	128.58
526.863	126.23
527.292	126.24
527.721	126.58
528.15	126.13
528.579	125.63
529.008	125.95
529.437	125.99
529.866	125.29
530.295	124.97
530.724	126.62
531.152	127.55
531.581	129.32
532.01	129.33
532.438	128.23
532.867	128.31
533.295	128.96
533.723	128.88
534.152	128.89
534.58	129.58
535.008	127.97
535.436	128.84
535.865	129.08
536.293	128.68
536.721	128.56
537.149	130.43
537.576	131.45
538.004	132.46
538.432	131.93
538.86	131.64
539.287	130.74
539.715	132.18
540.143	130.12
540.57	129.96
540.998	129.7
541.425	130.25
541.852	128.02
542.28	126.68
542.707	124.22
543.134	123.07
543.561	122.84
543.988	122.81
544.415	122.1
544.842	121.08
545.269	120.9
545.696	121.39
546.123	121.29
546.549	121.02
546.976	120.92
547.403	121.26
547.829	120.91
548.256	120.12
548.682	119.73
549.108	121.07
549.535	121.07
549.961	119.63
550.387	117.96
550.813	119.17
551.24	119.59
551.666	118.79
552.092	118.59
552.518	119.35
552.943	120.37
553.369	120.57
553.795	120.2
554.221	121.25
554.646	121.69
555.072	124.49
555.498	122.4
555.923	122.13
556.349	123.59
556.774	124.11
557.199	123.81
557.625	122.75
558.05	123.64
558.475	123.92
558.9	124.42
559.325	125.47
559.75	124.84
560.175	124.67
560.6	124.93
561.025	124.16
561.449	125.01
561.874	125.43
562.299	127.48
562.723	127.47
563.148	126.99
563.572	126.77
563.997	127.75
564.421	126.4
564.846	126.33
565.27	127.8
565.694	128.88
566.118	129.6
566.542	132.12
566.966	131.97
567.39	132.3
567.814	133
568.238	134.53
568.662	134.25
569.086	136.24
569.509	137.98
569.933	138.63
570.357	138.52
570.78	137.06
571.204	137.89
571.627	137.38
572.05	138.11
572.474	139.26
572.897	138.15
573.32	139.73
573.743	138.54
574.166	138.34
574.589	137.61
575.012	138.05
575.435	139.21
575.858	137.79
576.281	137.71
576.704	136.59
577.126	134.65
577.549	133.85
577.972	132.37
578.394	133.55
578.817	135.65
579.239	135.05
579.661	135.11
580.084	136.24
580.506	136.48
580.928	135.87
581.35	135.95
581.772	137.02
582.194	137.26
582.616	136.3
583.038	134.43
583.46	131.57
583.882	131.09
584.303	130.27
584.725	128.4
585.147	133.98
585.568	136.8
585.99	138.83
586.411	139.95
586.833	142
587.254	143.29
587.675	144.47
588.096	146.42
588.518	146.75
588.939	146.18
589.36	146.87
589.781	139.49
590.202	139.75
590.623	138.26
591.043	137.54
591.464	136.65
591.885	136.93
592.305	137.09
592.726	135.68
593.147	136.05
593.567	136.06
593.987	135.01
594.408	134.5
594.828	131.08
595.248	131.82
595.669	131.24
596.089	130.4
596.509	129.03
596.929	127.64
597.349	128.05
597.769	127.22
598.189	126.58
598.608	126.99
599.028	127.66
599.448	127.27
599.867	125.35
600.287	124.13
600.706	124.79
601.126	125.61
601.545	127.22
601.965	127.32
602.384	126.9
602.803	127.3
603.222	126.97
603.641	125.85
604.061	127.54
604.48	128
604.898	129.8
605.317	129.32
605.736	128.9
606.155	129.97
606.574	129.66
606.992	131.07
607.411	131.37
607.829	131.62
608.248	132.42
608.666	131.25
609.085	132.16
609.503	131.72
609.921	133.18
610.339	134.18
610.758	132.99
611.176	133.1
611.594	132.87
612.012	133.19
612.43	134.74
612.847	135.49
613.265	137.47
613.683	137.94
614.101	138.36
614.518	136.98
614.936	136.27
615.353	136.09
615.771	136.85
616.188	137.89
616.606	138.03
617.023	137.39
617.44	136.67
617.857	134.54
618.274	133.63
618.691	134.1
619.108	133.41
619.525	132.79
619.942	134.34
620.359	134.54
620.776	132.98
621.192	134.02
621.609	134.8
622.026	136.23
622.442	138.33
622.859	138.37
623.275	137.36
623.691	138.89
624.108	141.05
624.524	141.56
624.94	141.48
625.356	143.16
625.772	142.75
626.188	143.13
626.604	143.49
627.02	142.85
627.436	143.51
627.852	145.33
628.268	146.83
628.683	145.16
629.099	144.29
629.514	143.32
629.93	144.08
630.345	145.67
630.761	144.93
631.176	145.71
631.591	147.84
632.007	148.28
632.422	147.31
632.837	146.02
633.252	147.75
633.667	147.04
634.082	147.07
634.497	147.09
634.911	147.39
635.326	148.08
635.741	146.52
636.155	143.74
636.57	145.53
636.984	145.81
637.399	148.75
637.813	148.23
638.228	149.08
638.642	149.79
639.056	148.52
639.47	148.22
639.884	147.83
640.298	147.53
640.712	149.21
641.126	147.74
641.54	147.58
641.954	145.4
642.368	145.24
642.781	148.36
643.195	148.3
643.609	149.82
644.022	149.05
644.436	148.72
644.849	148.02
645.262	146.81
645.676	147.21
646.089	148.93
646.502	149.34
646.915	149.84
647.328	146.22
647.741	146.86
648.154	146.08
648.567	149.81
648.98	150.05
649.393	151.16
649.805	152.31
650.218	152.02
650.631	150.44
651.043	150.32
651.456	150.15
651.868	150.71
652.28	152.95
652.693	154.63
653.105	153.41
653.517	155.43
653.929	156.78
654.341	158.03
654.753	157.76
655.165	158.26
655.577	158.4
655.989	158.43
656.401	157.22
656.813	154.13
657.224	152.02
657.636	148.16
658.047	147.38
658.459	145.47
658.87	144.02
659.282	142.69
659.693	142.04
660.104	141.38
660.515	139.76
660.926	140.85
661.338	141.2
661.749	140.91
662.159	142.11
662.57	141.18
662.981	140.93
663.392	140.6
663.803	142.73
664.213	142.45
664.624	141.87
665.035	142.85
665.445	140.61
665.855	141.05
666.266	142
666.676	142.09
667.086	139.7
667.497	140.6
667.907	140.37
668.317	138.99
668.727	142.38
669.137	142.64
669.547	143.04
669.956	143.61
670.366	143.53
670.776	143.98
671.186	144.12
671.595	146.09
672.005	145.73
672.414	146.08
672.824	146.77
673.233	143.93
673.642	144.24
674.052	145.32
674.461	146.88
674.87	147.24
675.279	147.65
675.688	146.49
676.097	148.56
676.506	148.42
676.915	150.13
677.323	149.71
677.732	148.63
678.141	148.52
678.549	145.42
678.958	143.27
679.366	141.76
679.775	139.67
680.183	144.18
680.592	142.52
681	142.13
681.408	140.19
681.816	140
682.224	139.7
682.632	141.26
683.04	144.64
683.448	148.01
683.856	152.47
684.264	158
684.671	157.88
685.079	161.18
685.487	164.87
685.894	171.11
686.302	174.35
686.709	177.65
687.116	178.75
687.524	181.85
687.931	183.24
688.338	181.98
688.745	177.22
689.152	176.01
689.559	176.4
689.966	177.78
690.373	174.95
690.78	175.06
691.187	175.87
691.593	176.06
692	173.67
692.407	173.48
692.813	178.26
693.22	180.46
693.626	179.52
694.032	179.83
694.439	181.85
694.845	181.49
695.251	182.11
695.657	183.45
696.063	185.21
696.469	184.14
696.875	185.61
697.281	181.47
697.687	180.3
698.093	179.84
698.498	180.94
698.904	178.34
699.31	180.07
699.715	183.82
700.12	185.14
700.526	184.21
700.931	186.87
701.337	187.05
701.742	186.8
702.147	188.41
702.552	187.88
702.957	187.26
703.362	186.39
703.767	185.61
704.172	181.95
704.577	176.66
704.981	175.39
705.386	175.17
705.791	172.89
706.195	173.47
706.6	172.88
707.004	173.05
707.408	169.65
707.813	171.44
708.217	170.53
708.621	169.4
709.025	173.84
709.43	175.43
709.834	176.44
710.237	177.31
710.641	175.35
711.045	175.76
711.449	176.91
711.853	182.27
712.256	181.07
712.66	180.35
713.064	182.57
713.467	183.96
713.87	186.46
714.274	188.77
714.677	194.12
715.08	201.17
715.484	207.24
715.887	217.2
716.29	218.63
716.693	228.87
717.096	239.18
717.499	243.56
717.901	243.07
718.304	243.1
718.707	239.71
719.109	233.35
719.512	229.97
719.915	227.36
720.317	222.15
720.719	223.49
721.122	220.46
721.524	217.37
721.926	221.85
722.328	225.49
722.731	223.42
723.133	225.34
723.535	232.9
723.937	233.71
724.338	234.4
724.74	238
725.142	305.18
725.544	308.7
725.945	326.77
726.347	320.19
726.748	319.36
727.15	320.95
727.551	324.83
727.952	320.77
728.354	315.85
728.755	313.81
729.156	308.97
729.557	239.29
729.958	227.99
730.359	208.76
730.76	207.68
731.161	204.95
731.562	201.8
731.962	195.29
732.363	192.91
732.763	192.58
733.164	190.11
733.564	187.27
733.965	184.96
734.365	184.64
734.766	185.5
735.166	182.79
735.566	182.46
735.966	183.11
736.366	183.62
736.766	180.86
737.166	180.05
737.566	180.32
737.966	178.69
738.365	179.96
738.765	182.25
739.165	179.72
739.564	178.97
739.964	178.23
740.363	175
740.763	173.09
741.162	175.26
741.561	173.98
741.96	172.06
742.36	171.6
742.759	171.44
743.158	169.6
743.557	169.33
743.955	169.86
744.354	167.54
744.753	168.05
745.152	168.94
745.55	168.01
745.949	168.21
746.348	168.64
746.746	168.17
747.144	170.68
747.543	170.16
747.941	171.26
748.339	169.73
748.737	171.22
749.136	173.48
749.534	173.68
749.932	175.63
750.33	177.55
750.727	178.45
751.125	180.42
751.523	176.44
751.921	182.62
752.318	183.22
752.716	187.32
753.113	185.58
753.511	185.63
753.908	186.57
754.305	190.75
754.703	192.36
755.1	196.51
755.497	197.72
755.894	203.18
756.291	205.93
756.688	217.45
757.085	229.91
757.482	255.22
757.878	282.3
758.275	305.41
758.672	324.3
759.068	347.59
759.465	378.06
759.861	418.54
760.258	470.96
760.654	495.29
761.05	494.71
761.447	471.3
761.843	438.83
762.239	404.84
762.635	385.02
763.031	370.65
763.427	350.89
763.822	328.98
764.218	308.45
764.614	280.69
765.01	260.32
765.405	245.92
765.801	239.88
766.196	226.96
766.592	218.28
766.987	210.67
767.382	203.95
767.778	201.78
768.173	197.41
768.568	196.07
768.963	193.08
769.358	195.17
769.753	195.47
770.148	192.21
770.542	192.14
770.937	190.91
771.332	194.67
771.726	193.98
772.121	195.63
772.515	198.28
772.91	198.1
773.304	201.06
773.699	198.08
774.093	198.33
774.487	200.23
774.881	200.94
775.275	201.54
775.669	198.45
776.063	199.26
776.457	197.49
776.851	194.52
777.245	194.44
777.638	194.23
778.032	197.13
778.425	196.59
778.819	202.76
779.212	205.21
779.606	206.55
779.999	206.05
780.392	208.15
780.786	208.13
781.179	210.21
781.572	212.16
781.965	213.98
782.358	214.33
782.751	216.55
783.143	211.26
783.536	212.18
783.929	211.11
784.322	217.4
784.714	216.94
785.107	220.08
785.499	224.08
785.891	225.7
786.284	222.63
786.676	226.56
787.068	228.25
787.46	230.61
787.852	229.25
788.245	231.68
788.636	229.92
789.028	234.56
789.42	235.65
789.812	235.42
790.204	235.12
790.595	243.26
790.987	236.04
791.378	235.11
791.77	237.34
792.161	240.79
792.553	244.38
792.944	241.29
793.335	235.61
793.726	240.17
794.117	244.7
794.508	247.49
794.899	241.89
795.29	245.55
795.681	245.72
796.072	239.48
796.463	262.38
796.853	267.88
797.244	276.23
797.634	279.65
798.025	276.91
798.415	271.8
798.806	279.45
799.196	287.26
799.586	295.26
799.976	297.89
800.366	306.5
800.756	282.77
801.146	274.98
801.536	275.2
801.926	276.27
802.316	279.69
802.706	285.79
803.095	280.64
803.485	281.17
803.874	276.07
804.264	282.04
804.653	283.95
805.043	294.84
805.432	302.94
805.821	305.93
806.21	308.43
806.599	308.17
806.988	309.29
807.377	307.98
807.766	312.31
808.155	324.32
808.544	316.17
808.933	316.33
809.321	317.3
809.71	321.83
810.098	323.1
810.487	336
810.875	350.83
811.264	352.35
811.652	379.16
812.04	382.64
812.428	391.92
812.816	412.81
813.204	428.87
813.592	440.85
813.98	452
814.368	458.18
814.756	476.41
815.144	474.68
815.531	494.18
815.919	476.06
816.306	489.68
816.694	474.55
817.081	482.15
817.469	493.34
817.856	493.55
818.243	501.34
818.63	504.75
819.017	493.01
819.404	499.95
819.791	505.81
820.178	524.47
820.565	534.13
820.952	579.45
821.339	564.17
821.725	572.37
822.112	547.62
822.498	551.73
822.885	554.77
823.271	549.51
823.657	557.71
824.044	563.84
824.43	566.48
824.816	579.62
825.202	558.59
825.588	591.45
825.974	593.12
826.36	610.88
826.746	608.88
827.132	623.48
827.517	628.92
827.903	603.44
828.289	608.48
828.674	581.51
829.06	566.36
829.445	576.55
829.83	588.58
830.216	600.93
830.601	618.86
830.986	614.11
831.371	611.9
831.756	635.73
832.141	633.09
832.526	630.43
832.911	641.94
833.295	635.38
833.68	650.03
834.065	632.72
834.449	597.65
834.834	596.96
835.218	594.67
835.603	606.36
835.987	588.4
836.371	609.34
836.755	606.49
837.139	616.01
837.524	618.69
837.908	613.65
838.291	614.96
838.675	618.59
839.059	622.1
839.443	614.99
839.827	604.29
840.21	617.36
840.594	616.52
840.977	622.83
841.361	626.3
841.744	641.15
842.127	634.43
842.511	640.01
842.894	656.91
843.277	666.55
843.66	683.62
844.043	687.48
844.426	668.31
844.809	645.8
845.191	646.41
845.574	629.78
845.957	621.15
846.339	623.01
846.722	603.95
847.104	608.42
847.487	599.69
847.869	604.35
848.252	614.53
848.634	626.27
849.016	637.42
849.398	637.67
849.78	663.01
850.162	661.88
850.544	668.43
850.926	687.53
851.307	683.53
851.689	699.53
852.071	705.44
852.452	716.51
852.834	712.94
853.215	737.63
853.597	744.48
853.978	763.35
854.359	782.63
854.741	755.56
855.122	750.57
855.503	740.11
855.884	741.64
856.265	745.41
856.646	741.61
857.026	731.58
857.407	724.46
857.788	730.46
858.169	729.78
858.549	708.07
858.93	727.8
859.31	733.47
859.69	749.74
860.071	735.04
860.451	731.68
860.831	713.01
861.211	744.09
861.591	758.4
861.971	753.72
862.351	762.81
862.731	764.69
863.111	772.32
863.491	788.22
863.87	813.65
864.25	824.72
864.629	815.25
865.009	829.29
865.388	864.99
865.768	923.82
866.147	927.97
866.526	879.73
866.905	895.17
867.284	937.21
867.663	881.51
868.042	847.58
868.421	843.68
868.8	847.55
869.179	858.78
869.558	808.68
869.936	748.77
870.315	756.31
870.693	784.87
871.072	839.32
871.45	799.63
871.828	812.23
872.207	849.03
872.585	840.44
872.963	858.83
873.341	840.52
873.719	842.67
874.097	832.17
874.475	848.72
874.853	857.33
875.23	829.37
875.608	864.49
875.986	935.59
876.363	895.76
876.741	938.49
877.118	931.19
877.495	972.37
877.873	978.06
878.25	1037.3
878.627	994.87
879.004	1008.66
879.381	996.51
879.758	985.58
880.135	919.68
880.512	969.25
880.889	920.28
881.265	899.15
881.642	877.93
882.019	891.1
882.395	877.25
882.772	923.12
883.148	888.11
883.524	884.94
883.901	878.24
884.277	885.84
884.653	880.41
885.029	920.92
885.405	1039.74
885.781	1035.28
886.157	991.17
886.532	991.83
886.908	981.48
887.284	1085.19
887.659	1125.53
888.035	1151.03
888.411	1181.91
888.786	1193.87
889.161	1229.31
889.537	1180.63
889.912	1218.85
890.287	1226.36
890.662	1259.34
891.037	1227.82
891.412	1142.84
891.787	1123.07
892.162	1088.13
892.536	1115.03
892.911	1077.77
893.286	1048.48
893.66	1016.34
894.035	1047.84
894.409	1127.99
894.784	1090.07
895.158	1113.92
895.532	1180.88
895.906	1220.6
896.281	1248.25
896.655	1239.27
897.029	1406.63
897.402	1467.11
897.776	1612.22
898.15	1608.47
898.524	1595.66
898.898	1608.26
899.271	1811.31
899.645	1575.56
900.018	1510.93
900.392	1563.99
900.765	1555.91
901.138	1450.86
901.511	1418.92
901.884	1334.2
902.258	1230.69
902.631	1282.35
903.003	1476.12
903.376	1327.87
903.749	1493.62
904.122	1590.04
904.495	1736.09
904.867	1754.96
905.24	1525.08
905.612	1428.4
905.985	1431.07
906.357	1494.53
906.729	1424.21
907.102	1218.38
907.474	1175.99
907.846	1187.96
908.218	1171.11
908.59	1062.01
908.962	1027
909.334	1112.94
909.705	1175.46
910.077	1139.47
910.449	1179.76
910.82	1213.73
911.192	1336.96
911.563	1400.12
911.935	1474.87
912.306	1471.47
912.677	1492.74
913.048	1500.21
913.419	1615.22
913.79	1595.61
914.161	1722.36
914.532	1673.67
914.903	1527.23
915.274	1432.84
915.645	1389.35
916.015	1222.09
916.386	1166.04
916.756	1250.37
917.127	1270.45
917.497	1139.89
917.868	1268.69
918.238	1202.79
918.608	1215.81
918.978	1244.55
919.348	1330.36
919.718	1381.72
920.088	1339.95
920.458	1411.94
920.828	1462.28
921.198	1397.05
921.567	1488.02
921.937	1147.77
922.306	1150.91
922.676	1242.4
923.045	1058.02
923.415	1011.72
923.784	915.85
924.153	959.79
924.522	968.08
924.891	917.91
925.26	975.06
925.629	947.38
925.998	1076.29
926.367	1063.44
926.736	1043.25
927.104	1221.14
927.473	1291.55
927.842	1561.11
928.21	1503.83
928.578	1550.33
928.947	1484.35
929.315	1527.05
929.683	1827.16
930.051	1851.02
930.42	2141.58
930.788	1799.07
931.156	1781.94
931.523	1726.27
931.891	1617.57
932.259	1582.19
932.627	1870.04
932.994	2610.42
933.362	2183.33
933.729	1875.51
934.097	1805.83
934.464	1548.64
934.831	1764.33
935.199	1731.93
935.566	1671.53
935.933	1760.43
936.3	2142.9
936.667	1625.9
937.034	1588.89
937.401	1521.18
937.767	1337.65
938.134	1186.35
938.501	1639.27
938.867	1776.21
939.234	3006.31
939.6	2501.44
939.967	2605.93
940.333	1726.45
940.699	1456.16
941.065	1040.3
941.431	1413.4
941.798	1398.34
942.163	1901.15
942.529	1173.61
942.895	1054.32
943.261	688.26
943.627	915.52
943.992	810.34
944.358	820.18
944.723	883.98
945.089	850.21
945.454	790.6
945.82	796.66
946.185	736.46
946.55	884.96
946.915	796.59
947.28	934.45
947.645	822.42
948.01	765.68
948.375	815.46
948.74	919.79
949.104	1102.87
949.469	1457.86
949.834	2578.32
950.198	2669.43
950.562	1619.12
950.927	1391.75
951.291	1677.47
951.655	1426.39
952.02	1293.05
952.384	971.01
952.748	890.42
953.112	900.01
953.476	814.81
953.839	751.17
954.203	726.33
954.567	887.55
954.931	1332.4
955.294	1153.45
955.658	1146.99
956.021	1953.92
956.385	3181.84
956.748	4618.62
957.111	6828.26
957.474	7696.39
957.837	8596.83
958.2	6284.6
958.563	2280.55
958.926	1590.94
959.289	2377.9
959.652	2697.24
960.015	2038.03
960.377	2976.94
960.74	3381.51
961.102	5607.96
961.465	6255.6
961.827	3936.27
962.189	7538.47
962.552	5243.12
962.914	4118.13
963.276	2639.34
963.638	2164.35
964	2097.17
964.362	1415.92
964.724	1347.03
965.085	998.25
965.447	811.33
965.809	803.81
966.17	777.92
966.532	816.55
966.893	764.34
967.255	701.47
967.616	814.18
967.977	686.68
968.338	762.78
968.699	667.84
969.061	665.12
969.421	680.71
969.782	758.48
970.143	681.49
970.504	759.16
970.865	887
971.225	958.91
971.586	961.79
971.946	1319.41
972.307	1133.41
972.667	1421.1
973.027	1447.39
973.388	1678.44
973.748	1141.59
974.108	1251.85
974.468	1568.18
974.828	1282.26
975.188	948.51
975.548	853.67
975.907	747.29
976.267	833.82
976.627	713.89
976.986	741.75
977.346	712.35
977.705	695.28
978.064	612.65
978.424	529.92
978.783	489.19
979.142	555.28
979.501	548.75
979.86	584.62
980.219	555.47
980.578	690.29
980.937	757.48
981.296	684.43
981.654	706.18
982.013	1080.48
982.371	1414.63
982.73	1341.08
983.088	1512.34
983.447	1573.17
983.805	2269.87
984.163	4807.59
984.521	5317.1
984.879	7650.31
985.237	-12813.02
985.595	12362.64
985.953	3037.49
986.311	1658.91
986.669	968.07
987.026	819.67
987.384	1076.09
987.741	1034.65
988.099	819.14
988.456	657.77
988.814	654.35
989.171	552.91
989.528	517.49
989.885	534.53
990.242	454.24
990.599	548.74
990.956	454.1
991.313	322.05
991.67	278.79
992.027	346.25
992.383	315.46
992.74	287.67
993.096	318.7
993.453	329.61
993.809	342.23
994.165	436.3
994.522	477.94
994.878	527.26
995.234	665.26
995.59	642.34
995.946	492.37
996.302	557.86
996.658	623.37
997.013	637.14
997.369	813.22
997.725	1112.38
998.08	729.67
998.436	878.25
998.791	1242.28
999.147	1277.64
999.502	1404.59
999.857	1039.03
1000.212	1692.77
1000.567	2375.96
1000.922	1343.3
1001.277	826.65
1001.632	594.89
1001.987	804.11
1002.342	578.88
1002.696	451.93
1003.051	394.35
1003.406	483.92
1003.76	470.01
1004.114	467.57
1004.469	417.78
1004.823	366.16
1005.177	384.57
1005.531	305.34
1005.885	279.5
1006.239	337.03
1006.593	443.05
1006.947	585.9
1007.301	418.28
1007.655	450.84
1008.008	351.97
1008.362	384.89
1008.715	540.55
1009.069	484.38
1009.422	826.48
1009.776	1569.78
1010.129	1006.93
1010.482	801.42
1010.835	600.52
1011.188	1219.94
1011.541	1149.97
1011.894	-6269.08
1012.247	17683.03
1012.6	1102.11
1012.952	781.02
1013.305	295.98
1013.657	227.21
1014.01	216.33
1014.362	173.56
1014.715	239.88
1015.067	250.98
1015.419	257.55
1015.771	246.29
1016.123	242.49
1016.475	261.81
1016.827	266.23
1017.179	322.66
1017.531	295.59
1017.883	292.02
1018.234	363.2
1018.586	425.16
1018.938	481.83
1019.289	649.29
1019.64	688.79
1019.992	609.14
1020.343	559.67
1020.694	493.58
1021.045	421.81
1021.396	501.46
1021.747	573.69
1022.098	526.7
1022.449	361.2
1022.8	301.18
1023.151	229.38
1023.501	234.35
1023.852	241.23
1024.202	270.75
1024.553	268.05
1024.903	294.32
1025.253	289.36
1025.604	269.45
1025.954	343.45
1026.304	404.99
1026.654	456.2
1027.004	638.76
1027.354	909.23
1027.703	998.68
1028.053	1164.37
1028.403	1838.91
1028.753	2065.05
1029.102	2188.71
1029.452	8527.8
1029.801	300.54
1030.15	158.32
1030.499	98.4
897.758	2649.33
901.051	2600.85
904.343	2633.93
907.636	2636.46
910.928	2700.96
914.22	2609.85
917.511	2618
920.803	2678.26
924.094	2696.16
927.384	2677.82
930.675	2640.98
933.965	2592.74
937.255	2603.88
940.544	2570.78
943.834	2514.47
947.123	2457.28
950.411	2552.29
953.7	2524.19
956.988	2495.14
960.276	2433.36
963.563	2508.09
966.851	2503.4
970.138	2559.11
973.424	2553.59
976.711	2503.38
979.997	2627.06
983.283	2661.41
986.568	2568.1
989.853	2581.03
993.138	2604.94
996.423	2686.93
999.708	2626.48
1002.992	2685.54
1006.275	2530.47
1009.559	2569.2
1012.842	2682.61
1016.125	2613.15
1019.408	2592.09
1022.69	2676.16
1025.972	2692.85
1029.254	2667.91
1032.536	2600.16
1035.817	2624.73
1039.098	2570.97
1042.379	2701.94
1045.659	2700.17
1048.939	2634.5
1052.219	2650.09
1055.498	2662.57
1058.778	2646.54
1062.057	2629.13
1065.335	2647.61
1068.614	2664.62
1071.892	2645.21
1075.17	2718.99
1078.447	2706.96
1081.724	2698.44
1085.001	2730.75
1088.278	2706.86
1091.554	2715.41
1094.83	2708.27
1098.106	2736.32
1101.382	2777.75
1104.657	2777.37
1107.932	2775.26
1111.206	2735
1114.481	2694.63
1117.755	2697.06
1121.029	2675.25
1124.302	2727.7
1127.575	2679.6
1130.848	2667.88
1134.121	2631.3
1137.393	2582.12
1140.665	2646.44
1143.937	2619.16
1147.208	2584.55
1150.48	2618.55
1153.75	2606.31
1157.021	2636.25
1160.291	2603.29
1163.561	2645.5
1166.831	2638.66
1170.101	2665.93
1173.37	2640.47
1176.639	2585.97
1179.907	2645.32
1183.176	2646.63
1186.444	2657.4
1189.711	2682.87
1192.979	2693.69
1196.246	2655.64
1199.513	2672.08
1202.78	2667.13
1206.046	2676.52
1209.312	2701.9
1212.578	2725.74
1215.843	2679.57
1219.108	2658.88
1222.373	2681.34
1225.638	2647.39
1228.902	2632.27
1232.166	2599.49
1235.43	2584.09
1238.693	2610.68
1241.956	2608.65
1245.219	2649.35
1248.482	2641
1251.744	2636.13
1255.006	2779.21
1258.268	2734.27
1261.529	2678.3
1264.79	2685.02
1268.051	2783.13
1271.312	2797.92
1274.572	2758.31
1277.832	2747.58
1281.092	2733.8
1284.351	2708.88
1287.61	2685.33
1290.869	2606.27
1294.128	2581.29
1297.386	2671.17
1300.644	2658.69
1303.902	2671.72
1307.159	2535.19
1310.416	2589.31
1313.673	2613.61
1316.93	2605.1
1320.186	2648.06
1323.442	2691.49
1326.697	2678.18
1329.953	2674.11
1333.208	2694.86
1336.463	2680.96
1339.717	2622.41
1342.972	2757.91
1346.226	2735.29
1349.479	2672.13
1352.733	2643.7
1355.986	2670.76
1359.238	2648.73
1362.491	2654.47
1365.743	2657.54
1368.995	2654.05
1372.247	2668.61
1375.498	2694.15
1378.749	2708.48
1382	2670.76
1385.251	2723.06
1388.501	2684.93
1391.751	2670.49
1395	2647.38
1398.25	2679.5
1401.499	2689.52
1404.748	2620.93
1407.996	2612.84
1411.244	2600.62
1414.492	2584.92
1417.74	2561.49
1420.987	2572.39
1424.234	2633.89
1427.481	2611.72
1430.728	2667.25
1433.974	2644.44
1437.22	2659.13
1440.465	2659.02
1443.711	2624.73
1446.956	2659.19
1450.201	2641.86
1453.445	2689.14
1456.689	2667.92
1459.933	2678.85
1463.177	2709.02
1466.42	2681.39
1469.663	2660.86
1472.906	2655.21
1476.148	2722.3
1479.391	2693.1
1482.633	2657.51
1485.874	2669.15
1489.115	2652.85
1492.356	2655.76
1495.597	2626.7
1498.838	2627.3
1502.078	2596.2
1505.318	2544.91
1508.557	2582.34
1511.797	2562.72
1515.036	2618.22
1518.274	2606.88
1521.513	2580
1524.751	2597.81
1527.989	2605.81
1531.227	2618.19
1534.464	2610.91
1537.701	2627.06
1540.938	2643.36
1544.174	2597.52
1547.41	2593.79
1550.646	2627.32
1553.882	2663.53
1557.117	2709.86
1560.352	2725.52
1563.587	2682.12
1566.821	2643.61
1570.055	2674.92
1573.289	2644.95
1576.523	2717.64
1579.756	2720.21
1582.989	2733.81
1586.222	2696.34
1589.454	2730.86
1592.686	2701.46
1595.918	2722.16
1599.15	2710.29
1602.381	2783.94
1605.612	2738.92
1608.843	2830.3
1612.073	2746.91
1615.303	2730.93
1618.533	2725.15
1621.762	2727.21
1624.992	2713.08
1628.221	2699.05
1631.449	2686.55
1634.678	2741.09
1637.906	2693.21
1641.134	2730.88
1644.361	2687.69
1647.588	2677.49
1650.815	2696.41
1654.042	2673.98
1657.269	2704.54
1660.495	2659.18
1663.72	2684.83
1666.946	2651.18
1670.171	2597.68
1673.396	2574.84
1676.621	2564.53
1679.845	2583.36
1683.069	2602.89
1686.293	2643.56
1689.517	2616.04
1692.74	2547.84
1695.963	2577.67
1699.185	2589.72
1702.408	2566.6
1705.63	2606.48
1708.852	2617.29
1712.073	2592.04
1715.294	2580.4
1718.515	2640.73
1721.736	2588.94
1724.956	2587.82
1728.176	2613.77
1731.396	2636.5
1734.616	2623.03
1737.835	2650.08
1741.054	2631.65
1744.272	2625.88
1747.491	2655.99
1750.709	2710.02
1753.927	2618
1757.144	2664.73
1760.361	2703.47
1763.578	2695.31
1766.795	2639.5
1770.011	2651.31
1773.227	2691.6
1776.443	2725.7
1779.658	2770.64
1782.874	2717.74
1786.089	2696.13
1789.303	2699.74
1792.518	2703.47
1795.732	2692.58
1798.945	2705
1802.159	2754.04
1805.372	2659.02
1808.585	2645.17
1811.797	2645.96
1815.01	2697.82
1818.222	2700.35
1821.434	2685.8
1824.645	2741.52
1827.856	2731.37
1831.067	2765.88
1834.278	2726.44
1837.488	2712.29
1840.698	2859.69
1843.908	2786.77
1847.117	2754.15
1850.326	2641.67
1853.535	2745.46
1856.744	2764.63
1859.952	2683.57
1863.16	2686.98
1866.368	2713.92
1869.575	2817.23
1872.782	2706.18
1875.989	2651.49
1879.196	2738.86
1882.402	2735.07
1885.608	2780.24
1888.814	2686.14
1892.019	2587.31
1895.224	2642.86
1898.429	2624.25
1901.634	2603.57
1904.838	2585.5
1908.042	2640.37
1911.246	2646.59
1914.449	2578.68
1917.652	2577.37
1920.855	2557.96
1924.058	2606.58
1927.26	2642.16
1930.462	2671.71
1933.664	2699.68
1936.865	2639.82
1940.066	2646.71
1943.267	2592
1946.467	2608.39
1949.668	2637.45
1952.868	2704.08
1956.067	2681.99
1959.267	2612.21
1962.466	2640.24
1965.665	2622.77
1968.863	2619.31
1972.061	2630.79
1975.259	2628.09
1978.457	2708.23
1981.654	2665.8
1984.852	2663.33
1988.048	2597.33
1991.245	2601.15
1994.441	2687.65
1997.637	2669.82
2000.833	2651.32
2004.028	2686.76
2007.223	2746.65
2010.418	2724.97
2013.613	2683.58
2016.807	2655.96
2020.001	2662.96
2023.194	2705.64
2026.388	2679.86
2029.581	2627.1
2032.774	2679.63
2035.966	2683.4
2039.158	2618.39
2042.35	2641.33
2045.542	2566.66
2048.733	2666.51
2051.924	2687.41
2055.115	2714.08
2058.306	2658.46
2061.496	2718.83
2064.686	2780.48
2067.875	2691.27
2071.065	2708.84
2074.254	2734.68
2077.442	2686.81
2080.631	2777.61
2083.819	2671.37
2087.007	2656.22
2090.195	2627.72
2093.382	2657.31
2096.569	2637.93
2099.756	2590.04
2102.942	2617.98
2106.128	2624.21
2109.314	2615.5
2112.5	2578.63
2115.685	2552.79
2118.87	2563.32
2122.055	2624.63
2125.239	2593.37
2128.424	2570.27
2131.608	2669.83
2134.791	2652.74
2137.974	2709.38
2141.157	2691.85
2144.34	2645.56
2147.523	2658.9
2150.705	2674.61
2153.887	2654.26
2157.068	2606.76
2160.25	2604.05
2163.431	2644.31
2166.611	2590.03
2169.792	2607.94
2172.972	2502.14
2176.152	2579.35
2179.331	2613.97
2182.511	2599.38
2185.69	2627.7
2188.868	2623.01
2192.047	2677.46
2195.225	2671.91
2198.403	2621.04
2201.58	2613.55
2204.758	2608.69
2207.935	2690.87
2211.111	2582.31
2214.288	2566.96
2217.464	2604.82
2220.64	2574.79
2223.815	2630.09
2226.991	2552.2
2230.166	2571.57
2233.34	2603.38
2236.515	2630
2239.689	2702.6
2242.863	2646.32
2246.036	2702.83
2249.209	2701.65
2252.382	2735.66
2255.555	2724.78
2258.727	2662.32
2261.9	2701.27
2265.071	2692.61
2268.243	2693.07
2271.414	2625.84
2274.585	2589.91
2277.756	2659.14
2280.926	2619.21
2284.096	2657.79
2287.266	2566.18
2290.436	2623.21
2293.605	2649.47
2296.774	2684.69
2299.942	2705.05
2303.111	2720.87
2306.279	2769.67
2309.447	2755
2312.614	2731.36
2315.781	2745.69
2318.948	2719.37
2322.115	2757.77
2325.281	2658.21
2328.447	2682.8
2331.613	2649.34
2334.779	2623.74
2337.944	2628.49
2341.109	2628.56
2344.274	2611.46
2347.438	2574.35
2350.602	2600.65
2353.766	2616.04
2356.929	2603.05
2360.092	2643.94
2363.255	2594.09
2366.418	2533.81
2369.58	2647.58
2372.742	2435.6
2375.904	2448.44
2379.066	2425.4
2382.227	2461.9
2385.388	2423.63
2388.548	2349.67
2391.709	2404.8
2394.869	2388.19
2398.029	2484.62
2401.188	2493.74
2404.347	2426.81
2407.506	2568.17
2410.665	2598.66
2413.823	2603.83
2416.981	2562.38
2420.139	2592.26
2423.296	2644
2426.453	2617.42
2429.61	2637.71
2432.767	2574.62
2435.923	2618.41
2439.079	2578.21
2442.235	2626.06
2445.391	2553.36
2448.546	2584.5
2451.701	2630.96
2454.855	2607.35
2458.009	2657.73
2461.163	2655.46
2464.317	2619.82
2467.471	2650.83
2470.624	2687.84
2473.777	2659.1
2476.929	2673.07
2480.082	2696.15
2483.234	2659.88
2486.385	2616.28
2489.537	2608.46
2492.688	2569.66
2495.839	2590.22
2498.989	2600.86
2502.14	2585.78
2505.29	2569.41
2508.439	2599.44
2511.589	2522
2514.738	2533.54
2517.887	2564.7
2521.035	2630.68
2524.183	2610.51
2527.331	2592.08
2530.479	2566.93
2533.627	2575.5
