Data from N_3_HIR_IL_4N_Splice17_13-40-18-004.txt Node
Date: Sat Mar 14 13:40:18 EDT 2020
User: sa697716
Spectrometer: FLMS03696
Trigger mode: 0
Integration Time (sec): 3.180400E-1
Scans to average: 20
Electric dark correction enabled: true
Nonlinearity correction enabled: true
Boxcar width: 5
XAxis mode: Wavelengths
Number of Pixels in Spectrum: 2048
>>>>>Begin Spectral Data<<<<<
187.83	-392231.81
188.298	2826.83
188.766	1516.49
189.233	1346.19
189.701	1931.61
190.169	2616.66
190.636	985.48
191.104	817.87
191.571	102.91
192.039	-148.2
192.506	-139.6
192.974	556.73
193.441	-1162.4
193.908	-314.92
194.375	-72.38
194.842	-5.23
195.31	0.26
195.777	155.1
196.244	471.01
196.711	611.93
197.177	781.78
197.644	1129.71
198.111	2034.08
198.578	2884.82
199.045	2289.03
199.511	3732.28
199.978	4355.53
200.445	3699.77
200.911	4095.34
201.378	4539.48
201.844	4066.81
202.31	6904.87
202.777	7158.36
203.243	3895.54
203.709	3678.06
204.176	4350.98
204.642	3536.44
205.108	3280.8
205.574	2658.23
206.04	2398.37
206.506	2242.18
206.972	2110.36
207.438	2021.31
207.903	2268.05
208.369	1980.01
208.835	1958.51
209.301	2043.41
209.766	2067.4
210.232	2031.78
210.697	2482.16
211.163	3027.97
211.628	4550.11
212.094	3789.56
212.559	4642.06
213.024	2876.2
213.49	3486.77
213.955	3363.81
214.42	3246.59
214.885	3032.84
215.35	2891.02
215.815	2789.31
216.28	2935.08
216.745	2331.79
217.21	2459.85
217.675	2173.16
218.14	2361.75
218.604	2479.29
219.069	2690.2
219.534	2711.02
219.998	2985.36
220.463	3430.02
220.927	3948.31
221.392	3549.79
221.856	3459.92
222.32	4157.24
222.785	4962
223.249	6051.18
223.713	6614.51
224.177	6503.44
224.642	8115.14
225.106	9785.66
225.57	10462.29
226.034	7733.62
226.497	11638.55
226.961	10430.9
227.425	12068.94
227.889	13213.02
228.353	13049.97
228.816	26634.25
229.28	25206.74
229.744	20995.77
230.207	12746.36
230.671	12515.48
231.134	20390.99
231.597	23419.24
232.061	23222.1
232.524	22399.92
232.987	15387.93
233.45	13891.95
233.914	12457.37
234.377	12661.31
234.84	11570.79
235.303	13530.32
235.766	15103.44
236.229	15600.45
236.691	9795.74
237.154	10973.45
237.617	8274.45
238.08	8466.37
238.542	9824.61
239.005	7018.74
239.468	6996.37
239.93	6603.53
240.393	6012.5
240.855	5264.16
241.317	5364.27
241.78	6492.11
242.242	6704.57
242.704	7284.08
243.166	6336.62
243.629	5817.55
244.091	6702.67
244.553	7321.07
245.015	7867.48
245.477	10117.8
245.939	14764.74
246.4	15717.6
246.862	15236.59
247.324	14394.43
247.786	16032.65
248.247	20976.47
248.709	21420.49
249.17	16041.4
249.632	15240.49
250.093	17775.35
250.555	15420.01
251.016	9444.6
251.477	8958.93
251.939	9711.97
252.4	10158.3
252.861	12058.99
253.322	11243.64
253.783	13356.53
254.244	17313.8
254.705	13583.12
255.166	12002.75
255.627	11838.07
256.088	16752.61
256.549	17809.53
257.009	15305
257.47	18579.72
257.931	15101.99
258.391	11327.65
258.852	11692.07
259.312	12220.9
259.773	15046.52
260.233	12765.22
260.694	10760.87
261.154	12145.07
261.614	9798.07
262.074	8748.39
262.534	9096.52
262.994	8585.81
263.455	11396.15
263.915	9614.45
264.374	9040.8
264.834	9851.52
265.294	10872.06
265.754	11247.13
266.214	10647.38
266.673	9938.91
267.133	12524.78
267.593	12372.6
268.052	15143.28
268.512	13172.6
268.971	15943.66
269.431	17496.26
269.89	15682.47
270.349	23529.54
270.809	26233.17
271.268	23577.68
271.727	52734.77
272.186	34181.2
272.645	25662.51
273.104	18433.36
273.563	26674
274.022	20859.28
274.481	17805.16
274.94	13760.97
275.399	10198.39
275.857	11869.66
276.316	16057.54
276.775	14326.01
277.233	14145.13
277.692	13308.9
278.15	15134.54
278.609	15651.33
279.067	14507.71
279.525	13496.76
279.984	17414.22
280.442	21000.23
280.9	20856.7
281.358	13757.93
281.816	12831.03
282.274	12575.99
282.732	12978.28
283.19	13035.75
283.648	11227.45
284.106	11973.94
284.564	12161.15
285.021	11317.79
285.479	8413
285.937	7604.04
286.394	6701.36
286.852	6907.48
287.309	7277.57
287.767	7083.1
288.224	6764.48
288.682	7443.96
289.139	8198.05
289.596	7528.59
290.053	7811.57
290.511	9880.82
290.968	11981.64
291.425	16205.2
291.882	13539.69
292.339	11765.63
292.796	11609.75
293.252	10913.12
293.709	8686.67
294.166	7767.1
294.623	8570.76
295.079	8208.67
295.536	8251.88
295.992	7508.15
296.449	7417.67
296.905	7667.41
297.362	7376.16
297.818	7739.36
298.274	8047.36
298.731	8166.64
299.187	8080.44
299.643	8659.49
300.099	10503.8
300.555	11508.62
301.011	9618.03
301.467	9339.69
301.923	10932.32
302.379	10672.17
302.835	10506.15
303.291	10521.43
303.746	11974.41
304.202	15144.09
304.658	15237.42
305.113	10207.45
305.569	10059.2
306.024	10696.63
306.479	10114.57
306.935	8556.35
307.39	9299.13
307.845	8590.6
308.301	8676.83
308.756	8474.85
309.211	8180.47
309.666	8377.05
310.121	10484.8
310.576	10574
311.031	10491.01
311.486	11997.24
311.94	11979.29
312.395	16086.63
312.85	30207.8
313.305	147838.79
313.759	771814.82
314.214	56087.79
314.668	44663.16
315.123	37723.49
315.577	13662.41
316.032	12205.48
316.486	15315.2
316.94	12161
317.394	8499.58
317.849	6620.3
318.303	6240.46
318.757	5874.13
319.211	6507.02
319.665	5681
320.119	5726.29
320.572	8146.06
321.026	7623.4
321.48	6339.7
321.934	6855.14
322.387	6840.64
322.841	7398.37
323.295	6733.29
323.748	7683.69
324.202	7762.45
324.655	9328.48
325.108	13137.53
325.562	9293.07
326.015	11025.48
326.468	8341.77
326.921	9386.14
327.374	8794.81
327.827	9221.53
328.28	10399.23
328.733	7029.9
329.186	6180.19
329.639	5909.34
330.092	4969.48
330.545	4755.8
330.997	4818.77
331.45	5312.18
331.903	6241.76
332.355	10701.39
332.808	10366.69
333.26	8557.71
333.713	9309.46
334.165	9414.26
334.617	12540.15
335.069	10066.09
335.522	18160.15
335.974	20103.17
336.426	18319.2
336.878	12617.66
337.33	6407.7
337.782	6268.09
338.234	7904.68
338.686	9402.47
339.137	11153.46
339.589	10495.41
340.041	8241.64
340.493	7096.4
340.944	7259.31
341.396	7840
341.847	6620.94
342.299	7878.6
342.75	9661.39
343.201	8376.8
343.653	9648.02
344.104	11808.97
344.555	9315.73
345.006	14434.23
345.457	11123.11
345.908	8801.42
346.359	8292.36
346.81	6752.05
347.261	7065.93
347.712	6915.29
348.163	7404.08
348.613	7562.66
349.064	7076.46
349.515	6199.72
349.965	6379.65
350.416	7659.77
350.866	8408.17
351.317	9432.5
351.767	15643.8
352.217	19783.09
352.668	16465.1
353.118	15149.48
353.568	14444.63
354.018	11474.4
354.468	12101.99
354.918	8702.78
355.368	7584.3
355.818	10749.69
356.268	30992.1
356.718	130278.88
357.168	32579.71
357.617	16265.04
358.067	18009.46
358.517	16913.52
358.966	19879.94
359.416	22458.81
359.865	24266.41
360.315	29059.8
360.764	13570
361.213	7623.52
361.663	7187.72
362.112	8843.58
362.561	14374.89
363.01	10840.96
363.459	9162.24
363.908	9860.02
364.357	8378.06
364.806	14105.06
365.255	9669.41
365.703	8916.65
366.152	8947.55
366.601	7287.33
367.05	5956.48
367.498	5403
367.947	5660.63
368.395	5862.47
368.844	5213.26
369.292	6242.51
369.74	4340.85
370.189	6630.78
370.637	7753.8
371.085	6666.42
371.533	8079.28
371.981	7746.71
372.429	7425.89
372.877	7732.49
373.325	6468.45
373.773	6581.8
374.221	5853.74
374.669	7247.45
375.116	6258.97
375.564	6285.28
376.012	7027.72
376.459	5797.26
376.907	6904.54
377.354	8305.78
377.801	7789.96
378.249	9005.54
378.696	11509.5
379.143	13983.23
379.591	14925.72
380.038	25427.85
380.485	18543.46
380.932	20177.96
381.379	18763.85
381.826	14008.83
382.273	10014.87
382.72	8788.91
383.166	8685.39
383.613	5709.42
384.06	5218.04
384.506	6139.51
384.953	4577.48
385.4	4677.33
385.846	4185.63
386.292	4166.85
386.739	4203.31
387.185	4331.71
387.631	4519.04
388.078	4621.41
388.524	5177.32
388.97	4998.55
389.416	4327.21
389.862	4741.54
390.308	4627.73
390.754	4866.09
391.2	5522.79
391.645	5972.09
392.091	6072.22
392.537	6205.61
392.983	6472.9
393.428	6615.82
393.874	7359.11
394.319	7811.4
394.765	7996.69
395.21	8964.81
395.655	9181.69
396.101	9330.9
396.546	9094.54
396.991	9906.67
397.436	9926.5
397.881	10377.84
398.326	10697.79
398.771	10961.1
399.216	10349.91
399.661	9967.9
400.106	10510.29
400.551	11336.68
400.995	10657.88
401.44	10982.33
401.885	10682.83
402.329	11142.92
402.774	10987.45
403.218	10889.18
403.663	10795.16
404.107	11402.57
404.551	11833.86
404.995	11226.81
405.44	11221.78
405.884	11807.84
406.328	11829.75
406.772	12155.35
407.216	11408.13
407.66	11427.75
408.104	11332.72
408.547	11028.87
408.991	11045.43
409.435	10968.9
409.879	11083.55
410.322	11189.39
410.766	11059.1
411.209	10780.15
411.653	10658.73
412.096	10728.74
412.54	11026.06
412.983	11182.95
413.426	11412.17
413.869	11647.46
414.312	11624.64
414.756	11437.66
415.199	11120.57
415.642	10981.96
416.085	11164.65
416.527	11252.06
416.97	11597.27
417.413	11110.73
417.856	11129.38
418.298	11117.22
418.741	11104.21
419.184	11145.9
419.626	11681.14
420.069	11733.8
420.511	11852.94
420.953	11680.86
421.396	11676.63
421.838	11497.7
422.28	11871.02
422.722	12024.93
423.164	12379.86
423.606	12342.91
424.048	12528.94
424.49	12045.13
424.932	12164
425.374	12164.41
425.816	12463.41
426.258	12663.43
426.699	12659.16
427.141	12212.28
427.582	12195.65
428.024	11989.27
428.465	11946.9
428.907	11781.66
429.348	11872.65
429.789	12051.87
430.231	11926.58
430.672	12246.49
431.113	12185.32
431.554	12382.24
431.995	12620.49
432.436	12660.49
432.877	12835.16
433.318	12926.73
433.759	13139.35
434.2	13328.82
434.64	13371.03
435.081	13598.87
435.522	13091.66
435.962	12871.76
436.403	12789.87
436.843	13195.07
437.284	13126.29
437.724	12946.06
438.164	13167.81
438.604	13005.26
439.045	12619.22
439.485	12228.26
439.925	12172.94
440.365	12066.54
440.805	12066.46
441.245	12040.81
441.685	11676.55
442.125	11686.79
442.564	11816.59
443.004	11562.65
443.444	11578.95
443.883	11654.02
444.323	11694.07
444.762	11853.64
445.202	12105.13
445.641	12351.76
446.081	12397.03
446.52	12571.42
446.959	12518.81
447.398	12311.41
447.837	12309.36
448.276	12222.73
448.716	12423.08
449.154	12585.72
449.593	12231.21
450.032	12154.68
450.471	11962.89
450.91	11961.66
451.349	11876.44
451.787	11803.32
452.226	11933.36
452.664	11868.02
453.103	11825.82
453.541	11783.94
453.98	11670.21
454.418	11748.69
454.856	11513.36
455.295	11451.08
455.733	11468.69
456.171	11495.83
456.609	11432.29
457.047	11379.73
457.485	11468.22
457.923	11431.86
458.361	11257.73
458.798	11300.72
459.236	11270.93
459.674	11403.14
460.111	11484.29
460.549	11404.02
460.987	11424.21
461.424	11449.07
461.862	11435.54
462.299	11313.35
462.736	11329.72
463.173	11405.81
463.611	11256.28
464.048	11247.02
464.485	11368.46
464.922	11334.18
465.359	11372.24
465.796	11133.23
466.233	11126.93
466.67	11068.04
467.106	11103.8
467.543	11106.06
467.98	11066.76
468.416	10943.94
468.853	11000.72
469.29	10793.88
469.726	10768.08
470.162	10560.92
470.599	10648.6
471.035	10648.37
471.471	10494.47
471.907	10552.72
472.344	10551.16
472.78	10593.97
473.216	10754.55
473.652	10613.08
474.088	10591.04
474.523	10532.72
474.959	10625.01
475.395	10508.81
475.831	10398.43
476.266	10417.54
476.702	10346.52
477.138	10180.34
477.573	10102.06
478.008	10002.19
478.444	9967.42
478.879	9954.95
479.314	9917.29
479.75	9822.73
480.185	9788.94
480.62	9787.96
481.055	9740.07
481.49	9685.58
481.925	9698.12
482.36	9677.44
482.795	9783.19
483.229	9877.11
483.664	9904.8
484.099	9785.31
484.534	9776.39
484.968	9728.52
485.403	9639.99
485.837	9531.4
486.271	9421.68
486.706	9353.18
487.14	9231.79
487.574	9051.12
488.009	8948.77
488.443	8847.38
488.877	8872.48
489.311	8852.17
489.745	8891.21
490.179	8902.68
490.613	8968.26
491.046	8985.27
491.48	8991.74
491.914	8932.8
492.348	8938.86
492.781	8931.9
493.215	8910.65
493.648	8906.33
494.082	8935.57
494.515	8894.54
494.948	8931.57
495.382	8960.06
495.815	8951.56
496.248	8949.48
496.681	9046.36
497.114	9122.67
497.547	9162.62
497.98	9217.44
498.413	9177.13
498.846	9190.67
499.279	9206.72
499.711	9184.75
500.144	9131.9
500.577	9153.62
501.009	9193.31
501.442	9199.43
501.874	9113.98
502.306	9073.71
502.739	9058.64
503.171	9168.54
503.603	9131.7
504.036	9151.11
504.468	9120.18
504.9	9144.04
505.332	9128.37
505.764	9078.83
506.196	9065.09
506.627	9116.79
507.059	9140.04
507.491	9149.32
507.923	9004.74
508.354	9034.26
508.786	9026.16
509.217	9080.78
509.649	9104.79
510.08	9164.22
510.512	9186.25
510.943	9195.23
511.374	9171.13
511.805	9220.96
512.237	9267.09
512.668	9422.75
513.099	9518.94
513.53	9586.08
513.961	9584.23
514.391	9670.88
514.822	9746.03
515.253	9861.25
515.684	9896.42
516.114	9965.58
516.545	9968.84
516.975	10008.87
517.406	9994.45
517.836	9886.16
518.267	9823.66
518.697	9846.34
519.127	9781.08
519.558	9743.28
519.988	9672.72
520.418	9650.5
520.848	9673.41
521.278	9639.94
521.708	9419.46
522.138	9413.44
522.567	9518.37
522.997	9575.09
523.427	9570.68
523.857	9564.56
524.286	9531.55
524.716	9533.98
525.145	9557.63
525.575	9542.35
526.004	9557.44
526.433	9660.52
526.863	9595.59
527.292	9469.89
527.721	9452.22
528.15	9452.16
528.579	9427.77
529.008	9458.51
529.437	9549.96
529.866	9582.96
530.295	9631.86
530.724	9641.5
531.152	9739.05
531.581	9765.5
532.01	9823.37
532.438	9831.35
532.867	9875.66
533.295	9938.37
533.723	9935.9
534.152	9893.79
534.58	9866.32
535.008	9760.24
535.436	9748.97
535.865	9772.96
536.293	9833.61
536.721	9895.36
537.149	9998.64
537.576	9982.29
538.004	10033.82
538.432	10066.56
538.86	10048.74
539.287	10085.65
539.715	10152.95
540.143	10177.87
540.57	10164.4
540.998	10159.91
541.425	10042.94
541.852	9961.56
542.28	9980.77
542.707	9923.7
543.134	9872.36
543.561	9873.55
543.988	9855.51
544.415	9879.9
544.842	9872.65
545.269	9853.11
545.696	9879.01
546.123	9983.43
546.549	9949.24
546.976	9898.38
547.403	9913.08
547.829	9946.26
548.256	9984.12
548.682	9983.52
549.108	9960.03
549.535	9981.28
549.961	10014.05
550.387	9960.72
550.813	9940.38
551.24	9992.06
551.666	10018.01
552.092	9981.74
552.518	9966.13
552.943	9940.92
553.369	10001.57
553.795	10048.49
554.221	10059.53
554.646	10052.81
555.072	10106.86
555.498	10143.41
555.923	10196.78
556.349	10275.93
556.774	10321.66
557.199	10325.6
557.625	10373.44
558.05	10338.88
558.475	10400.95
558.9	10398.53
559.325	10353.09
559.75	10331.07
560.175	10305.05
560.6	10281.69
561.025	10280.32
561.449	10295.34
561.874	10331.79
562.299	10344.69
562.723	10386.11
563.148	10320.94
563.572	10340.38
563.997	10394.85
564.421	10423.75
564.846	10419.58
565.27	10422.31
565.694	10397.97
566.118	10444.16
566.542	10466.43
566.966	10417.75
567.39	10370.98
567.814	10295.92
568.238	10282.56
568.662	10305.95
569.086	10316.5
569.509	10368.97
569.933	10293.66
570.357	10279.65
570.78	10193.23
571.204	10148.41
571.627	10132.67
572.05	10175.36
572.474	10226.47
572.897	10219.11
573.32	10234.3
573.743	10251.5
574.166	10202.86
574.589	10278.71
575.012	10298.68
575.435	10365.55
575.858	10386.32
576.281	10396.46
576.704	10381.62
577.126	10392.34
577.549	10401.85
577.972	10427.3
578.394	10434.35
578.817	10453.39
579.239	10413.03
579.661	10401.59
580.084	10363.52
580.506	10355.99
580.928	10407.28
581.35	10407.11
581.772	10444.27
582.194	10416.51
582.616	10384.46
583.038	10350.13
583.46	10344.51
583.882	10369.39
584.303	10453.12
584.725	10480.86
585.147	10491.53
585.568	10575.8
585.99	10655.27
586.411	10691.33
586.833	10784.1
587.254	10795.72
587.675	10900.81
588.096	10999.13
588.518	10971.02
588.939	10860.45
589.36	10853.01
589.781	10841.14
590.202	10644.74
590.623	10623.55
591.043	10649.91
591.464	10590.7
591.885	10579.07
592.305	10549.03
592.726	10456.67
593.147	10462.79
593.567	10419.3
593.987	10355.02
594.408	10302.18
594.828	10296.81
595.248	10220.37
595.669	10053.62
596.089	9976.99
596.509	9910.09
596.929	9781.92
597.349	9747.86
597.769	9638.92
598.189	9548.5
598.608	9514.33
599.028	9480.65
599.448	9439.09
599.867	9322.83
600.287	9270.99
600.706	9208.77
601.126	9109.11
601.545	9070.55
601.965	9043.46
602.384	8993.2
602.803	9003.97
603.222	8961.54
603.641	8917.23
604.061	8887.54
604.48	8865.93
604.898	8922.53
605.317	8965.59
605.736	8991.58
606.155	8982.68
606.574	8935.61
606.992	8987.81
607.411	8971
607.829	8945.9
608.248	8950.34
608.666	8964.29
609.085	8983.01
609.503	8948.99
609.921	8931.77
610.339	8972.05
610.758	9000.36
611.176	8999.08
611.594	8965.06
612.012	8975.54
612.43	9016.43
612.847	9085.9
613.265	9103.45
613.683	9158.21
614.101	9194.59
614.518	9202.69
614.936	9165.71
615.353	9093.57
615.771	9102.17
616.188	9135.53
616.606	9142.15
617.023	9129.05
617.44	9063.95
617.857	9066.36
618.274	9042.54
618.691	9023.24
619.108	8983.2
619.525	8962.45
619.942	9022.83
620.359	9052.49
620.776	9025.67
621.192	8993.56
621.609	8975.62
622.026	9010.9
622.442	9040.3
622.859	9058.63
623.275	9007.99
623.691	9040.3
624.108	9115.45
624.524	9214.97
624.94	9205.68
625.356	9267.52
625.772	9360.54
626.188	9442.96
626.604	9449.21
627.02	9415.65
627.436	9390.53
627.852	9426.64
628.268	9501.37
628.683	9432.34
629.099	9368.5
629.514	9343.93
629.93	9378.79
630.345	9418.39
630.761	9402.17
631.176	9445.17
631.591	9407.52
632.007	9384.58
632.422	9403.91
632.837	9352.15
633.252	9354.5
633.667	9311.83
634.082	9276.25
634.497	9213.54
634.911	9098.3
635.326	9112.26
635.741	9028.88
636.155	9013.48
636.57	9060.9
636.984	9099.41
637.399	9147.04
637.813	9202.05
638.228	9245.72
638.642	9333.35
639.056	9314.93
639.47	9381.9
639.884	9376.25
640.298	9388.27
640.712	9436.87
641.126	9411.31
641.54	9419.95
641.954	9475.14
642.368	9443.95
642.781	9428.14
643.195	9352.12
643.609	9415.61
644.022	9429.07
644.436	9450.71
644.849	9404.86
645.262	9359.41
645.676	9426.69
646.089	9419.27
646.502	9305.49
646.915	9302.43
647.328	9217.29
647.741	9243.15
648.154	9177.24
648.567	9169.93
648.98	9088.41
649.393	9135.28
649.805	9146.19
650.218	9120.85
650.631	9018.92
651.043	9014.01
651.456	8991.37
651.868	9024.03
652.28	9190.21
652.693	9292.81
653.105	9313.2
653.517	9335.01
653.929	9275.35
654.341	9281.6
654.753	9146.37
655.165	9205.3
655.577	9197.46
655.989	9189.12
656.401	9173.49
656.813	8896.32
657.224	8812.07
657.636	8696.87
658.047	8669.16
658.459	8628.5
658.87	8682.03
659.282	8688.11
659.693	8570.25
660.104	8502.71
660.515	8442.94
660.926	8485.38
661.338	8533.93
661.749	8538.4
662.159	8489.48
662.57	8516.78
662.981	8522.78
663.392	8487.01
663.803	8568.19
664.213	8595.02
664.624	8598.23
665.035	8674.72
665.445	8571.9
665.855	8518.34
666.266	8450.17
666.676	8458.06
667.086	8383.18
667.497	8382.2
667.907	8324.4
668.317	8231.43
668.727	8155.21
669.137	8166.29
669.547	8129.31
669.956	8155.47
670.366	8165.66
670.776	8166.29
671.186	8191.85
671.595	8199.7
672.005	8227.4
672.414	8188.18
672.824	8141.07
673.233	8205.51
673.642	8197.02
674.052	8187.87
674.461	8158.61
674.87	8178.85
675.279	8107.92
675.688	8099.84
676.097	8065.06
676.506	7990.32
676.915	8110.25
677.323	8098.63
677.732	8037.82
678.141	7996.27
678.549	7860.63
678.958	7823.41
679.366	7777.03
679.775	7798.79
680.183	7818.2
680.592	7829.17
681	7821.65
681.408	7682.76
681.816	7688.03
682.224	7698.12
682.632	7688.1
683.04	7854.03
683.448	7931.95
683.856	7996.62
684.264	8050.95
684.671	8082.43
685.079	8148.35
685.487	8235.06
685.894	8442.14
686.302	8538.87
686.709	8533.33
687.116	8579.53
687.524	8553.87
687.931	8516.81
688.338	8501.69
688.745	8494.15
689.152	8508.12
689.559	8565.05
689.966	8579.55
690.373	8456.56
690.78	8425.41
691.187	8514.19
691.593	8498.2
692	8448.01
692.407	8490.21
692.813	8578.41
693.22	8603.16
693.626	8650.69
694.032	8642.08
694.439	8763.62
694.845	8815.48
695.251	8940.37
695.657	9019.75
696.063	9231.01
696.469	9327.15
696.875	9395.01
697.281	9350.83
697.687	9326.14
698.093	9257.68
698.498	9316.75
698.904	9311.49
699.31	9409.33
699.715	9418.24
700.12	9544.89
700.526	9448.75
700.931	9539.77
701.337	9579.32
701.742	9570.59
702.147	9729.24
702.552	9726.75
702.957	9819.57
703.362	9797.61
703.767	9811.36
704.172	9863.66
704.577	9657.74
704.981	9722.48
705.386	9687.16
705.791	9586.69
706.195	9723.09
706.6	9669.61
707.004	9822.55
707.408	9672.01
707.813	9680.53
708.217	9577.51
708.621	9516.31
709.025	9710.03
709.43	9642.47
709.834	9736.45
710.237	9859.85
710.641	9754.44
711.045	9749.52
711.449	9664.46
711.853	9656.77
712.256	9686.78
712.66	9703.16
713.064	9795.91
713.467	9777.83
713.87	9893.67
714.274	9808.66
714.677	9838.23
715.08	9959.6
715.484	10060.51
715.887	10199.61
716.29	10320.82
716.693	10430.25
717.096	10588.77
717.499	10560.31
717.901	10408.51
718.304	10356.95
718.707	10395.77
719.109	10261.98
719.512	10292.05
719.915	10126.07
720.317	10110.56
720.719	10265.37
721.122	10269.71
721.524	10222.56
721.926	10161.64
722.328	10334.39
722.731	10253.85
723.133	10214.02
723.535	10465.05
723.937	10384.64
724.338	10377.21
724.74	10366.88
725.142	10161.75
725.544	10125.66
725.945	10142.11
726.347	10119.99
726.748	10089.09
727.15	10110.45
727.551	10028.5
727.952	9966.45
728.354	9903.25
728.755	9913.41
729.156	9869.96
729.557	9931.05
729.958	9772.71
730.359	9753.92
730.76	9811.67
731.161	9804.23
731.562	9849.73
731.962	9950.12
732.363	9915.11
732.763	9873.71
733.164	10012.24
733.564	9927.97
733.965	9770.97
734.365	9726.74
734.766	9797.68
735.166	9726.21
735.566	9605.18
735.966	9540.16
736.366	9514.83
736.766	9387.91
737.166	9451.95
737.566	9373.97
737.966	9327.87
738.365	9404.22
738.765	9388.07
739.165	9239.12
739.564	9185.26
739.964	9284.31
740.363	9211.03
740.763	9227.22
741.162	9215.38
741.561	9157.3
741.96	9070.92
742.36	9124.25
742.759	9149.28
743.158	9242.91
743.557	9285.71
743.955	9372.49
744.354	9286.53
744.753	9399.46
745.152	9312.94
745.55	9422.73
745.949	9408.54
746.348	9407.2
746.746	9428.31
747.144	9333.15
747.543	9278.1
747.941	9358.33
748.339	9203.02
748.737	9172.59
749.136	9140.36
749.534	9259.03
749.932	9185.69
750.33	9223.08
750.727	9330.16
751.125	9281.6
751.523	9258.75
751.921	9341.07
752.318	9278.02
752.716	9397.89
753.113	9429.15
753.511	9479.23
753.908	9476.13
754.305	9444.14
754.703	9566.56
755.1	9681.84
755.497	9789.21
755.894	10117.56
756.291	10341.16
756.688	10714.52
757.085	11108.02
757.482	11619.66
757.878	12054.45
758.275	12289.29
758.672	12815.29
759.068	13053.05
759.465	13572
759.861	14273.5
760.258	15054
760.654	15103.59
761.05	14556.62
761.447	13888.89
761.843	13247.58
762.239	12696.05
762.635	12701.67
763.031	12669.06
763.427	12366.27
763.822	12028.84
764.218	11728.7
764.614	11166.06
765.01	10915.69
765.405	10879.72
765.801	10917.92
766.196	10778.39
766.592	10816.85
766.987	10581.75
767.382	10469.05
767.778	10537.39
768.173	10484.07
768.568	10496.73
768.963	10371.57
769.358	10499.85
769.753	10484.3
770.148	10379.88
770.542	10424.2
770.937	10405.36
771.332	10617.79
771.726	10680.5
772.121	10561.75
772.515	10677.66
772.91	10659.07
773.304	10815.49
773.699	10691.1
774.093	10803.88
774.487	10916.83
774.881	10997.47
775.275	10983.64
775.669	10895.25
776.063	10977.16
776.457	11050.84
776.851	10898.02
777.245	10871.29
777.638	10918.93
778.032	11137.37
778.425	11045.02
778.819	11113.15
779.212	11018.61
779.606	10924.2
779.999	10947.78
780.392	10892.11
780.786	11031.04
781.179	11047.36
781.572	11104.33
781.965	11104.87
782.358	10958.49
782.751	11044.31
783.143	10916.39
783.536	11020.11
783.929	11063.2
784.322	11236.51
784.714	11251.43
785.107	11194.99
785.499	11280.12
785.891	11180.9
786.284	11081.48
786.676	11278.73
787.068	11167.12
787.46	11191.91
787.852	11163.89
788.245	11247.69
788.636	11239.74
789.028	11295.26
789.42	11301.52
789.812	11249.41
790.204	11360.93
790.595	11484.34
790.987	11093.32
791.378	11095.25
791.77	11282.5
792.161	11474.44
792.553	11531.76
792.944	11289.88
793.335	11125.51
793.726	11197.4
794.117	11313.1
794.508	11514.01
794.899	11425.3
795.29	11629.9
795.681	11688.39
796.072	11411.4
796.463	11040
796.853	11002.05
797.244	11211.9
797.634	11217.95
798.025	11171.04
798.415	11133.11
798.806	11211.94
799.196	11280.99
799.586	11285.69
799.976	11141.98
800.366	11426.81
800.756	11739.68
801.146	11607.99
801.536	11593.83
801.926	11642.37
802.316	11623.02
802.706	11681.29
803.095	11438.5
803.485	11547.28
803.874	11559.5
804.264	11907.42
804.653	11819.79
805.043	11984.56
805.432	12089.65
805.821	12023.85
806.21	11988.67
806.599	12077.65
806.988	12049.51
807.377	12105.16
807.766	12172.38
808.155	12454.91
808.544	11954.91
808.933	11838.15
809.321	11673.16
809.71	11925.2
810.098	11963.52
810.487	12378.99
810.875	12784.18
811.264	12580.92
811.652	12689.62
812.04	12604.05
812.428	12521.03
812.816	13121.03
813.204	13286.01
813.592	13570.29
813.98	13627.43
814.368	13250.52
814.756	13495.74
815.144	13187
815.531	13459.65
815.919	13217.79
816.306	13386.48
816.694	12975.72
817.081	12962.62
817.469	13289.19
817.856	13322.37
818.243	13621.38
818.63	14043.71
819.017	13635.46
819.404	13646.3
819.791	13891.23
820.178	14328.86
820.565	14421.91
820.952	15199.95
821.339	14658.08
821.725	14744.46
822.112	13963.65
822.498	13816.52
822.885	13827.6
823.271	13677.03
823.657	14056.74
824.044	14124.15
824.43	14259.2
824.816	14260.15
825.202	13828.11
825.588	14674.81
825.974	14576.49
826.36	14905.01
826.746	14814.09
827.132	15007.13
827.517	14865.62
827.903	14062.8
828.289	13977.98
828.674	13213.64
829.06	13044.1
829.445	13302.85
829.83	13538.88
830.216	13868.98
830.601	14114.19
830.986	13715.45
831.371	13560.1
831.756	13978.26
832.141	13587.11
832.526	13558.94
832.911	13769.95
833.295	13659.91
833.68	14029.52
834.065	13516.06
834.449	12773.2
834.834	12709.77
835.218	12706.98
835.603	12967.6
835.987	12765.72
836.371	13421.95
836.755	13311.29
837.139	13605.1
837.524	13773.99
837.908	13600.94
838.291	13609.96
838.675	13624.1
839.059	13746.92
839.443	13692.43
839.827	13468.42
840.21	13808.64
840.594	13644.81
840.977	13753.12
841.361	13679.74
841.744	13917.69
842.127	13747.89
842.511	13894.88
842.894	14310.36
843.277	14555.78
843.66	14916.97
844.043	14932.43
844.426	14274.51
844.809	13992.33
845.191	13977.5
845.574	13592.92
845.957	13267.14
846.339	13125.5
846.722	12660.57
847.104	12627.25
847.487	12418.22
847.869	12358.53
848.252	12482.52
848.634	12650.75
849.016	12770.69
849.398	12782.45
849.78	13312.96
850.162	13245.77
850.544	13459.76
850.926	13801.89
851.307	13637.86
851.689	13726.41
852.071	13927.09
852.452	14054.33
852.834	13959.36
853.215	14156.43
853.597	14195.76
853.978	14330.87
854.359	14574.68
854.741	13899.68
855.122	13850.27
855.503	13686.59
855.884	13807.17
856.265	13788.29
856.646	13873.13
857.026	13613.69
857.407	13562.5
857.788	13647.23
858.169	13804.1
858.549	13229.17
858.93	13602.54
859.31	13595.22
859.69	13703.01
860.071	13397.19
860.451	13225.12
860.831	12705.67
861.211	13400.22
861.591	13689.66
861.971	13616.23
862.351	13685.26
862.731	13844.18
863.111	13921.11
863.491	14022.79
863.87	14448.85
864.25	14562.84
864.629	14218.71
865.009	14435.21
865.388	14871.08
865.768	15846.93
866.147	15723.07
866.526	14789.71
866.905	14936.66
867.284	15755.41
867.663	14959.1
868.042	14330.91
868.421	14277.92
868.8	14499.15
869.179	14639.18
869.558	13765.89
869.936	12683.3
870.315	12873.94
870.693	13169.42
871.072	14170.47
871.45	13468.29
871.828	13608.65
872.207	14279.06
872.585	14037.76
872.963	14380.79
873.341	13851.65
873.719	13656.3
874.097	13457.08
874.475	13688.52
874.853	13966.89
875.23	13362.9
875.608	13898.9
875.986	15000.5
876.363	14319.36
876.741	14728.16
877.118	14344.69
877.495	15017.63
877.873	15220.12
878.25	15960.47
878.627	15265.67
879.004	15432.04
879.381	15299.74
879.758	14860.27
880.135	13798.13
880.512	14556.52
880.889	14129.94
881.265	13948.45
881.642	13787.73
882.019	13997.65
882.395	13713.14
882.772	14239.78
883.148	13599.15
883.524	13524.06
883.901	13408.84
884.277	13567.96
884.653	13450.95
885.029	13813.03
885.405	15261.02
885.781	15109.44
886.157	14455.71
886.532	14586.46
886.908	14526.08
887.284	16115.12
887.659	16603.28
888.035	17081
888.411	17492.57
888.786	17683.23
889.161	18250.82
889.537	17862.61
889.912	18375.61
890.287	18296.08
890.662	18683.96
891.037	18262.11
891.412	16949.46
891.787	16674.17
892.162	15982.45
892.536	16234.34
892.911	15498.39
893.286	15023.03
893.66	14273.31
894.035	14499.18
894.409	15618.95
894.784	14848.66
895.158	14951.24
895.532	15664.22
895.906	15926.25
896.281	16135.68
896.655	15731.8
897.029	17803.2
897.402	18389.51
897.776	20306.63
898.15	20080.38
898.524	19741.45
898.898	19874.94
899.271	22142.6
899.645	19098.27
900.018	18305.35
900.392	18987.38
900.765	19146.08
901.138	17762.48
901.511	17556.23
901.884	16223.33
902.258	15055.11
902.631	15649.01
903.003	18103.36
903.376	16422.03
903.749	18520.49
904.122	19884.54
904.495	21897.49
904.867	22167.16
905.24	19197.38
905.612	17799.73
905.985	18083.14
906.357	18782.88
906.729	17805.87
907.102	15107.65
907.474	14426.15
907.846	14407.92
908.218	14141.23
908.59	12456.88
908.962	11994.24
909.334	12873.6
909.705	13500.75
910.077	13084.05
910.449	13590.6
910.82	13943.29
911.192	15305.78
911.563	15882.81
911.935	16967.4
912.306	16955.9
912.677	17451.54
913.048	17259.59
913.419	18676.44
913.79	18709.38
914.161	20009.22
914.532	19095.54
914.903	17502.17
915.274	16599.12
915.645	16316.99
916.015	14346.09
916.386	13692.61
916.756	14587.28
917.127	15075.59
917.497	13524.89
917.868	14787.61
918.238	14109.12
918.608	14578.78
918.978	14966.85
919.348	15925.54
919.718	16535.83
920.088	16012.65
920.458	16690.3
920.828	17602.49
921.198	16705.11
921.567	17851.44
921.937	13809.63
922.306	13920.56
922.676	15000.8
923.045	12508.38
923.415	11869.54
923.784	10786.07
924.153	11077.67
924.522	11047.83
924.891	10362.99
925.26	11068.28
925.629	10762.14
925.998	12326.19
926.367	11983.23
926.736	11370.91
927.104	13435.21
927.473	14319.28
927.842	17130.56
928.21	16757.65
928.578	17406.51
928.947	16279.41
929.315	16185.45
929.683	18787.11
930.051	18680.91
930.42	21382.51
930.788	18005.24
931.156	17613.27
931.523	16323.77
931.891	14916.24
932.259	14163.3
932.627	16234.21
932.994	22736.22
933.362	18646.95
933.729	16030.58
934.097	15242.71
934.464	12849.13
934.831	14704.21
935.199	14479.57
935.566	14014.64
935.933	14162.39
936.3	17184.18
936.667	13391.93
937.034	12249.91
937.401	12155.13
937.767	10559.57
938.134	9489.02
938.501	13492.71
938.867	14594.54
939.234	24865.21
939.6	21382.04
939.967	23900.25
940.333	16169.66
940.699	13894
941.065	11097.74
941.431	14659.48
941.798	14247.32
942.163	18773.57
942.529	11744.63
942.895	10777.1
943.261	6990.99
943.627	9180.43
943.992	8008.25
944.358	7998
944.723	8039.43
945.089	7803.58
945.454	7212.74
945.82	7665.62
946.185	7340.34
946.55	8494.81
946.915	7610.25
947.28	8930.42
947.645	7876.65
948.01	7297.95
948.375	7629.78
948.74	9098.8
949.104	10627.59
949.469	15247.05
949.834	26975.75
950.198	25733.43
950.562	15459.48
950.927	12887.7
951.291	15433.74
951.655	13098.28
952.02	12250.98
952.384	9217.03
952.748	8053.86
953.112	7893.53
953.476	6872.67
953.839	6328.14
954.203	6263.31
954.567	7798.27
954.931	12237.35
955.294	10515.87
955.658	10576.9
956.021	18007.22
956.385	30517.21
956.748	45021.07
957.111	69480.85
957.474	78046.55
957.837	87775.55
958.2	66079.87
958.563	23765.48
958.926	16104.6
959.289	24405.21
959.652	27298.39
960.015	20517.29
960.377	29510.75
960.74	33699.46
961.102	58021.28
961.465	62570.33
961.827	34179.61
962.189	65787.8
962.552	45786.61
962.914	36818.07
963.276	23929.25
963.638	19823.61
964	19646.1
964.362	13341.6
964.724	12897.34
965.085	9266.98
965.447	7602.16
965.809	8558.96
966.17	8580.25
966.532	9297.3
966.893	8570.28
967.255	7830.91
967.616	9282.33
967.977	7480.6
968.338	8196.08
968.699	6801.21
969.061	6834.74
969.421	6929.61
969.782	7834.4
970.143	6694.99
970.504	7035.04
970.865	8051.49
971.225	8299.63
971.586	8143.67
971.946	11602.84
972.307	10073.43
972.667	13138.15
973.027	13489.22
973.388	16324.86
973.748	11093.83
974.108	12058.59
974.468	16154.26
974.828	12482.99
975.188	9550.2
975.548	8742.09
975.907	7348
976.267	8237.33
976.627	6945.53
976.986	7203.63
977.346	6865.79
977.705	6615.46
978.064	6002.41
978.424	5001.37
978.783	5123.82
979.142	5864.77
979.501	5652.8
979.86	6006.74
980.219	5790.7
980.578	7446.24
980.937	8346.72
981.296	7479.57
981.654	7717.38
982.013	12039.9
982.371	15757.73
982.73	14808.78
983.088	16794.81
983.447	17981.22
983.805	25699.5
984.163	53827.41
984.521	59976.18
984.879	88100.7
985.237	-143807.97
985.595	139527.24
985.953	34692.01
986.311	19941.46
986.669	11593.28
987.026	10023.59
987.384	13472.4
987.741	13965.27
988.099	10110.59
988.456	8083.15
988.814	7608.44
989.171	6602.86
989.528	6469.74
989.885	6838.99
990.242	5454.1
990.599	6790.24
990.956	5567.74
991.313	3902.37
991.67	3216.42
992.027	3449.75
992.383	3080.36
992.74	2717.55
993.096	2879.03
993.453	2997.71
993.809	3114.12
994.165	4156.62
994.522	3882.16
994.878	4283.76
995.234	5384.43
995.59	5317.51
995.946	4968.33
996.302	5677.19
996.658	6534.67
997.013	7180.87
997.369	8572.4
997.725	11048.04
998.08	7142.84
998.436	10873.24
998.791	15026.04
999.147	15117.11
999.502	16501.15
999.857	11924.62
1000.212	19436.83
1000.567	27799.42
1000.922	15944.37
1001.277	10115.2
1001.632	7521.94
1001.987	9719.22
1002.342	6969.33
1002.696	5607.92
1003.051	4506.54
1003.406	5481.32
1003.76	5484.95
1004.114	5418.26
1004.469	4584.53
1004.823	3822.39
1005.177	4127.25
1005.531	3272.59
1005.885	2914.95
1006.239	3318.85
1006.593	4179.41
1006.947	5560.57
1007.301	4149.08
1007.655	4544.82
1008.008	3343.35
1008.362	3766.25
1008.715	5397.46
1009.069	4890.91
1009.422	7471.73
1009.776	15060.65
1010.129	9950.44
1010.482	8296.94
1010.835	6990.28
1011.188	14622.99
1011.541	13787.83
1011.894	-84541.88
1012.247	250049.74
1012.6	16965.21
1012.952	10846.4
1013.305	5495.79
1013.657	3970.72
1014.01	3782.06
1014.362	3116.97
1014.715	2834.52
1015.067	2489.64
1015.419	2449.02
1015.771	2176.37
1016.123	1954.78
1016.475	2028.72
1016.827	2170.46
1017.179	2373.59
1017.531	2384.33
1017.883	2434.9
1018.234	2416.57
1018.586	3060.27
1018.938	3298.27
1019.289	4562.72
1019.64	5207.07
1019.992	4786.72
1020.343	4389.84
1020.694	3497.73
1021.045	3073.91
1021.396	3528.63
1021.747	3855.29
1022.098	4527.21
1022.449	3255.21
1022.8	3005.46
1023.151	2114.19
1023.501	1919.31
1023.852	2100.26
1024.202	2197.12
1024.553	2387.66
1024.903	2389.9
1025.253	2085.67
1025.604	1879.06
1025.954	2360.45
1026.304	2881.58
1026.654	3379.47
1027.004	4961.25
1027.354	7930.42
1027.703	7596.55
1028.053	10012.45
1028.403	14763.36
1028.753	21006.04
1029.102	28156.72
1029.452	143032.26
1029.801	6147.75
1030.15	3978.05
1030.499	3320.96
897.758	3359.45
901.051	3348.41
904.343	3387.66
907.636	3379.24
910.928	3449.7
914.22	3348.14
917.511	3360.3
920.803	3451.94
924.094	3499.94
927.384	3446.63
930.675	3410.71
933.965	3351.2
937.255	3341.75
940.544	3305.56
943.834	3146.61
947.123	3105.95
950.411	3215.78
953.7	3176.77
956.988	3117.77
960.276	3066.25
963.563	3194.78
966.851	3175.17
970.138	3255.47
973.424	3229.91
976.711	3176.81
979.997	3446.72
983.283	3462.33
986.568	3325.9
989.853	3378.01
993.138	3410.32
996.423	3492.36
999.708	3400.24
1002.992	3523.73
1006.275	3236.31
1009.559	3349.88
1012.842	3495.37
1016.125	3396.37
1019.408	3371.47
1022.69	3503.56
1025.972	3504.29
1029.254	3473.25
1032.536	3361.82
1035.817	3407.43
1039.098	3301.99
1042.379	3587.03
1045.659	3532.26
1048.939	3438.62
1052.219	3483.52
1055.498	3514.46
1058.778	3482.4
1062.057	3473.57
1065.335	3489.36
1068.614	3526.99
1071.892	3490.31
1075.17	3596.59
1078.447	3570.55
1081.724	3554.39
1085.001	3610.23
1088.278	3573.29
1091.554	3596.13
1094.83	3596.69
1098.106	3620.96
1101.382	3686.95
1104.657	3685.29
1107.932	3683.67
1111.206	3626.12
1114.481	3582.93
1117.755	3593.58
1121.029	3553.66
1124.302	3601.84
1127.575	3530.51
1130.848	3502.91
1134.121	3453.22
1137.393	3382.84
1140.665	3466.47
1143.937	3447.09
1147.208	3338.39
1150.48	3367.88
1153.75	3351.43
1157.021	3422.83
1160.291	3376.41
1163.561	3418.43
1166.831	3441.44
1170.101	3479.38
1173.37	3455.76
1176.639	3373.06
1179.907	3444.98
1183.176	3514.01
1186.444	3514.67
1189.711	3546.47
1192.979	3547.12
1196.246	3506.39
1199.513	3530.2
1202.78	3523.84
1206.046	3528.19
1209.312	3578.22
1212.578	3615.87
1215.843	3543.39
1219.108	3520.35
1222.373	3547.95
1225.638	3494.09
1228.902	3464.54
1232.166	3421.27
1235.43	3395.28
1238.693	3411.16
1241.956	3415.47
1245.219	3444.11
1248.482	3454.47
1251.744	3442.6
1255.006	3638.08
1258.268	3597.29
1261.529	3520.97
1264.79	3542.16
1268.051	3684.54
1271.312	3704.47
1274.572	3657.89
1277.832	3650.23
1281.092	3652.24
1284.351	3591.52
1287.61	3563.35
1290.869	3443.59
1294.128	3394.59
1297.386	3540.57
1300.644	3523.06
1303.902	3534.09
1307.159	3374.42
1310.416	3434.67
1313.673	3453.67
1316.93	3423.66
1320.186	3497.35
1323.442	3552.79
1326.697	3527.57
1329.953	3539.62
1333.208	3550.17
1336.463	3535.53
1339.717	3461.6
1342.972	3543.26
1346.226	3555.78
1349.479	3461.89
1352.733	3412.11
1355.986	3456.97
1359.238	3426.41
1362.491	3424.53
1365.743	3431.77
1368.995	3434.37
1372.247	3448.23
1375.498	3458.43
1378.749	3536.63
1382	3466.96
1385.251	3548.42
1388.501	3520.68
1391.751	3485.9
1395	3466.7
1398.25	3508.29
1401.499	3499.55
1404.748	3409.62
1407.996	3308.13
1411.244	3306.23
1414.492	3278.16
1417.74	3251.78
1420.987	3274
1424.234	3324.64
1427.481	3328.03
1430.728	3385.37
1433.974	3359.85
1437.22	3393.85
1440.465	3395.46
1443.711	3410.08
1446.956	3446.34
1450.201	3455.94
1453.445	3501.65
1456.689	3462.39
1459.933	3483.85
1463.177	3512.25
1466.42	3480.85
1469.663	3456.27
1472.906	3422.96
1476.148	3576.43
1479.391	3443.13
1482.633	3431.12
1485.874	3426.72
1489.115	3390.84
1492.356	3422.39
1495.597	3389.05
1498.838	3402.74
1502.078	3344.49
1505.318	3260.47
1508.557	3319.31
1511.797	3225.02
1515.036	3421.16
1518.274	3398.41
1521.513	3384.5
1524.751	3418.82
1527.989	3420.34
1531.227	3426.29
1534.464	3390.3
1537.701	3449.3
1540.938	3480.18
1544.174	3437.23
1547.41	3450.75
1550.646	3487.54
1553.882	3511.72
1557.117	3565.77
1560.352	3593.34
1563.587	3542.32
1566.821	3486.95
1570.055	3553.01
1573.289	3509.53
1576.523	3615.49
1579.756	3610.3
1582.989	3624.75
1586.222	3580.99
1589.454	3633.23
1592.686	3594.48
1595.918	3614.58
1599.15	3589.68
1602.381	3706.24
1605.612	3625.87
1608.843	3731.95
1612.073	3626.29
1615.303	3605.74
1618.533	3583.32
1621.762	3596.23
1624.992	3599.35
1628.221	3562.52
1631.449	3545.56
1634.678	3643.32
1637.906	3583.08
1641.134	3640.45
1644.361	3581.45
1647.588	3562.63
1650.815	3571.24
1654.042	3570.65
1657.269	3610.13
1660.495	3558.47
1663.72	3486.33
1666.946	3480.24
1670.171	3375.17
1673.396	3351.71
1676.621	3352.82
1679.845	3404.96
1683.069	3450.67
1686.293	3517.16
1689.517	3462.55
1692.74	3349.26
1695.963	3366.65
1699.185	3482.41
1702.408	3421.41
1705.63	3481.77
1708.852	3487.87
1712.073	3453.19
1715.294	3417.21
1718.515	3429.08
1721.736	3376.52
1724.956	3325.59
1728.176	3367.09
1731.396	3382.67
1734.616	3383.9
1737.835	3387.64
1741.054	3385.3
1744.272	3384.1
1747.491	3396.42
1750.709	3488.41
1753.927	3394.15
1757.144	3450.8
1760.361	3539.2
1763.578	3547.82
1766.795	3475.28
1770.011	3496.34
1773.227	3565.37
1776.443	3595.18
1779.658	3637.42
1782.874	3582.25
1786.089	3543.7
1789.303	3548.6
1792.518	3559.46
1795.732	3548.64
1798.945	3551.34
1802.159	3615.39
1805.372	3465.28
1808.585	3431.67
1811.797	3436.32
1815.01	3524.17
1818.222	3528.94
1821.434	3381.17
1824.645	3500.96
1827.856	3451.22
1831.067	3508.6
1834.278	3414.28
1837.488	3408.51
1840.698	3602.1
1843.908	3496.87
1847.117	3451.67
1850.326	3267.02
1853.535	3414.65
1856.744	3564.73
1859.952	3430.67
1863.16	3432.2
1866.368	3452.41
1869.575	3627.91
1872.782	3496.6
1875.989	3439.2
1879.196	3577.02
1882.402	3570.36
1885.608	3625.13
1888.814	3476.7
1892.019	3340.01
1895.224	3395.46
1898.429	3390.59
1901.634	3358.09
1904.838	3342.5
1908.042	3383.11
1911.246	3380.99
1914.449	3264.31
1917.652	3284.22
1920.855	3267.57
1924.058	3348.8
1927.26	3377.25
1930.462	3414.79
1933.664	3428.96
1936.865	3354.28
1940.066	3348.72
1943.267	3298.99
1946.467	3324.84
1949.668	3365.06
1952.868	3431.98
1956.067	3388.16
1959.267	3302.35
1962.466	3338.94
1965.665	3328.79
1968.863	3325.81
1972.061	3365.86
1975.259	3369.84
1978.457	3460.47
1981.654	3408.96
1984.852	3409.53
1988.048	3308.95
1991.245	3332.52
1994.441	3426.98
1997.637	3442.89
2000.833	3424.11
2004.028	3471.83
2007.223	3511.48
2010.418	3473.85
2013.613	3440.94
2016.807	3377.81
2020.001	3404.46
2023.194	3484.23
2026.388	3443.02
2029.581	3390.58
2032.774	3421.74
2035.966	3418.25
2039.158	3325.95
2042.35	3365.78
2045.542	3287.75
2048.733	3428.26
2051.924	3491.88
2055.115	3538.81
2058.306	3445.09
2061.496	3517.78
2064.686	3601.7
2067.875	3522.96
2071.065	3554.8
2074.254	3592.77
2077.442	3541.33
2080.631	3648.39
2083.819	3472.19
2087.007	3438.76
2090.195	3387.32
2093.382	3453.49
2096.569	3427.17
2099.756	3361.03
2102.942	3358.34
2106.128	3348.9
2109.314	3350.83
2112.5	3279.88
2115.685	3264.83
2118.87	3280.21
2122.055	3356.99
2125.239	3300.35
2128.424	3249.13
2131.608	3422.27
2134.791	3400.35
2137.974	3493.76
2141.157	3471.99
2144.34	3393.79
2147.523	3401.47
2150.705	3396.35
2153.887	3394.49
2157.068	3308.1
2160.25	3340.41
2163.431	3407.15
2166.611	3311.09
2169.792	3328.27
2172.972	3189.31
2176.152	3312.25
2179.331	3359.97
2182.511	3351.91
2185.69	3389.04
2188.868	3373.95
2192.047	3459.58
2195.225	3415.18
2198.403	3360.44
2201.58	3363.72
2204.758	3363.19
2207.935	3466.87
2211.111	3311.33
2214.288	3286.3
2217.464	3337.79
2220.64	3318.09
2223.815	3382.08
2226.991	3287.91
2230.166	3316.42
2233.34	3325.88
2236.515	3367.14
2239.689	3462.14
2242.863	3388.69
2246.036	3456.64
2249.209	3482.87
2252.382	3539.55
2255.555	3510.91
2258.727	3424.14
2261.9	3476.85
2265.071	3466.14
2268.243	3477.55
2271.414	3384.62
2274.585	3312.66
2277.756	3396.54
2280.926	3347.23
2284.096	3404.11
2287.266	3274.93
2290.436	3348.37
2293.605	3392.94
2296.774	3413.76
2299.942	3458.95
2303.111	3481.08
2306.279	3521.96
2309.447	3510.81
2312.614	3490.08
2315.781	3505.69
2318.948	3461.02
2322.115	3506.55
2325.281	3398.66
2328.447	3438.24
2331.613	3418.71
2334.779	3362.8
2337.944	3375.66
2341.109	3367.47
2344.274	3342.03
2347.438	3300.06
2350.602	3334.29
2353.766	3358.57
2356.929	3337.54
2360.092	3388.5
2363.255	3312.16
2366.418	3196.6
2369.58	3382.64
2372.742	3032.82
2375.904	3076.53
2379.066	3033.42
2382.227	3088.45
2385.388	3043.87
2388.548	2939.57
2391.709	3015.77
2394.869	2983.39
2398.029	3143.06
2401.188	3184.89
2404.347	3073.39
2407.506	3312.42
2410.665	3334.87
2413.823	3366.74
2416.981	3288.5
2420.139	3343.47
2423.296	3407.15
2426.453	3382.88
2429.61	3409.79
2432.767	3294.06
2435.923	3349.37
2439.079	3209.33
2442.235	3306.3
2445.391	3208.18
2448.546	3215.56
2451.701	3292.76
2454.855	3225.87
2458.009	3311.62
2461.163	3331.11
2464.317	3270
2467.471	3316.22
2470.624	3354.01
2473.777	3422.05
2476.929	3407.95
2480.082	3435.62
2483.234	3403.63
2486.385	3255.21
2489.537	3260.66
2492.688	3182.45
2495.839	3200.14
2498.989	3204.55
2502.14	3180.94
2505.29	3146.13
2508.439	3178.83
2511.589	3072.52
2514.738	3105.93
2517.887	3134.3
2521.035	3310.6
2524.183	3303.83
2527.331	3269.38
2530.479	3217.06
2533.627	3238.99
