Data from N_3_DEC_CT_2N_Splice17_13-02-03-700.txt Node
Date: Sat Mar 14 13:02:03 EDT 2020
User: sa697716
Spectrometer: FLMS03696
Trigger mode: 0
Integration Time (sec): 3.180400E-1
Scans to average: 20
Electric dark correction enabled: true
Nonlinearity correction enabled: true
Boxcar width: 5
XAxis mode: Wavelengths
Number of Pixels in Spectrum: 2048
>>>>>Begin Spectral Data<<<<<
187.83	-429778.52
188.298	3115.33
188.766	1583.43
189.233	1519.31
189.701	2141.03
190.169	2968.49
190.636	1118.53
191.104	851.38
191.571	211.93
192.039	20.51
192.506	46.7
192.974	472.29
193.441	-627.87
193.908	-79.24
194.375	57.78
194.842	124.01
195.31	226.34
195.777	211.35
196.244	410.93
196.711	515.47
197.177	616.81
197.644	846.73
198.111	1430.21
198.578	1974.14
199.045	1556.21
199.511	2505.08
199.978	2914.54
200.445	2490.7
200.911	2744.61
201.378	3037.47
201.844	2744.07
202.31	4633.62
202.777	4835.06
203.243	2687.74
203.709	2568.24
204.176	3085.94
204.642	2575.77
205.108	2417.48
205.574	1967.89
206.04	1790.28
206.506	1692.55
206.972	1598.6
207.438	1556.78
207.903	1769.08
208.369	1542.6
208.835	1549.18
209.301	1604.67
209.766	1641.06
210.232	1635.26
210.697	2025.82
211.163	2494.72
211.628	3760.23
212.094	3182.67
212.559	3945.74
213.024	2471.04
213.49	3041.51
213.955	2944.92
214.42	2877.7
214.885	2671.08
215.35	2565.55
215.815	2489.39
216.28	2658.8
216.745	2164.42
217.21	2357.48
217.675	2170.47
218.14	2472.88
218.604	2782.23
219.069	3227.02
219.534	3435.43
219.998	4048.89
220.463	4945.11
220.927	6105.79
221.392	5782.94
221.856	5886.21
222.32	7441.95
222.785	9216.79
223.249	11601.38
223.713	12966.37
224.177	12963.2
224.642	16666.68
225.106	20510.32
225.57	22425.88
226.034	16722.62
226.497	25470.61
226.961	23077.61
227.425	26897.58
227.889	29882.37
228.353	29889.66
228.816	61751.19
229.28	59056.05
229.744	49770.03
230.207	30271.2
230.671	29789.83
231.134	49231.6
231.597	56755.15
232.061	56668.91
232.524	55271.3
232.987	38032.68
233.45	34253.87
233.914	30716.87
234.377	31534.03
234.84	28872.68
235.303	34000.39
235.766	37926.88
236.229	39201.52
236.691	24708.24
237.154	27768.23
237.617	20890.14
238.08	21375.73
238.542	25007.13
239.005	17868.3
239.468	17722.52
239.93	16684.66
240.393	15178.57
240.855	13317.24
241.317	13637.52
241.78	16587.67
242.242	17160.92
242.704	18509.66
243.166	16125.28
243.629	14643.25
244.091	16888.75
244.553	18529.52
245.015	19933.24
245.477	25787.21
245.939	37816.21
246.4	40179.03
246.862	39064.38
247.324	36824.02
247.786	41232.7
248.247	54144.95
248.709	55982.32
249.17	41864.12
249.632	39426.59
250.093	45748.95
250.555	39506.38
251.016	24125.25
251.477	22903.79
251.939	24720.75
252.4	25939.65
252.861	30875.14
253.322	28724.32
253.783	34188.05
254.244	44415.83
254.705	35004.94
255.166	31145.83
255.627	30698.24
256.088	43333.38
256.549	45992.71
257.009	39663.93
257.47	48113.93
257.931	39225.46
258.391	29408.53
258.852	30330.13
259.312	31798.94
259.773	39340.7
260.233	33263.62
260.694	28070.3
261.154	31824.11
261.614	25564.03
262.074	22874.33
262.534	23802.13
262.994	22432.71
263.455	29900.04
263.915	25229.4
264.374	23755.37
264.834	25940.81
265.294	28753.13
265.754	29807.53
266.214	28238.25
266.673	26489.58
267.133	33424.89
267.593	33165.6
268.052	40619.06
268.512	35364.59
268.971	42606.96
269.431	46789.17
269.89	41921.2
270.349	62914.36
270.809	70154.48
271.268	63077.92
271.727	141492.04
272.186	91743.25
272.645	68846.06
273.104	49645.53
273.563	71891.36
274.022	56585.96
274.481	48131.11
274.94	37108.03
275.399	27587.11
275.857	32129.29
276.316	43503.07
276.775	38712.25
277.233	38117.84
277.692	35688.2
278.15	40385.95
278.609	41524.87
279.067	38414.73
279.525	35710.89
279.984	46071.07
280.442	55309.71
280.9	54496.65
281.358	35822.1
281.816	33410.53
282.274	32722.4
282.732	33773.24
283.19	33942.56
283.648	29278.01
284.106	31185.58
284.564	31684.15
285.021	29403.65
285.479	21911.96
285.937	19946.6
286.394	17486.85
286.852	17976.4
287.309	18895.93
287.767	18287.52
288.224	17382.59
288.682	19075.92
289.139	20928.08
289.596	19153.64
290.053	19904.2
290.511	25146.23
290.968	30476.31
291.425	41414.67
291.882	34483
292.339	29976.94
292.796	29736.02
293.252	28043.86
293.709	22300.55
294.166	19998.09
294.623	22088.18
295.079	21219.64
295.536	21311.07
295.992	19366.52
296.449	19142.69
296.905	19895.67
297.362	19076.12
297.818	20057.03
298.274	20788.61
298.731	21159.25
299.187	20940.53
299.643	22493.44
300.099	27156.51
300.555	29753.14
301.011	24821.46
301.467	23900.53
301.923	27928.76
302.379	27270.39
302.835	26768.78
303.291	26790.15
303.746	30469.97
304.202	38459.31
304.658	38576.68
305.113	25970.42
305.569	25433.64
306.024	27131.96
306.479	25812.7
306.935	21776.34
307.39	23777.07
307.845	21922.56
308.301	22056.45
308.756	21502.03
309.211	20694.69
309.666	21215.38
310.121	26283.99
310.576	26676.37
311.031	26426.14
311.486	30265.82
311.94	30234.18
312.395	40419.78
312.85	75993.12
313.305	373329.25
313.759	1932487.38
314.214	140083.41
314.668	111159.84
315.123	93501.18
315.577	33516.39
316.032	29823.9
316.486	37374.49
316.94	29476.67
317.394	20494.39
317.849	15932.44
318.303	15080.74
318.757	14228.97
319.211	15725.79
319.665	13729.4
320.119	13896.75
320.572	19923.43
321.026	18592.73
321.48	15468.81
321.934	16863.64
322.387	16905.89
322.841	18245.9
323.295	16404.63
323.748	18897.87
324.202	19191.82
324.655	23057.28
325.108	32178.25
325.562	22727.77
326.015	27046.03
326.468	20445.12
326.921	22832.54
327.374	21285.91
327.827	22163.73
328.28	25059.32
328.733	16774.04
329.186	14732.42
329.639	14004.89
330.092	11803.02
330.545	11230.46
330.997	11313.52
331.45	12370.57
331.903	14499.85
332.355	24926.83
332.808	24221.79
333.26	19976.13
333.713	21680
334.165	21816.68
334.617	29156.03
335.069	23566.17
335.522	42647.76
335.974	47152.97
336.426	43049.31
336.878	29806.6
337.33	15109.41
337.782	14754.88
338.234	18499.58
338.686	22086.06
339.137	26148.79
339.589	24603.03
340.041	19238.06
340.493	16521.39
340.944	16927.05
341.396	18222.98
341.847	15311.69
342.299	18092.93
342.75	22080.21
343.201	19251.42
343.653	22136.48
344.104	27219.79
344.555	21425.67
345.006	33379.4
345.457	25564.26
345.908	20345.24
346.359	19138.18
346.81	15591.25
347.261	16392.05
347.712	16117.94
348.163	17293.95
348.613	17524.23
349.064	16363.5
349.515	14331.82
349.965	14701.11
350.416	17693.7
350.866	19398.58
351.317	21905.46
351.767	36246.05
352.217	45806.11
352.668	38017.72
353.118	34786.98
353.568	33537.98
354.018	26508.32
354.468	27936.26
354.918	20026.31
355.368	17518.18
355.818	24732.59
356.268	71112.3
356.718	297701.12
357.168	74047.71
357.617	37204.34
358.067	41395.3
358.517	38769.12
358.966	45472.22
359.416	50951.51
359.865	55111.17
360.315	65504.66
360.764	30529.18
361.213	17109.76
361.663	16186.87
362.112	19973.76
362.561	32187.55
363.01	24240.32
363.459	20392.92
363.908	22007.62
364.357	18708.33
364.806	31542.74
365.255	21704.23
365.703	19892.93
366.152	19930.19
366.601	16163.71
367.05	13136.05
367.498	11949.44
367.947	12495.02
368.395	12967.55
368.844	11496.72
369.292	13834.96
369.74	9560.14
370.189	14618.69
370.637	17099.77
371.085	14719.56
371.533	17913.14
371.981	17219.54
372.429	16405.31
372.877	17083.26
373.325	14308.52
373.773	14571.61
374.221	12947.21
374.669	16023.87
375.116	13861.8
375.564	13973.19
376.012	15632.75
376.459	12886.61
376.907	15395.61
377.354	18584.99
377.801	17286.47
378.249	19828.43
378.696	25277.76
379.143	30577.93
379.591	32583.91
380.038	55012.99
380.485	39766.49
380.932	42861.06
381.379	39158.62
381.826	28777.29
382.273	20401.12
382.72	17805.69
383.166	17366.51
383.613	11263.13
384.06	10145.57
384.506	11732.57
384.953	8593.96
385.4	8625.51
385.846	7530.52
386.292	7303.22
386.739	7126.97
387.185	7038.15
387.631	7037
388.078	6806.4
388.524	7240.49
388.97	6676.48
389.416	5545.25
389.862	5874.68
390.308	5547.4
390.754	5628.94
391.2	6112.21
391.645	6247.47
392.091	5963.49
392.537	5750.02
392.983	5739.74
393.428	5656.95
393.874	6047.41
394.319	6074.83
394.765	5760.18
395.21	5911.66
395.655	5534.28
396.101	5173.35
396.546	4666.72
396.991	4695.46
397.436	4353.7
397.881	4203.2
398.326	3966.17
398.771	3752.16
399.216	3268.61
399.661	2938.41
400.106	2925.73
400.551	2991.93
400.995	2677.84
401.44	2647.26
401.885	2485.02
402.329	2505.26
402.774	2402.16
403.218	2327.52
403.663	2236.03
404.107	2293.83
404.551	2309.22
404.995	2114.78
405.44	2033.79
405.884	2063.01
406.328	1989.24
406.772	1980.92
407.216	1803.65
407.66	1739.63
408.104	1646.99
408.547	1540.98
408.991	1491.44
409.435	1432.21
409.879	1411.09
410.322	1392.43
410.766	1344.52
411.209	1276.53
411.653	1225
412.096	1197.95
412.54	1198.75
412.983	1188.75
413.426	1194.76
413.869	1192.45
414.312	1171.93
414.756	1129.84
415.199	1074.03
415.642	1043.77
416.085	1047.3
416.527	1039.21
416.97	1055.57
417.413	998.82
417.856	989.24
418.298	974.11
418.741	965.2
419.184	959.57
419.626	994.45
420.069	996.59
420.511	1000.97
420.953	979.79
421.396	969.81
421.838	944.43
422.28	966.38
422.722	970.94
423.164	985.42
423.606	971.94
424.048	969.38
424.49	924.02
424.932	919.26
425.374	905.17
425.816	918.98
426.258	937.98
426.699	947.08
427.141	931.1
427.582	943.39
428.024	937.76
428.465	931.13
428.907	909.92
429.348	900.01
429.789	900.25
430.231	882.27
430.672	894.56
431.113	871.95
431.554	857.42
431.995	835.64
432.436	806.83
432.877	789.26
433.318	775.22
433.759	772.35
434.2	769.97
434.64	759.82
435.081	759.13
435.522	717.86
435.962	690.69
436.403	677.58
436.843	686.63
437.284	671.05
437.724	652.16
438.164	651.96
438.604	635
439.045	609.57
439.485	585.06
439.925	572.83
440.365	558.65
440.805	551.39
441.245	544.6
441.685	524
442.125	518.57
442.564	520.78
443.004	508.02
443.444	507.35
443.883	509.24
444.323	503.68
444.762	502.47
445.202	507.85
445.641	516.32
446.081	512.08
446.52	516.46
446.959	512.61
447.398	500.6
447.837	495.43
448.276	485.95
448.716	489.83
449.154	493.36
449.593	483.06
450.032	481.85
450.471	472.55
450.91	472.55
451.349	470.45
451.787	468.95
452.226	476.46
452.664	475.21
453.103	476.4
453.541	475.28
453.98	475.58
454.418	477.57
454.856	470.04
455.295	468.88
455.733	472.01
456.171	474.26
456.609	473.02
457.047	471.19
457.485	477.7
457.923	477.5
458.361	469.52
458.798	470.29
459.236	468.53
459.674	469.75
460.111	472
460.549	467.32
460.987	465.47
461.424	463.31
461.862	460.86
462.299	454.18
462.736	453.79
463.173	455.06
463.611	451.11
464.048	450.17
464.485	454.17
464.922	449.58
465.359	446.36
465.796	444.69
466.233	442.13
466.67	439.31
467.106	438.14
467.543	432.96
467.98	428.05
468.416	414.65
468.853	411.67
469.29	398.69
469.726	393.75
470.162	383.17
470.599	374.05
471.035	369.78
471.471	360.13
471.907	357.08
472.344	354.57
472.78	355.79
473.216	360.32
473.652	355.39
474.088	355.18
474.523	354.28
474.959	357.31
475.395	354.55
475.831	353.32
476.266	354.44
476.702	353.62
477.138	349.55
477.573	347.99
478.008	346.37
478.444	349.16
478.879	352.6
479.314	353.95
479.75	353.56
480.185	354.42
480.62	355.48
481.055	357.31
481.49	359.93
481.925	365.69
482.36	373.14
482.795	383.01
483.229	391.59
483.664	398.62
484.099	399.06
484.534	405.34
484.968	408.48
485.403	410.51
485.837	409.31
486.271	407.98
486.706	407.45
487.14	400.94
487.574	394.45
488.009	389.82
488.443	386.55
488.877	391.22
489.311	392.46
489.745	397.77
490.179	401.44
490.613	409.67
491.046	411.85
491.48	414.61
491.914	415.13
492.348	418.55
492.781	421.95
493.215	422.86
493.648	423.09
494.082	425.61
494.515	425.77
494.948	430.79
495.382	433.84
495.815	437.5
496.248	441.2
496.681	449
497.114	456.16
497.547	462.96
497.98	471.12
498.413	476.29
498.846	483.23
499.279	489.36
499.711	492.27
500.144	494.27
500.577	502.65
501.009	510.97
501.442	519.93
501.874	522.61
502.306	525.77
502.739	534.37
503.171	545.65
503.603	550.52
504.036	558.48
504.468	564.86
504.9	573.94
505.332	580.84
505.764	586.22
506.196	593.16
506.627	605.64
507.059	617.15
507.491	624.48
507.923	626.48
508.354	638.81
508.786	649.86
509.217	665.99
509.649	680.87
510.08	696.81
510.512	713.42
510.943	727.87
511.374	740.53
511.805	759.03
512.237	777.02
512.668	803.77
513.099	828.36
513.53	852.51
513.961	871.83
514.391	899.72
514.822	930.37
515.253	960.89
515.684	984.4
516.114	1010.68
516.545	1031.68
516.975	1056.56
517.406	1075.09
517.836	1082.48
518.267	1093
518.697	1112.4
519.127	1120.93
519.558	1131.27
519.988	1138.51
520.418	1150.99
520.848	1169.49
521.278	1181.83
521.708	1214.1
522.138	1228.98
522.567	1258.26
522.997	1282.45
523.427	1299.74
523.857	1317.42
524.286	1329.96
524.716	1346.35
525.145	1366.07
525.575	1379.55
526.004	1394.28
526.433	1380.28
526.863	1383.63
527.292	1378.52
527.721	1386.73
528.15	1393.45
528.579	1396.82
529.008	1408.66
529.437	1431.54
529.866	1445.43
530.295	1461.66
530.724	1475.58
531.152	1501.91
531.581	1517.83
532.01	1534.87
532.438	1543.78
532.867	1558.09
533.295	1575.47
533.723	1582.16
534.152	1580.9
534.58	1582.7
535.008	1570.75
535.436	1574.18
535.865	1580.82
536.293	1592.47
536.721	1607.5
537.149	1629.25
537.576	1632.54
538.004	1645.3
538.432	1651.88
538.86	1650.49
539.287	1656.75
539.715	1668.48
540.143	1670.07
540.57	1666.15
540.998	1663.25
541.425	1643.4
541.852	1627.18
542.28	1625.76
542.707	1611.01
543.134	1599.25
543.561	1596.31
543.988	1589.71
544.415	1590.47
544.842	1585.36
545.269	1580.68
545.696	1583.12
546.123	1594.73
546.549	1585.77
546.976	1575.36
547.403	1574.75
547.829	1577.7
548.256	1581.21
548.682	1579.05
549.108	1572.88
549.535	1573.96
549.961	1576.23
550.387	1564.91
550.813	1561.62
551.24	1567.54
551.666	1568.48
552.092	1561.5
552.518	1556.04
552.943	1550.68
553.369	1558.4
553.795	1563.59
554.221	1564.3
554.646	1561.15
555.072	1573.02
555.498	1576.6
555.923	1584.34
556.349	1597.97
556.774	1604.73
557.199	1604.32
557.625	1609.04
558.05	1603.01
558.475	1611.73
558.9	1610.07
559.325	1604.19
559.75	1595.85
560.175	1588.61
560.6	1581.47
561.025	1577.89
561.449	1577.78
561.874	1582.75
562.299	1585.03
562.723	1589.01
563.148	1578.58
563.572	1580.14
563.997	1585.64
564.421	1588.55
564.846	1587.48
565.27	1589.17
565.694	1585.69
566.118	1592.73
566.542	1597.42
566.966	1589.5
567.39	1583.72
567.814	1572.05
568.238	1568.95
568.662	1570.08
569.086	1569.76
569.509	1573.12
569.933	1557.56
570.357	1548.64
570.78	1529.41
571.204	1515.19
571.627	1503.87
572.05	1499.8
572.474	1496.9
572.897	1484.72
573.32	1476.62
573.743	1465.66
574.166	1448.01
574.589	1446.01
575.012	1437.63
575.435	1433.93
575.858	1424.55
576.281	1413.33
576.704	1397.47
577.126	1384.73
577.549	1374.57
577.972	1364.49
578.394	1354.6
578.817	1348.69
579.239	1332.09
579.661	1319.21
580.084	1305.7
580.506	1293.22
580.928	1288.42
581.35	1279.15
581.772	1275.42
582.194	1262.54
582.616	1250.18
583.038	1237.31
583.46	1225.26
583.882	1220.99
584.303	1222.97
584.725	1217.7
585.147	1219.9
585.568	1227.78
585.99	1236.3
586.411	1240.17
586.833	1251.54
587.254	1251.71
587.675	1262.09
588.096	1273.5
588.518	1268.3
588.939	1253.85
589.36	1251.84
589.781	1240.24
590.202	1216.56
590.623	1208.97
591.043	1205.78
591.464	1194.19
591.885	1191.95
592.305	1186.95
592.726	1174.21
593.147	1174.65
593.567	1171.46
593.987	1164.06
594.408	1159.41
594.828	1157.04
595.248	1151.41
595.669	1137.16
596.089	1130.07
596.509	1123.28
596.929	1112.4
597.349	1112.44
597.769	1103.35
598.189	1096.77
598.608	1097.32
599.028	1098.76
599.448	1097.11
599.867	1086.45
600.287	1081.8
600.706	1079.22
601.126	1070.36
601.545	1068.07
601.965	1065.45
602.384	1059.87
602.803	1060.4
603.222	1056.05
603.641	1049.39
604.061	1045.94
604.48	1042.14
604.898	1047.61
605.317	1050.05
605.736	1051.69
606.155	1048.9
606.574	1041.18
606.992	1045.75
607.411	1041.81
607.829	1039.28
608.248	1035.28
608.666	1032.93
609.085	1031.13
609.503	1022.29
609.921	1016.14
610.339	1015.65
610.758	1013.24
611.176	1009.16
611.594	1000.46
612.012	995.12
612.43	990.75
612.847	994.15
613.265	993.3
613.683	994.61
614.101	994.42
614.518	989.52
614.936	981.51
615.353	968.56
615.771	964.07
616.188	963.05
616.606	960.34
617.023	954.05
617.44	942.01
617.857	935.62
618.274	928.05
618.691	923.1
619.108	915.39
619.525	909.26
619.942	914.87
620.359	916.21
620.776	910.95
621.192	907.4
621.609	904.91
622.026	910.04
622.442	913.51
622.859	915.86
623.275	909.79
623.691	912.98
624.108	919.99
624.524	928.26
624.94	926.96
625.356	933.31
625.772	941.53
626.188	949.75
626.604	950.62
627.02	947.41
627.436	945.52
627.852	950.28
628.268	959.29
628.683	953.18
629.099	946.51
629.514	941.86
629.93	944.44
630.345	947.63
630.761	944.19
631.176	945.05
631.591	940.35
632.007	935.05
632.422	932.84
632.837	923.86
633.252	921.98
633.667	913.6
634.082	907.21
634.497	897.05
634.911	882.52
635.326	877.77
635.741	864.84
636.155	855.81
636.57	855.34
636.984	852
637.399	851.05
637.813	846.89
638.228	844.2
638.642	843.5
639.056	833.07
639.47	829.47
639.884	820.41
640.298	811.7
640.712	808.03
641.126	795.82
641.54	787.23
641.954	779.13
642.368	769.05
642.781	761.86
643.195	747.37
643.609	745.48
644.022	738.4
644.436	733.02
644.849	722.9
645.262	711.81
645.676	709.9
646.089	703.78
646.502	691.74
646.915	685.45
647.328	671.52
647.741	669.01
648.154	657.82
648.567	654.78
648.98	645.54
649.393	644.52
649.805	641.98
650.218	637.09
650.631	626.95
651.043	622.68
651.456	617.67
651.868	616.55
652.28	626.36
652.693	635
653.105	637.91
653.517	642.84
653.929	641.63
654.341	642.99
654.753	633.28
655.165	636
655.577	633.76
655.989	630.9
656.401	624.85
656.813	602.47
657.224	588.31
657.636	569.46
658.047	558.1
658.459	545.42
658.87	538.89
659.282	530.27
659.693	517.57
660.104	508.05
660.515	497.45
660.926	495.52
661.338	491.64
661.749	486.37
662.159	480.93
662.57	476.14
662.981	473.31
663.392	468.63
663.803	470.75
664.213	467.45
664.624	463.05
665.035	464.42
665.445	455.85
665.855	451.94
666.266	448.05
666.676	445.56
667.086	441.07
667.497	441.1
667.907	437.8
668.317	432.06
668.727	432.03
669.137	432.38
669.547	430.15
669.956	431.36
670.366	432.37
670.776	434.44
671.186	437.76
671.595	440.32
672.005	441.8
672.414	440.84
672.824	441.36
673.233	442.18
673.642	444.82
674.052	449.37
674.461	452.85
674.87	457.16
675.279	457.39
675.688	458.54
676.097	460.29
676.506	458.76
676.915	469.46
677.323	472.17
677.732	473.33
678.141	475.04
678.549	469.83
678.958	470.26
679.366	469.86
679.775	473.06
680.183	481.93
680.592	485.76
681	491.8
681.408	487.74
681.816	494.27
682.224	500.27
682.632	508.24
683.04	528.51
683.448	543
683.856	563.66
684.264	586.32
684.671	606.53
685.079	635.04
685.487	664.28
685.894	706.31
686.302	740.1
686.709	771.33
687.116	805.55
687.524	835.71
687.931	864.96
688.338	890.71
688.745	913.64
689.152	940.56
689.559	975.48
689.966	1011.71
690.373	1032.54
690.78	1067.57
691.187	1117.88
691.593	1160.84
692	1198.93
692.407	1251.94
692.813	1315.96
693.22	1370.29
693.626	1425.89
694.032	1471.73
694.439	1538.27
694.845	1594.61
695.251	1663.43
695.657	1725.81
696.063	1812.21
696.469	1879.57
696.875	1944.53
697.281	1986.6
697.687	2034.72
698.093	2078.11
698.498	2150.87
698.904	2209.08
699.31	2293.71
699.715	2357.12
700.12	2444.83
700.526	2471.35
700.931	2542.01
701.337	2597.47
701.742	2636.7
702.147	2719.1
702.552	2756.7
702.957	2818.38
703.362	2845.79
703.767	2878.44
704.172	2921.79
704.577	2888.87
704.981	2937.73
705.386	2960.84
705.791	2961.02
706.195	3034.02
706.6	3050.08
707.004	3127.51
707.408	3107.5
707.813	3137.43
708.217	3134.24
708.621	3141.77
709.025	3237.04
709.43	3247.24
709.834	3308.11
710.237	3377.78
710.641	3370.64
711.045	3396.23
711.449	3397.08
711.853	3429.88
712.256	3476.15
712.66	3515.45
713.064	3590.62
713.467	3633.37
713.87	3740.17
714.274	3785.09
714.677	3890.11
715.08	4045.57
715.484	4205.44
715.887	4398.27
716.29	4586.58
716.693	4784.15
717.096	5012.93
717.499	5141.55
717.901	5171.16
718.304	5202.31
718.707	5233.62
719.109	5143.71
719.512	5117.92
719.915	4997.75
720.317	4945.49
720.719	4987.8
721.122	4962.03
721.524	4915.51
721.926	4880.89
722.328	4979.22
722.731	4972.72
723.133	5000.55
723.535	5186.34
723.937	5205.2
724.338	5256.11
724.74	5299.67
725.142	5253.24
725.544	5256.8
725.945	5291.23
726.347	5289.91
726.748	5284.75
727.15	5301.34
727.551	5269.88
727.952	5244.31
728.354	5221.21
728.755	5223.29
729.156	5188.15
729.557	5172.34
729.958	5059.67
730.359	5007.16
730.76	4991.36
731.161	4936.26
731.562	4913.43
731.962	4917.97
732.363	4861.33
732.763	4804.04
733.164	4841.36
733.564	4778.64
733.965	4689.1
734.365	4656.52
734.766	4683.35
735.166	4646.58
735.566	4594.62
735.966	4572.46
736.366	4567.33
736.766	4510.38
737.166	4540.5
737.566	4500.87
737.966	4477.51
738.365	4515.19
738.765	4511.47
739.165	4441.16
739.564	4419.23
739.964	4463.04
740.363	4418.71
740.763	4415.56
741.162	4403.09
741.561	4373.3
741.96	4331.01
742.36	4347.74
742.759	4353.43
743.158	4388.9
743.557	4402.33
743.955	4437.77
744.354	4394.47
744.753	4447.9
745.152	4411.71
745.55	4466.01
745.949	4457.89
746.348	4459.22
746.746	4476.94
747.144	4440.43
747.543	4420.96
747.941	4467.7
748.339	4402.01
748.737	4397.43
749.136	4391.11
749.534	4453.16
749.932	4426.4
750.33	4451.32
750.727	4503.04
751.125	4481.75
751.523	4466.92
751.921	4508.18
752.318	4477.62
752.716	4534.18
753.113	4545.58
753.511	4567.73
753.908	4567.05
754.305	4550.34
754.703	4607.98
755.1	4667.56
755.497	4722.39
755.894	4901.24
756.291	5069.73
756.688	5378.48
757.085	5790.74
757.482	6372.4
757.878	7009.74
758.275	7585.31
758.672	8376.44
759.068	9020.41
759.465	9935.33
759.861	11120.95
760.258	12498.13
760.654	13204.9
761.05	13102.04
761.447	12507.87
761.843	11643.33
762.239	10750
762.635	10344.34
763.031	9955.48
763.427	9401.52
763.822	8815.86
764.218	8238.38
764.614	7478
765.01	6973.61
765.405	6646.72
765.801	6398.06
766.196	6082.14
766.592	5908.74
766.987	5610.34
767.382	5409.88
767.778	5323.48
768.173	5199.42
768.568	5126.36
768.963	5015.77
769.358	5033.33
769.753	4990.42
770.148	4911.19
770.542	4913.3
770.937	4883.08
771.332	4969.41
771.726	4987.27
772.121	4932.13
772.515	4984.7
772.91	4974.15
773.304	5037.15
773.699	4974.13
774.093	5024.24
774.487	5075.4
774.881	5114.02
775.275	5111.56
775.669	5073.25
776.063	5113.78
776.457	5142.35
776.851	5071.85
777.245	5064.57
777.638	5094.76
778.032	5205.59
778.425	5171.39
778.819	5210.97
779.212	5171.64
779.606	5130.71
779.999	5150.04
780.392	5134.82
780.786	5214.03
781.179	5235.7
781.572	5274.46
781.965	5288.29
782.358	5232.67
782.751	5286.95
783.143	5243.3
783.536	5313.22
783.929	5352.14
784.322	5460.2
784.714	5491.04
785.107	5488.39
785.499	5557.55
785.891	5537.89
786.284	5521.18
786.676	5654.89
787.068	5634.89
787.46	5680.93
787.852	5698.14
788.245	5782.25
788.636	5810.23
789.028	5876.31
789.42	5912.5
789.812	5917.41
790.204	6008.96
790.595	6100.89
790.987	5917.04
791.378	5940.78
791.77	6065.68
792.161	6195.04
792.553	6244.6
792.944	6138.74
793.335	6071.42
793.726	6140.92
794.117	6227.46
794.508	6355.09
794.899	6327.65
795.29	6460.6
795.681	6511.89
796.072	6378.72
796.463	6206.68
796.853	6219.77
797.244	6371.15
797.634	6406.3
798.025	6404.93
798.415	6416.65
798.806	6505.33
799.196	6587.13
799.586	6633.63
799.976	6602.83
800.366	6820.66
800.756	7044.21
801.146	7007.22
801.536	7035.51
801.926	7102.3
802.316	7127.55
802.706	7196.61
803.095	7080.19
803.485	7178.98
803.874	7221.73
804.264	7463.77
804.653	7439.39
805.043	7581.51
805.432	7684.03
805.821	7683.2
806.21	7709.52
806.599	7824.72
806.988	7869.14
807.377	7971.72
807.766	8094.97
808.155	8362.31
808.544	8116.99
808.933	8132.97
809.321	8116.74
809.71	8396.98
810.098	8545.82
810.487	8977.5
810.875	9425.75
811.264	9448.66
811.652	9722.28
812.04	9855.47
812.428	10013.68
812.816	10733.02
813.204	11129.87
813.592	11640.11
813.98	11950.72
814.368	11864.65
814.756	12317.34
815.144	12248.38
815.531	12687.14
815.919	12614.51
816.306	12905.45
816.694	12613.36
817.081	12660.82
817.469	12982.44
817.856	12984.77
818.243	13244.16
818.63	13617.63
819.017	13226.11
819.404	13284.23
819.791	13646.96
820.178	14230.06
820.565	14471.81
820.952	15351.26
821.339	14892.4
821.725	15073.99
822.112	14377.23
822.498	14342.4
822.885	14468.8
823.271	14382.57
823.657	14781.23
824.044	14782.57
824.43	14850.68
824.816	14816.32
825.202	14402.49
825.588	15359.9
825.974	15376.57
826.36	15863.84
826.746	15902.89
827.132	16236.64
827.517	16205.99
827.903	15462.2
828.289	15499.84
828.674	14768.66
829.06	14669.14
829.445	15046.15
829.83	15387.82
830.216	15829.91
830.601	16170.02
830.986	15778.35
831.371	15649.8
831.756	16178.06
832.141	15773.54
832.526	15760.17
832.911	16020.71
833.295	15908.61
833.68	16351.53
834.065	15765.97
834.449	14906.22
834.834	14832.13
835.218	14825.62
835.603	15141.79
835.987	14939.34
836.371	15716.72
836.755	15621.65
837.139	15998.05
837.524	16229.04
837.908	16051.54
838.291	16100.02
838.675	16160.72
839.059	16357.3
839.443	16350.73
839.827	16126.58
840.21	16572.29
840.594	16435.13
840.977	16624.63
841.361	16601.87
841.744	16954.92
842.127	16806.74
842.511	17044.52
842.894	17598.3
843.277	17951.5
843.66	18452.84
844.043	18534.48
844.426	17784.72
844.809	17493.03
845.191	17524.32
845.574	17095.6
845.957	16747.05
846.339	16650.43
846.722	16151.1
847.104	16222.24
847.487	16059.58
847.869	16073.81
848.252	16335.33
848.634	16638.65
849.016	16881.9
849.398	16996.83
849.78	17792.98
850.162	17801.03
850.544	18195.31
850.926	18783.79
851.307	18697.59
851.689	18963.9
852.071	19378.5
852.452	19683.41
852.834	19667.79
853.215	20035.4
853.597	20180.72
853.978	20456.99
854.359	20884.18
854.741	19941.66
855.122	19848.05
855.503	19581.67
855.884	19712.46
856.265	19654.07
856.646	19754.93
857.026	19383.72
857.407	19325.1
857.788	19474.13
858.169	19739.95
858.549	18935.02
858.93	19520.44
859.31	19568.46
859.69	19762.86
860.071	19376.93
860.451	19179.87
860.831	18494.08
861.211	19578.06
861.591	20095.68
861.971	20074.01
862.351	20254.67
862.731	20615.16
863.111	20859.52
863.491	21171.44
863.87	21994.04
864.25	22324.67
864.629	21946.71
865.009	22425.28
865.388	23218.39
865.768	24885.85
866.147	24780.42
866.526	23404.24
866.905	23692.33
867.284	25017.34
867.663	23752.77
868.042	22745.24
868.421	22664.51
868.8	23050.31
869.179	23279.57
869.558	21924.33
869.936	20203.81
870.315	20563.59
870.693	21074.2
871.072	22722.27
871.45	21645.06
871.828	21915.75
872.207	23058.46
872.585	22710.71
872.963	23322.45
873.341	22517.61
873.719	22264.24
874.097	21997.21
874.475	22423.13
874.853	22927.23
875.23	21982.26
875.608	22914.46
875.986	24791.93
876.363	23709.07
876.741	24433.33
877.118	23815.58
877.495	24991
877.873	25397.16
878.25	26720.83
878.627	25629.16
879.004	25994.86
879.381	25870.18
879.758	25181.16
880.135	23445.04
880.512	24794.32
880.889	24136.69
881.265	23899
881.642	23692.8
882.019	24099.85
882.395	23616.08
882.772	24546.06
883.148	23472.44
883.524	23368.74
883.901	23221.66
884.277	23570.33
884.653	23419.71
885.029	24087.94
885.405	26667.32
885.781	26454.74
886.157	25365.05
886.532	25665.89
886.908	25652.1
887.284	28520.54
887.659	29452.55
888.035	30377.35
888.411	31141.59
888.786	31543.91
889.161	32637.37
889.537	32036.79
889.912	33054.48
890.287	33020.2
890.662	33866.07
891.037	33246.07
891.412	30998.61
891.787	30687.37
892.162	29610.34
892.536	30308.9
892.911	29168.09
893.286	28556.56
893.66	27389.08
894.035	28090.02
894.409	30566.87
894.784	29334.01
895.158	29815.46
895.532	31579.72
895.906	32434.1
896.281	33197.51
896.655	32653.45
897.029	37317.58
897.402	38857.58
897.776	43255.26
898.15	43114.11
898.524	42673.38
898.898	43239.65
899.271	48406.5
899.645	41923.87
900.018	40269.24
900.392	41769.78
900.765	42126.59
901.138	38963.27
901.511	38369.75
901.884	35228.13
902.258	32478.24
902.631	33550.29
903.003	38595.04
903.376	34835.15
903.749	39072.53
904.122	41811.63
904.495	46027.43
904.867	46595.5
905.24	40463.71
905.612	37655.42
905.985	38518.14
906.357	40293.12
906.729	38440.97
907.102	32848.05
907.474	31581.41
907.846	31769.2
908.218	31353.56
908.59	27706.33
908.962	26801.86
909.334	28876.19
909.705	30340.24
910.077	29459.86
910.449	30660.16
910.82	31523.71
911.192	34702.22
911.563	36067.9
911.935	38582.58
912.306	38653.08
912.677	39918.21
913.048	39513.84
913.419	42841.81
913.79	43086.5
914.161	46195.16
914.532	44153.31
914.903	40594.47
915.274	38542.55
915.645	37980.23
916.015	33449.54
916.386	31893.23
916.756	33946.75
917.127	35025.81
917.497	31308.71
917.868	34073.32
918.238	32386.26
918.608	33330.49
918.978	34016.05
919.348	36030.73
919.718	37227.76
920.088	35874.21
920.458	37288.36
920.828	39243.99
921.198	37216.34
921.567	39759.62
921.937	30804.71
922.306	31086.62
922.676	33524.29
923.045	27979.78
923.415	26591.55
923.784	24217.24
924.153	24911.26
924.522	24870.95
924.891	23375.15
925.26	25025.44
925.629	24438.55
925.998	28114.03
926.367	27450.12
926.736	26145.27
927.104	31131.97
927.473	33455.65
927.842	40421.99
928.21	39985.99
928.578	42021.89
928.947	39749.57
929.315	40001.76
929.683	46891.38
930.051	47243.44
930.42	54889.23
930.788	46901.12
931.156	46534.8
931.523	43634.73
931.891	40304.14
932.259	38727.9
932.627	44895.44
932.994	63518.54
933.362	52508.04
933.729	45633.61
934.097	43616.39
934.464	36882.48
934.831	42546.22
935.199	41914.32
935.566	40639.3
935.933	41260.74
936.3	50007.8
936.667	38940.36
937.034	35126.38
937.401	34736.38
937.767	29972.33
938.134	26716.36
938.501	37687.03
938.867	40195.91
939.234	68092.49
939.6	58118.84
939.967	63893.28
940.333	42771.24
940.699	36457.17
941.065	29284.27
941.431	38410.26
941.798	37043.03
942.163	48652.35
942.529	30410.87
942.895	27996.07
943.261	18118.36
943.627	23781.91
943.992	20836.7
944.358	20887.75
944.723	20954.05
945.089	20420.98
945.454	18876.24
945.82	20154.27
946.185	19357.45
946.55	22421.44
946.915	20129.15
947.28	23581.39
947.645	20736.18
948.01	19141.75
948.375	19938.98
948.74	23882.55
949.104	27870.96
949.469	40232.89
949.834	71043.01
950.198	67461.14
950.562	40439.48
950.927	33708.1
951.291	40594.58
951.655	34605.96
952.02	32496.96
952.384	24563.99
952.748	21403.69
953.112	20857.72
953.476	18155.22
953.839	16808.54
954.203	16637.58
954.567	20820.7
954.931	32738.34
955.294	27992.09
955.658	28129.03
956.021	47825.86
956.385	81123.93
956.748	119706.01
957.111	185787.69
957.474	208587.58
957.837	234772.05
958.2	177572.21
958.563	63869.06
958.926	43196.84
959.289	65574.08
959.652	73341.27
960.015	55035.2
960.377	79013.2
960.74	90113.39
961.102	155425.67
961.465	166854.74
961.827	89358.05
962.189	171486.46
962.552	118948.33
962.914	95305.41
963.276	61825.61
963.638	51098.73
964	50574.81
964.362	34167.66
964.724	33073.55
965.085	23588.21
965.447	19340.99
965.809	22021.78
966.17	22047.53
966.532	23852.69
966.893	21885.96
967.255	19925.67
967.616	23493.49
967.977	18831.45
968.338	20561.99
968.699	16869.21
969.061	16879.05
969.421	16976.51
969.782	19060.41
970.143	16094.81
970.504	16664.16
970.865	18951.69
971.225	19374.61
971.586	18961.07
971.946	27006.65
972.307	23456.83
972.667	30676.86
973.027	31556.09
973.388	38294.71
973.748	26065.87
974.108	28380.44
974.468	38390.06
974.828	29636.32
975.188	22792.79
975.548	20937.96
975.907	17563.14
976.267	19673.33
976.627	16532.39
976.986	17156.03
977.346	16336.34
977.705	15704.35
978.064	14305.29
978.424	11908.87
978.783	12290.54
979.142	14027.61
979.501	13445.93
979.86	14242.75
980.219	13727.02
980.578	17705.01
980.937	19826.85
981.296	17666.66
981.654	18165.54
982.013	28262.88
982.371	36679.49
982.73	34309.11
983.088	38878.55
983.447	41431.04
983.805	59149.07
984.163	123829.27
984.521	137243.82
984.879	201055.18
985.237	-327354.9
985.595	315877.03
985.953	78485.94
986.311	45236.12
986.669	26253.85
987.026	22671.25
987.384	30499.73
987.741	31514.9
988.099	22481.08
988.456	17937.21
988.814	16789.59
989.171	14595.21
989.528	14411.63
989.885	15215.47
990.242	12069.19
990.599	15031.64
990.956	12281.53
991.313	8610.59
991.67	7072.32
992.027	7513.4
992.383	6675.83
992.74	5857.45
993.096	6149.28
993.453	6367.7
993.809	6618.78
994.165	8815.36
994.522	8087.29
994.878	8917.82
995.234	11172.08
995.59	11019.64
995.946	10426.35
996.302	11887.9
996.658	13742.2
997.013	15123.47
997.369	17937.9
997.725	22903.35
998.08	14838.11
998.436	22846.14
998.791	31516.71
999.147	31449.93
999.502	34328.55
999.857	24939.98
1000.212	40622.09
1000.567	57805.29
1000.922	33353.5
1001.277	21176.17
1001.632	15718.55
1001.987	20239.44
1002.342	14506.87
1002.696	11597.62
1003.051	9259.82
1003.406	11205.16
1003.76	11161.39
1004.114	11001.85
1004.469	9260.17
1004.823	7645.93
1005.177	8257.6
1005.531	6546.31
1005.885	5805.08
1006.239	6565.79
1006.593	8240.68
1006.947	11003.42
1007.301	8260.71
1007.655	8987.9
1008.008	6593.46
1008.362	7400.41
1008.715	10592.35
1009.069	9615.6
1009.422	14439.42
1009.776	29055.17
1010.129	19261.59
1010.482	16084.21
1010.835	13603.42
1011.188	28349.8
1011.541	26702.67
1011.894	-163692.52
1012.247	482298.17
1012.6	32752.84
1012.952	20714.08
1013.305	10671.42
1013.657	7685.78
1014.01	7261.31
1014.362	5973.85
1014.715	5315.51
1015.067	4616.24
1015.419	4512.12
1015.771	4015.67
1016.123	3570.49
1016.475	3678.47
1016.827	3917.03
1017.179	4219.55
1017.531	4241.56
1017.883	4348.13
1018.234	4216.03
1018.586	5338.44
1018.938	5679.31
1019.289	7854.41
1019.64	8963.77
1019.992	8354.55
1020.343	7637.05
1020.694	6016.05
1021.045	5326.62
1021.396	6090.71
1021.747	6518.39
1022.098	7809.35
1022.449	5647.49
1022.8	5197.21
1023.151	3608.96
1023.501	3190.93
1023.852	3467.1
1024.202	3602.02
1024.553	3974.12
1024.903	3889.88
1025.253	3340.43
1025.604	3001.8
1025.954	3725.08
1026.304	4542.35
1026.654	5334.02
1027.004	7839.59
1027.354	12719.96
1027.703	12008.57
1028.053	15855.9
1028.403	23237.41
1028.753	33747
1029.102	45819.6
1029.452	236568.71
1029.801	10232.13
1030.15	6622.84
1030.499	5627.68
897.758	2671.45
901.051	2631.54
904.343	2665.18
907.636	2665.76
910.928	2730.4
914.22	2639.63
917.511	2650.35
920.803	2708.97
924.094	2730.5
927.384	2707.96
930.675	2676.89
933.965	2628.92
937.255	2635.98
940.544	2604.01
943.834	2544.36
947.123	2489.37
950.411	2586.83
953.7	2558.26
956.988	2530.23
960.276	2471.05
963.563	2553.25
966.851	2544.81
970.138	2603.97
973.424	2598.1
976.711	2548.04
979.997	2680.4
983.283	2716.12
986.568	2620.76
989.853	2636.18
993.138	2664.41
996.423	2745.66
999.708	2683.17
1002.992	2751.3
1006.275	2585.59
1009.559	2630.87
1012.842	2746.08
1016.125	2676.88
1019.408	2656.54
1022.69	2742.67
1025.972	2763.97
1029.254	2736.83
1032.536	2668.83
1035.817	2695.42
1039.098	2639.41
1042.379	2783.64
1045.659	2783.57
1048.939	2717.08
1052.219	2741.55
1055.498	2749.41
1058.778	2737.95
1062.057	2720.23
1065.335	2741.6
1068.614	2763.54
1071.892	2745.61
1075.17	2820.46
1078.447	2812.08
1081.724	2800.91
1085.001	2838.73
1088.278	2811.23
1091.554	2824.8
1094.83	2819.7
1098.106	2848.96
1101.382	2894.94
1104.657	2895.18
1107.932	2889.97
1111.206	2854.33
1114.481	2812.25
1117.755	2813.88
1121.029	2794.19
1124.302	2846.63
1127.575	2800.46
1130.848	2786.06
1134.121	2747.33
1137.393	2696.8
1140.665	2760.57
1143.937	2737.68
1147.208	2696.24
1150.48	2734.55
1153.75	2723.07
1157.021	2755.76
1160.291	2725.65
1163.561	2770.27
1166.831	2759.79
1170.101	2791.9
1173.37	2763.95
1176.639	2709.03
1179.907	2769.98
1183.176	2776.26
1186.444	2783.62
1189.711	2812.32
1192.979	2821.83
1196.246	2780.92
1199.513	2797.3
1202.78	2794.59
1206.046	2806
1209.312	2830.32
1212.578	2855.98
1215.843	2805.31
1219.108	2779.47
1222.373	2805.18
1225.638	2767.56
1228.902	2751.92
1232.166	2713.46
1235.43	2697.46
1238.693	2720.89
1241.956	2718.79
1245.219	2762.21
1248.482	2754.22
1251.744	2749.04
1255.006	2900.37
1258.268	2854.34
1261.529	2797.14
1264.79	2804.26
1268.051	2910.55
1271.312	2928.39
1274.572	2891.27
1277.832	2876.8
1281.092	2867.09
1284.351	2839.46
1287.61	2816.69
1290.869	2733.02
1294.128	2707.15
1297.386	2799.35
1300.644	2785.22
1303.902	2798.16
1307.159	2653.24
1310.416	2712.94
1313.673	2738.87
1316.93	2722.55
1320.186	2768.78
1323.442	2813.07
1326.697	2800
1329.953	2790.65
1333.208	2813.78
1336.463	2796.31
1339.717	2733.8
1342.972	2871.43
1346.226	2843.73
1349.479	2775.07
1352.733	2746.68
1355.986	2767.18
1359.238	2744.01
1362.491	2749.29
1365.743	2753.75
1368.995	2746.7
1372.247	2758.5
1375.498	2784.64
1378.749	2800.3
1382	2755.35
1385.251	2810.05
1388.501	2770.19
1391.751	2755.14
1395	2729.1
1398.25	2760.01
1401.499	2764.72
1404.748	2693.27
1407.996	2684.81
1411.244	2669.59
1414.492	2648.77
1417.74	2627.26
1420.987	2636.73
1424.234	2696.88
1427.481	2677.99
1430.728	2734.28
1433.974	2708.24
1437.22	2726.02
1440.465	2725.7
1443.711	2688.17
1446.956	2724.72
1450.201	2713.09
1453.445	2761.95
1456.689	2741.3
1459.933	2753.27
1463.177	2785.97
1466.42	2757.12
1469.663	2737.54
1472.906	2732.78
1476.148	2811.65
1479.391	2771.2
1482.633	2740.77
1485.874	2750.9
1489.115	2735.29
1492.356	2739.08
1495.597	2714.79
1498.838	2718.01
1502.078	2687.51
1505.318	2637.2
1508.557	2678.28
1511.797	2652.19
1515.036	2725.26
1518.274	2712.34
1521.513	2686.36
1524.751	2708.3
1527.989	2721.86
1531.227	2733.67
1534.464	2730.49
1537.701	2749.94
1540.938	2768.64
1544.174	2720.88
1547.41	2720.66
1550.646	2759.12
1553.882	2796.99
1557.117	2847.62
1560.352	2863.4
1563.587	2822.49
1566.821	2781.85
1570.055	2815.49
1573.289	2787.51
1576.523	2865.78
1579.756	2875.15
1582.989	2891.94
1586.222	2852.4
1589.454	2892.04
1592.686	2865.52
1595.918	2892.52
1599.15	2880.52
1602.381	2957.04
1605.612	2910.88
1608.843	3010.2
1612.073	2919.73
1615.303	2902.29
1618.533	2896.17
1621.762	2900.42
1624.992	2887.42
1628.221	2873.13
1631.449	2857.97
1634.678	2914.12
1637.906	2867.51
1641.134	2906.62
1644.361	2860.97
1647.588	2849.51
1650.815	2866.95
1654.042	2844.46
1657.269	2873.58
1660.495	2825.45
1663.72	2848.3
1666.946	2810.83
1670.171	2753.51
1673.396	2726.63
1676.621	2715.05
1679.845	2734.99
1683.069	2755.63
1686.293	2798.78
1689.517	2767.35
1692.74	2697.1
1695.963	2726.78
1699.185	2743.23
1702.408	2715.65
1705.63	2758.9
1708.852	2771.72
1712.073	2744.28
1715.294	2727.91
1718.515	2789.64
1721.736	2735.65
1724.956	2731.62
1728.176	2758.15
1731.396	2779.72
1734.616	2766.58
1737.835	2796.27
1741.054	2774.54
1744.272	2767
1747.491	2798.54
1750.709	2855.09
1753.927	2757.51
1757.144	2803.92
1760.361	2846.43
1763.578	2837.64
1766.795	2779.97
1770.011	2786.55
1773.227	2826.66
1776.443	2861.37
1779.658	2908.36
1782.874	2849.84
1786.089	2826.9
1789.303	2830.6
1792.518	2833.57
1795.732	2821.01
1798.945	2833.75
1802.159	2881.48
1805.372	2785.03
1808.585	2770.95
1811.797	2772.07
1815.01	2819.98
1818.222	2822.96
1821.434	2794.41
1824.645	2854.52
1827.856	2842.22
1831.067	2879.44
1834.278	2832.05
1837.488	2816.49
1840.698	2965.94
1843.908	2889.14
1847.117	2852.34
1850.326	2736.66
1853.535	2841.9
1856.744	2865.82
1859.952	2777.53
1863.16	2780.52
1866.368	2803.95
1869.575	2908.07
1872.782	2791.39
1875.989	2728.15
1879.196	2814.63
1882.402	2806.23
1885.608	2846.24
1888.814	2743.97
1892.019	2641.31
1895.224	2694.3
1898.429	2672.35
1901.634	2646.43
1904.838	2623.09
1908.042	2671.93
1911.246	2679.55
1914.449	2607.44
1917.652	2606.95
1920.855	2588.34
1924.058	2640.68
1927.26	2674.19
1930.462	2703.19
1933.664	2727.36
1936.865	2666.29
1940.066	2675.58
1943.267	2623.2
1946.467	2639.11
1949.668	2666.41
1952.868	2733.96
1956.067	2711.8
1959.267	2643.89
1962.466	2672.64
1965.665	2654.61
1968.863	2653.06
1972.061	2667.24
1975.259	2666.74
1978.457	2747.67
1981.654	2705.04
1984.852	2704.53
1988.048	2636.25
1991.245	2641.62
1994.441	2723.64
1997.637	2711.31
2000.833	2692.79
2004.028	2730.97
2007.223	2783.61
2010.418	2758.91
2013.613	2720.49
2016.807	2691.48
2020.001	2699.43
2023.194	2743.93
2026.388	2718.46
2029.581	2664.54
2032.774	2712.51
2035.966	2718.63
2039.158	2649.41
2042.35	2679.84
2045.542	2606.89
2048.733	2706.66
2051.924	2729.68
2055.115	2761.37
2058.306	2703.32
2061.496	2762.89
2064.686	2828.59
2067.875	2739.95
2071.065	2755.95
2074.254	2782.89
2077.442	2734.13
2080.631	2825.27
2083.819	2715.95
2087.007	2699.48
2090.195	2666.49
2093.382	2703.38
2096.569	2682.16
2099.756	2634.29
2102.942	2661.29
2106.128	2667.2
2109.314	2659.6
2112.5	2621.63
2115.685	2596.3
2118.87	2606.76
2122.055	2671.37
2125.239	2637.87
2128.424	2606.81
2131.608	2712.43
2134.791	2693.63
2137.974	2752.65
2141.157	2739.48
2144.34	2689.59
2147.523	2704.76
2150.705	2719.34
2153.887	2699.66
2157.068	2647.06
2160.25	2649.65
2163.431	2690.61
2166.611	2633.28
2169.792	2652.17
2172.972	2544.8
2176.152	2623.68
2179.331	2658.6
2182.511	2640.89
2185.69	2669.46
2188.868	2662.48
2192.047	2720.76
2195.225	2710.23
2198.403	2662.26
2201.58	2654.16
2204.758	2648.79
2207.935	2730.66
2211.111	2620.03
2214.288	2604.27
2217.464	2643.41
2220.64	2615.31
2223.815	2673.21
2226.991	2590.28
2230.166	2611.08
2233.34	2635.57
2236.515	2663.7
2239.689	2738.25
2242.863	2681.17
2246.036	2736.2
2249.209	2734.59
2252.382	2771.66
2255.555	2757.34
2258.727	2692.1
2261.9	2734.23
2265.071	2725.87
2268.243	2730.42
2271.414	2660.18
2274.585	2619.64
2277.756	2690.17
2280.926	2643.64
2284.096	2687.76
2287.266	2591.92
2290.436	2648.55
2293.605	2677.64
2296.774	2706.67
2299.942	2729.24
2303.111	2745.76
2306.279	2795.8
2309.447	2782.4
2312.614	2753.69
2315.781	2772.47
2318.948	2741.59
2322.115	2779.74
2325.281	2683.06
2328.447	2701.84
2331.613	2677.1
2334.779	2647.11
2337.944	2651.1
2341.109	2647.05
2344.274	2630.65
2347.438	2597.09
2350.602	2621.38
2353.766	2640.07
2356.929	2626.94
2360.092	2666.79
2363.255	2619.36
2366.418	2551.84
2369.58	2667.01
2372.742	2451.09
2375.904	2467.73
2379.066	2442.5
2382.227	2480.99
2385.388	2442.39
2388.548	2364.41
2391.709	2419.58
2394.869	2403.25
2398.029	2501.72
2401.188	2515.6
2404.347	2449.32
2407.506	2592.92
2410.665	2621.97
2413.823	2627.62
2416.981	2583.01
2420.139	2618.61
2423.296	2668.44
2426.453	2642.14
2429.61	2662.55
2432.767	2597.32
2435.923	2637.64
2439.079	2597.79
2442.235	2646.85
2445.391	2572.49
2448.546	2603.72
2451.701	2652
2454.855	2621.74
2458.009	2678.16
2461.163	2680.63
2464.317	2638.27
2467.471	2672.5
2470.624	2709.37
2473.777	2683.11
2476.929	2697.53
2480.082	2722.7
2483.234	2685.38
2486.385	2641
2489.537	2634.35
2492.688	2590.57
2495.839	2610.83
2498.989	2623.33
2502.14	2606.62
2505.29	2589.06
2508.439	2615
2511.589	2535.82
2514.738	2548.21
2517.887	2580.74
2521.035	2643.6
2524.183	2624.88
2527.331	2609.93
2530.479	2580.1
2533.627	2590.96
