Data from N_3_DEC_OH_4N_Splice17_13-35-12-731.txt Node
Date: Sat Mar 14 13:35:12 EDT 2020
User: sa697716
Spectrometer: FLMS03696
Trigger mode: 0
Integration Time (sec): 3.180400E-1
Scans to average: 20
Electric dark correction enabled: true
Nonlinearity correction enabled: true
Boxcar width: 5
XAxis mode: Wavelengths
Number of Pixels in Spectrum: 2048
>>>>>Begin Spectral Data<<<<<
187.83	-451040.77
188.298	3213.04
188.766	1709.77
189.233	1479.89
189.701	2050.85
190.169	2790.67
190.636	1013.74
191.104	730.62
191.571	57.52
192.039	-159.95
192.506	-187.89
192.974	477.79
193.441	-837.54
193.908	-153.45
194.375	-70.67
194.842	-95.55
195.31	-63.31
195.777	127.41
196.244	391.91
196.711	495.52
197.177	630.1
197.644	920.82
198.111	1597.41
198.578	2262.72
199.045	1786.66
199.511	2893.17
199.978	3432.07
200.445	2916.37
200.911	3199.26
201.378	3555.94
201.844	3232.28
202.31	5522.79
202.777	5729.46
203.243	3189.57
203.709	3032.76
204.176	3652.93
204.642	3017.42
205.108	2796.6
205.574	2289.55
206.04	2087.46
206.506	1950.92
206.972	1833.58
207.438	1784.4
207.903	2028.46
208.369	1777.16
208.835	1765.14
209.301	1850.62
209.766	1897.59
210.232	1871.96
210.697	2309.6
211.163	2867.2
211.628	4350.76
212.094	3663.07
212.559	4523.44
213.024	2802.42
213.49	3434.66
213.955	3384.79
214.42	3298.97
214.885	3076.42
215.35	2983.33
215.815	2891.9
216.28	3075.72
216.745	2506.43
217.21	2731.03
217.675	2506.67
218.14	2864.3
218.604	3207.3
219.069	3695.69
219.534	3933.41
219.998	4617.54
220.463	5638.66
220.927	6995.27
221.392	6622.04
221.856	6753.74
222.32	8559.87
222.785	10624.04
223.249	13415.79
223.713	15077.28
224.177	15110.16
224.642	19380.87
225.106	23937.72
225.57	26261.58
226.034	19555.62
226.497	29826.44
226.961	26976.66
227.425	31438.54
227.889	34937.26
228.353	34938.81
228.816	72221.14
229.28	69132.4
229.744	58299.46
230.207	35457.73
230.671	34797.52
231.134	57621.53
231.597	66607.37
232.061	66527.65
232.524	64865.62
232.987	44680.9
233.45	40265.15
233.914	36107.1
234.377	37014.88
234.84	33942.89
235.303	40009.24
235.766	44728.97
236.229	46220.99
236.691	29103.97
237.154	32752.4
237.617	24684.57
238.08	25288.64
238.542	29617.65
239.005	21176.01
239.468	21024.17
239.93	19819.92
240.393	18013
240.855	15830.54
241.317	16225.02
241.78	19742.48
242.242	20407.37
242.704	22016.98
243.166	19165.77
243.629	17405.94
244.091	20059.71
244.553	21986.65
245.015	23643.06
245.477	30605.64
245.939	44857.13
246.4	47604.65
246.862	46270.18
247.324	43642.2
247.786	48887.23
248.247	64165.25
248.709	66243.18
249.17	49572.05
249.632	46751.92
250.093	54215.36
250.555	46829.1
251.016	28578.61
251.477	27169.05
251.939	29334.21
252.4	30801.15
252.861	36625.74
253.322	34069.61
253.783	40575.81
254.244	52657.59
254.705	41516.79
255.166	36959.67
255.627	36418.22
256.088	51381.93
256.549	54488.66
257.009	46964.44
257.47	57060.29
257.931	46515.8
258.391	34875.74
258.852	35993.11
259.312	37775.16
259.773	46764.59
260.233	39539.89
260.694	33390.27
261.154	37941.16
261.614	30498.78
262.074	27278.27
262.534	28343.26
262.994	26733.93
263.455	35631.37
263.915	29993.75
264.374	28284.41
264.834	30882.5
265.294	34265.04
265.754	35522.4
266.214	33644.35
266.673	31545.24
267.133	39879.3
267.593	39562.59
268.052	48471.6
268.512	42249.82
268.971	51051.52
269.431	56025.23
269.89	50224.05
270.349	75372.61
270.809	84123.31
271.268	75695.92
271.727	170040.72
272.186	110266.51
272.645	82887.33
273.104	59835.04
273.563	86696.96
274.022	68254.16
274.481	58120.89
274.94	44845.98
275.399	33353.18
275.857	38853.5
276.316	52552.09
276.775	46781.32
277.233	46112.48
277.692	43188.54
278.15	48877.78
278.609	50317.99
279.067	46611.53
279.525	43321.66
279.984	55928.04
280.442	67237.66
280.9	66318.67
281.358	43690.76
281.816	40720.4
282.274	39879.53
282.732	41214.8
283.19	41461.47
283.648	35794.66
284.106	38158.97
284.564	38817
285.021	36012.84
285.479	26833.99
285.937	24429.1
286.394	21427.54
286.852	22091.22
287.309	23223.99
287.767	22462.46
288.224	21358.46
288.682	23449.88
289.139	25722.1
289.596	23549.62
290.053	24501.83
290.511	30937.86
290.968	37551.93
291.425	51001.76
291.882	42432.06
292.339	36931.73
292.796	36645.47
293.252	34553.92
293.709	27428.29
294.166	24611.6
294.623	27234.34
295.079	26117.01
295.536	26261.11
295.992	23850.38
296.449	23604.76
296.905	24541.31
297.362	23547.73
297.818	24774.04
298.274	25718.27
298.731	26233.51
299.187	25975.58
299.643	27881.55
300.099	33755.3
300.555	37029.07
301.011	30954.93
301.467	29813.99
301.923	34894.1
302.379	34083.27
302.835	33497.06
303.291	33555.07
303.746	38193.94
304.202	48255.32
304.658	48462.96
305.113	32592.97
305.569	31956.52
306.024	34062.69
306.479	32454.56
306.935	27388.24
307.39	29938.65
307.845	27642.2
308.301	27822.32
308.756	27143.68
309.211	26168.44
309.666	26794.41
310.121	33257.48
310.576	33761.84
311.031	33510.7
311.486	38370.44
311.94	38364.81
312.395	51367.96
312.85	96620.58
313.305	475039.54
313.759	2457631.85
314.214	177955.66
314.668	141243.98
315.123	118870.19
315.577	42657.07
316.032	37929.71
316.486	47606.71
316.94	37514.81
317.394	26067.16
317.849	20264.91
318.303	19169.02
318.757	18094.78
319.211	20031.1
319.665	17529.5
320.119	17756.76
320.572	25436.87
321.026	23779.73
321.48	19791.35
321.934	21596.39
322.387	21674.21
322.841	23404.53
323.295	21058.28
323.748	24281.98
324.202	24632.87
324.655	29543.02
325.108	41250.05
325.562	29153.79
326.015	34648.52
326.468	26188.34
326.921	29320.69
327.374	27322.13
327.827	28459.71
328.28	32162.91
328.733	21530.49
329.186	18933.56
329.639	18079.05
330.092	15251.06
330.545	14531.1
330.997	14665.73
331.45	16035.62
331.903	18787.84
332.355	32316.6
332.808	31373.05
333.26	25908.64
333.713	28145.18
334.165	28324.29
334.617	37761.11
335.069	30487.23
335.522	55149.52
335.974	61004.4
336.426	55690.27
336.878	38584.82
337.33	19579.16
337.782	19138.1
338.234	23981.45
338.686	28675.21
339.137	33978.27
339.589	32052.73
340.041	25139.87
340.493	21597.54
340.944	22134.28
341.396	23875.58
341.847	20056.58
342.299	23678.81
342.75	28939.32
343.201	25317.29
343.653	29145.71
344.104	35865.46
344.555	28221.96
345.006	43992.81
345.457	33715.94
345.908	26778.26
346.359	25200.11
346.81	20551.45
347.261	21641.75
347.712	21302.09
348.163	22824.45
348.613	23127.28
349.064	21600.45
349.515	18905.17
349.965	19371.95
350.416	23337.43
350.866	25641.73
351.317	28985.02
351.767	47980.17
352.217	60673.37
352.668	50382.86
353.118	46189.37
353.568	44504.81
354.018	35174.03
354.468	37185.94
354.918	26670.98
355.368	23337.03
355.818	32950.93
356.268	94952.38
356.718	396938.5
357.168	98843.2
357.617	49533.54
358.067	55070.69
358.517	51611.15
358.966	60565.61
359.416	67861.86
359.865	73408.41
360.315	87488.01
360.764	40837.54
361.213	22847.88
361.663	21678.01
362.112	26749.41
362.561	43283.89
363.01	32690.7
363.459	27511.96
363.908	29756.67
364.357	25273.5
364.806	42668.62
365.255	29292.84
365.703	26883.23
366.152	26936.04
366.601	21815.36
367.05	17691.91
367.498	16060.53
367.947	16769.82
368.395	17433.85
368.844	15418.2
369.292	18531.18
369.74	12797.43
370.189	19589.44
370.637	22923.47
371.085	19755.46
371.533	24078.93
371.981	23223.75
372.429	22138.84
372.877	23020.33
373.325	19258.73
373.773	19626.5
374.221	17513.37
374.669	21708.56
375.116	18768.63
375.564	18898.76
376.012	21127.61
376.459	17411.7
376.907	20768.36
377.354	25088.26
377.801	23389.87
378.249	26839.45
378.696	34301.35
379.143	41425.5
379.591	44153.87
380.038	74574.06
380.485	53861.85
380.932	58076.97
381.379	53021.14
381.826	39079.25
382.273	27739.04
382.72	24215.05
383.166	23585.09
383.613	15270.07
384.06	13757.9
384.506	15897.58
384.953	11659.37
385.4	11741.84
385.846	10272.89
386.292	10012.28
386.739	9772.64
387.185	9661.56
387.631	9665.51
388.078	9374.57
388.524	10021.06
388.97	9252.26
389.416	7710.6
389.862	8203.02
390.308	7766.12
390.754	7886.23
391.2	8551.91
391.645	8754.08
392.091	8387.59
392.537	8102.96
392.983	8129.53
393.428	8005.55
393.874	8596.81
394.319	8643.33
394.765	8205.29
395.21	8428.88
395.655	7913.15
396.101	7422.61
396.546	6702.12
396.991	6755.07
397.436	6280.67
397.881	6069.05
398.326	5751.03
398.771	5440.57
399.216	4753.23
399.661	4280.74
400.106	4278.81
400.551	4382.63
400.995	3926.43
401.44	3889.58
401.885	3656.44
402.329	3694.97
402.774	3544.73
403.218	3429.64
403.663	3307.63
404.107	3401.24
404.551	3426.89
404.995	3136.56
405.44	3021.11
405.884	3068.22
406.328	2966.27
406.772	2956.1
407.216	2693.21
407.66	2601.75
408.104	2467.9
408.547	2305.65
408.991	2229.06
409.435	2142.8
409.879	2113.52
410.322	2082.87
410.766	2010.05
411.209	1906.88
411.653	1828.63
412.096	1792.52
412.54	1792.07
412.983	1783.43
413.426	1787.5
413.869	1785.9
414.312	1751.6
414.756	1685.34
415.199	1604.32
415.642	1556.16
416.085	1559.23
416.527	1546.6
416.97	1566.56
417.413	1485.64
417.856	1466.72
418.298	1450.9
418.741	1438
419.184	1434.84
419.626	1494.68
420.069	1495.02
420.511	1505.68
420.953	1473.48
421.396	1461.35
421.838	1423.79
422.28	1455.03
422.722	1461.73
423.164	1480.68
423.606	1457.24
424.048	1451.99
424.49	1376.18
424.932	1370.84
425.374	1349.09
425.816	1369.18
426.258	1390.01
426.699	1402.42
427.141	1382.23
427.582	1402.72
428.024	1396.47
428.465	1385.97
428.907	1349.49
429.348	1334.87
429.789	1331.94
430.231	1302.7
430.672	1319.73
431.113	1290.66
431.554	1271.75
431.995	1236
432.436	1192.04
432.877	1162.36
433.318	1143.59
433.759	1139.34
434.2	1137.7
434.64	1124.85
435.081	1127.56
435.522	1068.44
435.962	1029.58
436.403	1007.53
436.843	1022.59
437.284	1001.34
437.724	974.7
438.164	975.16
438.604	953.58
439.045	918.12
439.485	883.27
439.925	864.75
440.365	843.36
440.805	831.01
441.245	821.64
441.685	793.39
442.125	786.08
442.564	791.34
443.004	774.8
443.444	773.67
443.883	776.67
444.323	771.51
444.762	774.18
445.202	786.97
445.641	804.32
446.081	801.94
446.52	808.32
446.959	803.95
447.398	788.79
447.837	781.7
448.276	771.11
448.716	780.55
449.154	789.77
449.593	775.74
450.032	775.7
450.471	762.8
450.91	764.75
451.349	764.92
451.787	763.56
452.226	776.97
452.664	780.35
453.103	784.08
453.541	781.87
453.98	783.5
454.418	787.86
454.856	776.78
455.295	777.15
455.733	784.71
456.171	790.47
456.609	789.87
457.047	790.13
457.485	801.96
457.923	804.14
458.361	795.77
458.798	797.09
459.236	795.93
459.674	801.07
460.111	804.6
460.549	796.52
460.987	793.98
461.424	792.21
461.862	787.83
462.299	774.21
462.736	772.17
463.173	774.15
463.611	766.3
464.048	764.28
464.485	770.23
464.922	762.43
465.359	757.46
465.796	748.61
466.233	742.93
466.67	737.25
467.106	735.21
467.543	727.3
467.98	718.56
468.416	698.09
468.853	692.24
469.29	671.06
469.726	664.02
470.162	647.38
470.599	637.42
471.035	633.51
471.471	616.88
471.907	615.08
472.344	612.25
472.78	614.64
473.216	623.84
473.652	618.31
474.088	618.65
474.523	619.55
474.959	626.18
475.395	621.23
475.831	618.42
476.266	623.31
476.702	622.52
477.138	617.61
477.573	617.25
478.008	616.44
478.444	620.43
478.879	628.17
479.314	630.37
479.75	631.75
480.185	636.95
480.62	643.71
481.055	648.96
481.49	654.89
481.925	664.8
482.36	678.16
482.795	698.59
483.229	718.35
483.664	734.3
484.099	738.76
484.534	751.04
484.968	759.54
485.403	763.53
485.837	763.77
486.271	764.15
486.706	767.4
487.14	758.6
487.574	747.62
488.009	742.06
488.443	736.98
488.877	746.98
489.311	751.37
489.745	762.15
490.179	770.94
490.613	787.03
491.046	795.02
491.48	802.96
491.914	806.71
492.348	815.55
492.781	824.08
493.215	828.03
493.648	831.98
494.082	841.81
494.515	845.16
494.948	857.22
495.382	866.31
495.815	876.25
496.248	886.73
496.681	907.35
497.114	924.97
497.547	941.23
497.98	963.08
498.413	975.5
498.846	991.43
499.279	1008.11
499.711	1019
500.144	1027.56
500.577	1045.18
501.009	1064.17
501.442	1080.98
501.874	1087.78
502.306	1094.32
502.739	1107.91
503.171	1132.07
503.603	1140.98
504.036	1156.49
504.468	1167.97
504.9	1186.38
505.332	1198.81
505.764	1207.91
506.196	1220.58
506.627	1242.59
507.059	1264.43
507.491	1279.64
507.923	1279.29
508.354	1301.83
508.786	1318.14
509.217	1343.62
509.649	1365.73
510.08	1393.19
510.512	1417.91
510.943	1439.67
511.374	1456.55
511.805	1484.23
512.237	1510.67
512.668	1554.69
513.099	1591.53
513.53	1628.35
513.961	1656.25
514.391	1697.64
514.822	1741.41
515.253	1787.21
515.684	1819.01
516.114	1857.26
516.545	1883.4
516.975	1916.77
517.406	1937.77
517.836	1937.28
518.267	1942.46
518.697	1963.21
519.127	1965.52
519.558	1970.22
519.988	1971.1
520.418	1981.63
520.848	2001.62
521.278	2008.44
521.708	2027.59
522.138	2040.54
522.567	2078.93
522.997	2108.15
523.427	2124.96
523.857	2143.33
524.286	2153.74
524.716	2170.25
525.145	2191.8
525.575	2201.5
526.004	2217.79
526.433	2204.28
526.863	2201.53
527.292	2184.52
527.721	2189.75
528.15	2193.67
528.579	2192.6
529.008	2204.98
529.437	2232.26
529.866	2247.25
530.295	2267.29
530.724	2281.87
531.152	2314.61
531.581	2330.46
532.01	2352.01
532.438	2360.97
532.867	2378.42
533.295	2401.13
533.723	2407.73
534.152	2404.18
534.58	2401.21
535.008	2378.77
535.436	2378.93
535.865	2387.14
536.293	2403.92
536.721	2421.91
537.149	2452.76
537.576	2454.85
538.004	2468.37
538.432	2475.84
538.86	2470.52
539.287	2479.68
539.715	2496.74
540.143	2498.88
540.57	2492.84
540.998	2486.88
541.425	2457.47
541.852	2429.14
542.28	2425.92
542.707	2402.7
543.134	2384.97
543.561	2378.9
543.988	2367.67
544.415	2366.1
544.842	2358.6
545.269	2349.55
545.696	2351.89
546.123	2367.96
546.549	2355.3
546.976	2338.27
547.403	2339.83
547.829	2341.4
548.256	2344.81
548.682	2340.47
549.108	2330.8
549.535	2330.21
549.961	2333.2
550.387	2317.36
550.813	2310.28
551.24	2319.17
551.666	2321.38
552.092	2309.6
552.518	2302.06
552.943	2295.07
553.369	2306.47
553.795	2315.55
554.221	2318.71
554.646	2315.15
555.072	2331.61
555.498	2340.12
555.923	2353.15
556.349	2375.53
556.774	2388.93
557.199	2393.4
557.625	2403.89
558.05	2399.12
558.475	2415.38
558.9	2416.92
559.325	2409.68
559.75	2403.68
560.175	2398.31
560.6	2392.79
561.025	2393.17
561.449	2396.64
561.874	2407.16
562.299	2415.92
562.723	2428.8
563.148	2419.21
563.572	2428.49
563.997	2445.34
564.421	2455.34
564.846	2458.84
565.27	2467.62
565.694	2466.97
566.118	2487.26
566.542	2499.38
566.966	2493.01
567.39	2487.92
567.814	2476.5
568.238	2478.09
568.662	2488.88
569.086	2495.76
569.509	2509.44
569.933	2491.03
570.357	2484.45
570.78	2458.53
571.204	2445.37
571.627	2435.66
572.05	2438.09
572.474	2439.98
572.897	2426.72
573.32	2418.75
573.743	2408.7
574.166	2386.76
574.589	2391.14
575.012	2383.76
575.435	2386.63
575.858	2377.83
576.281	2366.6
576.704	2347.86
577.126	2335.6
577.549	2324.8
577.972	2315.63
578.394	2304.11
578.817	2297.33
579.239	2274.07
579.661	2258.83
580.084	2238.91
580.506	2223.04
580.928	2218.85
581.35	2206.27
581.772	2202.91
582.194	2185.53
582.616	2169.91
583.038	2152.67
583.46	2140.5
583.882	2138.98
584.303	2146.89
584.725	2142.38
585.147	2146.27
585.568	2165.17
585.99	2184.45
586.411	2195.21
586.833	2218.84
587.254	2221.83
587.675	2244.71
588.096	2264.67
588.518	2258.2
588.939	2236.3
589.36	2236.26
589.781	2223.72
590.202	2183.51
590.623	2172.61
591.043	2170.17
591.464	2152.15
591.885	2147.42
592.305	2139.27
592.726	2118.88
593.147	2122.48
593.567	2115.8
593.987	2104.45
594.408	2096.77
594.828	2093.46
595.248	2085.58
595.669	2059.88
596.089	2050.73
596.509	2042.09
596.929	2021.63
597.349	2024.04
597.769	2008.93
598.189	2000.18
598.608	2002.76
599.028	2006.53
599.448	2008.21
599.867	1989.94
600.287	1984.67
600.706	1978.53
601.126	1966.5
601.545	1967.12
601.965	1965.77
602.384	1959.71
602.803	1965.39
603.222	1959.64
603.641	1951.77
604.061	1946.67
604.48	1942.94
604.898	1956.32
605.317	1966.2
605.736	1970.28
606.155	1967.33
606.574	1956.6
606.992	1967.23
607.411	1961.49
607.829	1951.94
608.248	1949.54
608.666	1949.05
609.085	1950.18
609.503	1939.57
609.921	1931.71
610.339	1935.37
610.758	1936.06
611.176	1931.11
611.594	1919.13
612.012	1916.55
612.43	1923.24
612.847	1933.89
613.265	1936.94
613.683	1945.06
614.101	1948.28
614.518	1944.26
614.936	1932.05
615.353	1913.47
615.771	1910.35
616.188	1911.87
616.606	1907.42
617.023	1898.12
617.44	1878.07
617.857	1869.12
618.274	1857.55
618.691	1849.3
619.108	1837.07
619.525	1829.43
619.942	1840.17
620.359	1845.44
620.776	1838.23
621.192	1833.36
621.609	1830.16
622.026	1840.86
622.442	1850.11
622.859	1855.59
623.275	1846.01
623.691	1854.18
624.108	1871.45
624.524	1892.53
624.94	1892.86
625.356	1907.77
625.772	1927.06
626.188	1946.51
626.604	1949.86
627.02	1944.01
627.436	1940.51
627.852	1950.37
628.268	1969.35
628.683	1957.11
629.099	1944.61
629.514	1936.48
629.93	1940.69
630.345	1946.74
630.761	1939.52
631.176	1943.14
631.591	1933.58
632.007	1924.72
632.422	1921.69
632.837	1903.89
633.252	1898.1
633.667	1881.09
634.082	1866.33
634.497	1847.53
634.911	1818.45
635.326	1812.18
635.741	1785.82
636.155	1770.37
636.57	1769.82
636.984	1766.73
637.399	1766.68
637.813	1765.04
638.228	1762
638.642	1767.81
639.056	1751.41
639.47	1748.77
639.884	1734.72
640.298	1723.81
640.712	1719.87
641.126	1700.39
641.54	1685.85
641.954	1676.82
642.368	1657.06
642.781	1642.59
643.195	1614.16
643.609	1612.14
644.022	1602.28
644.436	1592.29
644.849	1572.39
645.262	1551.67
645.676	1551.32
646.089	1541.88
646.502	1518.07
646.915	1507.89
647.328	1482.62
647.741	1476.9
648.154	1455.95
648.567	1449.18
648.98	1429.91
649.393	1427.77
649.805	1420.78
650.218	1408.72
650.631	1386.09
651.043	1375.6
651.456	1365.92
651.868	1365.89
652.28	1390.1
652.693	1408.47
653.105	1417.48
653.517	1429.85
653.929	1430.87
654.341	1439.41
654.753	1422.19
655.165	1430.93
655.577	1427.01
655.989	1420.04
656.401	1408.37
656.813	1355.37
657.224	1325.74
657.636	1284.42
658.047	1258.05
658.459	1229.19
658.87	1214.59
659.282	1194.75
659.693	1163.29
660.104	1140.47
660.515	1118.71
660.926	1110.72
661.338	1102.8
661.749	1090.75
662.159	1074.24
662.57	1063.86
662.981	1053.08
663.392	1038.29
663.803	1039.38
664.213	1031.13
664.624	1020.55
665.035	1018.88
665.445	996.92
665.855	984.04
666.266	968.36
666.676	960.23
667.086	943.85
667.497	938.26
667.907	927.32
668.317	911.61
668.727	903.86
669.137	899.78
669.547	893.14
669.956	893.12
670.366	890.56
670.776	889.96
671.186	891.15
671.595	893.53
672.005	894.14
672.414	890.13
672.824	885.25
673.233	887.23
673.642	888.01
674.052	889.79
674.461	891.41
674.87	895.36
675.279	891.85
675.688	892.15
676.097	892.53
676.506	889.51
676.915	905.08
677.323	909.17
677.732	907.54
678.141	908.81
678.549	897.08
678.958	897.68
679.366	900.52
679.775	908.25
680.183	924.72
680.592	935.14
681	946.79
681.408	945.69
681.816	961.02
682.224	979.15
682.632	999.38
683.04	1044.66
683.448	1084.26
683.856	1132.19
684.264	1188.92
684.671	1243.09
685.079	1306.93
685.487	1376.29
685.894	1471.08
686.302	1552.85
686.709	1621.61
687.116	1702.36
687.524	1771.68
687.931	1829.23
688.338	1880.51
688.745	1924.34
689.152	1971.35
689.559	2034.74
689.966	2095.41
690.373	2123.05
690.78	2175.49
691.187	2258.25
691.593	2318.18
692	2367.05
692.407	2441.92
692.813	2535.3
693.22	2604.87
693.626	2676.35
694.032	2728.07
694.439	2813.94
694.845	2875.43
695.251	2960.13
695.657	3029.93
696.063	3142.2
696.469	3220.82
696.875	3291.64
697.281	3321.38
697.687	3361.39
698.093	3391.44
698.498	3469.07
698.904	3522.06
699.31	3616.11
699.715	3674.48
700.12	3772.87
700.526	3774.79
700.931	3841.26
701.337	3887.41
701.742	3908.98
702.147	3993.56
702.552	4011.83
702.957	4067.89
703.362	4076.4
703.767	4092.13
704.172	4124.04
704.577	4046.41
704.981	4085.88
705.386	4088.09
705.791	4064.25
706.195	4139.58
706.6	4135.44
707.004	4215.73
707.408	4163.26
707.813	4180.02
708.217	4151.89
708.621	4139.65
709.025	4240.32
709.43	4226.98
709.834	4283.44
710.237	4348.58
710.641	4317.12
711.045	4330.15
711.449	4310.17
711.853	4330.05
712.256	4363.99
712.66	4395.6
713.064	4468.07
713.467	4503.49
713.87	4618.12
714.274	4657.53
714.677	4770.06
715.08	4936.95
715.484	5111.92
715.887	5326.24
716.29	5534.59
716.693	5752.83
717.096	6003.73
717.499	6133.4
717.901	6146.89
718.304	6165.55
718.707	6179.15
719.109	6053.12
719.512	6005.12
719.915	5846.82
720.317	5773.43
720.719	5812.1
721.122	5771.2
721.524	5706.86
721.926	5655.29
722.328	5754.37
722.731	5733.71
723.133	5756.84
723.535	5952.99
723.937	5965.93
724.338	6013.2
724.74	6049.36
725.142	5989.65
725.544	5978.72
725.945	6001.82
726.347	5987.3
726.748	5970.91
727.15	5979.2
727.551	5932.96
727.952	5898.4
728.354	5860.83
728.755	5852.96
729.156	5799.94
729.557	5764.53
729.958	5632.14
730.359	5564.38
730.76	5540.68
731.161	5474.39
731.562	5441.75
731.962	5440.51
732.363	5369.25
732.763	5302.27
733.164	5335.49
733.564	5262.36
733.965	5157.38
734.365	5118.81
734.766	5147.88
735.166	5104.27
735.566	5044.04
735.966	5015.78
736.366	5006.33
736.766	4940
737.166	4968.25
737.566	4923.4
737.966	4896.97
738.365	4936.38
738.765	4926.95
739.165	4846.63
739.564	4820.07
739.964	4866.38
740.363	4816.72
740.763	4814.32
741.162	4801.24
741.561	4768.13
741.96	4721
742.36	4736.92
742.759	4742.02
743.158	4780.36
743.557	4792.25
743.955	4828.64
744.354	4780.56
744.753	4838.67
745.152	4793.46
745.55	4847.29
745.949	4837.32
746.348	4836.23
746.746	4852.58
747.144	4810.24
747.543	4787.51
747.941	4835.71
748.339	4764
748.737	4754.72
749.136	4745.29
749.534	4809.88
749.932	4781.38
750.33	4804.79
750.727	4861.11
751.125	4834.89
751.523	4817.09
751.921	4860.27
752.318	4825.7
752.716	4887.86
753.113	4899.5
753.511	4923.29
753.908	4921.38
754.305	4904.67
754.703	4967.14
755.1	5027.89
755.497	5088.88
755.894	5279.97
756.291	5460.88
756.688	5795.45
757.085	6234.29
757.482	6861.97
757.878	7549.57
758.275	8171.98
758.672	9021.73
759.068	9719.1
759.465	10711.73
759.861	11993.76
760.258	13483.48
760.654	14246.78
761.05	14138.13
761.447	13497.18
761.843	12564.75
762.239	11597.67
762.635	11159.84
763.031	10741.26
763.427	10139.66
763.822	9506
764.218	8882.56
764.614	8068.33
765.01	7526.41
765.405	7173.93
765.801	6908.44
766.196	6572.31
766.592	6381.52
766.987	6063.13
767.382	5848.28
767.778	5757.43
768.173	5627.26
768.568	5551.81
768.963	5426.18
769.358	5443.55
769.753	5399.01
770.148	5312.17
770.542	5308.28
770.937	5277.04
771.332	5370.12
771.726	5390.52
772.121	5325.95
772.515	5379.34
772.91	5365.26
773.304	5437.13
773.699	5370.24
774.093	5420.13
774.487	5477.03
774.881	5520.42
775.275	5514.27
775.669	5470.78
776.063	5512.33
776.457	5548.41
776.851	5472.94
777.245	5465.75
777.638	5499.06
778.032	5617.11
778.425	5577.62
778.819	5622.46
779.212	5581.57
779.606	5541.13
779.999	5561.34
780.392	5546.64
780.786	5628.32
781.179	5647.66
781.572	5687.84
781.965	5701.77
782.358	5643.61
782.751	5701.68
783.143	5649.62
783.536	5721.36
783.929	5763.22
784.322	5877.27
784.714	5907.02
785.107	5899.58
785.499	5975.31
785.891	5955.91
786.284	5932.28
786.676	6075.54
787.068	6060.07
787.46	6113.19
787.852	6135.32
788.245	6225.53
788.636	6258.36
789.028	6328.32
789.42	6371.77
789.812	6378.77
790.204	6473.77
790.595	6581.42
790.987	6385.52
791.378	6409.01
791.77	6541.13
792.161	6677.57
792.553	6735.02
792.944	6620.59
793.335	6549.15
793.726	6627.37
794.117	6723.3
794.508	6866.46
794.899	6835.78
795.29	6978.18
795.681	7041.23
796.072	6899.54
796.463	6720.97
796.853	6731.22
797.244	6893.32
797.634	6934.11
798.025	6932.06
798.415	6943.36
798.806	7034.64
799.196	7120.81
799.586	7177.23
799.976	7138.79
800.366	7377.74
800.756	7614.93
801.146	7578.52
801.536	7609.53
801.926	7683.63
802.316	7713.55
802.706	7792.78
803.095	7670.89
803.485	7776.78
803.874	7816.51
804.264	8079.82
804.653	8051.92
805.043	8203.77
805.432	8319
805.821	8326.02
806.21	8350.4
806.599	8471.87
806.988	8515.16
807.377	8623.83
807.766	8757.19
808.155	9047.36
808.544	8779.49
808.933	8795.97
809.321	8775.68
809.71	9075.7
810.098	9236.15
810.487	9707.53
810.875	10202.69
811.264	10226.46
811.652	10525.42
812.04	10673.6
812.428	10850.6
812.816	11638.04
813.204	12068.14
813.592	12638.84
813.98	12987.25
814.368	12895.71
814.756	13393.04
815.144	13301.44
815.531	13783.77
815.919	13712.6
816.306	14031
816.694	13705.22
817.081	13761.28
817.469	14124.74
817.856	14121.13
818.243	14400.7
818.63	14812.88
819.017	14378.19
819.404	14452.96
819.791	14845.14
820.178	15475.13
820.565	15733.6
820.952	16693.05
821.339	16186.43
821.725	16372.36
822.112	15609.37
822.498	15564.41
822.885	15685.6
823.271	15595.66
823.657	16025.34
824.044	16030.45
824.43	16110.26
824.816	16080.37
825.202	15639.77
825.588	16677.83
825.974	16688.22
826.36	17214.16
826.746	17245.95
827.132	17612.75
827.517	17576.82
827.903	16766.07
828.289	16807.24
828.674	16004.41
829.06	15889.39
829.445	16288.41
829.83	16658.04
830.216	17145.89
830.601	17519.48
830.986	17107.89
831.371	16966.19
831.756	17541.07
832.141	17104.85
832.526	17090.96
832.911	17378.54
833.295	17263.6
833.68	17736.96
834.065	17097.36
834.449	16160.26
834.834	16077.32
835.218	16061.42
835.603	16401.83
835.987	16179.94
836.371	17025.82
836.755	16913.52
837.139	17317.09
837.524	17559.65
837.908	17371.18
838.291	17430.78
838.675	17494.71
839.059	17710.06
839.443	17693.74
839.827	17460.73
840.21	17950.51
840.594	17794.45
840.977	18010.69
841.361	17988.18
841.744	18372.79
842.127	18210.59
842.511	18452.62
842.894	19052.57
843.277	19428.89
843.66	19977.03
844.043	20058.78
844.426	19230.32
844.809	18907.53
845.191	18927.43
845.574	18450.57
845.957	18071.93
846.339	17965.25
846.722	17439.15
847.104	17511.35
847.487	17332.08
847.869	17341.89
848.252	17619.14
848.634	17954.53
849.016	18222.81
849.398	18349.69
849.78	19214.73
850.162	19216.12
850.544	19636.63
850.926	20257.71
851.307	20164.64
851.689	20456.72
852.071	20917.48
852.452	21248.16
852.834	21225.16
853.215	21625.56
853.597	21786.73
853.978	22079.01
854.359	22547.66
854.741	21539.05
855.122	21441.66
855.503	21153.97
855.884	21290.82
856.265	21229.19
856.646	21341.22
857.026	20949.24
857.407	20889.26
857.788	21042.28
858.169	21342.21
858.549	20478.44
858.93	21106.86
859.31	21154.28
859.69	21361.73
860.071	20944.44
860.451	20727.59
860.831	19970.13
861.211	21133.27
861.591	21684.3
861.971	21656.28
862.351	21838.1
862.731	22217.59
863.111	22488.36
863.491	22829
863.87	23718.37
864.25	24070.7
864.629	23662.49
865.009	24194.01
865.388	25059.99
865.768	26861.25
866.147	26769.17
866.526	25299.71
866.905	25613.61
867.284	27049.94
867.663	25680.62
868.042	24600.52
868.421	24522.47
868.8	24932.12
869.179	25183.76
869.558	23711.5
869.936	21842.17
870.315	22217.42
870.693	22752.72
871.072	24532.69
871.45	23370.07
871.828	23669.6
872.207	24906.38
872.585	24532.9
872.963	25193.56
873.341	24321.47
873.719	24037.98
874.097	23770.45
874.475	24239.35
874.853	24802.6
875.23	23773.5
875.608	24763.95
875.986	26792.96
876.363	25609.35
876.741	26396.75
877.118	25749.21
877.495	27017.07
877.873	27467.95
878.25	28900.8
878.627	27713.15
879.004	28086.58
879.381	27941.05
879.758	27203.63
880.135	25320.14
880.512	26770.66
880.889	26049.62
881.265	25774.04
881.642	25543.79
882.019	25972.75
882.395	25433.18
882.772	26438.18
883.148	25295.91
883.524	25199.69
883.901	25058.1
884.277	25424.95
884.653	25258.55
885.029	25992.63
885.405	28791.37
885.781	28575.74
886.157	27381.76
886.532	27711.27
886.908	27694.95
887.284	30792.82
887.659	31799.2
888.035	32780.02
888.411	33631.19
888.786	34066.32
889.161	35231.65
889.537	34564.06
889.912	35658.19
890.287	35634.21
890.662	36542.27
891.037	35863.57
891.412	33425.08
891.787	33089.81
892.162	31923.2
892.536	32655.06
892.911	31426.95
893.286	30749.24
893.66	29501.96
894.035	30242.37
894.409	32913.35
894.784	31577.97
895.158	32096.93
895.532	33996.19
895.906	34906.93
896.281	35736.13
896.655	35164.47
897.029	40185.84
897.402	41856.42
897.776	46578.48
898.15	46429.14
898.524	45938.46
898.898	46545.48
899.271	52132.48
899.645	45152.54
900.018	43361.09
900.392	44937.71
900.765	45292.84
901.138	41903.93
901.511	41279.74
901.884	37920.96
902.258	34972.78
902.631	36154
903.003	41615.3
903.376	37539.98
903.749	42097.73
904.122	45074.51
904.495	49641.17
904.867	50266.4
905.24	43631.9
905.612	40593.21
905.985	41491.32
906.357	43369.06
906.729	41363.4
907.102	35335.13
907.474	33964.03
907.846	34178.45
908.218	33720.65
908.59	29806.09
908.962	28836.49
909.334	31060.89
909.705	32639.3
910.077	31688.63
910.449	32998.35
910.82	33930.99
911.192	37343.99
911.563	38824.24
911.935	41547.8
912.306	41622.49
912.677	42997.87
913.048	42580.84
913.419	46208.34
913.79	46465.18
914.161	49837.15
914.532	47636.49
914.903	43794.74
915.274	41602.85
915.645	40988.52
916.015	36092.51
916.386	34407.96
916.756	36593.37
917.127	37756.78
917.497	33741.6
917.868	36734.37
918.238	34900.87
918.608	35915.75
918.978	36654.15
919.348	38801.16
919.718	40108.93
920.088	38631.34
920.458	40126.66
920.828	42266.79
921.198	40050.94
921.567	42787.08
921.937	33133.31
922.306	33444.12
922.676	36075.57
923.045	30105.27
923.415	28624.8
923.784	26065.34
924.153	26797.83
924.522	26769.68
924.891	25167.12
925.26	26963.21
925.629	26324.12
925.998	30270.06
926.367	29568.98
926.736	28158.49
927.104	33531.93
927.473	36029.35
927.842	43521.9
928.21	43082.35
928.578	45308.92
928.947	42859.61
929.315	43124.1
929.683	50627.27
930.051	51044.52
930.42	59307.13
930.788	50699.75
931.156	50316.16
931.523	47174.55
931.891	43600.98
932.259	41921.03
932.627	48569.21
932.994	68702.56
933.362	56809.86
933.729	49321.24
934.097	47200.09
934.464	39885.86
934.831	46008.57
935.199	45350.77
935.566	43977.24
935.933	44512.52
936.3	53916.28
936.667	41990.12
937.034	37879.37
937.401	37442.79
937.767	32298.88
938.134	28750.03
938.501	40603.53
938.867	43250.78
939.234	73150.34
939.6	62390.26
939.967	68848.7
940.333	46059.45
940.699	39238.34
941.065	31485.62
941.431	41285.19
941.798	39803.62
942.163	52260.81
942.529	32643.64
942.895	30066.11
943.261	19446.7
943.627	25510.55
943.992	22323.62
944.358	22369.01
944.723	22439.19
945.089	21851.44
945.454	20169.62
945.82	21517.14
946.185	20675.05
946.55	23939.9
946.915	21470.13
947.28	25190.57
947.645	22186.71
948.01	20487.23
948.375	21343.95
948.74	25562.6
949.104	29822.44
949.469	43167.17
949.834	76337.66
950.198	72465.39
950.562	43437.15
950.927	36207
951.291	43542.86
951.655	37091.09
952.02	34830.2
952.384	26357.27
952.748	22966.93
953.112	22407.78
953.476	19461.56
953.839	17985.07
954.203	17802.05
954.567	22277.8
954.931	35081.65
955.294	30022.73
955.658	30189.89
956.021	51298.31
956.385	86971.36
956.748	128290.48
957.111	198846.23
957.474	223187.35
957.837	251276.74
958.2	190007.06
958.563	68340.13
958.926	46208.8
959.289	70096.18
959.652	78332.5
960.015	58862.04
960.377	84425.93
960.74	96350.58
961.102	166478.31
961.465	178907.03
961.827	96073.23
962.189	184207.75
962.552	127582.1
962.914	102234.27
963.276	66308.89
963.638	54830.89
964	54291.6
964.362	36742.66
964.724	35479.95
965.085	25268.76
965.447	20690.58
965.809	23525.04
966.17	23569.27
966.532	25512.33
966.893	23425.97
967.255	21327.78
967.616	25160.61
967.977	20125.17
968.338	21977.1
968.699	18070
969.061	18073.71
969.421	18186.97
969.782	20404.86
970.143	17250.32
970.504	17875.52
970.865	20324.9
971.225	20784.37
971.586	20340.5
971.946	28991.63
972.307	25155.4
972.667	32883.34
973.027	33867.44
973.388	41111.81
973.748	27945.1
974.108	30405.81
974.468	41085.22
974.828	31688.16
975.188	24387.52
975.548	22408.59
975.907	18811.86
976.267	21100.74
976.627	17739.99
976.986	18380.93
977.346	17514.84
977.705	16860.05
978.064	15369.37
978.424	12810.27
978.783	13229.99
979.142	15098.43
979.501	14439.49
979.86	15274.03
980.219	14704.29
980.578	18984.94
980.937	21277.27
981.296	18946.99
981.654	19491.72
982.013	30319.86
982.371	39319.31
982.73	36707.68
983.088	41570.58
983.447	44435.58
983.805	63531.37
984.163	132681.13
984.521	147161.08
984.879	215727.96
985.237	-351438.94
985.595	339089.08
985.953	84168.4
986.311	48643.47
986.669	28231.47
987.026	24381
987.384	32731.05
987.741	33882.48
988.099	24264.85
988.456	19308.74
988.814	18071.39
989.171	15694.16
989.528	15449.81
989.885	16300.31
990.242	12901.5
990.599	16101.45
990.956	13156.37
991.313	9205.55
991.67	7542.84
992.027	8012.96
992.383	7136.86
992.74	6265.47
993.096	6596.71
993.453	6851.99
993.809	7121.81
994.165	9493.25
994.522	8710.58
994.878	9606.1
995.234	12062.4
995.59	11922.83
995.946	11270.23
996.302	12847.2
996.658	14838.99
997.013	16308.27
997.369	19353.98
997.725	24793.05
998.08	16054.02
998.436	24701.77
998.791	34108.52
999.147	34005.22
999.502	37014.04
999.857	26843.46
1000.212	43741.73
1000.567	62301.82
1000.922	35934.36
1001.277	22832.98
1001.632	16899.36
1001.987	21788.95
1002.342	15605.86
1002.696	12487.46
1003.051	9982.82
1003.406	12095.54
1003.76	12059.54
1004.114	11903.26
1004.469	10034.2
1004.823	8298.37
1005.177	8960.34
1005.531	7096.4
1005.885	6287.06
1006.239	7120.61
1006.593	8936.94
1006.947	11940.27
1007.301	8954.42
1007.655	9772.41
1008.008	7164.79
1008.362	8030.34
1008.715	11499.93
1009.069	10410.49
1009.422	15719.45
1009.776	31542.39
1010.129	20935.32
1010.482	17436.64
1010.835	14760.18
1011.188	30740.11
1011.541	28917.17
1011.894	-176998.87
1012.247	521454.73
1012.6	35434.8
1012.952	22461.88
1013.305	11535.14
1013.657	8306.52
1014.01	7866.89
1014.362	6504.5
1014.715	5786.86
1015.067	5045.86
1015.419	4935.06
1015.771	4392.1
1016.123	3910.73
1016.475	4016.48
1016.827	4279.71
1017.179	4625.94
1017.531	4701.29
1017.883	4768.2
1018.234	4618.92
1018.586	5841.35
1018.938	6203.13
1019.289	8560.19
1019.64	9745.34
1019.992	9062.88
1020.343	8319.86
1020.694	6561.71
1021.045	5784.42
1021.396	6547.7
1021.747	7071.85
1022.098	8456.22
1022.449	6127.02
1022.8	5684.87
1023.151	3964.97
1023.501	3523.28
1023.852	3830.73
1024.202	3975.84
1024.553	4372.61
1024.903	4275.35
1025.253	3660.63
1025.604	3309.11
1025.954	4108.66
1026.304	5028.66
1026.654	5858.8
1027.004	8594.7
1027.354	13895.1
1027.703	13161.01
1028.053	17246.5
1028.403	25077.76
1028.753	36331.84
1029.102	49369.46
1029.452	251494.1
1029.801	10802.58
1030.15	6931.29
1030.499	5849.38
897.758	3288.06
901.051	3275.13
904.343	3310.49
907.636	3302.92
910.928	3374.05
914.22	3275.48
917.511	3288.75
920.803	3376.87
924.094	3425.68
927.384	3373.72
930.675	3338.09
933.965	3279.63
937.255	3270.25
940.544	3237.57
943.834	3088.74
947.123	3045.74
950.411	3153.3
953.7	3113.8
956.988	3062.17
960.276	3008.43
963.563	3132
966.851	3110.2
970.138	3189.82
973.424	3165.33
976.711	3114.07
979.997	3372.85
983.283	3386.94
986.568	3253.56
989.853	3304.74
993.138	3333.13
996.423	3413.02
999.708	3323.53
1002.992	3444.39
1006.275	3168.63
1009.559	3279.07
1012.842	3419.65
1016.125	3321.14
1019.408	3299.04
1022.69	3428.37
1025.972	3427.37
1029.254	3394.53
1032.536	3287.12
1035.817	3337.68
1039.098	3235.42
1042.379	3506.99
1045.659	3457.48
1048.939	3366.1
1052.219	3411.56
1055.498	3442.23
1058.778	3410.06
1062.057	3404.89
1065.335	3423.02
1068.614	3457.19
1071.892	3413.87
1075.17	3521.75
1078.447	3495.6
1081.724	3478.31
1085.001	3532.91
1088.278	3493.25
1091.554	3519.42
1094.83	3516.6
1098.106	3540.4
1101.382	3606.02
1104.657	3603.06
1107.932	3600.76
1111.206	3546.97
1114.481	3505.29
1117.755	3516.82
1121.029	3478.82
1124.302	3525.84
1127.575	3453
1130.848	3429.1
1134.121	3379.49
1137.393	3307.74
1140.665	3391.91
1143.937	3371.78
1147.208	3270.7
1150.48	3298.08
1153.75	3278.55
1157.021	3349.12
1160.291	3305.99
1163.561	3344.76
1166.831	3369.12
1170.101	3403.37
1173.37	3392.98
1176.639	3312.58
1179.907	3388.03
1183.176	3444.46
1186.444	3448.06
1189.711	3479.37
1192.979	3477.28
1196.246	3437.5
1199.513	3460.39
1202.78	3454.01
1206.046	3460.07
1209.312	3498.06
1212.578	3534.02
1215.843	3463.04
1219.108	3442.67
1222.373	3467.64
1225.638	3414.39
1228.902	3388.06
1232.166	3356.03
1235.43	3333.12
1238.693	3348.02
1241.956	3354.46
1245.219	3381.28
1248.482	3387.23
1251.744	3375.47
1255.006	3565.67
1258.268	3527.03
1261.529	3455.25
1264.79	3471.73
1268.051	3601.34
1271.312	3621.22
1274.572	3575.06
1277.832	3563.41
1281.092	3566.52
1284.351	3510.92
1287.61	3480.8
1290.869	3367.5
1294.128	3317.55
1297.386	3462.91
1300.644	3445.77
1303.902	3457.09
1307.159	3298.23
1310.416	3358.62
1313.673	3381.04
1316.93	3348.79
1320.186	3418.32
1323.442	3476.01
1326.697	3448.67
1329.953	3463.43
1333.208	3470.71
1336.463	3459.49
1339.717	3381.3
1342.972	3473.67
1346.226	3481.37
1349.479	3386.71
1352.733	3341.36
1355.986	3388.93
1359.238	3357.91
1362.491	3354
1365.743	3361.16
1368.995	3365.68
1372.247	3378.23
1375.498	3392.46
1378.749	3458.1
1382	3395.84
1385.251	3474.51
1388.501	3447.92
1391.751	3412.47
1395	3392.38
1398.25	3435.46
1401.499	3425.19
1404.748	3331.34
1407.996	3243.53
1411.244	3240.2
1414.492	3212.46
1417.74	3182.79
1420.987	3206.91
1424.234	3255.92
1427.481	3260.41
1430.728	3318.13
1433.974	3288.73
1437.22	3325.22
1440.465	3327.35
1443.711	3332.11
1446.956	3365.12
1450.201	3375.67
1453.445	3423.37
1456.689	3383.75
1459.933	3403.7
1463.177	3428.41
1466.42	3395.94
1469.663	3376.99
1472.906	3341.56
1476.148	3492
1479.391	3369.26
1482.633	3358.05
1485.874	3354.1
1489.115	3315.34
1492.356	3346.19
1495.597	3312.35
1498.838	3331.2
1502.078	3276.46
1505.318	3194.17
1508.557	3248.32
1511.797	3157.11
1515.036	3336.64
1518.274	3319.75
1521.513	3308.82
1524.751	3344.19
1527.989	3344.78
1531.227	3349.01
1534.464	3308.54
1537.701	3367.1
1540.938	3397.73
1544.174	3355.14
1547.41	3370.54
1550.646	3406.73
1553.882	3426.46
1557.117	3477.27
1560.352	3504.88
1563.587	3455.9
1566.821	3403.93
1570.055	3470.59
1573.289	3425.62
1576.523	3527.73
1579.756	3528.71
1582.989	3540.06
1586.222	3499.74
1589.454	3555.59
1592.686	3515.6
1595.918	3535.24
1599.15	3511.14
1602.381	3627.37
1605.612	3548.08
1608.843	3650.2
1612.073	3545.29
1615.303	3523.14
1618.533	3502.43
1621.762	3517.2
1624.992	3517.45
1628.221	3480.49
1631.449	3463.81
1634.678	3560.73
1637.906	3499.25
1641.134	3556.08
1644.361	3500.43
1647.588	3484.86
1650.815	3491.96
1654.042	3491.7
1657.269	3529.08
1660.495	3476.4
1663.72	3417.26
1666.946	3405.43
1670.171	3302.39
1673.396	3282.82
1676.621	3279.24
1679.845	3331.99
1683.069	3376.24
1686.293	3439.85
1689.517	3385.8
1692.74	3274.78
1695.963	3291.54
1699.185	3395.01
1702.408	3340.03
1705.63	3399.24
1708.852	3401.62
1712.073	3373.7
1715.294	3334.32
1718.515	3356.63
1721.736	3300.02
1724.956	3262.07
1728.176	3300.3
1731.396	3317.86
1734.616	3318.08
1737.835	3323.19
1741.054	3319.59
1744.272	3320.22
1747.491	3328.83
1750.709	3421.6
1753.927	3319.03
1757.144	3382.24
1760.361	3454.34
1763.578	3467.28
1766.795	3395.11
1770.011	3418.15
1773.227	3483.95
1776.443	3512.09
1779.658	3556.39
1782.874	3503.45
1786.089	3466.24
1789.303	3471.2
1792.518	3481.22
1795.732	3472.56
1798.945	3471.34
1802.159	3533.31
1805.372	3384.53
1808.585	3355.83
1811.797	3359.23
1815.01	3444.46
1818.222	3449.15
1821.434	3313.57
1824.645	3427.57
1827.856	3384.07
1831.067	3434.18
1834.278	3355.36
1837.488	3347.17
1840.698	3535.51
1843.908	3431.56
1847.117	3389.7
1850.326	3206.77
1853.535	3351.41
1856.744	3484.34
1859.952	3355.64
1863.16	3351.14
1866.368	3379.25
1869.575	3538.04
1872.782	3415.55
1875.989	3357.73
1879.196	3494.54
1882.402	3487.6
1885.608	3540.41
1888.814	3395.78
1892.019	3266.28
1895.224	3319.63
1898.429	3320.8
1901.634	3285.51
1904.838	3270.35
1908.042	3310.91
1911.246	3312.18
1914.449	3196
1917.652	3216.86
1920.855	3200.95
1924.058	3278.65
1927.26	3307.74
1930.462	3347.57
1933.664	3357.41
1936.865	3288.65
1940.066	3280.13
1943.267	3230.53
1946.467	3261.29
1949.668	3298.52
1952.868	3362.12
1956.067	3321.14
1959.267	3240.99
1962.466	3276.14
1965.665	3262.44
1968.863	3259.93
1972.061	3293.2
1975.259	3304.69
1978.457	3393.35
1981.654	3336.73
1984.852	3337.14
1988.048	3239.41
1991.245	3262.93
1994.441	3349.1
1997.637	3366.93
2000.833	3348.48
2004.028	3396.12
2007.223	3442.28
2010.418	3400.18
2013.613	3369.88
2016.807	3308.91
2020.001	3337.88
2023.194	3416.59
2026.388	3378.4
2029.581	3324.32
2032.774	3356.91
2035.966	3353.21
2039.158	3259.15
2042.35	3295.18
2045.542	3221.61
2048.733	3356.4
2051.924	3420.13
2055.115	3463.37
2058.306	3370.82
2061.496	3441.32
2064.686	3526.88
2067.875	3448.36
2071.065	3481.6
2074.254	3521.38
2077.442	3471.38
2080.631	3575.35
2083.819	3404.41
2087.007	3368.5
2090.195	3320.42
2093.382	3383.77
2096.569	3356.62
2099.756	3296.91
2102.942	3292.46
2106.128	3283.44
2109.314	3280.85
2112.5	3209.86
2115.685	3197.46
2118.87	3212.16
2122.055	3287.95
2125.239	3231.36
2128.424	3183.65
2131.608	3350.84
2134.791	3329.08
2137.974	3419.77
2141.157	3394.99
2144.34	3319.95
2147.523	3338.44
2150.705	3330.01
2153.887	3327.65
2157.068	3244.05
2160.25	3277.73
2163.431	3339.59
2166.611	3249.6
2169.792	3261.29
2172.972	3126.87
2176.152	3250.05
2179.331	3296.88
2182.511	3278.99
2185.69	3314.18
2188.868	3299.7
2192.047	3385.32
2195.225	3339.11
2198.403	3285.43
2201.58	3286.8
2204.758	3290.03
2207.935	3387.61
2211.111	3235.82
2214.288	3211.62
2217.464	3263.26
2220.64	3257.1
2223.815	3321.46
2226.991	3227.25
2230.166	3252.39
2233.34	3265.74
2236.515	3304.85
2239.689	3395.64
2242.863	3329.62
2246.036	3393.05
2249.209	3418.61
2252.382	3471
2255.555	3433.47
2258.727	3346.91
2261.9	3402.09
2265.071	3392.92
2268.243	3408.8
2271.414	3316.54
2274.585	3243.32
2277.756	3322.66
2280.926	3275.68
2284.096	3334.34
2287.266	3208.44
2290.436	3279.44
2293.605	3321.47
2296.774	3338.41
2299.942	3385.62
2303.111	3399.49
2306.279	3443.68
2309.447	3433.8
2312.614	3413.11
2315.781	3428.91
2318.948	3383.84
2322.115	3426.93
2325.281	3323.9
2328.447	3365.12
2331.613	3343.72
2334.779	3289.56
2337.944	3304.43
2341.109	3292.94
2344.274	3271.84
2347.438	3230.72
2350.602	3265.43
2353.766	3288.25
2356.929	3269.44
2360.092	3317.22
2363.255	3239.22
2366.418	3128.36
2369.58	3307.56
2372.742	2970.17
2375.904	3014.71
2379.066	2972.94
2382.227	3025.52
2385.388	2980.76
2388.548	2876.18
2391.709	2951.12
2394.869	2920.77
2398.029	3082.2
2401.188	3121.8
2404.347	3015.54
2407.506	3241.43
2410.665	3259.91
2413.823	3292.98
2416.981	3218.24
2420.139	3274.76
2423.296	3338.71
2426.453	3312.86
2429.61	3338.6
2432.767	3221.18
2435.923	3274.61
2439.079	3145.01
2442.235	3241.85
2445.391	3144.74
2448.546	3148.56
2451.701	3224.44
2454.855	3157.4
2458.009	3242.49
2461.163	3263.42
2464.317	3205.18
2467.471	3249.32
2470.624	3288.28
2473.777	3348.32
2476.929	3333.2
2480.082	3365.7
2483.234	3334.75
2486.385	3198.19
2489.537	3202.59
2492.688	3126.73
2495.839	3145.57
2498.989	3145.44
2502.14	3126.92
2505.29	3090
2508.439	3119.03
2511.589	3017.76
2514.738	3049.83
2517.887	3077.47
2521.035	3241.71
2524.183	3235.47
2527.331	3201.19
2530.479	3147.59
2533.627	3172.03
