Data from N_3_DIV_IL_4N_Splice17_13-21-00-418.txt Node
Date: Sat Mar 14 13:21:00 EDT 2020
User: sa697716
Spectrometer: FLMS03696
Trigger mode: 0
Integration Time (sec): 3.180400E-1
Scans to average: 20
Electric dark correction enabled: true
Nonlinearity correction enabled: true
Boxcar width: 5
XAxis mode: Wavelengths
Number of Pixels in Spectrum: 2048
>>>>>Begin Spectral Data<<<<<
187.83	-370522.7
188.298	2661.71
188.766	1437.81
189.233	1296.82
189.701	1801.49
190.169	2465.84
190.636	959.83
191.104	792.11
191.571	123.72
192.039	-20.86
192.506	-21.06
192.974	582.57
193.441	-982.36
193.908	-236.69
194.375	-77.53
194.842	0.98
195.31	91.19
195.777	176.85
196.244	394.21
196.711	423.13
197.177	542.75
197.644	749.67
198.111	1298.91
198.578	1817.23
199.045	1459.54
199.511	2373.29
199.978	2729.45
200.445	2319.33
200.911	2560.02
201.378	2847.92
201.844	2604.08
202.31	4455.69
202.777	4624.71
203.243	2564.43
203.709	2438.78
204.176	2873.14
204.642	2381.87
205.108	2220.13
205.574	1813.43
206.04	1635.37
206.506	1522
206.972	1420.04
207.438	1372.35
207.903	1557.35
208.369	1360.97
208.835	1359.7
209.301	1423.41
209.766	1430.79
210.232	1415.75
210.697	1732.06
211.163	2139.62
211.628	3189.21
212.094	2684.1
212.559	3303.11
213.024	2036.72
213.49	2480.32
213.955	2392.23
214.42	2299.16
214.885	2148.03
215.35	2042.03
215.815	1965
216.28	2065.62
216.745	1661.04
217.21	1776.94
217.675	1575.13
218.14	1729.11
218.604	1860.26
219.069	2059.66
219.534	2127.03
219.998	2390.15
220.463	2804.52
220.927	3298.35
221.392	3014.09
221.856	3018.15
222.32	3677.24
222.785	4491.24
223.249	5548.63
223.713	6112.33
224.177	6059.23
224.642	7637.2
225.106	9299.24
225.57	10115.29
226.034	7560.46
226.497	11512.16
226.961	10360.37
227.425	12109.86
227.889	13334.52
228.353	13329.57
228.816	27359.91
229.28	26101.53
229.744	21962.8
230.207	13369.24
230.671	13125.14
231.134	21509.8
231.597	24761.07
232.061	24680.71
232.524	23908.14
232.987	16469.95
233.45	14834.18
233.914	13304.41
234.377	13598.8
234.84	12446.16
235.303	14643.9
235.766	16351.47
236.229	16899.43
236.691	10623.63
237.154	11901.05
237.617	8998.69
238.08	9201.13
238.542	10756.47
239.005	7699.71
239.468	7668.46
239.93	7254.73
240.393	6613.16
240.855	5806.27
241.317	5953.28
241.78	7242.35
242.242	7502.78
242.704	8120
243.166	7081.28
243.629	6471.59
244.091	7476.74
244.553	8184.83
245.015	8790.2
245.477	11368.87
245.939	16673
246.4	17734.46
246.862	17239.39
247.324	16281.28
247.786	18215.54
248.247	23920.53
248.709	24564.31
249.17	18415.49
249.632	17448.82
250.093	20311.77
250.555	17567.7
251.016	10722.37
251.477	10179.28
251.939	11009.77
252.4	11533.76
252.861	13651.19
253.322	12737.44
253.783	15154.19
254.244	19618.47
254.705	15411.61
255.166	13673.93
255.627	13439.08
256.088	19006.3
256.549	20182.46
257.009	17364.86
257.47	21069.27
257.931	17172.5
258.391	12825.23
258.852	13206.1
259.312	13806.97
259.773	17041.58
260.233	14448.29
260.694	12188.09
261.154	13765.49
261.614	11061.6
262.074	9868.64
262.534	10242.52
262.994	9637.94
263.455	12791.34
263.915	10788.75
264.374	10136.03
264.834	11029.67
265.294	12129.72
265.754	12541.46
266.214	11842.67
266.673	11057.55
267.133	13906.14
267.593	13752.74
268.052	16785.85
268.512	14567.22
268.971	17547.4
269.431	19217.15
269.89	17182.24
270.349	25765.02
270.809	28707.11
271.268	25830.58
271.727	57788.47
272.186	37437.45
272.645	28091.6
273.104	20240.79
273.563	29268.25
274.022	22938.71
274.481	19567.53
274.94	15086.32
275.399	11184.79
275.857	12985.61
276.316	17529.99
276.775	15587.32
277.233	15351
277.692	14395.7
278.15	16323.16
278.609	16845.85
279.067	15598.31
279.525	14471.57
279.984	18671.46
280.442	22485.55
280.9	22299.22
281.358	14673.06
281.816	13690.56
282.274	13403.49
282.732	13819.26
283.19	13857.12
283.648	11961.8
284.106	12741.74
284.564	12976.82
285.021	12056.06
285.479	8966.68
285.937	8102.89
286.394	7132.24
286.852	7340.3
287.309	7710.68
287.767	7473.7
288.224	7131.89
288.682	7818.21
289.139	8588.17
289.596	7857.21
290.053	8159.17
290.511	10309.85
290.968	12529.59
291.425	16961.44
291.882	14185.82
292.339	12376.66
292.796	12257.39
293.252	11527.38
293.709	9185.57
294.166	8236.12
294.623	9106.88
295.079	8726.11
295.536	8772.64
295.992	7971.35
296.449	7886.58
296.905	8168.22
297.362	7836.67
297.818	8241.28
298.274	8579.97
298.731	8707.19
299.187	8610.36
299.643	9224.7
300.099	11164.68
300.555	12241.96
301.011	10213.38
301.467	9904.32
301.923	11569.93
302.379	11314.26
302.835	11111.75
303.291	11112.47
303.746	12693.09
304.202	16013.64
304.658	16092.87
305.113	10837.91
305.569	10647.46
306.024	11345.51
306.479	10751.84
306.935	9084.53
307.39	9928.73
307.845	9193.2
308.301	9280.54
308.756	9034.19
309.211	8737.42
309.666	8949.99
310.121	11149.04
310.576	11283.48
311.031	11246.08
311.486	12858.57
311.94	12870.22
312.395	17194.2
312.85	32235.99
313.305	157668.93
313.759	820160.91
314.214	59537.02
314.668	47405.86
315.123	39890.56
315.577	14377.46
316.032	12790.99
316.486	16053.26
316.94	12703.07
317.394	8872.35
317.849	6919.51
318.303	6561.35
318.757	6196.81
319.211	6855.74
319.665	6016.19
320.119	6085.6
320.572	8714.69
321.026	8145.23
321.48	6781.03
321.934	7382.18
322.387	7385.5
322.841	7995.86
323.295	7222.76
323.748	8268.87
324.202	8416.42
324.655	10110.05
325.108	14222.97
325.562	10057.19
326.015	11963.79
326.468	9065.38
326.921	10157.13
327.374	9490.97
327.827	9909.84
328.28	11244.93
328.733	7583.98
329.186	6650.97
329.639	6333.9
330.092	5311.52
330.545	5057.03
330.997	5111.42
331.45	5610.74
331.903	6597.23
332.355	11330
332.808	11000.04
333.26	9024.88
333.713	9802.93
334.165	9870.31
334.617	13183.52
335.069	10620.12
335.522	19169.11
335.974	21277.55
336.426	19382.92
336.878	13358.59
337.33	6786.36
337.782	6639.42
338.234	8385.62
338.686	10022.7
339.137	11894.31
339.589	11216.15
340.041	8816.86
340.493	7606.93
340.944	7780.34
341.396	8383.68
341.847	7110.22
342.299	8423.44
342.75	10297.05
343.201	8904.98
343.653	10214.39
344.104	12538.78
344.555	9878.99
345.006	15351.66
345.457	11799.92
345.908	9367.37
346.359	8839.91
346.81	7172.17
347.261	7544.96
347.712	7406.82
348.163	7992.5
348.613	8159.62
349.064	7630.56
349.515	6653.24
349.965	6837.14
350.416	8238.68
350.866	9029.64
351.317	10156.04
351.767	16765.17
352.217	21101.49
352.668	17527.14
353.118	16055.71
353.568	15399.62
354.018	12232.3
354.468	12934.2
354.918	9285.67
355.368	8108.69
355.818	11456.44
356.268	33072.39
356.718	139060.37
357.168	34720.13
357.617	17404.44
358.067	19298.52
358.517	18117.49
358.966	21303.49
359.416	23993.17
359.865	25942.05
360.315	30822.6
360.764	14361.56
361.213	8080.23
361.663	7627.84
362.112	9412.66
362.561	15282.22
363.01	11582.08
363.459	9733.78
363.908	10481.94
364.357	8960.15
364.806	15101.77
365.255	10383.73
365.703	9592.06
366.152	9544.64
366.601	7760.45
367.05	6326.09
367.498	5727.68
367.947	5972.9
368.395	6189.49
368.844	5498.96
369.292	6532.76
369.74	4525.02
370.189	6911.89
370.637	8078.81
371.085	6995.41
371.533	8511.95
371.981	8171.43
372.429	7800.1
372.877	8124.94
373.325	6802.57
373.773	6894.78
374.221	6139.64
374.669	7613.81
375.116	6584.66
375.564	6623.87
376.012	7374.97
376.459	6095.24
376.907	7256.67
377.354	8728.24
377.801	8139.19
378.249	9380.13
378.696	11964.36
379.143	14480.69
379.591	15387.97
380.038	26076.09
380.485	18817.03
380.932	20317.24
381.379	18565.33
381.826	13745.8
382.273	9784.65
382.72	8486.84
383.166	8268.93
383.613	5369.23
384.06	4838.06
384.506	5617.33
384.953	4113.16
385.4	4122.61
385.846	3598.06
386.292	3476.13
386.739	3370.43
387.185	3306.88
387.631	3314.36
388.078	3225.66
388.524	3435.53
388.97	3172.5
389.416	2634.37
389.862	2799.74
390.308	2649.09
390.754	2694.33
391.2	2917.9
391.645	2986.51
392.091	2896.55
392.537	2794.1
392.983	2780.8
393.428	2764.39
393.874	2951.8
394.319	2974.93
394.765	2837.03
395.21	2915.71
395.655	2727.21
396.101	2568.52
396.546	2327.1
396.991	2329.54
397.436	2175.05
397.881	2098.35
398.326	1969.91
398.771	1876.47
399.216	1636.96
399.661	1471.33
400.106	1474.42
400.551	1519.64
400.995	1365.83
401.44	1354.16
401.885	1273.92
402.329	1288.88
402.774	1243.12
403.218	1221.52
403.663	1179.71
404.107	1219.58
404.551	1238.68
404.995	1138.18
405.44	1095.83
405.884	1111.83
406.328	1074.84
406.772	1073.16
407.216	978.84
407.66	948.16
408.104	893.21
408.547	839.61
408.991	813.93
409.435	783.01
409.879	776.69
410.322	771.32
410.766	752.9
411.209	721.46
411.653	696.58
412.096	689.3
412.54	690.97
412.983	691.13
413.426	697.97
413.869	696.61
414.312	687.27
414.756	663.29
415.199	635.87
415.642	619.93
416.085	624
416.527	623.69
416.97	634.11
417.413	605.19
417.856	597.73
418.298	591.38
418.741	589.42
419.184	586.94
419.626	608.99
420.069	610.23
420.511	615.19
420.953	605.3
421.396	601.46
421.838	585.82
422.28	602.55
422.722	611.49
423.164	620.4
423.606	615.01
424.048	616.47
424.49	590.87
424.932	588.92
425.374	580.93
425.816	589.93
426.258	600.81
426.699	609.43
427.141	601.2
427.582	609.65
428.024	605.85
428.465	598.68
428.907	584.7
429.348	577.88
429.789	580.25
430.231	572.24
430.672	580.64
431.113	566.37
431.554	557.02
431.995	540.99
432.436	524.34
432.877	516.24
433.318	511.76
433.759	509.98
434.2	510.02
434.64	504.62
435.081	504.38
435.522	479.73
435.962	463.56
436.403	458.36
436.843	467.58
437.284	454.93
437.724	441.4
438.164	439.16
438.604	429.09
439.045	415.57
439.485	400.97
439.925	393.78
440.365	383.35
440.805	379.76
441.245	375.1
441.685	361.04
442.125	360.15
442.564	364.04
443.004	359.85
443.444	363
443.883	364
444.323	359.99
444.762	358
445.202	362.74
445.641	371.27
446.081	369.4
446.52	373.39
446.959	372.83
447.398	366.54
447.837	363.19
448.276	356.04
448.716	362.06
449.154	366.93
449.593	362.23
450.032	364.45
450.471	357.65
450.91	358.17
451.349	360.1
451.787	357.6
452.226	362.97
452.664	363.87
453.103	366.3
453.541	364.61
453.98	367.06
454.418	369.71
454.856	364.69
455.295	364.12
455.733	367.85
456.171	370.11
456.609	370.35
457.047	370.62
457.485	377.31
457.923	378.03
458.361	373.62
458.798	372.16
459.236	370.98
459.674	372.81
460.111	374.96
460.549	372.56
460.987	369.64
461.424	368.83
461.862	367.02
462.299	361.8
462.736	361.77
463.173	362.78
463.611	362.05
464.048	361.92
464.485	364.63
464.922	360.77
465.359	357.18
465.796	360.61
466.233	359.16
466.67	357.6
467.106	356.79
467.543	351.61
467.98	346
468.416	335.58
468.853	331.52
469.29	321.49
469.726	318.67
470.162	310.73
470.599	300.74
471.035	297.58
471.471	289.96
471.907	286.52
472.344	285.24
472.78	287.51
473.216	290.63
473.652	288.69
474.088	288.75
474.523	289.63
474.959	292.51
475.395	289.95
475.831	288.96
476.266	290.1
476.702	290.34
477.138	288.28
477.573	287.7
478.008	287.48
478.444	289.67
478.879	293.11
479.314	294.1
479.75	294.56
480.185	296.56
480.62	299.05
481.055	300.7
481.49	303.16
481.925	308.37
482.36	315.3
482.795	323.4
483.229	331.14
483.664	338.42
484.099	339.45
484.534	345.06
484.968	349.11
485.403	350.68
485.837	350.08
486.271	350.1
486.706	350.65
487.14	345.75
487.574	341.71
488.009	339.52
488.443	337.59
488.877	342.9
489.311	344.72
489.745	349.56
490.179	354.87
490.613	365.59
491.046	369.63
491.48	373.78
491.914	377.37
492.348	382.41
492.781	387.51
493.215	390.38
493.648	393.16
494.082	399.62
494.515	403.35
494.948	411.11
495.382	415.39
495.815	422.54
496.248	429.31
496.681	440.44
497.114	450.6
497.547	460.79
497.98	473.98
498.413	482.91
498.846	493.58
499.279	503.73
499.711	510.29
500.144	516.59
500.577	529.33
501.009	542.46
501.442	554.28
501.874	561.43
502.306	568.74
502.739	581.22
503.171	597.28
503.603	605.52
504.036	617.21
504.468	627.63
504.9	641.55
505.332	651.66
505.764	660.76
506.196	672.25
506.627	689.23
507.059	705.41
507.491	716.04
507.923	719.81
508.354	737.51
508.786	753.24
509.217	773.34
509.649	791.06
510.08	811.99
510.512	831.47
510.943	848.91
511.374	863.01
511.805	884.28
512.237	905.95
512.668	937.78
513.099	964.66
513.53	991.62
513.961	1013.25
514.391	1045.47
514.822	1079.49
515.253	1114.36
515.684	1140.66
516.114	1170.36
516.545	1194.43
516.975	1221.16
517.406	1242.12
517.836	1248.34
518.267	1258.73
518.697	1278.55
519.127	1286.68
519.558	1295.13
519.988	1301.14
520.418	1313.73
520.848	1332.48
521.278	1342.3
521.708	1373.71
522.138	1387.67
522.567	1418.49
522.997	1443.47
523.427	1460.8
523.857	1477.62
524.286	1488.22
524.716	1504.41
525.145	1523.02
525.575	1535.08
526.004	1548.88
526.433	1531.6
526.863	1531.9
527.292	1524.31
527.721	1530.47
528.15	1536.38
528.579	1537.69
529.008	1549.96
529.437	1571.13
529.866	1585.03
530.295	1601.39
530.724	1615.64
531.152	1642.15
531.581	1657.79
532.01	1674.52
532.438	1683.36
532.867	1696.75
533.295	1715.7
533.723	1721.09
534.152	1720.55
534.58	1721.09
535.008	1707.62
535.436	1709.48
535.865	1716.25
536.293	1728.88
536.721	1744.84
537.149	1768.71
537.576	1772.04
538.004	1782.63
538.432	1789.67
538.86	1787.08
539.287	1793.21
539.715	1805.39
540.143	1807.14
540.57	1803.9
540.998	1800.19
541.425	1777.86
541.852	1757.17
542.28	1755.44
542.707	1739.89
543.134	1726.95
543.561	1723.38
543.988	1716.28
544.415	1716.67
544.842	1711.62
545.269	1705.27
545.696	1707.22
546.123	1720.44
546.549	1712.01
546.976	1700.4
547.403	1700.53
547.829	1703.88
548.256	1707.12
548.682	1704.57
549.108	1697.05
549.535	1697.41
549.961	1700
550.387	1689.2
550.813	1685.65
551.24	1691.84
551.666	1693.59
552.092	1686.63
552.518	1680.99
552.943	1675.71
553.369	1684.12
553.795	1690.19
554.221	1691.51
554.646	1689.19
555.072	1699.81
555.498	1703.45
555.923	1712.41
556.349	1727.17
556.774	1735.34
557.199	1736.73
557.625	1742.89
558.05	1737.37
558.475	1748.61
558.9	1748.82
559.325	1741.79
559.75	1736.73
560.175	1731.5
560.6	1726.75
561.025	1724.36
561.449	1725.14
561.874	1731.07
562.299	1735.74
562.723	1741.91
563.148	1731.76
563.572	1735.46
563.997	1744.7
564.421	1748.95
564.846	1749.04
565.27	1751.55
565.694	1750.04
566.118	1761.61
566.542	1768.5
566.966	1762.55
567.39	1758.82
567.814	1748.12
568.238	1747.35
568.662	1752.4
569.086	1755.07
569.509	1760.54
569.933	1746.13
570.357	1737.96
570.78	1717.62
571.204	1704.83
571.627	1693.9
572.05	1691.31
572.474	1690.8
572.897	1679.44
573.32	1671.78
573.743	1662.18
574.166	1645.95
574.589	1645.97
575.012	1638.81
575.435	1637.98
575.858	1629.35
576.281	1618.74
576.704	1603.99
577.126	1593.43
577.549	1582.9
577.972	1573.3
578.394	1563.03
578.817	1557.23
579.239	1539.89
579.661	1527.65
580.084	1512.97
580.506	1500.95
580.928	1498.21
581.35	1488.34
581.772	1484.93
582.194	1472.01
582.616	1460.63
583.038	1446.83
583.46	1435.81
583.882	1432.87
584.303	1436.97
584.725	1432.33
585.147	1434.78
585.568	1443.81
585.99	1455.27
586.411	1460.92
586.833	1474.57
587.254	1475.22
587.675	1488.35
588.096	1500.83
588.518	1494.33
588.939	1478.55
589.36	1476.9
589.781	1465.31
590.202	1439.17
590.623	1429.88
591.043	1426.21
591.464	1413.19
591.885	1409.38
592.305	1403.38
592.726	1389.57
593.147	1391.37
593.567	1386.15
593.987	1378.84
594.408	1373.36
594.828	1369.75
595.248	1363.59
595.669	1346.64
596.089	1340.68
596.509	1334.82
596.929	1323.24
597.349	1323.71
597.769	1313.48
598.189	1307.46
598.608	1308.64
599.028	1310.59
599.448	1311.16
599.867	1300.2
600.287	1295.1
600.706	1290.77
601.126	1281.3
601.545	1279.29
601.965	1277.79
602.384	1272.66
602.803	1275.21
603.222	1270.28
603.641	1263.52
604.061	1259.68
604.48	1255.21
604.898	1263.13
605.317	1267.26
605.736	1268.06
606.155	1264.86
606.574	1256.05
606.992	1260.29
607.411	1254.84
607.829	1246.05
608.248	1243.33
608.666	1240.31
609.085	1238.59
609.503	1230.18
609.921	1223.81
610.339	1225.17
610.758	1224.11
611.176	1218.83
611.594	1209.59
612.012	1205.07
612.43	1206.97
612.847	1210.81
613.265	1210.8
613.683	1214.3
614.101	1214.83
614.518	1210.24
614.936	1200.64
615.353	1185.87
615.771	1181.84
616.188	1181.27
616.606	1178.17
617.023	1170.94
617.44	1157.93
617.857	1150.05
618.274	1141.33
618.691	1134.71
619.108	1126.13
619.525	1120.1
619.942	1125.74
620.359	1128.78
620.776	1123.23
621.192	1119.4
621.609	1116.64
622.026	1122.05
622.442	1127
622.859	1129
623.275	1121.35
623.691	1125.16
624.108	1134.33
624.524	1146.13
624.94	1144.67
625.356	1152.64
625.772	1163.02
626.188	1173.05
626.604	1173.88
627.02	1169.37
627.436	1167.42
627.852	1173.8
628.268	1184.62
628.683	1176.43
629.099	1169.27
629.514	1164.9
629.93	1169.1
630.345	1171.5
630.761	1167.59
631.176	1170.82
631.591	1165.71
632.007	1159.49
632.422	1155.9
632.837	1143.45
633.252	1139.7
633.667	1128.3
634.082	1118.36
634.497	1104.65
634.911	1087.14
635.326	1081.75
635.741	1063.12
636.155	1052.35
636.57	1050.91
636.984	1048.59
637.399	1047.2
637.813	1042.96
638.228	1038.9
638.642	1038.76
639.056	1026.22
639.47	1023.37
639.884	1012.87
640.298	1004.86
640.712	1000.11
641.126	986.05
641.54	974.23
641.954	965.38
642.368	952.25
642.781	942.68
643.195	923.34
643.609	920.07
644.022	910.04
644.436	902.11
644.849	886.84
645.262	872.64
645.676	869.62
646.089	861.92
646.502	848.34
646.915	840.43
647.328	824.16
647.741	820.16
648.154	807.22
648.567	803.12
648.98	791.38
649.393	789.15
649.805	784.37
650.218	776.85
650.631	762.2
651.043	754.29
651.456	747.77
651.868	744.87
652.28	755.45
652.693	763.5
653.105	764.74
653.517	769.67
653.929	768.21
654.341	770.09
654.753	758.63
655.165	761.17
655.577	757.22
655.989	751.59
656.401	742.69
656.813	715.04
657.224	697.23
657.636	672.5
658.047	656.23
658.459	639.32
658.87	628.98
659.282	615.58
659.693	598.17
660.104	583.59
660.515	569.32
660.926	562.82
661.338	554.58
661.749	544.72
662.159	535.02
662.57	526.41
662.981	518.63
663.392	509.2
663.803	507.38
664.213	499.85
664.624	492.13
665.035	489.28
665.445	476.93
665.855	468.46
666.266	460.17
666.676	454.76
667.086	445.39
667.497	441
667.907	434.01
668.317	425.15
668.727	422.48
669.137	419.74
669.547	415.9
669.956	415.55
670.366	414.81
670.776	414.65
671.186	414.83
671.595	415.78
672.005	415.79
672.414	413.92
672.824	413.84
673.233	413.14
673.642	414.12
674.052	415.78
674.461	417.14
674.87	419.11
675.279	417.45
675.688	417.79
676.097	419.36
676.506	418.89
676.915	427.68
677.323	429.76
677.732	429.97
678.141	431.16
678.549	426.79
678.958	427
679.366	429.06
679.775	433.85
680.183	445.39
680.592	451.48
681	457.94
681.408	458.69
681.816	466.46
682.224	476.56
682.632	489.49
683.04	513.39
683.448	535.92
683.856	562.98
684.264	593.72
684.671	622.07
685.079	658.29
685.487	699.62
685.894	752.68
686.302	801.32
686.709	844.49
687.116	894.61
687.524	942.01
687.931	984.04
688.338	1022.98
688.745	1059.36
689.152	1098.68
689.559	1146.15
689.966	1194.49
690.373	1224.28
690.78	1270.07
691.187	1332.14
691.593	1381.9
692	1425.43
692.407	1486.14
692.813	1557.89
693.22	1615.13
693.626	1673.27
694.032	1722.25
694.439	1792.6
694.845	1848.04
695.251	1915.27
695.657	1978.38
696.063	2068.06
696.469	2135.06
696.875	2197.73
697.281	2233.53
697.687	2276.78
698.093	2311.92
698.498	2377.79
698.904	2427.73
699.31	2506.19
699.715	2561.96
700.12	2643.05
700.526	2656.14
700.931	2715.16
701.337	2757.91
701.742	2785.05
702.147	2857.04
702.552	2882.87
702.957	2935.27
703.362	2950.75
703.767	2973.49
704.172	3007.99
704.577	2962.53
704.981	3002.94
705.386	3014.01
705.791	3005.97
706.195	3069.04
706.6	3074.83
707.004	3143.09
707.408	3112.66
707.813	3135.73
708.217	3123.04
708.621	3121.29
709.025	3204.8
709.43	3203.01
709.834	3256.15
710.237	3314.6
710.641	3299.57
711.045	3316.86
711.449	3308.55
711.853	3332.3
712.256	3365.09
712.66	3394.64
713.064	3457.15
713.467	3491.67
713.87	3585.94
714.274	3621.98
714.677	3714.5
715.08	3851.98
715.484	3993.7
715.887	4170.11
716.29	4339.8
716.693	4514.92
717.096	4720.34
717.499	4830.24
717.901	4847.3
718.304	4869.36
718.707	4888.36
719.109	4795.49
719.512	4764.98
719.915	4648.96
720.317	4594.7
720.719	4627.85
721.122	4602.63
721.524	4557.08
721.926	4522.45
722.328	4605.68
722.731	4592.56
723.133	4612.83
723.535	4778.71
723.937	4792.14
724.338	4833.13
724.74	4865.22
725.142	4821.95
725.544	4816.21
725.945	4840.22
726.347	4830.21
726.748	4823.38
727.15	4834.81
727.551	4801.35
727.952	4773.59
728.354	4747.24
728.755	4744.73
729.156	4705.96
729.557	4681.51
729.958	4575.45
730.359	4523.11
730.76	4507.86
731.161	4453.74
731.562	4430.81
731.962	4429.26
732.363	4373.55
732.763	4317.66
733.164	4347.6
733.564	4290.71
733.965	4206.83
734.365	4179.21
734.766	4202.2
735.166	4167.56
735.566	4121.83
735.966	4098.1
736.366	4095.15
736.766	4041.89
737.166	4070.42
737.566	4033.41
737.966	4010.13
738.365	4042.26
738.765	4036.37
739.165	3973.47
739.564	3951.68
739.964	3988.61
740.363	3951.55
740.763	3948.9
741.162	3940.76
741.561	3913.25
741.96	3873.08
742.36	3889.59
742.759	3894.59
743.158	3927.55
743.557	3938.45
743.955	3967.34
744.354	3928.98
744.753	3975.1
745.152	3938.96
745.55	3985.11
745.949	3978.34
746.348	3981.5
746.746	3994.49
747.144	3961.89
747.543	3938.7
747.941	3980.25
748.339	3924.48
748.737	3919.31
749.136	3912.73
749.534	3966.88
749.932	3940.9
750.33	3959.37
750.727	4005.99
751.125	3988.83
751.523	3974.39
751.921	4013.29
752.318	3982.22
752.716	4031.57
753.113	4041.56
753.511	4060.09
753.908	4061.17
754.305	4048.55
754.703	4100.78
755.1	4152.1
755.497	4195.75
755.894	4354.17
756.291	4500.24
756.688	4773.91
757.085	5137.31
757.482	5647.91
757.878	6209.8
758.275	6715.03
758.672	7406.22
759.068	7970.18
759.465	8773.28
759.861	9826.79
760.258	11036.46
760.654	11663.78
761.05	11569.96
761.447	11043.86
761.843	10287.69
762.239	9500.5
762.635	9142.74
763.031	8805.95
763.427	8315.35
763.822	7799.73
764.218	7287.21
764.614	6627.69
765.01	6181.43
765.405	5898.95
765.801	5684.98
766.196	5406.48
766.592	5251.99
766.987	4992.74
767.382	4815.5
767.778	4743.95
768.173	4636.46
768.568	4577.06
768.963	4470.61
769.358	4489.32
769.753	4447.88
770.148	4377.36
770.542	4375.72
770.937	4349.29
771.332	4425.04
771.726	4441.88
772.121	4392.19
772.515	4439.04
772.91	4426.63
773.304	4487.24
773.699	4431.58
774.093	4477.44
774.487	4520.98
774.881	4557.35
775.275	4554.88
775.669	4517.46
776.063	4555
776.457	4577.41
776.851	4512.73
777.245	4505.56
777.638	4533.59
778.032	4629.95
778.425	4600.1
778.819	4640.28
779.212	4606.59
779.606	4572.66
779.999	4591.32
780.392	4573.37
780.786	4644.47
781.179	4663.08
781.572	4699.87
781.965	4709.58
782.358	4660.46
782.751	4707.16
783.143	4660.24
783.536	4720.61
783.929	4756.94
784.322	4851.87
784.714	4880.26
785.107	4875.66
785.499	4936.91
785.891	4917.83
786.284	4901.11
786.676	5019.99
787.068	5005.88
787.46	5051.09
787.852	5062.83
788.245	5135
788.636	5157.51
789.028	5215.82
789.42	5248.11
789.812	5253.61
790.204	5334.27
790.595	5417.34
790.987	5255.74
791.378	5272.27
791.77	5380.99
792.161	5498.31
792.553	5544.34
792.944	5455.19
793.335	5395.4
793.726	5460.07
794.117	5540.54
794.508	5655.06
794.899	5632.25
795.29	5749.83
795.681	5799.08
796.072	5684.55
796.463	5538.59
796.853	5546.48
797.244	5680.12
797.634	5710.47
798.025	5709.72
798.415	5719.73
798.806	5795.18
799.196	5866.02
799.586	5911.18
799.976	5881.93
800.366	6074.38
800.756	6268.65
801.146	6238.02
801.536	6264.23
801.926	6329.42
802.316	6352.49
802.706	6414.29
803.095	6315.36
803.485	6404.17
803.874	6438.47
804.264	6658.76
804.653	6640.47
805.043	6765.57
805.432	6860.37
805.821	6858.08
806.21	6875.12
806.599	6975.83
806.988	7009.66
807.377	7095.33
807.766	7202.83
808.155	7443.34
808.544	7218.38
808.933	7230.08
809.321	7212.1
809.71	7457.41
810.098	7590.74
810.487	7979.01
810.875	8383.76
811.264	8402.79
811.652	8651.2
812.04	8773.35
812.428	8906.03
812.816	9547.24
813.204	9891.02
813.592	10350.63
813.98	10639.33
814.368	10562.06
814.756	10963.54
815.144	10899.75
815.531	11292.18
815.919	11224.97
816.306	11480.63
816.694	11224.43
817.081	11268.29
817.469	11564.2
817.856	11564.48
818.243	11786.93
818.63	12118.82
819.017	11769.93
819.404	11812.21
819.791	12131.76
820.178	12644.57
820.565	12864.01
820.952	13645.18
821.339	13229.59
821.725	13382.84
822.112	12757.09
822.498	12719.2
822.885	12821.9
823.271	12735.89
823.657	13086.79
824.044	13094.02
824.43	13160.28
824.816	13131.68
825.202	12765.43
825.588	13621.35
825.974	13634.6
826.36	14070.03
826.746	14094.05
827.132	14391.03
827.517	14374.61
827.903	13719.29
828.289	13755.97
828.674	13104.81
829.06	13015.47
829.445	13350.89
829.83	13654.56
830.216	14053.25
830.601	14361.84
830.986	14035.14
831.371	13932.27
831.756	14397.78
832.141	14039.31
832.526	14033.7
832.911	14266.69
833.295	14172.32
833.68	14566.24
834.065	14038.89
834.449	13279.29
834.834	13216.12
835.218	13201.46
835.603	13486.42
835.987	13306.66
836.371	14001.4
836.755	13911.81
837.139	14249.99
837.524	14446.31
837.908	14287.12
838.291	14336.16
838.675	14385.46
839.059	14554.2
839.443	14538.44
839.827	14337.95
840.21	14741.65
840.594	14617.3
840.977	14781.75
841.361	14762.13
841.744	15070.09
842.127	14943.42
842.511	15145.71
842.894	15637.06
843.277	15950.79
843.66	16400.34
844.043	16459.78
844.426	15780.89
844.809	15516.61
845.191	15543.8
845.574	15156.36
845.957	14860.1
846.339	14771.99
846.722	14329.79
847.104	14378.67
847.487	14231.8
847.869	14240.87
848.252	14472.69
848.634	14743.99
849.016	14959.49
849.398	15061.54
849.78	15765.1
850.162	15757.49
850.544	16090.74
850.926	16614.31
851.307	16545.59
851.689	16778.98
852.071	17153.03
852.452	17422.63
852.834	17411.72
853.215	17741.9
853.597	17868.59
853.978	18116.33
854.359	18493.83
854.741	17670.29
855.122	17589.45
855.503	17349.23
855.884	17453.18
856.265	17407.43
856.646	17504.63
857.026	17172.02
857.407	17121.39
857.788	17253.02
858.169	17490.26
858.549	16791.8
858.93	17308.19
859.31	17348.7
859.69	17520.68
860.071	17188.93
860.451	17005.58
860.831	16396.69
861.211	17356.54
861.591	17810.09
861.971	17785.47
862.351	17938.58
862.731	18255.54
863.111	18475.7
863.491	18753.65
863.87	19483.43
864.25	19774.91
864.629	19450.11
865.009	19871.07
865.388	20592.05
865.768	22072.51
866.147	21983.9
866.526	20780.8
866.905	21030.99
867.284	22223.08
867.663	21105.53
868.042	20227.32
868.421	20167.31
868.8	20500.1
869.179	20709.14
869.558	19498.59
869.936	17971.57
870.315	18294.51
870.693	18745.4
871.072	20218.87
871.45	19257.71
871.828	19503.16
872.207	20511.33
872.585	20208.79
872.963	20749.97
873.341	20034.67
873.719	19798.57
874.097	19555.48
874.475	19929
874.853	20377.45
875.23	19530.08
875.608	20350.98
875.986	22014.91
876.363	21042.72
876.741	21679.04
877.118	21141.43
877.495	22174.25
877.873	22542.69
878.25	23716.78
878.627	22750.3
879.004	23062.9
879.381	22939.11
879.758	22324.32
880.135	20783.32
880.512	21978.72
880.889	21374.38
881.265	21146.24
881.642	20962.67
882.019	21312.77
882.395	20896.8
882.772	21718.94
883.148	20771.98
883.524	20698.94
883.901	20572.8
884.277	20861.37
884.653	20726.33
885.029	21343.96
885.405	23636.59
885.781	23463.09
886.157	22495.07
886.532	22750.86
886.908	22731.53
887.284	25268.76
887.659	26086.77
888.035	26897.41
888.411	27592.89
888.786	27958.63
889.161	28924.74
889.537	28398.41
889.912	29283.25
890.287	29251.37
890.662	30002.24
891.037	29450.35
891.412	27463.76
891.787	27174.97
892.162	26220.88
892.536	26828.79
892.911	25818.81
893.286	25251.19
893.66	24230.07
894.035	24838.09
894.409	27029.45
894.784	25952.77
895.158	26387.68
895.532	27943.39
895.906	28702.94
896.281	29372.68
896.655	28904.01
897.029	33020.63
897.402	34398.98
897.776	38281.37
898.15	38160.73
898.524	37757.26
898.898	38235.76
899.271	42804.94
899.645	37078.19
900.018	35608.97
900.392	36924.81
900.765	37213.04
901.138	34431.78
901.511	33893.25
901.884	31114.13
902.258	28707.21
902.631	29671.42
903.003	34140.16
903.376	30805.84
903.749	34535.73
904.122	36974.87
904.495	40725.42
904.867	41248.53
905.24	35818.09
905.612	33354.38
905.985	34114.53
906.357	35679.09
906.729	34059.77
907.102	29097.27
907.474	27987.99
907.846	28185.75
908.218	27827.28
908.59	24601.26
908.962	23804.75
909.334	25649.21
909.705	26956
910.077	26179.84
910.449	27244.03
910.82	28018.78
911.192	30852.77
911.563	32077.17
911.935	34322.23
912.306	34357.91
912.677	35480.95
913.048	35143.27
913.419	38127.87
913.79	38337.11
914.161	41118.95
914.532	39322.1
914.903	36137.29
915.274	34321.72
915.645	33810.46
916.015	29764.67
916.386	28393.73
916.756	30217.58
917.127	31160.83
917.497	27842.73
917.868	30324.41
918.238	28815.99
918.608	29643.8
918.978	30248.55
919.348	32019.42
919.718	33088.95
920.088	31878.56
920.458	33129.18
920.828	34871.35
921.198	33072.16
921.567	35333.16
921.937	27360.85
922.306	27601.52
922.676	29771.37
923.045	24851.83
923.415	23630.31
923.784	21513.1
924.153	22117.06
924.522	22091.49
924.891	20768.17
925.26	22238.02
925.629	21696.64
925.998	24930.92
926.367	24339.91
926.736	23187.02
927.104	27598.15
927.473	29645.36
927.842	35807.12
928.21	35452.57
928.578	37262.45
928.947	35238.03
929.315	35457.76
929.683	41612.21
930.051	41935.63
930.42	48747.56
930.788	41647.26
931.156	41320.74
931.523	38740.28
931.891	35789.25
932.259	34378.46
932.627	39823.2
932.994	56332.42
933.362	46545.57
933.729	40394.09
934.097	38617.85
934.464	32633.04
934.831	37625.62
935.199	37079.72
935.566	35954.44
935.933	36413.45
936.3	44083.7
936.667	34326.64
937.034	30966.55
937.401	30626.66
937.767	26450.93
938.134	23572.42
938.501	33266.12
938.867	35475.08
939.234	59961.32
939.6	51158.77
939.967	56375.37
940.333	37755.44
940.699	32147.46
941.065	25761.46
941.431	33720.01
941.798	32518.67
942.163	42713.89
942.529	26651.69
942.895	24530.6
943.261	15889.53
943.627	20833.92
943.992	18268.18
944.358	18313.02
944.723	18376.15
945.089	17928.48
945.454	16586.45
945.82	17683.46
946.185	17000.29
946.55	19709.08
946.915	17702.42
947.28	20765.81
947.645	18318.22
948.01	16907.67
948.375	17637.72
948.74	21145.41
949.104	24699.27
949.469	35687.99
949.834	63116.83
950.198	59973.57
950.562	35961.01
950.927	29930.22
951.291	36026.09
951.655	30674.75
952.02	28776.4
952.384	21764.6
952.748	18958.25
953.112	18484.52
953.476	16075.09
953.839	14880.79
954.203	14719.27
954.567	18417.8
954.931	28987.27
955.294	24781.17
955.658	24927.9
956.021	42410.7
956.385	71897.56
956.748	106133.54
957.111	164394.77
957.474	184469.07
957.837	207690.36
958.2	157226.57
958.563	56542.79
958.926	38271.48
959.289	58186.97
959.652	64987.88
960.015	48826.47
960.377	70063.49
960.74	79984.54
961.102	138197.92
961.465	148591.6
961.827	79687.58
962.189	152567.17
962.552	105820.41
962.914	84732.35
963.276	54918.22
963.638	45396.15
964	44897.18
964.362	30328.43
964.724	29289.92
965.085	20897.74
965.447	17120.77
965.809	19484.94
966.17	19520.55
966.532	21125.58
966.893	19415.57
967.255	17646.25
967.616	20840.15
967.977	16707.16
968.338	18242.97
968.699	15000.82
969.061	15008.84
969.421	15103.46
969.782	16954.35
970.143	14333.21
970.504	14857.78
970.865	16872.48
971.225	17292.74
971.586	16900.01
971.946	24067.95
972.307	20888.37
972.667	27279
973.027	28065.48
973.388	34017.48
973.748	23116.67
974.108	25160.32
974.468	33935.1
974.828	26203.23
975.188	20133.14
975.548	18472.89
975.907	15507.16
976.267	17390.78
976.627	14620.75
976.986	15140.15
977.346	14452.58
977.705	13916.92
978.064	12682.44
978.424	10576.6
978.783	10920.54
979.142	12466.47
979.501	11955.23
979.86	12628.96
980.219	12176.32
980.578	15686.52
980.937	17581.14
981.296	15655.89
981.654	16066.44
982.013	24972.47
982.371	32382.29
982.73	30248.32
983.088	34192.98
983.447	36530.96
983.805	52379.94
984.163	109367.37
984.521	121415.27
984.879	177985.91
985.237	-289390.5
985.595	279954.49
985.953	69634
986.311	40227.8
986.669	23337.1
987.026	20194.28
987.384	27126.53
987.741	27963.77
988.099	20010.5
988.456	15963.63
988.814	14955.43
989.171	13027.18
989.528	12823.96
989.885	13537.56
990.242	10719.31
990.599	13358.49
990.956	10930.94
991.313	7651.07
991.67	6287.98
992.027	6681.6
992.383	5940.95
992.74	5208.95
993.096	5461.77
993.453	5659.5
993.809	5869.1
994.165	7818.4
994.522	7183.22
994.878	7917.95
995.234	9944.85
995.59	9786.07
995.946	9237.15
996.302	10538.67
996.658	12174.04
997.013	13374.08
997.369	15887.44
997.725	20341.93
998.08	13226.53
998.436	20339.71
998.791	27991.57
999.147	27844.43
999.502	30439.25
999.857	22130
1000.212	35967.56
1000.567	51164.88
1000.922	29627.2
1001.277	18851.1
1001.632	13983.09
1001.987	17955.43
1002.342	12879.33
1002.696	10302.48
1003.051	8248.98
1003.406	9986.96
1003.76	9965.7
1004.114	9825.97
1004.469	8292.98
1004.823	6847.95
1005.177	7378.37
1005.531	5833.34
1005.885	5187.92
1006.239	5866.16
1006.593	7376.96
1006.947	9847.75
1007.301	7407.75
1007.655	8047.45
1008.008	5940.03
1008.362	6650.87
1008.715	9493.69
1009.069	8624.56
1009.422	13045.34
1009.776	26154.9
1010.129	17299.46
1010.482	14403.27
1010.835	12198.39
1011.188	25379.33
1011.541	23877.6
1011.894	-145343.95
1012.247	427759.55
1012.6	29163.1
1012.952	18409.68
1013.305	9401.44
1013.657	6761.26
1014.01	6421.52
1014.362	5296.39
1014.715	4709.69
1015.067	4110.27
1015.419	4028.26
1015.771	3583.75
1016.123	3202.62
1016.475	3301.13
1016.827	3506.84
1017.179	3803.95
1017.531	3834.05
1017.883	3920.11
1018.234	3799.36
1018.586	4809.65
1018.938	5090.61
1019.289	7033.49
1019.64	8049.76
1019.992	7472.34
1020.343	6843.09
1020.694	5446.4
1021.045	4814.36
1021.396	5497.54
1021.747	5913.32
1022.098	7103.76
1022.449	5139.49
1022.8	4786.65
1023.151	3332.51
1023.501	2961.82
1023.852	3234.56
1024.202	3339.64
1024.553	3667.69
1024.903	3607
1025.253	3095
1025.604	2770.99
1025.954	3435.47
1026.304	4164.38
1026.654	4792.05
1027.004	7025
1027.354	11302.65
1027.703	10638.47
1028.053	13967.86
1028.403	20267.67
1028.753	29108.18
1029.102	39390.95
1029.452	202493.44
1029.801	8718.13
1030.15	5659.92
1030.499	4833.04
897.758	2856.06
901.051	2822.63
904.343	2855.43
907.636	2854.94
910.928	2920.09
914.22	2826.82
917.511	2834.8
920.803	2904.59
924.094	2931.62
927.384	2901.27
930.675	2866.13
933.965	2815.47
937.255	2816.15
940.544	2786.24
943.834	2699.66
947.123	2649.06
950.411	2747.72
953.7	2717.1
956.988	2678.97
960.276	2620.74
963.563	2711.97
966.851	2700.85
970.138	2766.95
973.424	2758.07
976.711	2704.04
979.997	2871.52
983.283	2900.02
986.568	2794.03
989.853	2821.81
993.138	2849.62
996.423	2930.67
999.708	2860.61
1002.992	2943.24
1006.275	2745.6
1009.559	2807.62
1012.842	2931.54
1016.125	2855.87
1019.408	2834.46
1022.69	2933.42
1025.972	2947.41
1029.254	2920.11
1032.536	2841.9
1035.817	2875.62
1039.098	2802.6
1042.379	2986.92
1045.659	2969.81
1048.939	2894.84
1052.219	2919.46
1055.498	2939.33
1058.778	2918.13
1062.057	2905.69
1065.335	2924.86
1068.614	2947.47
1071.892	2923.57
1075.17	3009.16
1078.447	2991.63
1081.724	2981.73
1085.001	3027.12
1088.278	2998.92
1091.554	3009.02
1094.83	3008.05
1098.106	3035.01
1101.382	3083.37
1104.657	3082.32
1107.932	3077.81
1111.206	3038.68
1114.481	2994.12
1117.755	3002.2
1121.029	2972.29
1124.302	3025.7
1127.575	2972.93
1130.848	2957.93
1134.121	2913.24
1137.393	2860.69
1140.665	2933.7
1143.937	2903.67
1147.208	2868.53
1150.48	2903.57
1153.75	2882.8
1157.021	2926.58
1160.291	2891.93
1163.561	2936.83
1166.831	2932.25
1170.101	2967.07
1173.37	2944.36
1176.639	2880.58
1179.907	2949.93
1183.176	2946.48
1186.444	2957.57
1189.711	2990.4
1192.979	2994.43
1196.246	2954.51
1199.513	2972.14
1202.78	2969.59
1206.046	2976.01
1209.312	3003.13
1212.578	3035.48
1215.843	2976.62
1219.108	2956.95
1222.373	2978.66
1225.638	2937.97
1228.902	2922.87
1232.166	2889.67
1235.43	2870.21
1238.693	2891.16
1241.956	2892.35
1245.219	2927.59
1248.482	2922.02
1251.744	2919.75
1255.006	3079.23
1258.268	3037.26
1261.529	2974.1
1264.79	2984.13
1268.051	3088.55
1271.312	3110.53
1274.572	3068.96
1277.832	3056.16
1281.092	3052.51
1284.351	3016.46
1287.61	2990.85
1290.869	2898.6
1294.128	2865.47
1297.386	2971.41
1300.644	2957.66
1303.902	2970.89
1307.159	2822.72
1310.416	2878.8
1313.673	2903.56
1316.93	2884.63
1320.186	2935.2
1323.442	2982.06
1326.697	2964.52
1329.953	2966.31
1333.208	2982.94
1336.463	2966.56
1339.717	2896.46
1342.972	3045.92
1346.226	3026.71
1349.479	2953.12
1352.733	2916.31
1355.986	2949.85
1359.238	2926.6
1362.491	2928.39
1365.743	2929.41
1368.995	2928.42
1372.247	2940.32
1375.498	2966.07
1378.749	2971.55
1382	2928.42
1385.251	2986.65
1388.501	2955.07
1391.751	2930.88
1395	2905.76
1398.25	2940.94
1401.499	2945.09
1404.748	2863.99
1407.996	2859.78
1411.244	2845.06
1414.492	2820.38
1417.74	2797.49
1420.987	2813.01
1424.234	2865.99
1427.481	2853.77
1430.728	2911.61
1433.974	2885.22
1437.22	2904.76
1440.465	2908.65
1443.711	2858.51
1446.956	2899.46
1450.201	2892.99
1453.445	2939.15
1456.689	2911.15
1459.933	2926.41
1463.177	2954.8
1466.42	2923.51
1469.663	2905.13
1472.906	2890.7
1476.148	2986.2
1479.391	2923.99
1482.633	2898.81
1485.874	2905.5
1489.115	2883.36
1492.356	2894.72
1495.597	2870.54
1498.838	2876.61
1502.078	2842.06
1505.318	2779.9
1508.557	2826.04
1511.797	2783.86
1515.036	2883.11
1518.274	2870.59
1521.513	2848.34
1524.751	2873.14
1527.989	2884.51
1531.227	2893.47
1534.464	2879
1537.701	2910.09
1540.938	2932.09
1544.174	2885.87
1547.41	2888.45
1550.646	2928.44
1553.882	2957.96
1557.117	3013.76
1560.352	3031.48
1563.587	2986.99
1566.821	2942.11
1570.055	2985.02
1573.289	2953.7
1576.523	3035.88
1579.756	3039.54
1582.989	3057.51
1586.222	3017.57
1589.454	3060.74
1592.686	3025.19
1595.918	3051.23
1599.15	3035.78
1602.381	3126.62
1605.612	3070.74
1608.843	3167.47
1612.073	3074.52
1615.303	3059.2
1618.533	3047.33
1621.762	3050.15
1624.992	3043.15
1628.221	3024.7
1631.449	3009
1634.678	3076.5
1637.906	3024.3
1641.134	3069.25
1644.361	3019.97
1647.588	3009.14
1650.815	3022.7
1654.042	3003.11
1657.269	3039.02
1660.495	2982.88
1663.72	2984.84
1666.946	2948.84
1670.171	2878.27
1673.396	2854.03
1676.621	2846.32
1679.845	2877.63
1683.069	2901.15
1686.293	2953.23
1689.517	2915.8
1692.74	2830.72
1695.963	2865.8
1699.185	2900.88
1702.408	2874.5
1705.63	2922.21
1708.852	2930.87
1712.073	2902.46
1715.294	2877.03
1718.515	2945.86
1721.736	2885.48
1724.956	2889.18
1728.176	2919.48
1731.396	2937.06
1734.616	2932.55
1737.835	2955.91
1741.054	2936.86
1744.272	2931.54
1747.491	2958.35
1750.709	3023.87
1753.927	2913.63
1757.144	2966.56
1760.361	3001.35
1763.578	3000.29
1766.795	2938.8
1770.011	2946.77
1773.227	2995.66
1776.443	3029.69
1779.658	3074.78
1782.874	3019.39
1786.089	2991.24
1789.303	2995.33
1792.518	3004.5
1795.732	2994.32
1798.945	2999.72
1802.159	3052.74
1805.372	2940.2
1808.585	2919.67
1811.797	2920.18
1815.01	2981.7
1818.222	2979.95
1821.434	2925.76
1824.645	2997.22
1827.856	2971.24
1831.067	3006.9
1834.278	2973.52
1837.488	2960.62
1840.698	3121.95
1843.908	3039.18
1847.117	3002.12
1850.326	2864.32
1853.535	2985.63
1856.744	3037.58
1859.952	2945.68
1863.16	2944.1
1866.368	2972.28
1869.575	3073.75
1872.782	2956.16
1875.989	2897.22
1879.196	2997.15
1882.402	2989.85
1885.608	3036.04
1888.814	2921.83
1892.019	2813.94
1895.224	2862.86
1898.429	2851.19
1901.634	2823.69
1904.838	2805.8
1908.042	2852.68
1911.246	2856.7
1914.449	2774.39
1917.652	2778.49
1920.855	2760.52
1924.058	2821.47
1927.26	2856.56
1930.462	2884.19
1933.664	2905.61
1936.865	2841.37
1940.066	2842.83
1943.267	2790.73
1946.467	2811.18
1949.668	2840.46
1952.868	2909.38
1956.067	2881.67
1959.267	2807.58
1962.466	2836.08
1965.665	2825.22
1968.863	2821.65
1972.061	2842.19
1975.259	2844.02
1978.457	2927.07
1981.654	2884.73
1984.852	2884.65
1988.048	2806.28
1991.245	2817.4
1994.441	2903.5
1997.637	2898.88
2000.833	2880.35
2004.028	2920.7
2007.223	2971.06
2010.418	2943.57
2013.613	2908.97
2016.807	2866.33
2020.001	2879.14
2023.194	2931.91
2026.388	2903.87
2029.581	2849.35
2032.774	2893.45
2035.966	2895.9
2039.158	2821.17
2042.35	2852.61
2045.542	2781.21
2048.733	2887.67
2051.924	2921.79
2055.115	2956.73
2058.306	2890.05
2061.496	2947.6
2064.686	3021.63
2067.875	2937.41
2071.065	2956.79
2074.254	2988.34
2077.442	2939.85
2080.631	3032
2083.819	2907.11
2087.007	2886.25
2090.195	2848.92
2093.382	2893.26
2096.569	2873.91
2099.756	2820.74
2102.942	2836.45
2106.128	2840.92
2109.314	2833.47
2112.5	2785.14
2115.685	2766.6
2118.87	2777.95
2122.055	2844.44
2125.239	2807.75
2128.424	2773.7
2131.608	2895.96
2134.791	2872.37
2137.974	2943.23
2141.157	2923.51
2144.34	2867.26
2147.523	2891.24
2150.705	2898.24
2153.887	2883.18
2157.068	2824.05
2160.25	2833.67
2163.431	2878.27
2166.611	2813.31
2169.792	2830.54
2172.972	2712.35
2176.152	2805.86
2179.331	2843.49
2182.511	2820.33
2185.69	2850.23
2188.868	2839.95
2192.047	2908.14
2195.225	2887.19
2198.403	2838.84
2201.58	2832.76
2204.758	2832.58
2207.935	2920.83
2211.111	2796.24
2214.288	2780.15
2217.464	2822.03
2220.64	2799.99
2223.815	2857.73
2226.991	2772.19
2230.166	2794.33
2233.34	2817.3
2236.515	2847.37
2239.689	2927.71
2242.863	2867.26
2246.036	2926.19
2249.209	2932.85
2252.382	2972.9
2255.555	2953.03
2258.727	2884.85
2261.9	2929.48
2265.071	2920.26
2268.243	2926.77
2271.414	2852.31
2274.585	2801.6
2277.756	2874.01
2280.926	2827.98
2284.096	2874.51
2287.266	2770.44
2290.436	2833.53
2293.605	2865.65
2296.774	2892
2299.942	2923.14
2303.111	2940.09
2306.279	2985.55
2309.447	2971.69
2312.614	2948.24
2315.781	2969.31
2318.948	2930.95
2322.115	2973.15
2325.281	2870.81
2328.447	2898.14
2331.613	2873.35
2334.779	2836.55
2337.944	2842.92
2341.109	2839.89
2344.274	2820.95
2347.438	2782.69
2350.602	2806.91
2353.766	2830.4
2356.929	2812.69
2360.092	2858.52
2363.255	2801.92
2366.418	2721.83
2369.58	2854.75
2372.742	2603.46
2375.904	2627.39
2379.066	2599.55
2382.227	2642.78
2385.388	2606.31
2388.548	2519.82
2391.709	2583.16
2394.869	2558.97
2398.029	2673.93
2401.188	2695.45
2404.347	2616.51
2407.506	2786.22
2410.665	2808.3
2413.823	2822.82
2416.981	2769.48
2420.139	2806.67
2423.296	2862.74
2426.453	2834.31
2429.61	2858.79
2432.767	2779.16
2435.923	2816.39
2439.079	2760.7
2442.235	2817.11
2445.391	2739.74
2448.546	2762.71
2451.701	2820.26
2454.855	2780.45
2458.009	2843.9
2461.163	2853.05
2464.317	2804.51
2467.471	2840.88
2470.624	2885.51
2473.777	2874.03
2476.929	2886.12
2480.082	2909.46
2483.234	2870.39
2486.385	2815.02
2489.537	2807.75
2492.688	2754.41
2495.839	2770.03
2498.989	2781.27
2502.14	2764.46
2505.29	2740.02
2508.439	2767.8
2511.589	2681.47
2514.738	2702.11
2517.887	2735.54
2521.035	2809.29
2524.183	2803.17
2527.331	2780.34
2530.479	2747.94
2533.627	2760.51
