Data from N_3_DEC_CT_2N_Splice17_13-02-12-604.txt Node
Date: Sat Mar 14 13:02:12 EDT 2020
User: sa697716
Spectrometer: FLMS03696
Trigger mode: 0
Integration Time (sec): 3.180400E-1
Scans to average: 20
Electric dark correction enabled: true
Nonlinearity correction enabled: true
Boxcar width: 5
XAxis mode: Wavelengths
Number of Pixels in Spectrum: 2048
>>>>>Begin Spectral Data<<<<<
187.83	-222989.9
188.298	1722.9
188.766	898.33
189.233	770.91
189.701	1066.01
190.169	1450.36
190.636	487.14
191.104	343.12
191.571	-11.5
192.039	-123.88
192.506	-140.74
192.974	464.1
193.441	-587.01
193.908	-189.15
194.375	-89.27
194.842	-67.7
195.31	-18.7
195.777	115.41
196.244	323.15
196.711	455.51
197.177	584.19
197.644	867.21
198.111	1514.93
198.578	2117.4
199.045	1709.65
199.511	2809.65
199.978	3263.71
200.445	2778.46
200.911	3104.14
201.378	3465.69
201.844	3136.82
202.31	5362.45
202.777	5600.17
203.243	3125.39
203.709	2964.85
204.176	3550.49
204.642	2939.28
205.108	2766.31
205.574	2250.46
206.04	2035.71
206.506	1927.23
206.972	1832.48
207.438	1780.26
207.903	2017.76
208.369	1766.18
208.835	1787.2
209.301	1864.29
209.766	1905.24
210.232	1896.36
210.697	2334.14
211.163	2914.69
211.628	4378.29
212.094	3648.11
212.559	4467.43
213.024	2774.11
213.49	3383.63
213.955	3282.66
214.42	3199.65
214.885	2985.65
215.35	2856.63
215.815	2770.85
216.28	2932.69
216.745	2406.67
217.21	2629.46
217.675	2430.58
218.14	2759.55
218.604	3118.39
219.069	3577.07
219.534	3760.44
219.998	4404.38
220.463	5380.96
220.927	6655.32
221.392	6294.14
221.856	6385.82
222.32	8085.5
222.785	10007.35
223.249	12626.19
223.713	14106.78
224.177	14148.73
224.642	18215.67
225.106	22431.09
225.57	24500.91
226.034	18264.3
226.497	27820.09
226.961	25134.29
227.425	29302.29
227.889	32562.65
228.353	32615.14
228.816	67477.24
229.28	64392.4
229.744	54306.58
230.207	33006.66
230.671	32495.64
231.134	53730.5
231.597	62020.98
232.061	62058.52
232.524	60452.82
232.987	41647.79
233.45	37428.97
233.914	33562.38
234.377	34469.55
234.84	31557.57
235.303	37230.18
235.766	41546.54
236.229	42929.31
236.691	26999.53
237.154	30331.7
237.617	22817.64
238.08	23372.41
238.542	27359.53
239.005	19531.8
239.468	19378.77
239.93	18264.53
240.393	16598.81
240.855	14582.18
241.317	14946.68
241.78	18204.38
242.242	18813.43
242.704	20313.1
243.166	17665.72
243.629	16048.51
244.091	18505.81
244.553	20300.39
245.015	21803.71
245.477	28225.31
245.939	41356.01
246.4	43861.54
246.862	42631.26
247.324	40243.95
247.786	45043.47
248.247	59076.56
248.709	61008.48
249.17	45676.67
249.632	43071.49
250.093	49992.02
250.555	43153.87
251.016	26324.26
251.477	24988.23
251.939	26991.43
252.4	28336.81
252.861	33711.61
253.322	31408.93
253.783	37413.41
254.244	48551.02
254.705	38261.89
255.166	34047.15
255.627	33581.94
256.088	47455.81
256.549	50476.75
257.009	43478.99
257.47	52747.35
257.931	42982.19
258.391	32230.48
258.852	33223.24
259.312	34832.37
259.773	43050.63
260.233	36407.57
260.694	30721.85
261.154	34837.47
261.614	27953.1
262.074	25017.24
262.534	26033.66
262.994	24563.47
263.455	32747.43
263.915	27600.45
264.374	26038.11
264.834	28424.59
265.294	31540.57
265.754	32678.01
266.214	30949.4
266.673	29023.32
267.133	36651.43
267.593	36339.01
268.052	44490.5
268.512	38691.59
268.971	46692.81
269.431	51188.31
269.89	45905.53
270.349	68810.15
270.809	76709.83
271.268	68979.03
271.727	154861.59
272.186	100328.81
272.645	75318.81
273.104	54356.16
273.563	78698.74
274.022	61938.46
274.481	52722.66
274.94	40582.62
275.399	30176.33
275.857	35161.52
276.316	47576.3
276.775	42315.5
277.233	41679.59
277.692	39028.6
278.15	44164.62
278.609	45453.1
279.067	42052.38
279.525	39049.41
279.984	50468.31
280.442	60604.03
280.9	59718.77
281.358	39317.04
281.816	36648.05
282.274	35895.87
282.732	37070.39
283.19	37264.85
283.648	32180.84
284.106	34296.31
284.564	34859.45
285.021	32324.94
285.479	24096.82
285.937	21925.38
286.394	19214.95
286.852	19802.5
287.309	20820.25
287.767	20122.48
288.224	19118.87
288.682	20967.22
289.139	22999.86
289.596	21082.76
290.053	21926.6
290.511	27675.12
290.968	33565.64
291.425	45568.57
291.882	37871.15
292.339	32938.18
292.796	32689.83
293.252	30827.42
293.709	24478.73
294.166	21958.32
294.623	24248.13
295.079	23261.27
295.536	23368.01
295.992	21213.58
296.449	20990.67
296.905	21803.87
297.362	20893.2
297.818	21987.41
298.274	22794.66
298.731	23253.47
299.187	23003.47
299.643	24680.84
300.099	29825.31
300.555	32714.91
301.011	27349.36
301.467	26323.51
301.923	30823.59
302.379	30107.36
302.835	29526.25
303.291	29549.77
303.746	33588.06
304.202	42414.7
304.658	42596.33
305.113	28652.9
305.569	28080.61
306.024	29937.62
306.479	28538.77
306.935	24075.76
307.39	26320.39
307.845	24320.71
308.301	24470.84
308.756	23867.09
309.211	22995.11
309.666	23560.05
310.121	29242.07
310.576	29669.79
311.031	29410.37
311.486	33656.23
311.94	33601.04
312.395	44882.7
312.85	84383.98
313.305	415027.21
313.759	2144605.53
314.214	155280.4
314.668	123010.87
315.123	103361.93
315.577	37038.91
316.032	32980.92
316.486	41287.69
316.94	32540.23
317.394	22637.41
317.849	17573.96
318.303	16626.28
318.757	15702.08
319.211	17365.3
319.665	15210.85
320.119	15408.16
320.572	22082.03
321.026	20618.48
321.48	17164.89
321.934	18729.52
322.387	18779.84
322.841	20268.58
323.295	18180.73
323.748	20936.42
324.202	21208.4
324.655	25462.72
325.108	35541.99
325.562	25118.97
326.015	29833.36
326.468	22522.41
326.921	25164.5
327.374	23455.08
327.827	24432.31
328.28	27717.95
328.733	18584.78
329.186	16353.78
329.639	15564.97
330.092	13111.3
330.545	12480.1
330.997	12584.04
331.45	13760.02
331.903	16119.8
332.355	27725.27
332.808	26951.69
333.26	22178.28
333.713	24029.82
334.165	24185.8
334.617	32256.54
335.069	26074.07
335.522	47203.29
335.974	52254.26
336.426	47718.97
336.878	33044.37
337.33	16741.66
337.782	16327.92
338.234	20472.47
338.686	24473.55
339.137	29024.49
339.589	27355.21
340.041	21437.38
340.493	18411.64
340.944	18837.56
341.396	20294.95
341.847	17064.1
342.299	20133.51
342.75	24575.17
343.201	21467.39
343.653	24701.38
344.104	30324.01
344.555	23892.22
345.006	37184.43
345.457	28444.61
345.908	22614.4
346.359	21270.64
346.81	17317.72
347.261	18257.5
347.712	17987.82
348.163	19277.83
348.613	19497.19
349.064	18189.5
349.515	15906.35
349.965	16306.56
350.416	19639.14
350.866	21529.53
351.317	24289.56
351.767	40222.74
352.217	50746.51
352.668	42080.39
353.118	38541.84
353.568	37160.97
354.018	29351.54
354.468	30911.34
354.918	22159.95
355.368	19354.48
355.818	27361.82
356.268	78779.25
356.718	329536.15
357.168	82000.5
357.617	41103.13
358.067	45743.6
358.517	42839.14
358.966	50283.03
359.416	56380.37
359.865	60961.35
360.315	72668.23
360.764	33863.09
361.213	18969.01
361.663	17989.31
362.112	22201.89
362.561	35879.83
363.01	27016.08
363.459	22731.75
363.908	24553.99
364.357	20825.98
364.806	35148.07
365.255	24168.47
365.703	22155.54
366.152	22192.07
366.601	17957.72
367.05	14566.24
367.498	13231
367.947	13848.04
368.395	14384.9
368.844	12750.26
369.292	15389.58
369.74	10643.81
370.189	16277.72
370.637	19066.46
371.085	16427.63
371.533	20022.15
371.981	19267.25
372.429	18338.54
372.877	19052.14
373.325	15936.41
373.773	16257.07
374.221	14461.58
374.669	17904.37
375.116	15466.15
375.564	15591.9
376.012	17446.97
376.459	14365.74
376.907	17154.58
377.354	20715.56
377.801	19294.55
378.249	22172.06
378.696	28231.93
379.143	34129.78
379.591	36341.54
380.038	61345.3
380.485	44166.91
380.932	47535.03
381.379	43311.47
381.826	31925.58
382.273	22691.97
382.72	19800.08
383.166	19253.14
383.613	12512.48
384.06	11266.16
384.506	13010.85
384.953	9560.03
385.4	9605.91
385.846	8410.88
386.292	8191.41
386.739	7995.75
387.185	7888.44
387.631	7876.86
388.078	7641.93
388.524	8152.34
388.97	7516.34
389.416	6259.95
389.862	6633.06
390.308	6284.11
390.754	6362.23
391.2	6890.23
391.645	7043.12
392.091	6729.23
392.537	6496.07
392.983	6502.06
393.428	6383.33
393.874	6837.9
394.319	6854.2
394.765	6493.67
395.21	6654.57
395.655	6241.81
396.101	5844.5
396.546	5264.35
396.991	5308.79
397.436	4930.72
397.881	4746.81
398.326	4488.59
398.771	4235.88
399.216	3695.85
399.661	3328.67
400.106	3322.45
400.551	3403.21
400.995	3048.64
401.44	3013.28
401.885	2823.72
402.329	2843.83
402.774	2728.18
403.218	2641.5
403.663	2541.73
404.107	2612.22
404.551	2623.27
404.995	2398.98
405.44	2303.77
405.884	2336.68
406.328	2258.36
406.772	2247.67
407.216	2045.71
407.66	1972.92
408.104	1865.38
408.547	1745.57
408.991	1686.61
409.435	1620.39
409.879	1597.75
410.322	1574.38
410.766	1517.51
411.209	1441.5
411.653	1384.57
412.096	1357.59
412.54	1358.66
412.983	1348.94
413.426	1352.19
413.869	1348.46
414.312	1325.43
414.756	1274.59
415.199	1215.26
415.642	1182.25
416.085	1181.9
416.527	1170.94
416.97	1188.83
417.413	1126.55
417.856	1116.69
418.298	1103.06
418.741	1096.75
419.184	1092.81
419.626	1138.32
420.069	1135.58
420.511	1140.84
420.953	1117.75
421.396	1108.43
421.838	1079.02
422.28	1101.14
422.722	1104.9
423.164	1119.48
423.606	1097.72
424.048	1093.59
424.49	1039.53
424.932	1037.65
425.374	1019.79
425.816	1034.53
426.258	1052.21
426.699	1064.09
427.141	1047.63
427.582	1059.59
428.024	1051.95
428.465	1043.95
428.907	1015.47
429.348	1000.46
429.789	998.87
430.231	981.85
430.672	994.25
431.113	969.75
431.554	954.72
431.995	932.2
432.436	903.51
432.877	884.96
433.318	872.32
433.759	870.16
434.2	869.12
434.64	857.92
435.081	859.01
435.522	815
435.962	786.68
436.403	768.17
436.843	777.92
437.284	758.95
437.724	739.69
438.164	740.66
438.604	725.1
439.045	697.69
439.485	670.04
439.925	653.63
440.365	635.1
440.805	625.41
441.245	618.29
441.685	595.2
442.125	589.96
442.564	591.47
443.004	578.05
443.444	576.49
443.883	578.29
444.323	571.61
444.762	570.92
445.202	578.33
445.641	588.2
446.081	582.82
446.52	587.71
446.959	581.32
447.398	567.96
447.837	560.14
448.276	549.23
448.716	552.46
449.154	557.47
449.593	544.72
450.032	544.04
450.471	532.14
450.91	532.66
451.349	530.86
451.787	528.81
452.226	535.28
452.664	536.07
453.103	536
453.541	534.76
453.98	536.48
454.418	539.89
454.856	532.82
455.295	532.33
455.733	535.77
456.171	537.47
456.609	535.93
457.047	535.18
457.485	541.48
457.923	542.7
458.361	535.46
458.798	534.75
459.236	532.41
459.674	532.91
460.111	535.42
460.549	529.51
460.987	527.52
461.424	525.5
461.862	522.15
462.299	513.24
462.736	511.83
463.173	513.88
463.611	509.77
464.048	508.62
464.485	512.37
464.922	506.77
465.359	503.68
465.796	500.36
466.233	498.85
466.67	496.53
467.106	496.68
467.543	491
467.98	483.84
468.416	469.42
468.853	465.29
469.29	451.38
469.726	445.73
470.162	434.18
470.599	425.53
471.035	420.17
471.471	409.56
471.907	405.93
472.344	404.64
472.78	405.48
473.216	409.92
473.652	405.42
474.088	404.56
474.523	403.87
474.959	408.01
475.395	403.6
475.831	402.07
476.266	403.35
476.702	401.83
477.138	395.65
477.573	393.47
478.008	391.88
478.444	393.9
478.879	397.4
479.314	399.33
479.75	398.08
480.185	399.42
480.62	401.76
481.055	403.59
481.49	406.83
481.925	413.75
482.36	421.96
482.795	433.22
483.229	443.73
483.664	452.22
484.099	453.24
484.534	460.18
484.968	465.08
485.403	465.45
485.837	464.37
486.271	462.52
486.706	461.85
487.14	455.72
487.574	448.08
488.009	443.61
488.443	440.21
488.877	444.59
489.311	444.92
489.745	448.82
490.179	453.13
490.613	462.26
491.046	465.96
491.48	469.67
491.914	470.05
492.348	474.11
492.781	476.77
493.215	477.9
493.648	478.99
494.082	483.5
494.515	484.66
494.948	491.31
495.382	494.37
495.815	498.36
496.248	502.42
496.681	511.64
497.114	519.98
497.547	528.9
497.98	538.88
498.413	544.82
498.846	553.06
499.279	560.59
499.711	563.7
500.144	566.8
500.577	576.49
501.009	585.63
501.442	594.88
501.874	597.89
502.306	600.78
502.739	609.56
503.171	622.05
503.603	627.39
504.036	636.99
504.468	644.59
504.9	655.33
505.332	662.86
505.764	670.39
506.196	679.5
506.627	694.06
507.059	707.32
507.491	716.37
507.923	719.28
508.354	734.29
508.786	747.43
509.217	765.5
509.649	782.02
510.08	800.49
510.512	818.13
510.943	834.73
511.374	848.31
511.805	869.79
512.237	890.29
512.668	921.29
513.099	948.53
513.53	975.45
513.961	998.69
514.391	1030.58
514.822	1064.81
515.253	1101.59
515.684	1128.78
516.114	1160.61
516.545	1185.53
516.975	1214.6
517.406	1235.18
517.836	1243.19
518.267	1254.94
518.697	1275.95
519.127	1286.7
519.558	1298.9
519.988	1306.81
520.418	1322.18
520.848	1343.7
521.278	1356.63
521.708	1386.78
522.138	1405.11
522.567	1440.19
522.997	1468.65
523.427	1488.35
523.857	1508.5
524.286	1522.95
524.716	1542.82
525.145	1564.9
525.575	1579.73
526.004	1598.57
526.433	1589.76
526.863	1593.51
527.292	1587.26
527.721	1596.54
528.15	1605.45
528.579	1609.55
529.008	1623.76
529.437	1647.72
529.866	1663.49
530.295	1682.16
530.724	1696.01
531.152	1725.39
531.581	1742.43
532.01	1762.34
532.438	1772.6
532.867	1789.94
533.295	1810.44
533.723	1818.3
534.152	1818.45
534.58	1820.68
535.008	1806.96
535.436	1809.78
535.865	1818.92
536.293	1833.59
536.721	1848.88
537.149	1875.56
537.576	1879.62
538.004	1892.52
538.432	1900.83
538.86	1900.35
539.287	1908.46
539.715	1923.5
540.143	1928.82
540.57	1923.44
540.998	1919.61
541.425	1899.08
541.852	1878.84
542.28	1876.72
542.707	1861.52
543.134	1848.47
543.561	1844.41
543.988	1837.06
544.415	1836.84
544.842	1831.72
545.269	1826.82
545.696	1830.01
546.123	1842.99
546.549	1832.51
546.976	1820.36
547.403	1820.62
547.829	1823.22
548.256	1825.84
548.682	1823.46
549.108	1816.33
549.535	1815.55
549.961	1818.61
550.387	1805.43
550.813	1800.23
551.24	1807.51
551.666	1809.61
552.092	1800.4
552.518	1794.56
552.943	1789.14
553.369	1796.07
553.795	1801.82
554.221	1804.03
554.646	1799.71
555.072	1811.92
555.498	1817.28
555.923	1826.3
556.349	1840.79
556.774	1848.42
557.199	1849.03
557.625	1853.79
558.05	1848.18
558.475	1858.83
558.9	1856.17
559.325	1849.31
559.75	1841.46
560.175	1834.19
560.6	1826.06
561.025	1822.4
561.449	1822.46
561.874	1828
562.299	1832.54
562.723	1837.87
563.148	1826.21
563.572	1829.89
563.997	1836.62
564.421	1839.85
564.846	1838.34
565.27	1841.13
565.694	1837.41
566.118	1847.68
566.542	1852.87
566.966	1843.83
567.39	1836.93
567.814	1824.22
568.238	1821.35
568.662	1823.92
569.086	1824.52
569.509	1829.05
569.933	1811.08
570.357	1800.76
570.78	1776.72
571.204	1760.37
571.627	1746.97
572.05	1742.87
572.474	1739.52
572.897	1723.77
573.32	1713.25
573.743	1700.79
574.166	1680.78
574.589	1677.99
575.012	1668.93
575.435	1665.29
575.858	1653.91
576.281	1641.29
576.704	1623.37
577.126	1609.94
577.549	1598.04
577.972	1587.41
578.394	1576.92
578.817	1568.96
579.239	1549.88
579.661	1535.74
580.084	1519.72
580.506	1505.95
580.928	1501.49
581.35	1490.45
581.772	1484.88
582.194	1470.52
582.616	1457.61
583.038	1441.38
583.46	1429.62
583.882	1425.35
584.303	1427.7
584.725	1422.12
585.147	1424.08
585.568	1431.5
585.99	1441.02
586.411	1445.73
586.833	1458.55
587.254	1459.17
587.675	1472.03
588.096	1482.97
588.518	1477.63
588.939	1461.67
589.36	1459.26
589.781	1447.08
590.202	1420.79
590.623	1411.42
591.043	1407.85
591.464	1394.31
591.885	1388.8
592.305	1381.5
592.726	1367.85
593.147	1367.76
593.567	1361.84
593.987	1354.44
594.408	1349.54
594.828	1347.26
595.248	1342.67
595.669	1325.44
596.089	1319.32
596.509	1314.35
596.929	1301.83
597.349	1301.4
597.769	1291.43
598.189	1284.42
598.608	1285.34
599.028	1287.35
599.448	1285.75
599.867	1272.36
600.287	1268.01
600.706	1262.51
601.126	1251.78
601.545	1250.58
601.965	1248.9
602.384	1243.28
602.803	1244.49
603.222	1237.77
603.641	1228.93
604.061	1224.81
604.48	1219.72
604.898	1225.24
605.317	1229.57
605.736	1230.24
606.155	1226.17
606.574	1216.53
606.992	1220.46
607.411	1215.34
607.829	1212.32
608.248	1209.31
608.666	1205.98
609.085	1204.27
609.503	1195.46
609.921	1188.33
610.339	1189.05
610.758	1186.02
611.176	1180.76
611.594	1171.38
612.012	1166.64
612.43	1163.16
612.847	1166.3
613.265	1166.45
613.683	1169.29
614.101	1168.73
614.518	1163.71
614.936	1152.49
615.353	1139.51
615.771	1134.92
616.188	1133.55
616.606	1129.84
617.023	1121.78
617.44	1109.05
617.857	1101
618.274	1092.13
618.691	1085.5
619.108	1075.38
619.525	1069.09
619.942	1073.24
620.359	1075.11
620.776	1068.4
621.192	1063.22
621.609	1060.5
622.026	1064.67
622.442	1068.05
622.859	1069.28
623.275	1062.46
623.691	1067.02
624.108	1076.66
624.524	1088.46
624.94	1087
625.356	1095.79
625.772	1106.85
626.188	1117.08
626.604	1117.94
627.02	1115.27
627.436	1114.02
627.852	1119.52
628.268	1129.93
628.683	1120.23
629.099	1112.22
629.514	1107.38
629.93	1110.12
630.345	1112.39
630.761	1107.43
631.176	1109.15
631.591	1103.7
632.007	1097.86
632.422	1094.29
632.837	1082.87
633.252	1081.98
633.667	1071.85
634.082	1062.63
634.497	1050.11
634.911	1033.37
635.326	1028.51
635.741	1012.62
636.155	1000.17
636.57	999.42
636.984	998.02
637.399	997.06
637.813	993.19
638.228	989.58
638.642	990.94
639.056	979.21
639.47	975.17
639.884	965.38
640.298	957.5
640.712	953.76
641.126	939.45
641.54	928.23
641.954	920.08
642.368	907.17
642.781	898.61
643.195	880.72
643.609	879.18
644.022	871.04
644.436	864.3
644.849	850.42
645.262	837.76
645.676	835.52
646.089	828.64
646.502	815.03
646.915	807.55
647.328	791.58
647.741	788.7
648.154	775.74
648.567	773.34
648.98	761.99
649.393	761.93
649.805	759.31
650.218	752.63
650.631	740.61
651.043	734.65
651.456	729
651.868	727.33
652.28	738.68
652.693	747.65
653.105	750.63
653.517	756.71
653.929	754.37
654.341	756.52
654.753	746.73
655.165	749.8
655.577	746.57
655.989	741.93
656.401	735.51
656.813	708.37
657.224	692.76
657.636	670.7
658.047	656.32
658.459	641.44
658.87	632.74
659.282	621.64
659.693	606.18
660.104	593.58
660.515	583.09
660.926	582.77
661.338	578.26
661.749	571.67
662.159	564.15
662.57	559.55
662.981	555.67
663.392	549.94
663.803	552.19
664.213	549.25
664.624	545.23
665.035	546
665.445	532.96
665.855	528.94
666.266	523.24
666.676	521.15
667.086	513.84
667.497	513.22
667.907	508.9
668.317	502.73
668.727	502.15
669.137	504.08
669.547	502.66
669.956	504.58
670.366	505.84
670.776	507.69
671.186	510.57
671.595	514.95
672.005	517.6
672.414	519.38
672.824	519.93
673.233	522.09
673.642	525.37
674.052	528.92
674.461	532.7
674.87	535.89
675.279	535.66
675.688	536.97
676.097	539.4
676.506	538.28
676.915	548.91
677.323	552.39
677.732	553.12
678.141	553.51
678.549	547.8
678.958	547.23
679.366	548.83
679.775	552.09
680.183	562.77
680.592	568.2
681	575.24
681.408	571.49
681.816	578.11
682.224	585.06
682.632	594.97
683.04	617.31
683.448	637.18
683.856	661.75
684.264	691.68
684.671	716.26
685.079	747.26
685.487	781.9
685.894	831.99
686.302	874.3
686.709	910.56
687.116	952.19
687.524	990.07
687.931	1022.03
688.338	1052.38
688.745	1078.1
689.152	1110.65
689.559	1152.98
689.966	1195.56
690.373	1222.26
690.78	1263.38
691.187	1322.57
691.593	1370.62
692	1414.74
692.407	1478.59
692.813	1551.96
693.22	1614.99
693.626	1678.43
694.032	1732.31
694.439	1809.98
694.845	1870.95
695.251	1950
695.657	2023.13
696.063	2125.35
696.469	2204.65
696.875	2279.93
697.281	2328.98
697.687	2384.78
698.093	2434.23
698.498	2515.89
698.904	2580.69
699.31	2676.69
699.715	2746.24
700.12	2844.51
700.526	2874.44
700.931	2954.32
701.337	3015.34
701.742	3058.26
702.147	3151.36
702.552	3191.25
702.957	3260.78
703.362	3292.54
703.767	3330.6
704.172	3381.9
704.577	3343.52
704.981	3399.14
705.386	3422.82
705.791	3423.61
706.195	3506.67
706.6	3524.12
707.004	3612.59
707.408	3588.93
707.813	3624.7
708.217	3620.05
708.621	3628.19
709.025	3736.3
709.43	3743.51
709.834	3811.26
710.237	3887.63
710.641	3879.02
711.045	3909.13
711.449	3909
711.853	3946.03
712.256	3993.4
712.66	4039.03
713.064	4122.02
713.467	4169.16
713.87	4292.73
714.274	4346.42
714.677	4468.13
715.08	4645.07
715.484	4826.16
715.887	5046.72
716.29	5259.77
716.693	5484.79
717.096	5744.23
717.499	5887.5
717.901	5921.6
718.304	5952.52
718.707	5984.3
719.109	5880.77
719.512	5848.73
719.915	5707.84
720.317	5649.79
720.719	5701.01
721.122	5672.3
721.524	5620.05
721.926	5580.9
722.328	5689.26
722.731	5683.73
723.133	5715.01
723.535	5925.56
723.937	5948.59
724.338	6007.39
724.74	6055.65
725.142	5982.72
725.544	5983.09
725.945	6012.8
726.347	6011.62
726.748	6007.47
727.15	6024.76
727.551	5986.17
727.952	5954.43
728.354	5926.05
728.755	5927.46
729.156	5882.31
729.557	5877.63
729.958	5746.13
730.359	5689.2
730.76	5668.39
731.161	5603.39
731.562	5576.02
731.962	5579.69
732.363	5512.86
732.763	5444.36
733.164	5484.61
733.564	5415.45
733.965	5313.29
734.365	5278.8
734.766	5311.5
735.166	5273.31
735.566	5215.47
735.966	5187.82
736.366	5185.16
736.766	5121.01
737.166	5157.88
737.566	5113.79
737.966	5085.38
738.365	5128.72
738.765	5124.11
739.165	5042.86
739.564	5011.85
739.964	5062.4
740.363	5014.41
740.763	5012.49
741.162	5000.19
741.561	4965.75
741.96	4918.1
742.36	4942.08
742.759	4947.09
743.158	4989.38
743.557	5007.14
743.955	5054.78
744.354	5006.59
744.753	5069
745.152	5024.15
745.55	5083.81
745.949	5076.58
746.348	5077.98
746.746	5094.84
747.144	5051.81
747.543	5026.07
747.941	5077.82
748.339	5002.14
748.737	4992.16
749.136	4983.38
749.534	5051.83
749.932	5021.53
750.33	5045.41
750.727	5105.99
751.125	5080.09
751.523	5065.28
751.921	5112.86
752.318	5075.95
752.716	5137.69
753.113	5151.86
753.511	5177.84
753.908	5178.27
754.305	5158.43
754.703	5227.09
755.1	5291.79
755.497	5354.98
755.894	5556.99
756.291	5748.05
756.688	6098.96
757.085	6566.69
757.482	7227.16
757.878	7944.52
758.275	8593.9
758.672	9490.33
759.068	10217.6
759.465	11249.28
759.861	12586.84
760.258	14143.72
760.654	14947
761.05	14825.55
761.447	14149.99
761.843	13172.43
762.239	12167.13
762.635	11718.66
763.031	11280.71
763.427	10646.68
763.822	9990.81
764.218	9337.71
764.614	8487.95
765.01	7919.38
765.405	7549.9
765.801	7269.98
766.196	6912.01
766.592	6715.76
766.987	6378.12
767.382	6151.93
767.778	6057.93
768.173	5915.51
768.568	5838.74
768.963	5705.4
769.358	5723.92
769.753	5675.35
770.148	5588.01
770.542	5587.13
770.937	5552.64
771.332	5648.96
771.726	5668.77
772.121	5602.76
772.515	5662.85
772.91	5644.2
773.304	5720.34
773.699	5650.37
774.093	5709.78
774.487	5767.4
774.881	5816.73
775.275	5811.35
775.669	5766.05
776.063	5812.95
776.457	5848.84
776.851	5770.53
777.245	5765.6
777.638	5799.98
778.032	5921.9
778.425	5881.8
778.819	5926.14
779.212	5879.62
779.606	5837.21
779.999	5858.69
780.392	5843
780.786	5934.77
781.179	5957.67
781.572	6003.04
781.965	6015.4
782.358	5952.68
782.751	6010.39
783.143	5958.88
783.536	6038.54
783.929	6081.22
784.322	6203.87
784.714	6236.09
785.107	6228.37
785.499	6306
785.891	6281.12
786.284	6261.26
786.676	6413.99
787.068	6393.2
787.46	6448.23
787.852	6467.35
788.245	6560.17
788.636	6592.31
789.028	6665.76
789.42	6709.5
789.812	6715.71
790.204	6820.79
790.595	6930.12
790.987	6726.59
791.378	6755.87
791.77	6895.32
792.161	7039.4
792.553	7099.53
792.944	6980.54
793.335	6905.64
793.726	6984.21
794.117	7079.64
794.508	7225.95
794.899	7193.26
795.29	7339.73
795.681	7399
796.072	7250.35
796.463	7054.77
796.853	7067.96
797.244	7237.54
797.634	7277.07
798.025	7272.8
798.415	7288.1
798.806	7380.78
799.196	7473.26
799.586	7528.4
799.976	7491.37
800.366	7737.96
800.756	7994.38
801.146	7947.34
801.536	7977.11
801.926	8054.94
802.316	8088.28
802.706	8169.06
803.095	8040.03
803.485	8150.42
803.874	8199.74
804.264	8481.02
804.653	8455.63
805.043	8613.23
805.432	8737.03
805.821	8748.36
806.21	8776.07
806.599	8905.83
806.988	8956.25
807.377	9077.77
807.766	9219.99
808.155	9524.22
808.544	9243.29
808.933	9258.87
809.321	9238.76
809.71	9559.65
810.098	9727.12
810.487	10222.15
810.875	10738.84
811.264	10761.43
811.652	11073.98
812.04	11230.94
812.428	11404.72
812.816	12217.03
813.204	12666.04
813.592	13268.88
813.98	13634.88
814.368	13531.42
814.756	14048.42
815.144	13964.84
815.531	14470.83
815.919	14385.86
816.306	14712.82
816.694	14383.33
817.081	14450.07
817.469	14819.56
817.856	14811.29
818.243	15100.81
818.63	15530.86
819.017	15077.26
819.404	15144.02
819.791	15556.89
820.178	16229.65
820.565	16499.35
820.952	17499.51
821.339	16958.44
821.725	17166.51
822.112	16363.94
822.498	16311.69
822.885	16443.43
823.271	16344.37
823.657	16790.36
824.044	16790.16
824.43	16863.44
824.816	16828.81
825.202	16362.15
825.588	17459.18
825.974	17469.46
826.36	18028.26
826.746	18065.18
827.132	18445.83
827.517	18409.84
827.903	17563.88
828.289	17605.13
828.674	16767.33
829.06	16659.56
829.445	17086.97
829.83	17477.38
830.216	17990
830.601	18379.42
830.986	17941.1
831.371	17803.58
831.756	18406.34
832.141	17952.9
832.526	17948.45
832.911	18249.22
833.295	18118.91
833.68	18621.5
834.065	17946.62
834.449	16965.92
834.834	16883.43
835.218	16881.24
835.603	17240.28
835.987	17012.22
836.371	17901.25
836.755	17785.38
837.139	18213.58
837.524	18469.42
837.908	18271.77
838.291	18334.29
838.675	18404.3
839.059	18627.56
839.443	18607.68
839.827	18351.2
840.21	18859.67
840.594	18695.46
840.977	18909.67
841.361	18885.54
841.744	19289.66
842.127	19116.7
842.511	19372.78
842.894	20000.28
843.277	20392.16
843.66	20977.42
844.043	21072.55
844.426	20216.71
844.809	19883.18
845.191	19919.14
845.574	19427.29
845.957	19025.79
846.339	18913.19
846.722	18355.85
847.104	18435.02
847.487	18256.06
847.869	18263.63
848.252	18551.72
848.634	18900.88
849.016	19187.74
849.398	19317.69
849.78	20225.44
850.162	20246.12
850.544	20688.64
850.926	21354.92
851.307	21251.56
851.689	21548.92
852.071	22035.25
852.452	22387.37
852.834	22370.91
853.215	22794.46
853.597	22957.06
853.978	23262.6
854.359	23742.66
854.741	22683.77
855.122	22581.08
855.503	22274.24
855.884	22417.13
856.265	22355.63
856.646	22480.67
857.026	22054.93
857.407	21982.5
857.788	22151.34
858.169	22467.13
858.549	21555.46
858.93	22219.5
859.31	22273.69
859.69	22504.6
860.071	22070.4
860.451	21830.49
860.831	21041.08
861.211	22281.24
861.591	22867.75
861.971	22839.26
862.351	23042.87
862.731	23449.34
863.111	23732.01
863.491	24091.17
863.87	25027.95
864.25	25398.11
864.629	24975.64
865.009	25522.67
865.388	26428.92
865.768	28318.16
866.147	28218.83
866.526	26659.1
866.905	26994.45
867.284	28509.75
867.663	27062.04
868.042	25927.01
868.421	25844.19
868.8	26283.6
869.179	26541.67
869.558	24992.15
869.936	23037.3
870.315	23449.03
870.693	24021.2
871.072	25894.61
871.45	24673.69
871.828	24993.92
872.207	26284.84
872.585	25916.15
872.963	26622.95
873.341	25709.15
873.719	25411.49
874.097	25109.27
874.475	25578
874.853	26167.31
875.23	25092.92
875.608	26141.99
875.986	28291.55
876.363	27050.1
876.741	27853.33
877.118	27145.01
877.495	28466.71
877.873	28947.79
878.25	30475.55
878.627	29236.84
879.004	29639.17
879.381	29499.52
879.758	28726.5
880.135	26722.86
880.512	28254.2
880.889	27517.04
881.265	27242.23
881.642	27040.04
882.019	27490.05
882.395	26924.89
882.772	28005.33
883.148	26787.17
883.524	26670.22
883.901	26513.17
884.277	26929.52
884.653	26763.49
885.029	27521.68
885.405	30468.16
885.781	30240.93
886.157	29012.18
886.532	29365.33
886.908	29339.14
887.284	32639.4
887.659	33703.97
888.035	34747.2
888.411	35630.51
888.786	36111.45
889.161	37368.91
889.537	36680.46
889.912	37851.62
890.287	37786.29
890.662	38751.31
891.037	38061.57
891.412	35479.78
891.787	35126.99
892.162	33899.46
892.536	34694.3
892.911	33377.57
893.286	32666.68
893.66	31341.54
894.035	32128.85
894.409	34989.24
894.784	33583.89
895.158	34125.65
895.532	36142.76
895.906	37115.8
896.281	37998.32
896.655	37375.13
897.029	42712.39
897.402	44466.25
897.776	49495.91
898.15	49303.15
898.524	48779.06
898.898	49416.54
899.271	55329.83
899.645	47926.85
900.018	46064.27
900.392	47767.49
900.765	48168.3
901.138	44593.65
901.511	43950.24
901.884	40374.84
902.258	37246.96
902.631	38478.7
903.003	44277.13
903.376	39954.35
903.749	44795.05
904.122	47921.61
904.495	52754.47
904.867	53408.53
905.24	46374.87
905.612	43151.83
905.985	44129.8
906.357	46151.2
906.729	44056.56
907.102	37648.79
907.474	36208.83
907.846	36454.36
908.218	35981.4
908.59	31801.28
908.962	30768.2
909.334	33114
909.705	34797.65
910.077	33773.8
910.449	35159.78
910.82	36152.85
911.192	39772.13
911.563	41334.7
911.935	44231.78
912.306	44296.88
912.677	45751.7
913.048	45302.83
913.419	49178.68
913.79	49461.67
914.161	53060.63
914.532	50720.21
914.903	46611.37
915.274	44283.61
915.645	43644.49
916.015	38418.32
916.386	36632.2
916.756	38999.94
917.127	40239.2
917.497	35956.21
917.868	39147.09
918.238	37189.2
918.608	38270.33
918.978	39065.32
919.348	41377.13
919.718	42764.33
920.088	41215.17
920.458	42812.24
920.828	45049.13
921.198	42707.55
921.567	45621.99
921.937	35344.07
922.306	35713.76
922.676	38524.16
923.045	32152.96
923.415	30564.42
923.784	27818.05
924.153	28597.51
924.522	28598.62
924.891	26880.47
925.26	28807.05
925.629	28123.2
925.998	32338.03
926.367	31555.09
926.736	30045.83
927.104	35789.02
927.473	38461.25
927.842	46476.11
928.21	46033.87
928.578	48384.29
928.947	45782.38
929.315	46042.12
929.683	54006.75
930.051	54439.16
930.42	63189.2
930.788	54017.26
931.156	53585.39
931.523	50227.26
931.891	46365.79
932.259	44512.67
932.627	51564.15
932.994	72950.58
933.362	60283.61
933.729	52349.68
934.097	50072.63
934.464	42372.76
934.831	48883.93
935.199	48197.69
935.566	46733.66
935.933	47481.34
936.3	57518.3
936.667	44793.73
937.034	40360.09
937.401	39906.68
937.767	34445.86
938.134	30670.63
938.501	43283.2
938.867	46094.32
939.234	77954.08
939.6	66554.24
939.967	73178.88
940.333	49042.63
940.699	41748.03
941.065	33525.32
941.431	43985.07
941.798	42409.41
942.163	55680.22
942.529	34784.49
942.895	32071.36
943.261	20759.42
943.627	27254.12
943.992	23892.47
944.358	23914.8
944.723	24021.67
945.089	23440.99
945.454	21671.71
945.82	23144.8
946.185	22270.95
946.55	25800.06
946.915	23139.01
947.28	27140.82
947.645	23874.48
948.01	22024.26
948.375	22976.86
948.74	27553.76
949.104	32139.28
949.469	46394.18
949.834	82007.02
950.198	77772.67
950.562	46626.5
950.927	38813.34
951.291	46731.44
951.655	39841.82
952.02	37435.52
952.384	28302.12
952.748	24618.24
953.112	24003.77
953.476	20877.25
953.839	19311.49
954.203	19106.68
954.567	23883.17
954.931	37656.56
955.294	32176.56
955.658	32356.64
956.021	55009.18
956.385	93226.33
956.748	137654.33
957.111	213506.92
957.474	239884.54
957.837	269866.49
958.2	204070.44
958.563	73453.45
958.926	49648.79
959.289	75370.99
959.652	84127.86
960.015	63086.78
960.377	90515.62
960.74	103155.57
961.102	178279.32
961.465	191353.19
961.827	102537.38
962.189	196850.05
962.552	136596.68
962.914	109466.88
963.276	71064.25
963.638	58775.6
964	58196.83
964.362	39348.42
964.724	38073.08
965.085	27134.56
965.447	22249.19
965.809	25341.28
966.17	25366.05
966.532	27418.56
966.893	25177.93
967.255	22924.07
967.616	27068.18
967.977	21683.27
968.338	23711.47
968.699	19495.75
969.061	19499.01
969.421	19614.93
969.782	22020.43
970.143	18585.13
970.504	19239.35
970.865	21847.71
971.225	22319.26
971.586	21809.86
971.946	31088.09
972.307	26974.83
972.667	35277.25
973.027	36337.02
973.388	44056.13
973.748	29957.74
974.108	32668.94
974.468	44240.27
974.828	34114.06
975.188	26260.87
975.548	24128.58
975.907	20286.84
976.267	22734.36
976.627	19079.74
976.986	19747.95
977.346	18839.29
977.705	18126.9
978.064	16510.44
978.424	13735.11
978.783	14225.35
979.142	16233.54
979.501	15529.96
979.86	16387.86
980.219	15803.66
980.578	20392.47
980.937	22866.64
981.296	20379.4
981.654	20973.48
982.013	32613.38
982.371	42323.8
982.73	39486.66
983.088	44683.75
983.447	47755.41
983.805	68262.37
984.163	142601.88
984.521	158110.46
984.879	231894.8
985.237	-376968.37
985.595	364160.31
985.953	90462.25
986.311	52224.36
986.669	30310.76
987.026	26183.8
987.384	35209.16
987.741	36414.58
988.099	26006.08
988.456	20748.11
988.814	19403.41
989.171	16879.02
989.528	16615.63
989.885	17553.67
990.242	13901.35
990.599	17309.35
990.956	14143.65
991.313	9901.63
991.67	8128.63
992.027	8621.6
992.383	7651.32
992.74	6714.52
993.096	7036.23
993.453	7292.14
993.809	7565.7
994.165	10090.61
994.522	9257.6
994.878	10215.74
995.234	12815.9
995.59	12644.65
995.946	11962.47
996.302	13655.24
996.658	15778.64
997.013	17400.9
997.369	20639.93
997.725	26395.74
998.08	17076.22
998.436	26351.26
998.791	36342.11
999.147	36242.46
999.502	39525.64
999.857	28772.71
1000.212	46877.36
1000.567	66622.17
1000.922	38419.56
1001.277	24477.75
1001.632	18161.42
1001.987	23401.99
1002.342	16748.06
1002.696	13373.34
1003.051	10676.14
1003.406	12933.99
1003.76	12863.18
1004.114	12700.57
1004.469	10679.92
1004.823	8841.07
1005.177	9534.43
1005.531	7565.1
1005.885	6704.8
1006.239	7571.55
1006.593	9497.64
1006.947	12727.32
1007.301	9535.8
1007.655	10404.25
1008.008	7625.8
1008.362	8573.08
1008.715	12249.71
1009.069	11095.99
1009.422	16678.22
1009.776	33500.63
1010.129	22208.84
1010.482	18542.73
1010.835	15652.1
1011.188	32598.36
1011.541	30646.41
1011.894	-187126.21
1012.247	551861.49
1012.6	37474.49
1012.952	23648.56
1013.305	12171.37
1013.657	8765.74
1014.01	8296.84
1014.362	6853.34
1014.715	6091.28
1015.067	5305.92
1015.419	5195.62
1015.771	4617.21
1016.123	4102.09
1016.475	4216.13
1016.827	4488.36
1017.179	4841.14
1017.531	4887.4
1017.883	5011.82
1018.234	4838.19
1018.586	6127.38
1018.938	6483.88
1019.289	8973.91
1019.64	10292.93
1019.992	9568.65
1020.343	8783.77
1020.694	6951.01
1021.045	6141.63
1021.396	7011.03
1021.747	7498.38
1022.098	8995.52
1022.449	6502.8
1022.8	6037.65
1023.151	4188.1
1023.501	3715.47
1023.852	4051.59
1024.202	4210.19
1024.553	4633.82
1024.903	4513.34
1025.253	3845.37
1025.604	3456.68
1025.954	4286.96
1026.304	5229.83
1026.654	6087.89
1027.004	8927.28
1027.354	14403.5
1027.703	13553.34
1028.053	17767.18
1028.403	25880.84
1028.753	37720.03
1029.102	51481.66
1029.452	265370.94
1029.801	11468.83
1030.15	7394.72
1030.499	6293.31
897.758	2673.75
901.051	2632.2
904.343	2666.21
907.636	2668.69
910.928	2733.03
914.22	2641.2
917.511	2650.66
920.803	2710.03
924.094	2730.35
927.384	2708.47
930.675	2675.67
933.965	2628.43
937.255	2634.61
940.544	2602.4
943.834	2541.36
947.123	2486.46
950.411	2583.91
953.7	2556.72
956.988	2527.74
960.276	2468.48
963.563	2550.55
966.851	2542.73
970.138	2603.48
973.424	2598.6
976.711	2547.21
979.997	2679.03
983.283	2715.95
986.568	2621.01
989.853	2636.33
993.138	2664.46
996.423	2747.24
999.708	2684.51
1002.992	2751.33
1006.275	2583.66
1009.559	2630.73
1012.842	2746.09
1016.125	2678.21
1019.408	2656.18
1022.69	2742.92
1025.972	2762.97
1029.254	2737.75
1032.536	2669.96
1035.817	2697.38
1039.098	2641.43
1042.379	2786.71
1045.659	2784.86
1048.939	2719.53
1052.219	2744.3
1055.498	2750.97
1058.778	2739.91
1062.057	2723.42
1065.335	2743.22
1068.614	2764.91
1071.892	2747.01
1075.17	2822.53
1078.447	2814.33
1081.724	2802.83
1085.001	2840.52
1088.278	2814.12
1091.554	2828.14
1094.83	2822.4
1098.106	2851.6
1101.382	2898.69
1104.657	2897.77
1107.932	2892.02
1111.206	2856.89
1114.481	2812.45
1117.755	2815.21
1121.029	2795.13
1124.302	2848.22
1127.575	2802.51
1130.848	2788.13
1134.121	2750.05
1137.393	2697.71
1140.665	2763.61
1143.937	2740.92
1147.208	2701.56
1150.48	2741.2
1153.75	2730.09
1157.021	2762.85
1160.291	2729.82
1163.561	2775.82
1166.831	2765.71
1170.101	2796.51
1173.37	2768.75
1176.639	2713.43
1179.907	2773.32
1183.176	2778.99
1186.444	2787.61
1189.711	2816.84
1192.979	2825.59
1196.246	2783.81
1199.513	2801.36
1202.78	2797.74
1206.046	2809.87
1209.312	2834.57
1212.578	2861.21
1215.843	2810.08
1219.108	2784.28
1222.373	2808.92
1225.638	2770.02
1228.902	2755.18
1232.166	2715.81
1235.43	2699.53
1238.693	2725.02
1241.956	2721.19
1245.219	2763.88
1248.482	2754.99
1251.744	2752.69
1255.006	2900.82
1258.268	2853.8
1261.529	2798.01
1264.79	2803.79
1268.051	2912.96
1271.312	2929.69
1274.572	2890.56
1277.832	2877.68
1281.092	2869.31
1284.351	2841.16
1287.61	2818.77
1290.869	2734.25
1294.128	2709.55
1297.386	2802.72
1300.644	2791.19
1303.902	2801.91
1307.159	2657.16
1310.416	2715.92
1313.673	2743.42
1316.93	2725.48
1320.186	2773.11
1323.442	2816.47
1326.697	2804.27
1329.953	2793.29
1333.208	2817.49
1336.463	2797.89
1339.717	2736.84
1342.972	2875.55
1346.226	2848.64
1349.479	2778.83
1352.733	2752.28
1355.986	2773.27
1359.238	2749.13
1362.491	2756.52
1365.743	2758.51
1368.995	2750.24
1372.247	2766.25
1375.498	2792.72
1378.749	2806.88
1382	2761
1385.251	2816.16
1388.501	2775.35
1391.751	2759.53
1395	2732.36
1398.25	2762.77
1401.499	2772.14
1404.748	2698.13
1407.996	2686.31
1411.244	2671.01
1414.492	2650.58
1417.74	2631.05
1420.987	2640.36
1424.234	2700.37
1427.481	2680.3
1430.728	2737.56
1433.974	2709.86
1437.22	2728.54
1440.465	2729.37
1443.711	2692.41
1446.956	2728.02
1450.201	2717.41
1453.445	2763.96
1456.689	2743.48
1459.933	2753.95
1463.177	2788.83
1466.42	2759.95
1469.663	2741.98
1472.906	2735.56
1476.148	2813.87
1479.391	2772.95
1482.633	2743.05
1485.874	2753.82
1489.115	2739.87
1492.356	2744.5
1495.597	2720.51
1498.838	2722.02
1502.078	2691.63
1505.318	2640.38
1508.557	2683.21
1511.797	2660.07
1515.036	2731.63
1518.274	2719.03
1521.513	2690.75
1524.751	2713.24
1527.989	2725.64
1531.227	2739.73
1534.464	2735.88
1537.701	2755.82
1540.938	2775.62
1544.174	2728.03
1547.41	2724.78
1550.646	2765.03
1553.882	2802.66
1557.117	2855.99
1560.352	2871.4
1563.587	2828.41
1566.821	2787.44
1570.055	2822.23
1573.289	2793.98
1576.523	2870.98
1579.756	2879.35
1582.989	2896.45
1586.222	2859.64
1589.454	2899.81
1592.686	2871.24
1595.918	2897.68
1599.15	2887.99
1602.381	2965.27
1605.612	2919.33
1608.843	3018.03
1612.073	2928.02
1615.303	2910.26
1618.533	2905.49
1621.762	2906.77
1624.992	2892.42
1628.221	2879.61
1631.449	2865.08
1634.678	2921.8
1637.906	2872.51
1641.134	2911.76
1644.361	2867.03
1647.588	2856.41
1650.815	2873.43
1654.042	2849.4
1657.269	2879.88
1660.495	2832.24
1663.72	2853.5
1666.946	2816.31
1670.171	2757.76
1673.396	2734.69
1676.621	2721.45
1679.845	2741.72
1683.069	2761.7
1686.293	2805.17
1689.517	2775.42
1692.74	2703.93
1695.963	2733.34
1699.185	2752.82
1702.408	2724.86
1705.63	2768.86
1708.852	2778.82
1712.073	2752.9
1715.294	2736.24
1718.515	2799.33
1721.736	2744.42
1724.956	2739.21
1728.176	2766.43
1731.396	2789.8
1734.616	2773.03
1737.835	2802.53
1741.054	2780.32
1744.272	2774.1
1747.491	2805.85
1750.709	2860.7
1753.927	2762.82
1757.144	2809.61
1760.361	2852.72
1763.578	2844.25
1766.795	2784.59
1770.011	2792.21
1773.227	2832.97
1776.443	2867.13
1779.658	2913.68
1782.874	2855.27
1786.089	2833.04
1789.303	2835.78
1792.518	2839.89
1795.732	2827.57
1798.945	2839.65
1802.159	2888
1805.372	2791.36
1808.585	2777.17
1811.797	2780.53
1815.01	2827.5
1818.222	2829.27
1821.434	2801.08
1824.645	2860.71
1827.856	2847.68
1831.067	2883.93
1834.278	2836.09
1837.488	2821.75
1840.698	2971.73
1843.908	2893
1847.117	2856.05
1850.326	2739.22
1853.535	2846.61
1856.744	2872.48
1859.952	2783.7
1863.16	2786.89
1866.368	2808.19
1869.575	2912.94
1872.782	2794.12
1875.989	2731.3
1879.196	2819.31
1882.402	2809.91
1885.608	2851.4
1888.814	2747.77
1892.019	2641.26
1895.224	2694.82
1898.429	2674.36
1901.634	2648.29
1904.838	2625.75
1908.042	2676.27
1911.246	2681.85
1914.449	2608.97
1917.652	2607.54
1920.855	2588.14
1924.058	2641.21
1927.26	2676.74
1930.462	2704.24
1933.664	2728.92
1936.865	2668.53
1940.066	2675.96
1943.267	2621.94
1946.467	2638.43
1949.668	2666.05
1952.868	2732.43
1956.067	2711.05
1959.267	2639.82
1962.466	2669.17
1965.665	2653.91
1968.863	2648.23
1972.061	2664.48
1975.259	2665.22
1978.457	2747.52
1981.654	2703.61
1984.852	2703.46
1988.048	2636.65
1991.245	2640.9
1994.441	2726.63
1997.637	2712.05
2000.833	2694.17
2004.028	2734.94
2007.223	2787.24
2010.418	2763.1
2013.613	2725.17
2016.807	2698.2
2020.001	2704.63
2023.194	2747.41
2026.388	2721.43
2029.581	2668.64
2032.774	2717.83
2035.966	2722.97
2039.158	2652.48
2042.35	2681.25
2045.542	2608.06
2048.733	2706.53
2051.924	2728.61
2055.115	2761.5
2058.306	2704.17
2061.496	2766.61
2064.686	2829.95
2067.875	2741.77
2071.065	2755.92
2074.254	2785.06
2077.442	2736.95
2080.631	2828.07
2083.819	2719.25
2087.007	2702.81
2090.195	2669.32
2093.382	2706.41
2096.569	2684.11
2099.756	2636.07
2102.942	2662.95
2106.128	2669.61
2109.314	2661.18
2112.5	2623.2
2115.685	2596.81
2118.87	2605.97
2122.055	2671.6
2125.239	2638.89
2128.424	2608.78
2131.608	2713.29
2134.791	2695.55
2137.974	2753.71
2141.157	2740.01
2144.34	2689.73
2147.523	2705.81
2150.705	2721.71
2153.887	2701.06
2157.068	2649.44
2160.25	2650.71
2163.431	2689.22
2166.611	2634.12
2169.792	2652.04
2172.972	2545.07
2176.152	2624.13
2179.331	2658.33
2182.511	2639.28
2185.69	2669.52
2188.868	2662.25
2192.047	2720.59
2195.225	2710.42
2198.403	2661.92
2201.58	2652.41
2204.758	2647.64
2207.935	2729.14
2211.111	2618.42
2214.288	2602.85
2217.464	2643.91
2220.64	2612.58
2223.815	2671.32
2226.991	2588.81
2230.166	2608.25
2233.34	2637.47
2236.515	2667.04
2239.689	2740.04
2242.863	2684.21
2246.036	2737.7
2249.209	2738.11
2252.382	2773.73
2255.555	2761.43
2258.727	2697.19
2261.9	2737.43
2265.071	2730.33
2268.243	2730.7
2271.414	2659.51
2274.585	2619.25
2277.756	2688.39
2280.926	2645.96
2284.096	2684.98
2287.266	2590.7
2290.436	2644.65
2293.605	2673.02
2296.774	2703.26
2299.942	2726.55
2303.111	2745.04
2306.279	2792.75
2309.447	2779.94
2312.614	2752.67
2315.781	2770.6
2318.948	2742.5
2322.115	2779.69
2325.281	2684.44
2328.447	2704.52
2331.613	2678.25
2334.779	2648.25
2337.944	2651.93
2341.109	2650.11
2344.274	2633.13
2347.438	2599.24
2350.602	2622.41
2353.766	2642.19
2356.929	2628.4
2360.092	2669.62
2363.255	2619.79
2366.418	2553.11
2369.58	2668.61
2372.742	2452.52
2375.904	2468.37
2379.066	2443.9
2382.227	2480.73
2385.388	2444.38
2388.548	2363.64
2391.709	2420.34
2394.869	2400.86
2398.029	2502.95
2401.188	2517.25
2404.347	2449.32
2407.506	2592.35
2410.665	2622.42
2413.823	2627.27
2416.981	2584.25
2420.139	2616.68
2423.296	2668.47
2426.453	2640.1
2429.61	2664.12
2432.767	2596.19
2435.923	2635.85
2439.079	2596.55
2442.235	2647.21
2445.391	2571.14
2448.546	2603.79
2451.701	2653.37
2454.855	2623.66
2458.009	2679.52
2461.163	2683.36
2464.317	2638.39
2467.471	2672.19
2470.624	2711.31
2473.777	2683.41
2476.929	2697.22
2480.082	2723.87
2483.234	2685.16
2486.385	2637.68
2489.537	2631.76
2492.688	2589.13
2495.839	2607.82
2498.989	2621.05
2502.14	2604.75
2505.29	2585.79
2508.439	2616.01
2511.589	2537.12
2514.738	2547.96
2517.887	2580.81
2521.035	2645.97
2524.183	2626.78
2527.331	2609.52
2530.479	2580.91
2533.627	2591.71
