Data from N_3_DEC_OH_4N_Splice17_13-26-41-788.txt Node
Date: Sat Mar 14 13:26:41 EDT 2020
User: sa697716
Spectrometer: FLMS03696
Trigger mode: 0
Integration Time (sec): 3.180400E-1
Scans to average: 20
Electric dark correction enabled: true
Nonlinearity correction enabled: true
Boxcar width: 5
XAxis mode: Wavelengths
Number of Pixels in Spectrum: 2048
>>>>>Begin Spectral Data<<<<<
187.83	-422262.42
188.298	3053.89
188.766	1612.09
189.233	1443.1
189.701	2020.52
190.169	2802.11
190.636	1114.59
191.104	939.83
191.571	231.5
192.039	3.53
192.506	-2.58
192.974	471.05
193.441	-597.44
193.908	-49.66
194.375	-42.16
194.842	68.52
195.31	186.86
195.777	186.9
196.244	430.48
196.711	541.3
197.177	670.06
197.644	950.72
198.111	1639.24
198.578	2260.31
199.045	1810.25
199.511	2980.1
199.978	3416.05
200.445	2876.04
200.911	3187.12
201.378	3510.09
201.844	3138.26
202.31	5278.15
202.777	5465.31
203.243	2981.77
203.709	2826.41
204.176	3312.78
204.642	2679.62
205.108	2499.67
205.574	2020.43
206.04	1814.98
206.506	1695.17
206.972	1593.28
207.438	1534.29
207.903	1724.6
208.369	1501.38
208.835	1490.36
209.301	1559.25
209.766	1602.62
210.232	1571.55
210.697	1918.79
211.163	2336.09
211.628	3483.18
212.094	2891.05
212.559	3553.67
213.024	2186.19
213.49	2664.03
213.955	2559.9
214.42	2467.06
214.885	2254.83
215.35	2129.55
215.815	2058.59
216.28	2167.53
216.745	1724.63
217.21	1803.43
217.675	1563.28
218.14	1671.42
218.604	1749.35
219.069	1867.4
219.534	1853.27
219.998	2004.87
220.463	2261.19
220.927	2539.57
221.392	2239.09
221.856	2171.82
222.32	2572.91
222.785	3069.36
223.249	3692.95
223.713	3969
224.177	3852.58
224.642	4734.5
225.106	5666.89
225.57	6064.21
226.034	4510.21
226.497	6785.08
226.961	6032.65
227.425	6953.3
227.889	7477.45
228.353	7404.03
228.816	15012.55
229.28	14254.22
229.744	11909.44
230.207	7258.08
230.671	7095.76
231.134	11421.99
231.597	13115.6
232.061	12854.87
232.524	12362.55
232.987	8541.96
233.45	7658.09
233.914	6858.6
234.377	6949.54
234.84	6338.11
235.303	7390.34
235.766	8211.99
236.229	8434.19
236.691	5256.56
237.154	5908.54
237.617	4482.66
238.08	4554.71
238.542	5318.85
239.005	3817.96
239.468	3805.71
239.93	3581.54
240.393	3264.75
240.855	2869.06
241.317	2938.5
241.78	3551.73
242.242	3694.7
242.704	4010.58
243.166	3505.93
243.629	3225.48
244.091	3698.49
244.553	4024.52
245.015	4341.02
245.477	5576.22
245.939	8134.35
246.4	8650.92
246.862	8417.29
247.324	7925.04
247.786	8791.64
248.247	11489.2
248.709	11672.36
249.17	8747.21
249.632	8373.02
250.093	9792.51
250.555	8490.43
251.016	5216.78
251.477	4960.16
251.939	5385.3
252.4	5646.53
252.861	6676.88
253.322	6245.1
253.783	7419.34
254.244	9623.07
254.705	7517.01
255.166	6622.85
255.627	6520.68
256.088	9231.22
256.549	9821.56
257.009	8418.47
257.47	10187.11
257.931	8322.57
258.391	6241.32
258.852	6432.29
259.312	6723.49
259.773	8286.28
260.233	7058.8
260.694	5993.53
261.154	6751.04
261.614	5461.66
262.074	4871.47
262.534	5078.2
262.994	4789.12
263.455	6336.96
263.915	5357.04
264.374	5041.56
264.834	5496.86
265.294	6043.1
265.754	6255.15
266.214	5908.3
266.673	5514.13
267.133	6933.75
267.593	6830.8
268.052	8375.7
268.512	7293.99
268.971	8865.4
269.431	9724.2
269.89	8701.54
270.349	13046.99
270.809	14569.81
271.268	13123.66
271.727	29270.12
272.186	19076.73
272.645	14381.71
273.104	10289.2
273.563	14856
274.022	11569.68
274.481	9905.63
274.94	7677.92
275.399	5704.37
275.857	6605.02
276.316	8915.55
276.775	7928.19
277.233	7797.32
277.692	7328.13
278.15	8386.32
278.609	8712.83
279.067	8102.14
279.525	7559.97
279.984	9752.38
280.442	11776.91
280.9	11719.48
281.358	7770.86
281.816	7312.26
282.274	7185.06
282.732	7405.37
283.19	7428.13
283.648	6418.61
284.106	6861.49
284.564	6966.31
285.021	6477.21
285.479	4823.71
285.937	4356.78
286.394	3846.11
286.852	3940.16
287.309	4147.61
287.767	4062.58
288.224	3889.71
288.682	4269.31
289.139	4699.15
289.596	4324.28
290.053	4497.95
290.511	5678.94
290.968	6923.97
291.425	9340.95
291.882	7852.73
292.339	6859.27
292.796	6754.65
293.252	6339.83
293.709	5075.22
294.166	4550.49
294.623	5007.42
295.079	4791.94
295.536	4838.71
295.992	4404.09
296.449	4371.23
296.905	4556.77
297.362	4394.21
297.818	4602.43
298.274	4800.44
298.731	4860.33
299.187	4800.14
299.643	5145.29
300.099	6245.2
300.555	6850.2
301.011	5708.75
301.467	5570.16
301.923	6447.72
302.379	6306.91
302.835	6210.23
303.291	6206.77
303.746	7062.1
304.202	8951.91
304.658	9009.49
305.113	6066.04
305.569	5969.05
306.024	6366.43
306.479	5983.88
306.935	5090.07
307.39	5531.1
307.845	5156.72
308.301	5226.63
308.756	5108.03
309.211	4933.8
309.666	5077.76
310.121	6360.72
310.576	6425.85
311.031	6373.57
311.486	7270.49
311.94	7246.31
312.395	9716.43
312.85	18174.76
313.305	88477.12
313.759	465109.52
314.214	33565.49
314.668	26603.73
315.123	22506.72
315.577	8166.32
316.032	7305.05
316.486	9219.55
316.94	7348.76
317.394	5139.27
317.849	4003.21
318.303	3797.66
318.757	3566.26
319.211	3959.73
319.665	3469.59
320.119	3507.32
320.572	4992.23
321.026	4681.55
321.48	3900.58
321.934	4207.29
322.387	4199.21
322.841	4547.05
323.295	4160.8
323.748	4767.59
324.202	4843.34
324.655	5834.55
325.108	8215.59
325.562	5824.57
326.015	6886.28
326.468	5222.88
326.921	5877.29
327.374	5539.06
327.827	5807.86
328.28	6547.88
328.733	4418.7
329.186	3903.88
329.639	3728.11
330.092	3135.97
330.545	3004.17
330.997	3054.26
331.45	3362.97
331.903	3989.6
332.355	6810.05
332.808	6590.48
333.26	5428.63
333.713	5911.19
334.165	5931.87
334.617	7923.79
335.069	6308.43
335.522	11329.92
335.974	12572.28
336.426	11433.17
336.878	7807.08
337.33	3980.39
337.782	3888.33
338.234	4909.88
338.686	5845.78
339.137	6945.29
339.589	6563.67
340.041	5200.35
340.493	4462.4
340.944	4593.04
341.396	4950.18
341.847	4209.76
342.299	5014.08
342.75	6182.05
343.201	5341.67
343.653	6135.48
344.104	7535.1
344.555	5914.7
345.006	9135.48
345.457	7138.78
345.908	5628.64
346.359	5308.5
346.81	4311.96
347.261	4506.24
347.712	4414.63
348.163	4737.47
348.613	4859.89
349.064	4532.01
349.515	3970.68
349.965	4116.91
350.416	4913.49
350.866	5379.39
351.317	6050.15
351.767	10048.19
352.217	12743.53
352.668	10589.45
353.118	9723.53
353.568	9270.12
354.018	7422.06
354.468	7859.01
354.918	5632.53
355.368	4926.23
355.818	6986.8
356.268	20146.53
356.718	85275.17
357.168	21283.56
357.617	10691.4
358.067	11858.16
358.517	11129.41
358.966	13135.87
359.416	14884.58
359.865	16062.15
360.315	19112.37
360.764	8971.33
361.213	5041.34
361.663	4709.83
362.112	5806.65
362.561	9405.86
363.01	7175.13
363.459	6072.59
363.908	6509.2
364.357	5547.27
364.806	9357.73
365.255	6435.53
365.703	5936.97
366.152	5980.62
366.601	4866.24
367.05	3983.54
367.498	3625.83
367.947	3766.17
368.395	3910.24
368.844	3489.43
369.292	4151.41
369.74	2895.43
370.189	4448.78
370.637	5184.37
371.085	4447.91
371.533	5430.61
371.981	5191.34
372.429	5005.68
372.877	5216.51
373.325	4389.99
373.773	4460.19
374.221	3957.71
374.669	4910.96
375.116	4241.06
375.564	4290.79
376.012	4818.09
376.459	3982.18
376.907	4765.49
377.354	5706.78
377.801	5370.58
378.249	6187.68
378.696	7885.78
379.143	9635.63
379.591	10211.31
380.038	17366.05
380.485	12566.29
380.932	13570.13
381.379	12568.74
381.826	9374.02
382.273	6709.25
382.72	5837.15
383.166	5749.8
383.613	3770.72
384.06	3418.64
384.506	4007
384.953	2970.08
385.4	3008.36
385.846	2680.55
386.292	2614.97
386.739	2576.27
387.185	2582.11
387.631	2658.78
388.078	2651.1
388.524	2895.64
388.97	2738.25
389.416	2334.39
389.862	2510.69
390.308	2429.71
390.754	2518.92
391.2	2816.3
391.645	2986.13
392.091	3008.34
392.537	3019.01
392.983	3105.48
393.428	3174.4
393.874	3527.1
394.319	3748.14
394.765	3844.86
395.21	4272.22
395.655	4363.29
396.101	4464.46
396.546	4393.84
396.991	4841.94
397.436	4938.51
397.881	5267.78
398.326	5529.4
398.771	5794.94
399.216	5589.08
399.661	5516.6
400.106	5993.76
400.551	6672.85
400.995	6471.94
401.44	6889.99
401.885	6910.78
402.329	7438.48
402.774	7555.53
403.218	7716.09
403.663	7868.91
404.107	8543.05
404.551	9114.32
404.995	8877.91
405.44	9100.63
405.884	9806
406.328	10022.25
406.772	10503.35
407.216	10040.54
407.66	10239.2
408.104	10331.96
408.547	10217.34
408.991	10385.99
409.435	10446.94
409.879	10686.06
410.322	10911.52
410.766	10896.2
411.209	10737.65
411.653	10720.5
412.096	10883.21
412.54	11274.9
412.983	11533.99
413.426	11854.69
413.869	12184.41
414.312	12243.26
414.756	12123.48
415.199	11869.9
415.642	11791.48
416.085	12053.74
416.527	12202.41
416.97	12638.08
417.413	12162.28
417.856	12226.89
418.298	12259.65
418.741	12289.23
419.184	12374.41
419.626	13006.71
420.069	13091.52
420.511	13261.98
420.953	13093.41
421.396	13112.75
421.838	12931.21
422.28	13365.62
422.722	13555.7
423.164	13984.57
423.606	13962.05
424.048	14195.14
424.49	13655.86
424.932	13799.76
425.374	13807.19
425.816	14167.81
426.258	14409.88
426.699	14414.5
427.141	13920.39
427.582	13925.07
428.024	13722.75
428.465	13700.09
428.907	13522.16
429.348	13621.56
429.789	13815.72
430.231	13662.92
430.672	14022.83
431.113	13960.09
431.554	14184.89
431.995	14452.9
432.436	14462.02
432.877	14606.09
433.318	14659.08
433.759	14864.89
434.2	15048.85
434.64	15078.03
435.081	15323.01
435.522	14747.46
435.962	14483.25
436.403	14377.79
436.843	14809.85
437.284	14719.52
437.724	14513.06
438.164	14758.91
438.604	14558.8
439.045	14102.56
439.485	13628.19
439.925	13524.74
440.365	13364.73
440.805	13323.26
441.245	13232.33
441.685	12807.66
442.125	12782.21
442.564	12898.84
443.004	12596.99
443.444	12598.61
443.883	12656.46
444.323	12677.98
444.762	12829.61
445.202	13063.45
445.641	13303.02
446.081	13348.61
446.52	13486.93
446.959	13395.86
447.398	13123.17
447.837	13054.52
448.276	12901.31
448.716	13062.21
449.154	13202.54
449.593	12812.87
450.032	12717.39
450.471	12489.89
450.91	12453.41
451.349	12335.96
451.787	12235.19
452.226	12342.02
452.664	12262.27
453.103	12196.91
453.541	12111.1
453.98	11933.61
454.418	11939.53
454.856	11634.19
455.295	11530.58
455.733	11493.59
456.171	11478.68
456.609	11376.27
457.047	11258.14
457.485	11300.36
457.923	11225.61
458.361	11023
458.798	11046.19
459.236	10993.81
459.674	11103.64
460.111	11144.01
460.549	11055.2
460.987	11063.21
461.424	11063.21
461.862	11055.01
462.299	10923.86
462.736	10916.88
463.173	10989.02
463.611	10838.14
464.048	10835.15
464.485	10946.3
464.922	10905.62
465.359	10921.77
465.796	10651.88
466.233	10634.97
466.67	10556.77
467.106	10569.98
467.543	10559.57
467.98	10488.97
468.416	10337.88
468.853	10337.74
469.29	10091.63
469.726	10024.71
470.162	9789.82
470.599	9829.24
471.035	9774.26
471.471	9576.8
471.907	9574.43
472.344	9521.02
472.78	9512.07
473.216	9608.89
473.652	9445.06
474.088	9383.84
474.523	9276.4
474.959	9306.74
475.395	9155.88
475.831	9010.23
476.266	8983.53
476.702	8878.36
477.138	8686.87
477.573	8574.67
478.008	8442.07
478.444	8362.56
478.879	8309.83
479.314	8245.77
479.75	8134.07
480.185	8080.7
480.62	8054.03
481.055	7993.62
481.49	7930.19
481.925	7925.51
482.36	7900.29
482.795	7990.43
483.229	8082.98
483.664	8115.57
484.099	8022.84
484.534	8012.53
484.968	7970.87
485.403	7890.59
485.837	7795.34
486.271	7694.9
486.706	7625.45
487.14	7510.55
487.574	7340.74
488.009	7230.41
488.443	7124.98
488.877	7128.07
489.311	7102.43
489.745	7125.02
490.179	7131.6
490.613	7178.12
491.046	7187.43
491.48	7191.35
491.914	7142.63
492.348	7143.97
492.781	7136.34
493.215	7117.65
493.648	7111.98
494.082	7131.37
494.515	7096.11
494.948	7124.6
495.382	7146.57
495.815	7141.28
496.248	7139.2
496.681	7215.49
497.114	7278.48
497.547	7312.15
497.98	7358.47
498.413	7329.54
498.846	7343.43
499.279	7359.57
499.711	7341.48
500.144	7299.95
500.577	7316.3
501.009	7350.24
501.442	7356.74
501.874	7290.57
502.306	7256.43
502.739	7241.49
503.171	7325.03
503.603	7293.49
504.036	7306.07
504.468	7279.18
504.9	7297.65
505.332	7286.42
505.764	7245.12
506.196	7233.29
506.627	7271
507.059	7288.35
507.491	7297.48
507.923	7184.12
508.354	7208.12
508.786	7201.57
509.217	7245.12
509.649	7264.21
510.08	7309.08
510.512	7325.12
510.943	7332.28
511.374	7314.64
511.805	7354.55
512.237	7389.55
512.668	7511.71
513.099	7586.72
513.53	7640.68
513.961	7642.45
514.391	7711.99
514.822	7774.96
515.253	7867.56
515.684	7895.01
516.114	7949.7
516.545	7952.71
516.975	7985.92
517.406	7973.1
517.836	7886.49
518.267	7833.56
518.697	7848.14
519.127	7793.86
519.558	7759.3
519.988	7702.01
520.418	7683.47
520.848	7699.73
521.278	7671.34
521.708	7505.75
522.138	7501.1
522.567	7582.89
522.997	7626.68
523.427	7618.64
523.857	7610.65
524.286	7582.92
524.716	7584.15
525.145	7602.39
525.575	7590.84
526.004	7604.61
526.433	7676.19
526.863	7626.68
527.292	7530.75
527.721	7520.04
528.15	7526.93
528.579	7510.58
529.008	7534.84
529.437	7605.28
529.866	7629.97
530.295	7665.28
530.724	7670.99
531.152	7745.61
531.581	7763.25
532.01	7807.63
532.438	7815.39
532.867	7846.38
533.295	7893.26
533.723	7891.27
534.152	7857.98
534.58	7835.65
535.008	7754.1
535.436	7743.21
535.865	7760.12
536.293	7804.77
536.721	7847.54
537.149	7920.67
537.576	7900.16
538.004	7934.41
538.432	7954.28
538.86	7937.17
539.287	7961.7
539.715	8008.17
540.143	8023.5
540.57	8011.78
540.998	8008.06
541.425	7917.27
541.852	7852.24
542.28	7870.24
542.707	7827.6
543.134	7789.23
543.561	7788.86
543.988	7774.43
544.415	7790.8
544.842	7784.1
545.269	7766.52
545.696	7784.73
546.123	7863.33
546.549	7834.88
546.976	7792.35
547.403	7801.3
547.829	7825.43
548.256	7854.69
548.682	7854.97
549.108	7838.23
549.535	7854.17
549.961	7878.73
550.387	7834.77
550.813	7818.25
551.24	7860.34
551.666	7881.19
552.092	7853.57
552.518	7840.26
552.943	7818.6
553.369	7863.85
553.795	7896.47
554.221	7902.54
554.646	7894.93
555.072	7935.57
555.498	7960.59
555.923	7994.94
556.349	8050.88
556.774	8081.52
557.199	8079.91
557.625	8114.17
558.05	8084.11
558.475	8132.37
558.9	8128.17
559.325	8090.78
559.75	8072.54
560.175	8051.81
560.6	8035.31
561.025	8034.87
561.449	8047.04
561.874	8075.85
562.299	8083.7
562.723	8112.79
563.148	8059.7
563.572	8074.28
563.997	8115.69
564.421	8136.32
564.846	8130.78
565.27	8131.85
565.694	8109.79
566.118	8143.75
566.542	8160.29
566.966	8121.15
567.39	8084.46
567.814	8024.3
568.238	8012.63
568.662	8030.98
569.086	8041.56
569.509	8084
569.933	8025.15
570.357	8016.59
570.78	7949.14
571.204	7915.34
571.627	7903.28
572.05	7934.82
572.474	7975.27
572.897	7967.57
573.32	7977.6
573.743	7985.59
574.166	7943.96
574.589	7999.35
575.012	8011.33
575.435	8061.27
575.858	8072.37
576.281	8077.54
576.704	8065.36
577.126	8072.87
577.549	8079.08
577.972	8096.16
578.394	8100.98
578.817	8114.51
579.239	8083.11
579.661	8073.55
580.084	8042.52
580.506	8036.59
580.928	8076.86
581.35	8076.44
581.772	8102.23
582.194	8080.23
582.616	8053.85
583.038	8025.56
583.46	8020.85
583.882	8038.91
584.303	8102.1
584.725	8122.07
585.147	8127.47
585.568	8189.05
585.99	8247.05
586.411	8276.47
586.833	8350.38
587.254	8362.26
587.675	8445.73
588.096	8521.94
588.518	8499.97
588.939	8414.04
589.36	8408.25
589.781	8399.65
590.202	8250.28
590.623	8235.55
591.043	8253.62
591.464	8205.66
591.885	8196.89
592.305	8174.7
592.726	8103.93
593.147	8109.61
593.567	8076.5
593.987	8028.96
594.408	7989.79
594.828	7985.99
595.248	7928.93
595.669	7801.09
596.089	7741.95
596.509	7688.36
596.929	7585.38
597.349	7559.44
597.769	7474.6
598.189	7406.8
598.608	7379.75
599.028	7355.14
599.448	7324.64
599.867	7234.4
600.287	7195.79
600.706	7148.66
601.126	7073.62
601.545	7047.24
601.965	7027.41
602.384	6991.23
602.803	6999.58
603.222	6967.76
603.641	6934.35
604.061	6911.99
604.48	6896.86
604.898	6941.62
605.317	6975.66
605.736	6997.12
606.155	6991.26
606.574	6954.9
606.992	6995.99
607.411	6984.61
607.829	6967.1
608.248	6972.49
608.666	6985.43
609.085	7002.65
609.503	6978.69
609.921	6968.35
610.339	7003.24
610.758	7029.51
611.176	7033.29
611.594	7010.89
612.012	7023.17
612.43	7060.5
612.847	7119.96
613.265	7140.77
613.683	7190.23
614.101	7226.41
614.518	7239.39
614.936	7216.03
615.353	7163.15
615.771	7174.54
616.188	7206.37
616.606	7216.03
617.023	7209.95
617.44	7159.93
617.857	7163.2
618.274	7147.1
618.691	7134.61
619.108	7105.45
619.525	7092.25
619.942	7146.43
620.359	7175.93
620.776	7161.35
621.192	7143.57
621.609	7137.32
622.026	7177.98
622.442	7212.6
622.859	7237.47
623.275	7204.38
623.691	7241.32
624.108	7310.21
624.524	7399.88
624.94	7403.26
625.356	7461.33
625.772	7547.26
626.188	7622.34
626.604	7635.79
627.02	7617.76
627.436	7605.08
627.852	7644.55
628.268	7713.13
628.683	7667.98
629.099	7626.26
629.514	7614.03
629.93	7649.92
630.345	7687.82
630.761	7681.97
631.176	7720.91
631.591	7695.3
632.007	7681.97
632.422	7702.6
632.837	7666.17
633.252	7674.1
633.667	7643.56
634.082	7617.95
634.497	7572.83
634.911	7483.69
635.326	7500.23
635.741	7438.26
636.155	7429.15
636.57	7476.53
636.984	7519.52
637.399	7569.66
637.813	7622.41
638.228	7666.41
638.642	7752.99
639.056	7748.72
639.47	7816.93
639.884	7824.51
640.298	7847.25
640.712	7901.11
641.126	7888.13
641.54	7905.04
641.954	7957.37
642.368	7943.51
642.781	7940.99
643.195	7885.39
643.609	7952.08
644.022	7979.7
644.436	8013.48
644.849	7995.51
645.262	7974.86
645.676	8052.44
646.089	8065.99
646.502	7991.28
646.915	8007.38
647.328	7952.47
647.741	7988.54
648.154	7942.89
648.567	7943.53
648.98	7882.44
649.393	7928.58
649.805	7943.25
650.218	7928.09
650.631	7839.87
651.043	7838.24
651.456	7822.1
651.868	7857.02
652.28	8013.69
652.693	8123.34
653.105	8172.31
653.517	8225.5
653.929	8202.78
654.341	8239.24
654.753	8141.78
655.165	8217.04
655.577	8226.25
655.989	8233.58
656.401	8226.6
656.813	7982.47
657.224	7904.3
657.636	7786.49
658.047	7745.73
658.459	7694.64
658.87	7731.21
659.282	7731.5
659.693	7625.56
660.104	7569.94
660.515	7523.66
660.926	7573.78
661.338	7629.14
661.749	7644.15
662.159	7614.17
662.57	7651.07
662.981	7671.34
663.392	7652.95
663.803	7741.58
664.213	7782.53
664.624	7800.07
665.035	7882.76
665.445	7804.76
665.855	7768.42
666.266	7718.05
666.676	7735.99
667.086	7678.65
667.497	7691.45
667.907	7655.76
668.317	7585.94
668.727	7529.97
669.137	7556.74
669.547	7538.7
669.956	7574.73
670.366	7599.68
670.776	7616.24
671.186	7655.85
671.595	7678.83
672.005	7714.8
672.414	7689.73
672.824	7653.24
673.233	7722.2
673.642	7724.49
674.052	7726.32
674.461	7711.05
674.87	7738.88
675.279	7681.11
675.688	7683.57
676.097	7659.67
676.506	7599.39
676.915	7719.65
677.323	7721.12
677.732	7674.28
678.141	7641.42
678.549	7519.17
678.958	7490.86
679.366	7456.01
679.775	7484.31
680.183	7508.63
680.592	7525.6
681	7525.34
681.408	7400.55
681.816	7410.77
682.224	7426.72
682.632	7419.94
683.04	7586.91
683.448	7668.43
683.856	7745.31
684.264	7814.95
684.671	7868.11
685.079	7955.02
685.487	8061.88
685.894	8281.93
686.302	8392.06
686.709	8399.54
687.116	8458.02
687.524	8433.79
687.931	8395.11
688.338	8363.29
688.745	8334.2
689.152	8312.5
689.559	8330.94
689.966	8311.66
690.373	8156.51
690.78	8095.53
691.187	8149.14
691.593	8101.53
692	8023.62
692.407	8034.85
692.813	8090
693.22	8083.18
693.626	8101.08
694.032	8065.1
694.439	8146.1
694.845	8166.66
695.251	8247.33
695.657	8288.64
696.063	8453.69
696.469	8512.53
696.875	8542.93
697.281	8473.65
697.687	8423.4
698.093	8335.93
698.498	8361.71
698.904	8334.32
699.31	8399.44
699.715	8389.05
700.12	8481.49
700.526	8374.42
700.931	8430.62
701.337	8443.06
701.742	8415.46
702.147	8531.4
702.552	8507.04
702.957	8570.99
703.362	8529.75
703.767	8520.56
704.172	8544.71
704.577	8345.56
704.981	8383.71
705.386	8339.73
705.791	8238.59
706.195	8339.32
706.6	8285.16
707.004	8405.26
707.408	8262.49
707.813	8258.69
708.217	8160.59
708.621	8099.66
709.025	8256.01
709.43	8186.54
709.834	8256.38
710.237	8351.91
710.641	8255.58
711.045	8237.01
711.449	8156.07
711.853	8144.47
712.256	8162.04
712.66	8168.1
713.064	8234.1
713.467	8203.22
713.87	8286.42
714.274	8196.15
714.677	8200.58
715.08	8277.8
715.484	8341.8
715.887	8433.03
716.29	8504.4
716.693	8567.96
717.096	8672.84
717.499	8633.93
717.901	8498.27
718.304	8457.99
718.707	8495.9
719.109	8397.61
719.512	8429.1
719.915	8297.28
720.317	8285.12
720.719	8413.64
721.122	8417.23
721.524	8376.6
721.926	8319.88
722.328	8457.01
722.731	8378.91
723.133	8332.68
723.535	8522.91
723.937	8443.38
724.338	8427.02
724.74	8411.64
725.142	8244.04
725.544	8216.97
725.945	8230.04
726.347	8212.87
726.748	8187.5
727.15	8198.46
727.551	8125.62
727.952	8069.74
728.354	8019.53
728.755	8031.38
729.156	8002.49
729.557	8056.12
729.958	7927.33
730.359	7917.56
730.76	7969.38
731.161	7970.33
731.562	8019.4
731.962	8111.96
732.363	8093.04
732.763	8065.1
733.164	8176.2
733.564	8108.31
733.965	7980.33
734.365	7948.86
734.766	8007.73
735.166	7946.87
735.566	7846.82
735.966	7791.37
736.366	7770.16
736.766	7667.2
737.166	7717.35
737.566	7657.6
737.966	7620.16
738.365	7685.86
738.765	7671.92
739.165	7548.41
739.564	7509.32
739.964	7589.5
740.363	7530.74
740.763	7545.52
741.162	7532.84
741.561	7485.66
741.96	7414.39
742.36	7455.24
742.759	7470.33
743.158	7541.41
743.557	7571.7
743.955	7636.67
744.354	7563.82
744.753	7652.11
745.152	7579.07
745.55	7666.63
745.949	7652.94
746.348	7648.44
746.746	7665.5
747.144	7586.17
747.543	7534.9
747.941	7597.82
748.339	7467.09
748.737	7438.18
749.136	7403.36
749.534	7490.09
749.932	7425.51
750.33	7450.27
750.727	7527.35
751.125	7475.93
751.523	7441.76
751.921	7500.88
752.318	7437.89
752.716	7521.57
753.113	7533.02
753.511	7561.65
753.908	7548.78
754.305	7507.74
754.703	7586.85
755.1	7661.15
755.497	7730.52
755.894	7966.39
756.291	8108.47
756.688	8356.41
757.085	8606.99
757.482	8940.95
757.878	9209.39
758.275	9321.18
758.672	9644.01
759.068	9744.35
759.465	10037.96
759.861	10445.42
760.258	10912.79
760.654	10871.12
761.05	10445.65
761.447	9983.19
761.843	9549.07
762.239	9178.41
762.635	9195.31
763.031	9181.76
763.427	8975.76
763.822	8753.95
764.218	8558.39
764.614	8170.71
765.01	7999.63
765.405	7988.6
765.801	8025.33
766.196	7923.42
766.592	7952.97
766.987	7781.66
767.382	7701.14
767.778	7744.47
768.173	7699.16
768.568	7696.79
768.963	7594.07
769.358	7677.63
769.753	7653.28
770.148	7564.55
770.542	7589.31
770.937	7565.89
771.332	7705.23
771.726	7734.46
772.121	7642.2
772.515	7716.06
772.91	7695.02
773.304	7797.88
773.699	7701.89
774.093	7771.39
774.487	7838.35
774.881	7887.69
775.275	7863.82
775.669	7793.09
776.063	7845.08
776.457	7883.35
776.851	7759.75
777.245	7729.99
777.638	7756.07
778.032	7897.27
778.425	7826.26
778.819	7869.92
779.212	7791.92
779.606	7721.09
779.999	7728.76
780.392	7678.47
780.786	7768.17
781.179	7774.54
781.572	7807.31
781.965	7802.11
782.358	7697.42
782.751	7746.77
783.143	7652.14
783.536	7718.43
783.929	7739.52
784.322	7853.02
784.714	7859.81
785.107	7817.05
785.499	7867.94
785.891	7792.6
786.284	7713.34
786.676	7835.18
787.068	7749.95
787.46	7760.11
787.852	7732.8
788.245	7781.66
788.636	7769.34
789.028	7800.07
789.42	7795.14
789.812	7755.46
790.204	7830.51
790.595	7911.82
790.987	7647.01
791.378	7649.9
791.77	7772.22
792.161	7903.41
792.553	7941.37
792.944	7770.79
793.335	7652.99
793.726	7699.7
794.117	7774.84
794.508	7907.9
794.899	7845.68
795.29	7975.73
795.681	8008.51
796.072	7811.56
796.463	7562.88
796.853	7536.47
797.244	7679.63
797.634	7683.1
798.025	7648.61
798.415	7621.11
798.806	7670.19
799.196	7710.66
799.586	7711.87
799.976	7609.48
800.366	7800.16
800.756	8000.73
801.146	7906.96
801.536	7890.71
801.926	7920.01
802.316	7899.58
802.706	7936.17
803.095	7774.87
803.485	7847.17
803.874	7859.94
804.264	8096.2
804.653	8035.67
805.043	8144.4
805.432	8213.21
805.821	8165.14
806.21	8133.75
806.599	8193.24
806.988	8163.43
807.377	8181.02
807.766	8218.83
808.155	8397.31
808.544	8053.03
808.933	7966.76
809.321	7840
809.71	7990.79
810.098	8002.57
810.487	8261.29
810.875	8515.21
811.264	8358.31
811.652	8425.7
812.04	8348.9
812.428	8269.86
812.816	8638.1
813.204	8721.72
813.592	8885.77
813.98	8905.6
814.368	8644.28
814.756	8790.98
815.144	8574.93
815.531	8749.04
815.919	8578.29
816.306	8675.31
816.694	8410.74
817.081	8408.39
817.469	8629.14
817.856	8662.07
818.243	8865.83
818.63	9140.77
819.017	8881.4
819.404	8883.16
819.791	9033.54
820.178	9299.54
820.565	9360.7
820.952	9862.73
821.339	9506.67
821.725	9548.2
822.112	9032.44
822.498	8934.45
822.885	8931.26
823.271	8832.65
823.657	9085.41
824.044	9143.32
824.43	9235.21
824.816	9239.12
825.202	8949.58
825.588	9490.66
825.974	9427.41
826.36	9637.45
826.746	9564.21
827.132	9685.55
827.517	9586.35
827.903	9054.77
828.289	8992.13
828.674	8499.61
829.06	8384.31
829.445	8553.95
829.83	8696.12
830.216	8905.89
830.601	9051.16
830.986	8805.35
831.371	8708.39
831.756	8983.04
832.141	8745.42
832.526	8726.27
832.911	8864.77
833.295	8796.58
833.68	9039.15
834.065	8722.94
834.449	8248.77
834.834	8223.83
835.218	8217.27
835.603	8381.68
835.987	8250.32
836.371	8668.62
836.755	8602.52
837.139	8790.9
837.524	8890.52
837.908	8772.94
838.291	8773.67
838.675	8777.03
839.059	8853.13
839.443	8813.92
839.827	8669.99
840.21	8880.59
840.594	8776.24
840.977	8836.37
841.361	8795.98
841.744	8948.13
842.127	8838.01
842.511	8932
842.894	9199.02
843.277	9350.55
843.66	9577.56
844.043	9588.49
844.426	9170.23
844.809	8976.91
845.191	8966.46
845.574	8714.61
845.957	8507
846.339	8407.96
846.722	8097.95
847.104	8063.57
847.487	7922.09
847.869	7881.97
848.252	7957.07
848.634	8048.67
849.016	8125.46
849.398	8126.52
849.78	8446.52
850.162	8395.37
850.544	8519.9
850.926	8724.23
851.307	8609.66
851.689	8651.63
852.071	8757.83
852.452	8829.03
852.834	8767.22
853.215	8884.89
853.597	8898.19
853.978	8985.85
854.359	9142.07
854.741	8721.85
855.122	8694.38
855.503	8601.78
855.884	8683.55
856.265	8680.99
856.646	8727.97
857.026	8564.9
857.407	8519.55
857.788	8565.92
858.169	8651.34
858.549	8278.47
858.93	8507.67
859.31	8497.47
859.69	8558.86
860.071	8365.82
860.451	8252.46
860.831	7926.3
861.211	8344.03
861.591	8514.76
861.971	8467.47
862.351	8502.83
862.731	8594.48
863.111	8624.41
863.491	8678.29
863.87	8927.75
864.25	8980.97
864.629	8768.26
865.009	8891.27
865.388	9149.62
865.768	9751.73
866.147	9657.51
866.526	9084.09
866.905	9174.94
867.284	9685.56
867.663	9193.65
868.042	8805.39
868.421	8769.65
868.8	8894.86
869.179	8980.57
869.558	8452.98
869.936	7788.31
870.315	7911.41
870.693	8091.63
871.072	8697.8
871.45	8259.9
871.828	8345.66
872.207	8756.87
872.585	8610.32
872.963	8823.61
873.341	8503.47
873.719	8385.74
874.097	8256.69
874.475	8398.05
874.853	8570.48
875.23	8206.5
875.608	8535.87
875.986	9214.24
876.363	8798
876.741	9059.77
877.118	8817.97
877.495	9224.89
877.873	9339.63
878.25	9814.06
878.627	9390.88
879.004	9490.26
879.381	9404.31
879.758	9145.09
880.135	8493.42
880.512	8962.89
880.889	8680.71
881.265	8554.1
881.642	8453.53
882.019	8591.39
882.395	8408.76
882.772	8726.79
883.148	8329.34
883.524	8279.69
883.901	8195.35
884.277	8287.26
884.653	8199.79
885.029	8421.33
885.405	9320.61
885.781	9224.18
886.157	8811.28
886.532	8875.83
886.908	8836.02
887.284	9788.35
887.659	10084.89
888.035	10375.71
888.411	10607.64
888.786	10723.76
889.161	11065.89
889.537	10802.55
889.912	11103.92
890.287	11033.13
890.662	11254.97
891.037	10988.4
891.412	10188.99
891.787	10000.18
892.162	9571.03
892.536	9709.98
892.911	9248.5
893.286	8934.52
893.66	8476.29
894.035	8584.02
894.409	9232.45
894.784	8755.95
895.158	8786.03
895.532	9184.66
895.906	9316.63
896.281	9406.13
896.655	9149.87
897.029	10331.11
897.402	10659.73
897.776	11747.86
898.15	11595.62
898.524	11375.79
898.898	11436.76
899.271	12736.32
899.645	10991.21
900.018	10524.24
900.392	10896.94
900.765	10985.48
901.138	10201.47
901.511	10093.07
901.884	9337.92
902.258	8678.67
902.631	9048.72
903.003	10477.82
903.376	9502.96
903.749	10704.92
904.122	11509.26
904.495	12706.25
904.867	12855.33
905.24	11133.33
905.612	10307.55
905.985	10452.67
906.357	10852.48
906.729	10257.81
907.102	8695.71
907.474	8297.34
907.846	8284.37
908.218	8120.42
908.59	7152.84
908.962	6896.67
909.334	7398.87
909.705	7760.26
910.077	7514.65
910.449	7801.9
910.82	8004.14
911.192	8779.09
911.563	9112.85
911.935	9721.16
912.306	9697.21
912.677	9981.14
913.048	9866.32
913.419	10669.13
913.79	10691.98
914.161	11446.08
914.532	10942.88
914.903	10027.95
915.274	9503.64
915.645	9344.73
916.015	8216.39
916.386	7847.12
916.756	8356.16
917.127	8617.53
917.497	7746.64
917.868	8472.9
918.238	8092.97
918.608	8347.36
918.978	8585.12
919.348	9154.35
919.718	9516.34
920.088	9227.66
920.458	9645.79
920.828	10176.56
921.198	9677.65
921.567	10322.6
921.937	7992.93
922.306	8048.28
922.676	8651.76
923.045	7231.75
923.415	6864.76
923.784	6234.25
924.153	6401.76
924.522	6385.95
924.891	5989.1
925.26	6392.93
925.629	6207.78
925.998	7094.67
926.367	6888.9
926.736	6555.76
927.104	7706.04
927.473	8194.24
927.842	9789.28
928.21	9547.74
928.578	9840.13
928.947	9168.64
929.315	9092.42
929.683	10499.27
930.051	10403.54
930.42	11898.59
930.788	9959.57
931.156	9714.22
931.523	8991.91
931.891	8180.09
932.259	7760.9
932.627	8901.86
932.994	12424.02
933.362	10157.25
933.729	8757.06
934.097	8300.83
934.464	6983.49
934.831	7989.79
935.199	7844.32
935.566	7560.57
935.933	7627.91
936.3	9263.72
936.667	7205.56
937.034	6659.72
937.401	6619.67
937.767	5758.1
938.134	5198.11
938.501	7394.03
938.867	8023.58
939.234	13750.11
939.6	11889.66
939.967	13387.71
940.333	9069.01
940.699	7836.7
941.065	6208.43
941.431	8235.22
941.798	8061.54
942.163	10664.2
942.529	6653.16
942.895	6115.02
943.261	3974.9
943.627	5225.72
943.992	4566.09
944.358	4548.97
944.723	4594.44
945.089	4483.31
945.454	4128.68
945.82	4351.36
946.185	4151.23
946.55	4836.32
946.915	4325.84
947.28	5060.84
947.645	4461.88
948.01	4139.66
948.375	4332.71
948.74	5155.25
949.104	6007.81
949.469	8590.29
949.834	15203.12
950.198	14590.43
950.562	8754.66
950.927	7294.43
951.291	8742.23
951.655	7385.9
952.02	6844.98
952.384	5166.97
952.748	4533.19
953.112	4454.18
953.476	3880.94
953.839	3576.59
954.203	3548.74
954.567	4422.63
954.931	6917.7
955.294	5956.42
955.658	5985.29
956.021	10216.83
956.385	17246
956.748	25288.6
957.111	38870.16
957.474	43660.55
957.837	49154.05
958.2	36636.87
958.563	13165.69
958.926	8970.9
959.289	13592.83
959.652	15311.43
960.015	11537.12
960.377	16583.49
960.74	19001.02
961.102	32666.35
961.465	35449.88
961.827	19595.69
962.189	37799.35
962.552	26383.04
962.914	21175.24
963.276	13813.26
963.638	11384.64
964	11272.58
964.362	7671.42
964.724	7416.59
965.085	5333.22
965.447	4369.87
965.809	4866.01
966.17	4872.17
966.532	5259.67
966.893	4859.37
967.255	4437.91
967.616	5258.39
967.977	4236.27
968.338	4657.49
968.699	3883
969.061	3899.6
969.421	3965.79
969.782	4493.57
970.143	3860.99
970.504	4083.38
970.865	4676.71
971.225	4827.29
971.586	4760.78
971.946	6803.8
972.307	5881.42
972.667	7593.63
973.027	7839.48
973.388	9455.91
973.748	6424.45
974.108	6994.67
974.468	9317.33
974.828	7241.89
975.188	5506.29
975.548	5028.37
975.907	4228.22
976.267	4766.34
976.627	4055.74
976.986	4200.6
977.346	4012.45
977.705	3854.79
978.064	3496.64
978.424	2935.84
978.783	2992.86
979.142	3433.35
979.501	3316.46
979.86	3517.1
980.219	3387.07
980.578	4362.05
980.937	4890.22
981.296	4366.44
981.654	4503.88
982.013	6988.79
982.371	9116.19
982.73	8570.93
983.088	9722.66
983.447	10404.34
983.805	14988.2
984.163	31365.64
984.521	34801.15
984.879	51044.48
985.237	-83671.94
985.595	81803.93
985.953	20399.52
986.311	11724.61
986.669	6831.29
987.026	5911.12
987.384	7918.1
987.741	8152.55
988.099	5937.66
988.456	4736.95
988.814	4500.91
989.171	3908.76
989.528	3815.33
989.885	4036.85
990.242	3227.47
990.599	4001
990.956	3273.87
991.313	2313.04
991.67	1907.04
992.027	2068.61
992.383	1851.17
992.74	1628.59
993.096	1735.25
993.453	1802
993.809	1877.55
994.165	2499.43
994.522	2363.4
994.878	2616.45
995.234	3286.7
995.59	3238.47
995.946	2983.02
996.302	3419.13
996.658	3926.38
997.013	4285.86
997.369	5179.13
997.725	6658.81
998.08	4307.89
998.436	6466.12
998.791	8974.83
999.147	8967.29
999.502	9843.73
999.857	7117.17
1000.212	11635.77
1000.567	16605.51
1000.922	9632.26
1001.277	6092.36
1001.632	4517.69
1001.987	5847.41
1002.342	4217.85
1002.696	3393.28
1003.051	2748.51
1003.406	3363.43
1003.76	3365.64
1004.114	3320.53
1004.469	2820.18
1004.823	2334.7
1005.177	2505.3
1005.531	1991.83
1005.885	1798.64
1006.239	2039.02
1006.593	2584.17
1006.947	3470.39
1007.301	2594.05
1007.655	2838.46
1008.008	2102.82
1008.362	2376.25
1008.715	3402.64
1009.069	3100.03
1009.422	4816.73
1009.776	9518.01
1010.129	6324.99
1010.482	5273.19
1010.835	4382.8
1011.188	9007.05
1011.541	8459.78
1011.894	-51114.59
1012.247	150475.03
1012.6	10141.76
1012.952	6455.3
1013.305	3200.78
1013.657	2337.45
1014.01	2222.48
1014.362	1808.84
1014.715	1673.13
1015.067	1498.71
1015.419	1476.2
1015.771	1334.89
1016.123	1206.81
1016.475	1261.16
1016.827	1342.03
1017.179	1483.01
1017.531	1487.25
1017.883	1514.35
1018.234	1529.4
1018.586	1917.71
1018.938	2086
1019.289	2917.66
1019.64	3297.71
1019.992	3051
1020.343	2793.63
1020.694	2288.48
1021.045	2013.65
1021.396	2301.24
1021.747	2531.05
1022.098	2961.56
1022.449	2153.1
1022.8	1973.24
1023.151	1394.94
1023.501	1260.47
1023.852	1369.31
1024.202	1447.65
1024.553	1546.97
1024.903	1550.55
1025.253	1365.72
1025.604	1240.86
1025.954	1543.83
1026.304	1870.63
1026.654	2196.11
1027.004	3190.53
1027.354	5106.22
1027.703	4890.36
1028.053	6307.45
1028.403	9360.61
1028.753	13043.86
1029.102	17519.07
1029.452	88668.39
1029.801	3856.59
1030.15	2503.59
1030.499	2059.91
897.758	2948.7
901.051	2918.44
904.343	2951.68
907.636	2948.35
910.928	3015.75
914.22	2921.64
917.511	2932.24
920.803	3003.6
924.094	3038.77
927.384	3002.63
930.675	2968.32
933.965	2915.38
937.255	2915.93
940.544	2887.2
943.834	2788.01
947.123	2738.52
950.411	2838.82
953.7	2807.31
956.988	2767.9
960.276	2706.67
963.563	2807.64
966.851	2794.28
970.138	2861.52
973.424	2847.46
976.711	2794.62
979.997	2981.5
983.283	3007.53
986.568	2896.6
989.853	2926
993.138	2955.33
996.423	3038.7
999.708	2963.58
1002.992	3054.29
1006.275	2840.95
1009.559	2914.33
1012.842	3039.77
1016.125	2956.93
1019.408	2935.99
1022.69	3040.88
1025.972	3056.33
1029.254	3025.86
1032.536	2939.15
1035.817	2978.43
1039.098	2898.19
1042.379	3100.38
1045.659	3076.89
1048.939	2998.86
1052.219	3029.02
1055.498	3050.6
1058.778	3028.4
1062.057	3013.51
1065.335	3033.87
1068.614	3060.21
1071.892	3030.29
1075.17	3121.2
1078.447	3102.75
1081.724	3091.53
1085.001	3138.3
1088.278	3110.4
1091.554	3125.17
1094.83	3123.51
1098.106	3148.91
1101.382	3202.36
1104.657	3202.13
1107.932	3199.03
1111.206	3157.22
1114.481	3113.99
1117.755	3120.15
1121.029	3090.24
1124.302	3140.57
1127.575	3082.64
1130.848	3066.1
1134.121	3019.58
1137.393	2962.4
1140.665	3035.75
1143.937	3006.24
1147.208	2968.69
1150.48	2999.96
1153.75	2980.94
1157.021	3032.35
1160.291	2995.42
1163.561	3041.68
1166.831	3039.7
1170.101	3080.43
1173.37	3058.97
1176.639	2994.17
1179.907	3065.5
1183.176	3064.98
1186.444	3077.8
1189.711	3108.82
1192.979	3109.63
1196.246	3070.58
1199.513	3088.54
1202.78	3084.16
1206.046	3089.63
1209.312	3117.48
1212.578	3149.6
1215.843	3087.35
1219.108	3064.74
1222.373	3087.99
1225.638	3046.53
1228.902	3028
1232.166	2996.7
1235.43	2974.84
1238.693	2999.45
1241.956	2999.16
1245.219	3035.28
1248.482	3031.13
1251.744	3026.81
1255.006	3195.94
1258.268	3153.96
1261.529	3089.72
1264.79	3100.59
1268.051	3211.39
1271.312	3232.86
1274.572	3188.61
1277.832	3179.42
1281.092	3175.49
1284.351	3136.15
1287.61	3110.53
1290.869	3010.92
1294.128	2973.25
1297.386	3089.08
1300.644	3074.3
1303.902	3085.56
1307.159	2934.91
1310.416	2993.91
1313.673	3016.75
1316.93	2994.26
1320.186	3051.75
1323.442	3100.89
1326.697	3083.52
1329.953	3085.82
1333.208	3101.74
1336.463	3085.31
1339.717	3011.04
1342.972	3153.19
1346.226	3134.42
1349.479	3056.11
1352.733	3018.48
1355.986	3052.04
1359.238	3025.34
1362.491	3026.69
1365.743	3032.91
1368.995	3027.78
1372.247	3041.35
1375.498	3070.17
1378.749	3083.18
1382	3041.27
1385.251	3103.84
1388.501	3070.81
1391.751	3044.54
1395	3021.32
1398.25	3057.63
1401.499	3058.35
1404.748	2974.07
1407.996	2952.21
1411.244	2936.01
1414.492	2909.06
1417.74	2883.58
1420.987	2900.7
1424.234	2955.63
1427.481	2944.31
1430.728	3001.69
1433.974	2976.94
1437.22	2998.64
1440.465	3002.93
1443.711	2963.39
1446.956	3004.76
1450.201	3005.05
1453.445	3048.21
1456.689	3021.37
1459.933	3035.17
1463.177	3065.66
1466.42	3036.63
1469.663	3012.34
1472.906	2992.85
1476.148	3104.31
1479.391	3027.86
1482.633	3004.93
1485.874	3008.74
1489.115	2986.13
1492.356	3000.47
1495.597	2975.47
1498.838	2982.71
1502.078	2940.03
1505.318	2877.81
1508.557	2930.1
1511.797	2872.11
1515.036	2992.44
1518.274	2980.11
1521.513	2958.87
1524.751	2987.44
1527.989	2994.98
1531.227	3004.02
1534.464	2988.27
1537.701	3024.82
1540.938	3048.14
1544.174	2999.12
1547.41	3007.89
1550.646	3045.87
1553.882	3075.04
1557.117	3127.51
1560.352	3147.39
1563.587	3099.88
1566.821	3053.04
1570.055	3102.46
1573.289	3067.59
1576.523	3153.52
1579.756	3157.88
1582.989	3173.9
1586.222	3132.25
1589.454	3177.11
1592.686	3145.9
1595.918	3166.98
1599.15	3154.25
1602.381	3249.6
1605.612	3186.38
1608.843	3287.18
1612.073	3190.28
1615.303	3172.79
1618.533	3159.08
1621.762	3170.45
1624.992	3159.77
1628.221	3137.32
1631.449	3123.77
1634.678	3196.03
1637.906	3140.91
1641.134	3187.6
1644.361	3135.59
1647.588	3126.62
1650.815	3139.33
1654.042	3125.34
1657.269	3155.17
1660.495	3103.3
1663.72	3088.99
1666.946	3059.5
1670.171	2981.09
1673.396	2959.3
1676.621	2950.32
1679.845	2986.55
1683.069	3015.53
1686.293	3069.26
1689.517	3028.91
1692.74	2941.5
1695.963	2969.95
1699.185	3023.3
1702.408	2988.7
1705.63	3040.98
1708.852	3046.04
1712.073	3019.22
1715.294	2988.88
1718.515	3061.27
1721.736	2997.43
1724.956	2999.23
1728.176	3028.32
1731.396	3052.48
1734.616	3044.84
1737.835	3066.47
1741.054	3046.92
1744.272	3043.7
1747.491	3070.22
1750.709	3142
1753.927	3018.31
1757.144	3076.93
1760.361	3113.19
1763.578	3116.48
1766.795	3050.01
1770.011	3062.03
1773.227	3114.48
1776.443	3147.74
1779.658	3196.65
1782.874	3138.73
1786.089	3106.19
1789.303	3111.24
1792.518	3118.61
1795.732	3105.85
1798.945	3110.97
1802.159	3167.53
1805.372	3045.63
1808.585	3024.71
1811.797	3028.25
1815.01	3089.53
1818.222	3092.46
1821.434	3021.27
1824.645	3099.59
1827.856	3070.28
1831.067	3109.77
1834.278	3079.93
1837.488	3063.22
1840.698	3233.55
1843.908	3143.8
1847.117	3104.18
1850.326	2960.73
1853.535	3083.34
1856.744	3155.95
1859.952	3054.09
1863.16	3055.78
1866.368	3079.23
1869.575	3178.53
1872.782	3063.66
1875.989	3002.24
1879.196	3111.06
1882.402	3102.54
1885.608	3148.27
1888.814	3028.46
1892.019	2918.26
1895.224	2969.73
1898.429	2957.4
1901.634	2932.4
1904.838	2911.07
1908.042	2960.01
1911.246	2964.66
1914.449	2874.75
1917.652	2881.69
1920.855	2864.62
1924.058	2927.28
1927.26	2956.46
1930.462	2991.5
1933.664	3012.57
1936.865	2943.14
1940.066	2946.15
1943.267	2891.08
1946.467	2914.44
1949.668	2945.16
1952.868	3011.35
1956.067	2981.4
1959.267	2907.57
1962.466	2938.02
1965.665	2923.79
1968.863	2920.19
1972.061	2944.32
1975.259	2949.27
1978.457	3033.34
1981.654	2985.59
1984.852	2986.96
1988.048	2907.07
1991.245	2918.56
1994.441	3003.95
1997.637	3004.52
2000.833	2984.57
2004.028	3027.43
2007.223	3077.91
2010.418	3047.37
2013.613	3011.88
2016.807	2966.7
2020.001	2982.4
2023.194	3041.95
2026.388	3013.14
2029.581	2957.74
2032.774	2998
2035.966	3000.64
2039.158	2919.31
2042.35	2954.46
2045.542	2879.46
2048.733	2993.99
2051.924	3033.46
2055.115	3069.96
2058.306	2996.67
2061.496	3060.91
2064.686	3134.18
2067.875	3052.22
2071.065	3075.29
2074.254	3109.76
2077.442	3056.12
2080.631	3155.12
2083.819	3019.2
2087.007	2994.36
2090.195	2954.86
2093.382	3004.22
2096.569	2980.47
2099.756	2927.76
2102.942	2940.44
2106.128	2936.62
2109.314	2929.56
2112.5	2881.15
2115.685	2861.48
2118.87	2874.2
2122.055	2944.98
2125.239	2902.13
2128.424	2864.9
2131.608	2995.19
2134.791	2975.59
2137.974	3047.11
2141.157	3033.69
2144.34	2971.93
2147.523	3001.48
2150.705	3005.21
2153.887	2989.72
2157.068	2925.9
2160.25	2940.48
2163.431	2988.58
2166.611	2917.58
2169.792	2935.95
2172.972	2813.27
2176.152	2909.1
2179.331	2951.74
2182.511	2923.46
2185.69	2955.9
2188.868	2945.01
2192.047	3014.7
2195.225	2989.69
2198.403	2937.48
2201.58	2934.78
2204.758	2930.08
2207.935	3023.59
2211.111	2892.95
2214.288	2874.48
2217.464	2916.03
2220.64	2895.44
2223.815	2956.48
2226.991	2869.65
2230.166	2892.23
2233.34	2914.96
2236.515	2947.51
2239.689	3028.97
2242.863	2966.63
2246.036	3026.05
2249.209	3036.18
2252.382	3078.66
2255.555	3057.82
2258.727	2983.67
2261.9	3031.81
2265.071	3022.29
2268.243	3029.03
2271.414	2950.89
2274.585	2897.28
2277.756	2968.72
2280.926	2923.65
2284.096	2972.54
2287.266	2865.73
2290.436	2928.8
2293.605	2962.97
2296.774	2988.46
2299.942	3022.96
2303.111	3038.32
2306.279	3081.92
2309.447	3071.13
2312.614	3052.33
2315.781	3068.35
2318.948	3028.65
2322.115	3070.09
2325.281	2968.73
2328.447	2997.24
2331.613	2972.5
2334.779	2930.11
2337.944	2942.56
2341.109	2939.02
2344.274	2915.64
2347.438	2878.3
2350.602	2906.42
2353.766	2928.21
2356.929	2910.42
2360.092	2954.39
2363.255	2896.81
2366.418	2809.58
2369.58	2954.81
2372.742	2682.08
2375.904	2711.04
2379.066	2681.3
2382.227	2725.46
2385.388	2687.44
2388.548	2597.6
2391.709	2663.33
2394.869	2636.26
2398.029	2761.65
2401.188	2784.67
2404.347	2699.49
2407.506	2880.51
2410.665	2902.88
2413.823	2921.83
2416.981	2862.93
2420.139	2905.3
2423.296	2960.52
2426.453	2934.46
2429.61	2960.25
2432.767	2871.14
2435.923	2912.35
2439.079	2840.69
2442.235	2904.36
2445.391	2821.12
2448.546	2839.89
2451.701	2901.41
2454.855	2855.68
2458.009	2926.59
2461.163	2934.27
2464.317	2886.22
2467.471	2924.13
2470.624	2969.32
2473.777	2969.38
2476.929	2977.42
2480.082	3006.24
2483.234	2966.41
2486.385	2893.62
2489.537	2886.35
2492.688	2826.62
2495.839	2845.86
2498.989	2852.77
2502.14	2836.11
2505.29	2808.01
2508.439	2840.9
2511.589	2752.16
2514.738	2770.68
2517.887	2805.12
2521.035	2897.41
2524.183	2892.98
2527.331	2870.1
2530.479	2831.77
2533.627	2847.72
