Data from N_3_DEC_CT_2N_Splice17_13-01-57-764.txt Node
Date: Sat Mar 14 13:01:57 EDT 2020
User: sa697716
Spectrometer: FLMS03696
Trigger mode: 0
Integration Time (sec): 3.180400E-1
Scans to average: 20
Electric dark correction enabled: true
Nonlinearity correction enabled: true
Boxcar width: 5
XAxis mode: Wavelengths
Number of Pixels in Spectrum: 2048
>>>>>Begin Spectral Data<<<<<
187.83	-346582.41
188.298	2480.42
188.766	1321.04
189.233	1151.58
189.701	1565.42
190.169	2159.61
190.636	840.3
191.104	772.92
191.571	170.93
192.039	-10.09
192.506	38.11
192.974	538.2
193.441	-771.4
193.908	-180.37
194.375	-4.69
194.842	22.64
195.31	122
195.777	191.17
196.244	403.11
196.711	487.95
197.177	604.58
197.644	868.29
198.111	1518.87
198.578	2119.13
199.045	1695.34
199.511	2736.34
199.978	3168.42
200.445	2680.93
200.911	2952.27
201.378	3307.38
201.844	3002.53
202.31	5136.41
202.777	5364.4
203.243	2975.73
203.709	2806.68
204.176	3308.64
204.642	2714.41
205.108	2551.8
205.574	2074.1
206.04	1897.7
206.506	1795.59
206.972	1698.78
207.438	1642.93
207.903	1870.84
208.369	1642.9
208.835	1645.81
209.301	1750.53
209.766	1798.31
210.232	1776.86
210.697	2212.42
211.163	2747.82
211.628	4149.76
212.094	3498.58
212.559	4308.33
213.024	2682.47
213.49	3303.57
213.955	3246.88
214.42	3168.3
214.885	2956.72
215.35	2870.19
215.815	2770.48
216.28	2956.82
216.745	2418.77
217.21	2629.52
217.675	2438.02
218.14	2775.25
218.604	3127.98
219.069	3594.27
219.534	3808.75
219.998	4472.84
220.463	5461.24
220.927	6780.02
221.392	6416.82
221.856	6534.14
222.32	8270.92
222.785	10246.61
223.249	12926.69
223.713	14460.06
224.177	14513.95
224.642	18655.27
225.106	23018.06
225.57	25199.13
226.034	18746.5
226.497	28549.83
226.961	25788.54
227.425	30059.74
227.889	33361.14
228.353	33433.99
228.816	69055.77
229.28	65973.99
229.744	55707.04
230.207	33855.56
230.671	33293.96
231.134	55164.5
231.597	63645.28
232.061	63639.7
232.524	62033.28
232.987	42781.77
233.45	38475.96
233.914	34480.79
234.377	35372.82
234.84	32344.24
235.303	38122.54
235.766	42584.21
236.229	43943.98
236.691	27661
237.154	31074.51
237.617	23405.32
238.08	23951.64
238.542	28013.47
239.005	20030.98
239.468	19849.71
239.93	18685.03
240.393	16987.67
240.855	14897.16
241.317	15272.35
241.78	18573.84
242.242	19203.59
242.704	20695.13
243.166	18016.86
243.629	16344.74
244.091	18833.22
244.553	20664.44
245.015	22222.61
245.477	28736.14
245.939	42128.16
246.4	44754.3
246.862	43541.24
247.324	41073.62
247.786	46011.37
248.247	60372.5
248.709	62319.84
249.17	46592.41
249.632	43858.98
250.093	50891.93
250.555	43978.67
251.016	26811.41
251.477	25428.08
251.939	27448.82
252.4	28807.83
252.861	34237.99
253.322	31822.84
253.783	37952.38
254.244	49298.64
254.705	38957.98
255.166	34637.75
255.627	34097.95
256.088	48126.87
256.549	51134.69
257.009	44053.51
257.47	53492.72
257.931	43579.53
258.391	32689.26
258.852	33716.91
259.312	35360.09
259.773	43669.88
260.233	36943.49
260.694	31192.88
261.154	35412.91
261.614	28407.78
262.074	25435.21
262.534	26430.94
262.994	24932.61
263.455	33250.31
263.915	28025.55
264.374	26406.95
264.834	28874.87
265.294	32030.88
265.754	33174.21
266.214	31440.36
266.673	29465.97
267.133	37172.64
267.593	36881.41
268.052	45182
268.512	39318.29
268.971	47379.71
269.431	52000.65
269.89	46557.54
270.349	69786.12
270.809	77880.58
271.268	69937.05
271.727	156942.66
272.186	101819.86
272.645	76394.3
273.104	55115.18
273.563	79761.51
274.022	62772.66
274.481	53358.58
274.94	41134.92
275.399	30576.38
275.857	35616.98
276.316	48240.05
276.775	42926.09
277.233	42205.85
277.692	39496.31
278.15	44660.28
278.609	45927.22
279.067	42554.02
279.525	39542.31
279.984	51015.93
280.442	61297.22
280.9	60361.8
281.358	39705.28
281.816	37029.74
282.274	36270.05
282.732	37513.26
283.19	37733.01
283.648	32606.55
284.106	34726.81
284.564	35336.6
285.021	32782.34
285.479	24447.05
285.937	22251.93
286.394	19516.61
286.852	20085.67
287.309	21125.54
287.767	20411.6
288.224	19398.65
288.682	21270.49
289.139	23324.67
289.596	21345.47
290.053	22193.41
290.511	28011.94
290.968	33992.17
291.425	46173.32
291.882	38426.26
292.339	33420.69
292.796	33165.58
293.252	31261.92
293.709	24835.28
294.166	22260.6
294.623	24581.19
295.079	23575.2
295.536	23697.07
295.992	21497.04
296.449	21226.17
296.905	22044.24
297.362	21129.73
297.818	22199.72
298.274	23030.98
298.731	23461.48
299.187	23222.05
299.643	24932.68
300.099	30156.27
300.555	33042.53
301.011	27603.38
301.467	26573.14
301.923	31107.32
302.379	30350.52
302.835	29814.56
303.291	29827.75
303.746	33953.17
304.202	42873.66
304.658	43043.04
305.113	28934.37
305.569	28312.26
306.024	30186.78
306.479	28779.67
306.935	24249.94
307.39	26537.02
307.845	24493.04
308.301	24645.93
308.756	23987.49
309.211	23107.2
309.666	23657.41
310.121	29343.63
310.576	29780.51
311.031	29529.34
311.486	33779.42
311.94	33744.22
312.395	45055.39
312.85	84693.02
313.305	415853.14
313.759	2153240.18
314.214	155825.45
314.668	123427.41
315.123	103737.04
315.577	37242.67
316.032	33124.43
316.486	41560.23
316.94	32799.43
317.394	22833.42
317.849	17755.05
318.303	16816.92
318.757	15853.38
319.211	17532.3
319.665	15356.82
320.119	15540.92
320.572	22291.81
321.026	20803.36
321.48	17299.38
321.934	18868.52
322.387	18909.89
322.841	20412.23
323.295	18323.98
323.748	21131.86
324.202	21450.64
324.655	25748.64
325.108	35966.07
325.562	25394.14
326.015	30192.77
326.468	22827.01
326.921	25506.45
327.374	23775.68
327.827	24747.05
328.28	28003.62
328.733	18744.74
329.186	16476.99
329.639	15698.08
330.092	13238.25
330.545	12589.18
330.997	12687.89
331.45	13864.33
331.903	16226.04
332.355	27880.74
332.808	27060.2
333.26	22331.61
333.713	24209.49
334.165	24342.46
334.617	32434.31
335.069	26200.33
335.522	47332.89
335.974	52373.45
336.426	47767.99
336.878	33121.24
337.33	16800.24
337.782	16422.68
338.234	20561.26
338.686	24608.33
339.137	29151.7
339.589	27484.69
340.041	21528.74
340.493	18513.21
340.944	18924.47
341.396	20375.19
341.847	17110.83
342.299	20168.43
342.75	24615.53
343.201	21519.12
343.653	24722.88
344.104	30422.63
344.555	23981.93
345.006	37349.29
345.457	28624.04
345.908	22810.54
346.359	21447.44
346.81	17490.88
347.261	18443.32
347.712	18157.26
348.163	19445.02
348.613	19696.38
349.064	18373.62
349.515	16053.92
349.965	16438.01
350.416	19766.09
350.866	21636.97
351.317	24457.58
351.767	40474.91
352.217	51126.81
352.668	42350.38
353.118	38789.28
353.568	37389.46
354.018	29560.56
354.468	31189.32
354.918	22406.29
355.368	19598.46
355.818	27718.71
356.268	79743.23
356.718	333629.29
357.168	82944.06
357.617	41641.53
358.067	46291.16
358.517	43304.27
358.966	50726.11
359.416	56818.6
359.865	61319.13
360.315	73058.77
360.764	34114.58
361.213	19099.22
361.663	18098.35
362.112	22338.33
362.561	36051.16
363.01	27240.2
363.459	22956.63
363.908	24820.69
364.357	21073.71
364.806	35550.63
365.255	24420.48
365.703	22366.14
366.152	22396.91
366.601	18147.97
367.05	14727.36
367.498	13394.22
367.947	13961.47
368.395	14517.42
368.844	12855.21
369.292	15500.89
369.74	10729.35
370.189	16424.13
370.637	19225.42
371.085	16577.49
371.533	20166.7
371.981	19436.38
372.429	18503.79
372.877	19255.99
373.325	16072.77
373.773	16348.73
374.221	14518.9
374.669	17916.43
375.116	15469.16
375.564	15574.75
376.012	17407.36
376.459	14329.82
376.907	17084.84
377.354	20626.42
377.801	19203.29
378.249	22064.39
378.696	28190.75
379.143	34162.47
379.591	36424.27
380.038	61433.66
380.485	44346.26
380.932	47832.44
381.379	43718.82
381.826	32071.49
382.273	22745.67
382.72	19882.43
383.166	19330.57
383.613	12530.63
384.06	11255.11
384.506	12996.63
384.953	9532.07
385.4	9568.72
385.846	8365.04
386.292	8112.95
386.739	7946.88
387.185	7860.98
387.631	7825.53
388.078	7588.35
388.524	8113.36
388.97	7473.4
389.416	6228.12
389.862	6611.24
390.308	6250.67
390.754	6327.97
391.2	6877.54
391.645	7020.5
392.091	6700.36
392.537	6482.91
392.983	6476.63
393.428	6343
393.874	6792.45
394.319	6810.51
394.765	6456.46
395.21	6631.79
395.655	6198.23
396.101	5779.46
396.546	5212.64
396.991	5242.58
397.436	4856.93
397.881	4680.97
398.326	4426.37
398.771	4178.22
399.216	3645.31
399.661	3272.04
400.106	3256.42
400.551	3338.29
400.995	2993.91
401.44	2956.13
401.885	2772.52
402.329	2798.91
402.774	2684.63
403.218	2593.94
403.663	2494.82
404.107	2556.88
404.551	2575.8
404.995	2352.9
405.44	2259.37
405.884	2290.55
406.328	2207.66
406.772	2198.31
407.216	1996.77
407.66	1922.31
408.104	1823.26
408.547	1707.43
408.991	1649.29
409.435	1579.45
409.879	1558.64
410.322	1534.44
410.766	1480.23
411.209	1409.83
411.653	1349.69
412.096	1322.43
412.54	1323.59
412.983	1313.77
413.426	1317.38
413.869	1315.6
414.312	1292.25
414.756	1243.04
415.199	1188.89
415.642	1152.02
416.085	1149.99
416.527	1142.31
416.97	1159.46
417.413	1100.59
417.856	1087.43
418.298	1073.13
418.741	1066.8
419.184	1062.04
419.626	1105.1
420.069	1101.55
420.511	1108.67
420.953	1087.92
421.396	1076.56
421.838	1047.19
422.28	1069.05
422.722	1073.73
423.164	1087.95
423.606	1069.27
424.048	1066.66
424.49	1013.75
424.932	1009.34
425.374	992.64
425.816	1009.3
426.258	1027.46
426.699	1036.14
427.141	1021.39
427.582	1035.71
428.024	1029.27
428.465	1020.51
428.907	996.95
429.348	985.08
429.789	985.77
430.231	967.19
430.672	977.13
431.113	953.77
431.554	940.92
431.995	916.7
432.436	884.7
432.877	864.76
433.318	850.82
433.759	847.75
434.2	846.84
434.64	837.43
435.081	838.46
435.522	795.04
435.962	767.96
436.403	751.07
436.843	761.49
437.284	745.38
437.724	727.02
438.164	727.52
438.604	708.79
439.045	681.43
439.485	653.43
439.925	638.96
440.365	622.69
440.805	612.94
441.245	606.05
441.685	582.81
442.125	576.57
442.564	580.56
443.004	567.9
443.444	567.6
443.883	568.35
444.323	561.98
444.762	561.18
445.202	565.91
445.641	576.17
446.081	571.49
446.52	576.34
446.959	573.25
447.398	558.25
447.837	550.11
448.276	539.87
448.716	544.58
449.154	548.79
449.593	536.75
450.032	536.67
450.471	524.07
450.91	523.81
451.349	521.36
451.787	518.05
452.226	523.56
452.664	523.47
453.103	523.67
453.541	521.88
453.98	521.95
454.418	525.85
454.856	517.65
455.295	516.91
455.733	520.51
456.171	522.61
456.609	520.85
457.047	520.63
457.485	528.18
457.923	529.09
458.361	521.38
458.798	521.98
459.236	520.07
459.674	522.29
460.111	525.77
460.549	520.4
460.987	518.66
461.424	517.7
461.862	514.98
462.299	506.87
462.736	506.44
463.173	508.64
463.611	504.88
464.048	503.26
464.485	507.51
464.922	501.77
465.359	498.93
465.796	495.33
466.233	492.29
466.67	488.81
467.106	487.27
467.543	481.98
467.98	475.32
468.416	461.66
468.853	457.69
469.29	443.35
469.726	438.42
470.162	426.26
470.599	417.87
471.035	412.91
471.471	402.32
471.907	400.09
472.344	397.16
472.78	398.97
473.216	403.52
473.652	398.63
474.088	397.87
474.523	397.87
474.959	402.09
475.395	398
475.831	396.25
476.266	397.85
476.702	396.8
477.138	392.27
477.573	390.02
478.008	387.49
478.444	389.1
478.879	393.02
479.314	393.74
479.75	392.85
480.185	394.64
480.62	397.2
481.055	399.46
481.49	401.56
481.925	407.15
482.36	414.95
482.795	426.21
483.229	436.95
483.664	445.02
484.099	445.88
484.534	453.39
484.968	457.42
485.403	457.97
485.837	456.43
486.271	455.15
486.706	454.6
487.14	447.73
487.574	440.82
488.009	435.96
488.443	431.35
488.877	435.54
489.311	434.86
489.745	439.1
490.179	442.82
490.613	451.27
491.046	454.33
491.48	457.97
491.914	458.13
492.348	461.15
492.781	463.84
493.215	465.59
493.648	466.17
494.082	470.17
494.515	471.1
494.948	476.75
495.382	479.62
495.815	483.58
496.248	487.8
496.681	497.64
497.114	505.52
497.547	513.54
497.98	522.7
498.413	528.08
498.846	535.79
499.279	542.54
499.711	545.57
500.144	548.82
500.577	557.22
501.009	565.69
501.442	574.44
501.874	576.46
502.306	579.87
502.739	588.28
503.171	600.54
503.603	604.8
504.036	612.94
504.468	619.81
504.9	629.41
505.332	636.66
505.764	642.52
506.196	649.59
506.627	663.98
507.059	675.68
507.491	683.02
507.923	685.44
508.354	699.45
508.786	710.68
509.217	728.09
509.649	743.06
510.08	760.16
510.512	776.66
510.943	791.88
511.374	804.91
511.805	825.5
512.237	845.23
512.668	874.17
513.099	900.32
513.53	926.6
513.961	947.3
514.391	976.96
514.822	1009.81
515.253	1043.22
515.684	1069.28
516.114	1098.21
516.545	1120.65
516.975	1148.15
517.406	1167.67
517.836	1175.93
518.267	1187.2
518.697	1208.1
519.127	1217.78
519.558	1228.37
519.988	1237.29
520.418	1251.58
520.848	1270.77
521.278	1284.22
521.708	1314.06
522.138	1329.98
522.567	1361.31
522.997	1387.79
523.427	1405.41
523.857	1424.98
524.286	1438
524.716	1454.78
525.145	1474.54
525.575	1488.62
526.004	1504.42
526.433	1493.51
526.863	1497.55
527.292	1492.13
527.721	1500.45
528.15	1508.79
528.579	1511.84
529.008	1524.6
529.437	1548.89
529.866	1565.19
530.295	1582.98
530.724	1596.65
531.152	1623.85
531.581	1639.41
532.01	1657.48
532.438	1667.73
532.867	1683.09
533.295	1701.92
533.723	1710.19
534.152	1709.62
534.58	1709.94
535.008	1697.11
535.436	1700.39
535.865	1708.41
536.293	1722.89
536.721	1739.32
537.149	1763.32
537.576	1766.57
538.004	1780.09
538.432	1787.32
538.86	1785.83
539.287	1793.25
539.715	1806.82
540.143	1808.24
540.57	1804.1
540.998	1800.62
541.425	1778.98
541.852	1759.58
542.28	1758.78
542.707	1742.97
543.134	1729.48
543.561	1725.47
543.988	1718.89
544.415	1719.18
544.842	1714.91
545.269	1709.23
545.696	1711.77
546.123	1725.12
546.549	1715.97
546.976	1703.59
547.403	1703.54
547.829	1706.82
548.256	1710.75
548.682	1707.76
549.108	1701.34
549.535	1702.25
549.961	1704.64
550.387	1692.2
550.813	1687.06
551.24	1694.27
551.666	1696.13
552.092	1687.96
552.518	1682.24
552.943	1675.86
553.369	1682.33
553.795	1687.15
554.221	1687.93
554.646	1686.06
555.072	1696.82
555.498	1700.38
555.923	1708.74
556.349	1722.04
556.774	1729.59
557.199	1730.22
557.625	1735.74
558.05	1730.86
558.475	1739.44
558.9	1738.68
559.325	1731.36
559.75	1723.75
560.175	1717.47
560.6	1708.79
561.025	1705.03
561.449	1705.11
561.874	1708.97
562.299	1711.82
562.723	1716.67
563.148	1706.11
563.572	1707.11
563.997	1712.52
564.421	1715.36
564.846	1713.18
565.27	1714.65
565.694	1711.83
566.118	1719.97
566.542	1725.29
566.966	1716.33
567.39	1709.57
567.814	1695.75
568.238	1691.79
568.662	1694.48
569.086	1694.41
569.509	1699.01
569.933	1683.45
570.357	1672.91
570.78	1649.67
571.204	1634.37
571.627	1622.32
572.05	1617.29
572.474	1614.72
572.897	1601.49
573.32	1592.28
573.743	1580.56
574.166	1561.42
574.589	1558.59
575.012	1550.24
575.435	1548.22
575.858	1537.53
576.281	1525.27
576.704	1509.77
577.126	1496.82
577.549	1485.98
577.972	1474.42
578.394	1463.51
578.817	1456.49
579.239	1437.88
579.661	1424.36
580.084	1409.21
580.506	1395.59
580.928	1390.19
581.35	1379.04
581.772	1375.21
582.194	1361.41
582.616	1349.3
583.038	1334.61
583.46	1323.29
583.882	1319.93
584.303	1322.55
584.725	1316.6
585.147	1318.64
585.568	1326.69
585.99	1336.89
586.411	1342.08
586.833	1354.15
587.254	1354.53
587.675	1367.34
588.096	1376.66
588.518	1370.43
588.939	1355
589.36	1351.74
589.781	1340.74
590.202	1316.49
590.623	1307.19
591.043	1302.06
591.464	1289.73
591.885	1285.5
592.305	1279.2
592.726	1266.56
593.147	1267.07
593.567	1261.04
593.987	1256.11
594.408	1249.99
594.828	1246.87
595.248	1241.02
595.669	1225.91
596.089	1219.65
596.509	1211.84
596.929	1199.82
597.349	1200.52
597.769	1190.56
598.189	1184.94
598.608	1185.36
599.028	1187.63
599.448	1186.29
599.867	1175.48
600.287	1170.41
600.706	1165.81
601.126	1158.42
601.545	1155.68
601.965	1152.9
602.384	1148.16
602.803	1150.01
603.222	1143.26
603.641	1136.1
604.061	1132.18
604.48	1127.08
604.898	1132.54
605.317	1136.3
605.736	1136.73
606.155	1135.06
606.574	1126.35
606.992	1129.21
607.411	1123.11
607.829	1120.42
608.248	1116.91
608.666	1114.14
609.085	1112.92
609.503	1104.84
609.921	1098.54
610.339	1098.86
610.758	1096.55
611.176	1091.4
611.594	1082.3
612.012	1078.07
612.43	1075.16
612.847	1078.57
613.265	1077.5
613.683	1079.4
614.101	1078.92
614.518	1072.5
614.936	1063.38
615.353	1050.43
615.771	1046.4
616.188	1046.7
616.606	1043.24
617.023	1035.69
617.44	1022.72
617.857	1016.92
618.274	1008.51
618.691	1002.79
619.108	994.75
619.525	987.75
619.942	991.24
620.359	992.96
620.776	986.45
621.192	982.2
621.609	979.75
622.026	984.18
622.442	986.46
622.859	988.42
623.275	981.89
623.691	985.84
624.108	995.02
624.524	1004.82
624.94	1003.84
625.356	1012.11
625.772	1021.59
626.188	1030.79
626.604	1032.5
627.02	1029.34
627.436	1026.82
627.852	1032.15
628.268	1041.46
628.683	1034.22
629.099	1027.4
629.514	1022.91
629.93	1024.76
630.345	1027.17
630.761	1023.13
631.176	1024.21
631.591	1019.99
632.007	1015.79
632.422	1012.51
632.837	1002.81
633.252	999.7
633.667	990.24
634.082	982.03
634.497	970.72
634.911	955.3
635.326	950.21
635.741	935.14
636.155	924.58
636.57	922.48
636.984	920.74
637.399	920.64
637.813	916.38
638.228	912.54
638.642	912.6
639.056	902.27
639.47	898.42
639.884	888.8
640.298	880.99
640.712	877.26
641.126	864.85
641.54	854.01
641.954	844.01
642.368	832.51
642.781	825.17
643.195	809.3
643.609	806.97
644.022	800.17
644.436	793.37
644.849	782.33
645.262	771.47
645.676	770.1
646.089	764.57
646.502	753.59
646.915	747.26
647.328	733.75
647.741	731
648.154	720
648.567	717.37
648.98	708.46
649.393	707.84
649.805	704.71
650.218	697.71
650.631	686.54
651.043	681.36
651.456	677.38
651.868	676.64
652.28	687.37
652.693	694.88
653.105	697.94
653.517	703.41
653.929	703.48
654.341	705.44
654.753	696.61
655.165	699.65
655.577	696.4
655.989	692.42
656.401	685.95
656.813	661.11
657.224	647.69
657.636	627.35
658.047	614.81
658.459	599.54
658.87	592.56
659.282	583.89
659.693	570.61
660.104	561.2
660.515	551.09
660.926	549.24
661.338	546.63
661.749	541.6
662.159	535.21
662.57	531.16
662.981	528.24
663.392	522.59
663.803	525.02
664.213	521.96
664.624	518.44
665.035	520.43
665.445	510.91
665.855	506.33
666.266	501.71
666.676	501.09
667.086	495.13
667.497	496.33
667.907	494
668.317	489.41
668.727	490.25
669.137	491.11
669.547	489.77
669.956	491.98
670.366	494.59
670.776	496.44
671.186	498.61
671.595	502.99
672.005	504.72
672.414	505.58
672.824	504.87
673.233	506.14
673.642	508.47
674.052	511.54
674.461	515.31
674.87	518.36
675.279	517.52
675.688	518.98
676.097	520.38
676.506	519.78
676.915	529.74
677.323	532.45
677.732	532.98
678.141	533.6
678.549	527.96
678.958	527.05
679.366	527.46
679.775	532.27
680.183	542.66
680.592	548.4
681	553.37
681.408	548.87
681.816	555.55
682.224	562.02
682.632	571.13
683.04	592.59
683.448	611.03
683.856	634.74
684.264	659.86
684.671	680.87
685.079	708.93
685.487	740.94
685.894	786.63
686.302	822.57
686.709	855.12
687.116	892.34
687.524	925.3
687.931	953.3
688.338	979.09
688.745	1001.87
689.152	1031.23
689.559	1067.86
689.966	1105.45
690.373	1126.54
690.78	1164.3
691.187	1217.79
691.593	1260.86
692	1299.72
692.407	1356.93
692.813	1425.69
693.22	1483.98
693.626	1542.36
694.032	1591.13
694.439	1661.97
694.845	1722.49
695.251	1796.01
695.657	1862.38
696.063	1957.17
696.469	2032.23
696.875	2103.32
697.281	2148.04
697.687	2200.79
698.093	2247.47
698.498	2326.63
698.904	2392.28
699.31	2483.92
699.715	2552.67
700.12	2648.56
700.526	2678.85
700.931	2753.65
701.337	2812.13
701.742	2854.55
702.147	2942.52
702.552	2984.06
702.957	3054.62
703.362	3082.93
703.767	3118.74
704.172	3166.7
704.577	3132.92
704.981	3186.16
705.386	3211.61
705.791	3214.02
706.195	3293.33
706.6	3311.39
707.004	3394.52
707.408	3369.38
707.813	3403.53
708.217	3400.35
708.621	3410.76
709.025	3512.18
709.43	3520.11
709.834	3586.68
710.237	3661.44
710.641	3654.22
711.045	3683.27
711.449	3684.42
711.853	3719.88
712.256	3768.39
712.66	3811.1
713.064	3890.5
713.467	3936.63
713.87	4054.02
714.274	4106.62
714.677	4222.36
715.08	4390.6
715.484	4565.6
715.887	4776.66
716.29	4983.98
716.693	5199.31
717.096	5449.36
717.499	5589.87
717.901	5627.8
718.304	5665.65
718.707	5698.61
719.109	5599.33
719.512	5573.83
719.915	5443.72
720.317	5391.54
720.719	5442.89
721.122	5421.22
721.524	5374.89
721.926	5337.94
722.328	5440.49
722.731	5433.95
723.133	5464.38
723.535	5669.02
723.937	5693.64
724.338	5750.43
724.74	5796.11
725.142	5733.32
725.544	5731.94
725.945	5761.39
726.347	5759.17
726.748	5757.19
727.15	5776.14
727.551	5739.31
727.952	5712.11
728.354	5684.08
728.755	5685.34
729.156	5642.94
729.557	5633.77
729.958	5507.91
730.359	5454.69
730.76	5437.42
731.161	5378.09
731.562	5352.16
731.962	5360.11
732.363	5294.93
732.763	5233.73
733.164	5270.59
733.564	5202.96
733.965	5104.64
734.365	5072.39
734.766	5102.01
735.166	5062.26
735.566	5007.42
735.966	4981.87
736.366	4976.01
736.766	4914.51
737.166	4946.91
737.566	4906.7
737.966	4881.51
738.365	4924.01
738.765	4918.83
739.165	4841.41
739.564	4816.52
739.964	4862.61
740.363	4815.14
740.763	4812.48
741.162	4801.44
741.561	4769.69
741.96	4722.9
742.36	4742.87
742.759	4747.93
743.158	4788.19
743.557	4806.17
743.955	4849.11
744.354	4803.39
744.753	4863.59
745.152	4821.65
745.55	4878.19
745.949	4869.72
746.348	4874.36
746.746	4893.06
747.144	4852.72
747.543	4830.24
747.941	4878.65
748.339	4804.92
748.737	4797.14
749.136	4789.97
749.534	4857.4
749.932	4828.6
750.33	4853.8
750.727	4908.12
751.125	4884.97
751.523	4868.52
751.921	4914.27
752.318	4880.97
752.716	4942.14
753.113	4954.59
753.511	4977.63
753.908	4975.75
754.305	4959.17
754.703	5022.85
755.1	5086.32
755.497	5148.59
755.894	5344.17
756.291	5525.6
756.688	5864.12
757.085	6315.45
757.482	6950.54
757.878	7645.62
758.275	8273.1
758.672	9137.34
759.068	9836.51
759.465	10836.72
759.861	12122.51
760.258	13623.03
760.654	14399.65
761.05	14280.59
761.447	13623.85
761.843	12685.95
762.239	11711.75
762.635	11274.01
763.031	10851.6
763.427	10248.14
763.822	9611.79
764.218	8982.33
764.614	8159.66
765.01	7609.85
765.405	7256.04
765.801	6988.03
766.196	6643.3
766.592	6453.88
766.987	6130.4
767.382	5911.8
767.778	5818.38
768.173	5683.87
768.568	5609.35
768.963	5481.89
769.358	5500.59
769.753	5452.65
770.148	5367.05
770.542	5365.59
770.937	5332.09
771.332	5424.82
771.726	5443.54
772.121	5377.71
772.515	5434.48
772.91	5420.64
773.304	5493.26
773.699	5424.78
774.093	5480.72
774.487	5536.92
774.881	5584.48
775.275	5580.4
775.669	5539.34
776.063	5582.06
776.457	5620.15
776.851	5544.08
777.245	5538.02
777.638	5573.76
778.032	5695.08
778.425	5657.37
778.819	5699.55
779.212	5652.91
779.606	5608.78
779.999	5631.88
780.392	5616.02
780.786	5702.96
781.179	5722.27
781.572	5764.62
781.965	5774.52
782.358	5715
782.751	5769.68
783.143	5722.44
783.536	5798.91
783.929	5845.93
784.322	5957.98
784.714	5991.19
785.107	5985.24
785.499	6062.76
785.891	6036.22
786.284	6021.35
786.676	6166.59
787.068	6148.04
787.46	6198.53
787.852	6219.11
788.245	6306.21
788.636	6338.05
789.028	6406.1
789.42	6447.34
789.812	6450.65
790.204	6551.01
790.595	6649.73
790.987	6446.64
791.378	6471.04
791.77	6606.54
792.161	6743.07
792.553	6800.9
792.944	6684.91
793.335	6614.06
793.726	6685.88
794.117	6781.12
794.508	6921.3
794.899	6892.86
795.29	7038.45
795.681	7097.32
796.072	6951.12
796.463	6762.31
796.853	6773.74
797.244	6937.77
797.634	6976.22
798.025	6977.01
798.415	6987.09
798.806	7081.58
799.196	7167.17
799.586	7223.28
799.976	7186.74
800.366	7424.89
800.756	7673.28
801.146	7631.36
801.536	7662.12
801.926	7736.73
802.316	7766.49
802.706	7845.95
803.095	7722.62
803.485	7829.36
803.874	7872.79
804.264	8141.36
804.653	8115.72
805.043	8266.96
805.432	8383.74
805.821	8384.51
806.21	8406.77
806.599	8533.97
806.988	8576.74
807.377	8685.79
807.766	8817.24
808.155	9107.73
808.544	8836.93
808.933	8854.7
809.321	8835.24
809.71	9141.66
810.098	9310.13
810.487	9784.93
810.875	10276.62
811.264	10307.52
811.652	10605.94
812.04	10762.69
812.428	10932.07
812.816	11720.59
813.204	12150.43
813.592	12713
813.98	13055.74
814.368	12958.3
814.756	13456.42
815.144	13367.28
815.531	13844.91
815.919	13772.17
816.306	14088.08
816.694	13768.33
817.081	13820.99
817.469	14175.68
817.856	14185.07
818.243	14463.08
818.63	14871.87
819.017	14442.19
819.404	14514.44
819.791	14910.92
820.178	15543.66
820.565	15803.27
820.952	16780.74
821.339	16278.36
821.725	16472.82
822.112	15701.49
822.498	15663.69
822.885	15796.21
823.271	15694.87
823.657	16129.75
824.044	16131.13
824.43	16214.15
824.816	16179.28
825.202	15717.03
825.588	16764.29
825.974	16782.43
826.36	17316.39
826.746	17345.16
827.132	17715.81
827.517	17693.89
827.903	16874.9
828.289	16913.47
828.674	16107.22
829.06	15994.67
829.445	16405.12
829.83	16770.86
830.216	17257.45
830.601	17632.42
830.986	17217.95
831.371	17075.69
831.756	17646.28
832.141	17205.18
832.526	17199.67
832.911	17482.36
833.295	17364.33
833.68	17845.74
834.065	17209.09
834.449	16265.02
834.834	16186
835.218	16170.57
835.603	16514.46
835.987	16296.5
836.371	17152.62
836.755	17044.56
837.139	17457.46
837.524	17701.17
837.908	17510.06
838.291	17566.47
838.675	17633.89
839.059	17843.23
839.443	17839.7
839.827	17602.14
840.21	18093.85
840.594	17941.28
840.977	18148.4
841.361	18121.86
841.744	18505.46
842.127	18351.91
842.511	18598.04
842.894	19209.79
843.277	19601.73
843.66	20150.46
844.043	20241.05
844.426	19412.76
844.809	19086.61
845.191	19119.78
845.574	18643.08
845.957	18263.32
846.339	18143.82
846.722	17606.97
847.104	17681.39
847.487	17501.08
847.869	17515.71
848.252	17793.31
848.634	18122.11
849.016	18393.21
849.398	18524.09
849.78	19396.7
850.162	19408.82
850.544	19837.87
850.926	20486.44
851.307	20399.21
851.689	20677.77
852.071	21139.36
852.452	21463.19
852.834	21454.82
853.215	21858.9
853.597	22011.31
853.978	22314.92
854.359	22778.45
854.741	21753.54
855.122	21648.68
855.503	21336.07
855.884	21483.44
856.265	21416.61
856.646	21539.99
857.026	21130.26
857.407	21059.43
857.788	21215.56
858.169	21504.49
858.549	20635.16
858.93	21271.59
859.31	21319.73
859.69	21545.08
860.071	21128
860.451	20904.68
860.831	20153.64
861.211	21339.34
861.591	21905.65
861.971	21878.91
862.351	22083.01
862.731	22485.08
863.111	22759.34
863.491	23094.95
863.87	23982.25
864.25	24349.19
864.629	23936.14
865.009	24452.09
865.388	25316.87
865.768	27131.27
866.147	27028.11
866.526	25533
866.905	25839.27
867.284	27287.02
867.663	25920.28
868.042	24835.22
868.421	24741.52
868.8	25166.83
869.179	25420.26
869.558	23943.73
869.936	22065.39
870.315	22461.56
870.693	23000.86
871.072	24804.42
871.45	23636.5
871.828	23938.36
872.207	25171.96
872.585	24793.81
872.963	25473.51
873.341	24587.95
873.719	24306.42
874.097	24025.29
874.475	24479.08
874.853	25044.58
875.23	23996.89
875.608	24992.49
875.986	27035.46
876.363	25853.7
876.741	26638.25
877.118	25949.72
877.495	27235.07
877.873	27674.24
878.25	29116.58
878.627	27939.28
879.004	28329.11
879.381	28195.84
879.758	27451.3
880.135	25548.21
880.512	27027.87
880.889	26320.1
881.265	26060.23
881.642	25836.59
882.019	26279.46
882.395	25744.48
882.772	26752.05
883.148	25585.59
883.524	25480.36
883.901	25340.3
884.277	25719.91
884.653	25549.41
885.029	26283.56
885.405	29100.8
885.781	28886.78
886.157	27684.63
886.532	28012.77
886.908	28006.7
887.284	31148.24
887.659	32155.37
888.035	33159.29
888.411	34005.62
888.786	34448.31
889.161	35623.08
889.537	34968.12
889.912	36070.15
890.287	36034.34
890.662	36959.66
891.037	36270.64
891.412	33810.74
891.787	33471.67
892.162	32291.17
892.536	33041.01
892.911	31785.1
893.286	31110.49
893.66	29841.23
894.035	30595.96
894.409	33325.85
894.784	31989.4
895.158	32517.6
895.532	34425.68
895.906	35357.16
896.281	36176.31
896.655	35600.97
897.029	40684.3
897.402	42375.44
897.776	47176.02
898.15	47007.23
898.524	46471
898.898	47075.41
899.271	52715.62
899.645	45667.03
900.018	43868.01
900.392	45480.34
900.765	45851.17
901.138	42448.14
901.511	41789.94
901.884	38355.4
902.258	35380.03
902.631	36591.17
903.003	42109.07
903.376	37998.74
903.749	42628.96
904.122	45634.3
904.495	50262.23
904.867	50879.59
905.24	44161.09
905.612	41126.63
905.985	42087.69
906.357	44026.51
906.729	41994.16
907.102	35865.93
907.474	34475.14
907.846	34681.54
908.218	34222.87
908.59	30253.86
908.962	29270.2
909.334	31539.52
909.705	33139.54
910.077	32162.02
910.449	33462.08
910.82	34405.59
911.192	37873.88
911.563	39365.15
911.935	42128.12
912.306	42202.51
912.677	43587.76
913.048	43146.75
913.419	46808.56
913.79	47077.82
914.161	50488.28
914.532	48278.05
914.903	44357.77
915.274	42131.27
915.645	41501.64
916.015	36536.15
916.386	34831.14
916.756	37057.75
917.127	38228.39
917.497	34143.07
917.868	37151.62
918.238	35296.94
918.608	36310.6
918.978	37058.86
919.348	39244.02
919.718	40556.99
920.088	39075.1
920.458	40595.84
920.828	42735.49
921.198	40503.68
921.567	43281.19
921.937	33522.56
922.306	33861.39
922.676	36524.35
923.045	30483.05
923.415	28959.43
923.784	26385.72
924.153	27123.37
924.522	27106.14
924.891	25477.71
925.26	27306.85
925.629	26653.61
925.998	30646.82
926.367	29911.52
926.736	28469.49
927.104	33907.53
927.473	36457.05
927.842	44027.47
928.21	43621.31
928.578	45863.71
928.947	43392.94
929.315	43645.34
929.683	51194.73
930.051	51605.39
930.42	59939.64
930.788	51236.84
931.156	50860.42
931.523	47664.31
931.891	44044.58
932.259	42298.79
932.627	49004.66
932.994	69315.3
933.362	57282.22
933.729	49724.93
934.097	47569.94
934.464	40211.55
934.831	46380.51
935.199	45700.42
935.566	44328.74
935.933	45005.32
936.3	54489.24
936.667	42385.93
937.034	38223.22
937.401	37796.47
937.767	32623.92
938.134	29062.62
938.501	41041.06
938.867	43780.61
939.234	74055.72
939.6	63234.79
939.967	69479.11
940.333	46540.48
940.699	39667.37
941.065	31852.28
941.431	41787.81
941.798	40354.3
942.163	53002.88
942.529	33121
942.895	30490.75
943.261	19724.76
943.627	25883.45
943.992	22675.45
944.358	22718.09
944.723	22791.97
945.089	22231.5
945.454	20559.53
945.82	21948
946.185	21094.64
946.55	24429.88
946.915	21932.73
947.28	25746.26
947.645	22666.14
948.01	20948.67
948.375	21843.84
948.74	26212.61
949.104	30549.42
949.469	44101.3
949.834	77905.27
950.198	73944.86
950.562	44358.9
950.927	36921.51
951.291	44394.62
951.655	37802.41
952.02	35442.27
952.384	26784.38
952.748	23344.92
953.112	22779
953.476	19825.88
953.839	18328.19
954.203	18114.18
954.567	22654.4
954.931	35709.71
955.294	30576.43
955.658	30758.37
956.021	52321.79
956.385	88818.78
956.748	130866.88
957.111	203037.43
957.474	227880.2
957.837	256738.8
958.2	194405.74
958.563	69935.48
958.926	47294.38
959.289	71700.23
959.652	80014.95
960.015	60051.51
960.377	86230.84
960.74	98371.76
961.102	169777.22
961.465	182165.12
961.827	97518.44
962.189	187091.22
962.552	129797.8
962.914	104007.04
963.276	67539.54
963.638	55865.28
964	55320.59
964.362	37369.64
964.724	36108.12
965.085	25743.48
965.447	21104.3
965.809	24059.48
966.17	24078.62
966.532	26015.59
966.893	23870.84
967.255	21712.3
967.616	25631.55
967.977	20548.05
968.338	22438.22
968.699	18460.25
969.061	18451.71
969.421	18585.11
969.782	20852.9
970.143	17605.32
970.504	18247.32
970.865	20743.33
971.225	21215.99
971.586	20753.4
971.946	29512.85
972.307	25595.03
972.667	33457.68
973.027	34434.76
973.388	41740.58
973.748	28383.81
974.108	30945.4
974.468	41841.03
974.828	32253.26
975.188	24821.57
975.548	22787.33
975.907	19165.16
976.267	21515.67
976.627	18071.05
976.986	18761.57
977.346	17890.4
977.705	17227.19
978.064	15686.42
978.424	13065.68
978.783	13523.52
979.142	15443.54
979.501	14784.74
979.86	15635.59
980.219	15044.94
980.578	19407.6
980.937	21722.43
981.296	19358.92
981.654	19896.09
982.013	30950.34
982.371	40115.7
982.73	37411.08
983.088	42296.61
983.447	45172.95
983.805	64497.33
984.163	135160.4
984.521	150163.17
984.879	220362.94
985.237	-358210.55
985.595	345499.05
985.953	85928.76
986.311	49661.34
986.669	28893.8
987.026	24969.64
987.384	33602.72
987.741	34768.38
988.099	24807.21
988.456	19723.71
988.814	18439.94
989.171	16043.92
989.528	15821.78
989.885	16675.01
990.242	13206.99
990.599	16442.84
990.956	13448.6
991.313	9395.55
991.67	7706.12
992.027	8163.12
992.383	7272.84
992.74	6381.64
993.096	6699.97
993.453	6940.97
993.809	7213.81
994.165	9597.24
994.522	8788.98
994.878	9666.6
995.234	12127.94
995.59	11945.65
995.946	11323.32
996.302	12915.05
996.658	14927.7
997.013	16436.59
997.369	19537.41
997.725	24991.67
998.08	16208.39
998.436	24976.03
998.791	34546.92
999.147	34500.49
999.502	37703.8
999.857	27394.02
1000.212	44595.67
1000.567	63429.88
1000.922	36600.91
1001.277	23248.88
1001.632	17271.83
1001.987	22271.22
1002.342	15993.84
1002.696	12769.67
1003.051	10194.07
1003.406	12353.53
1003.76	12280.11
1004.114	12099.47
1004.469	10204.13
1004.823	8457.87
1005.177	9143.17
1005.531	7241.07
1005.885	6411.28
1006.239	7222.24
1006.593	9057.31
1006.947	12110.7
1007.301	9067.28
1007.655	9902
1008.008	7264.45
1008.362	8150.31
1008.715	11599.48
1009.069	10519.15
1009.422	15819.45
1009.776	31744.87
1010.129	21112.61
1010.482	17687.77
1010.835	14972.57
1011.188	31262.44
1011.541	29460.82
1011.894	-180835.47
1012.247	532203.8
1012.6	36168.46
1012.952	22858.25
1013.305	11782.52
1013.657	8504.36
1014.01	8065.97
1014.362	6645.4
1014.715	5907.63
1015.067	5142.2
1015.419	5022.75
1015.771	4445.06
1016.123	3953.73
1016.475	4065.3
1016.827	4317.11
1017.179	4632.1
1017.531	4655.82
1017.883	4742.52
1018.234	4574.78
1018.586	5775.58
1018.938	6104.44
1019.289	8421.62
1019.64	9632.13
1019.992	8925.61
1020.343	8188.94
1020.694	6489.08
1021.045	5717.17
1021.396	6540.38
1021.747	7010.9
1022.098	8422.36
1022.449	6114.85
1022.8	5692.58
1023.151	3967.05
1023.501	3538.31
1023.852	3861.92
1024.202	4000.32
1024.553	4384.13
1024.903	4313.82
1025.253	3706.23
1025.604	3343.6
1025.954	4147.99
1026.304	5034.88
1026.654	5860.55
1027.004	8592.84
1027.354	13717.27
1027.703	12943.14
1028.053	17018.84
1028.403	24917.92
1028.753	36115.96
1029.102	48976.64
1029.452	251777.67
1029.801	10880.31
1030.15	7055.69
1030.499	5989.02
897.758	2670.7
901.051	2631.11
904.343	2665.14
907.636	2665.84
910.928	2728.49
914.22	2638.05
917.511	2649.28
920.803	2709.45
924.094	2727.88
927.384	2705.48
930.675	2673.95
933.965	2627.68
937.255	2632.75
940.544	2601.1
943.834	2541.59
947.123	2487.61
950.411	2584.01
953.7	2554.34
956.988	2525.59
960.276	2469.29
963.563	2548.92
966.851	2541.35
970.138	2601.35
973.424	2596.52
976.711	2544.93
979.997	2678.17
983.283	2713.66
986.568	2619.04
989.853	2636.17
993.138	2663.79
996.423	2745.6
999.708	2686.06
1002.992	2750.92
1006.275	2584.03
1009.559	2630.53
1012.842	2747.53
1016.125	2675.68
1019.408	2653.91
1022.69	2742.09
1025.972	2760.49
1029.254	2734.31
1032.536	2666.15
1035.817	2692.27
1039.098	2638.13
1042.379	2783.04
1045.659	2780.48
1048.939	2714.5
1052.219	2738.84
1055.498	2748.97
1058.778	2736.05
1062.057	2719.19
1065.335	2738.71
1068.614	2761.6
1071.892	2742.67
1075.17	2816.35
1078.447	2806.31
1081.724	2797.09
1085.001	2831.58
1088.278	2806
1091.554	2821.59
1094.83	2814.4
1098.106	2843.71
1101.382	2890.91
1104.657	2888.64
1107.932	2885.52
1111.206	2849.82
1114.481	2807.48
1117.755	2809.75
1121.029	2790.29
1124.302	2842.53
1127.575	2793.02
1130.848	2779.47
1134.121	2741.74
1137.393	2690.89
1140.665	2754.84
1143.937	2731.41
1147.208	2690.55
1150.48	2729.57
1153.75	2717.33
1157.021	2749.71
1160.291	2720.4
1163.561	2765.58
1166.831	2756.43
1170.101	2787.5
1173.37	2760.6
1176.639	2706.32
1179.907	2766.73
1183.176	2772.23
1186.444	2779.07
1189.711	2807.37
1192.979	2819.21
1196.246	2775.26
1199.513	2792.23
1202.78	2788.42
1206.046	2799.41
1209.312	2824.25
1212.578	2850.53
1215.843	2799.02
1219.108	2773.39
1222.373	2799.78
1225.638	2762.58
1228.902	2746.32
1232.166	2708.73
1235.43	2693.57
1238.693	2718.77
1241.956	2715.1
1245.219	2758.4
1248.482	2748.79
1251.744	2745.47
1255.006	2896.68
1258.268	2849.85
1261.529	2793.37
1264.79	2800.35
1268.051	2906.57
1271.312	2922.88
1274.572	2883.48
1277.832	2873.01
1281.092	2860.43
1284.351	2833.39
1287.61	2810.55
1290.869	2726.93
1294.128	2701.23
1297.386	2792.43
1300.644	2779.38
1303.902	2793.14
1307.159	2648.05
1310.416	2706.8
1313.673	2730.51
1316.93	2715.59
1320.186	2763.43
1323.442	2806.53
1326.697	2793.59
1329.953	2786.05
1333.208	2809.95
1336.463	2791.25
1339.717	2729.33
1342.972	2868.53
1346.226	2842.98
1349.479	2775.07
1352.733	2747.34
1355.986	2768.79
1359.238	2744.96
1362.491	2750.85
1365.743	2753.33
1368.995	2745.61
1372.247	2759.33
1375.498	2785.95
1378.749	2799.28
1382	2755.93
1385.251	2809.65
1388.501	2769.76
1391.751	2752.99
1395	2727.95
1398.25	2757.93
1401.499	2763.71
1404.748	2692.55
1407.996	2682.59
1411.244	2667.02
1414.492	2647.2
1417.74	2624.57
1420.987	2634.75
1424.234	2694.82
1427.481	2674.29
1430.728	2731.02
1433.974	2705.69
1437.22	2722.15
1440.465	2723.04
1443.711	2686.37
1446.956	2721.34
1450.201	2710.98
1453.445	2758.53
1456.689	2736.66
1459.933	2748.69
1463.177	2783.06
1466.42	2753.78
1469.663	2735.39
1472.906	2731.04
1476.148	2807.29
1479.391	2766.83
1482.633	2736.87
1485.874	2745.95
1489.115	2730.17
1492.356	2737.27
1495.597	2712.31
1498.838	2714.74
1502.078	2683.64
1505.318	2631.92
1508.557	2674.18
1511.797	2650.05
1515.036	2720.3
1518.274	2710.09
1521.513	2683.71
1524.751	2706.9
1527.989	2717.72
1531.227	2730.97
1534.464	2727.21
1537.701	2747.24
1540.938	2766.28
1544.174	2717.4
1547.41	2715.25
1550.646	2756.5
1553.882	2791.85
1557.117	2843.57
1560.352	2858.62
1563.587	2816.87
1566.821	2775.14
1570.055	2810.68
1573.289	2781.34
1576.523	2857.95
1579.756	2868.34
1582.989	2885
1586.222	2845.88
1589.454	2886.17
1592.686	2858.22
1595.918	2884.4
1599.15	2872.06
1602.381	2950.59
1605.612	2902.27
1608.843	3001.1
1612.073	2913.05
1615.303	2894.93
1618.533	2890.03
1621.762	2891.41
1624.992	2877.93
1628.221	2865.91
1631.449	2849.6
1634.678	2905.28
1637.906	2858.37
1641.134	2898.77
1644.361	2852.46
1647.588	2842.03
1650.815	2858.47
1654.042	2834.66
1657.269	2866.13
1660.495	2817.29
1663.72	2839.66
1666.946	2802.67
1670.171	2747.75
1673.396	2721.02
1676.621	2708.74
1679.845	2728.75
1683.069	2748.6
1686.293	2792.23
1689.517	2761.87
1692.74	2689.86
1695.963	2720.43
1699.185	2735.79
1702.408	2707.94
1705.63	2751.15
1708.852	2762.72
1712.073	2735.62
1715.294	2721.31
1718.515	2780.99
1721.736	2727.5
1724.956	2724.09
1728.176	2751.04
1731.396	2773.25
1734.616	2760.57
1737.835	2790.29
1741.054	2769.78
1744.272	2762.03
1747.491	2792.89
1750.709	2849.36
1753.927	2753.88
1757.144	2800.01
1760.361	2842.17
1763.578	2833.26
1766.795	2775.81
1770.011	2779.51
1773.227	2821.39
1776.443	2855.99
1779.658	2903.86
1782.874	2845.66
1786.089	2822.15
1789.303	2826.11
1792.518	2828.67
1795.732	2816.64
1798.945	2829.3
1802.159	2876.49
1805.372	2783.19
1808.585	2767.65
1811.797	2768.54
1815.01	2815.66
1818.222	2819.01
1821.434	2791.17
1824.645	2848.74
1827.856	2836.39
1831.067	2873.32
1834.278	2828.55
1837.488	2812.79
1840.698	2961.65
1843.908	2886.05
1847.117	2847.85
1850.326	2732.33
1853.535	2837.29
1856.744	2862.35
1859.952	2776.37
1863.16	2779.57
1866.368	2800.86
1869.575	2903.57
1872.782	2787.47
1875.989	2724.68
1879.196	2813.67
1882.402	2804.01
1885.608	2844.34
1888.814	2743.04
1892.019	2638
1895.224	2690.89
1898.429	2669.19
1901.634	2645.65
1904.838	2623.4
1908.042	2672.99
1911.246	2679.33
1914.449	2604.78
1917.652	2605.75
1920.855	2586.72
1924.058	2638.36
1927.26	2672.57
1930.462	2701.72
1933.664	2727.68
1936.865	2666.21
1940.066	2674.1
1943.267	2619.81
1946.467	2638.17
1949.668	2663.71
1952.868	2733.76
1956.067	2711.39
1959.267	2643.96
1962.466	2672.55
1965.665	2656.15
1968.863	2652.62
1972.061	2664.95
1975.259	2663.67
1978.457	2746.37
1981.654	2702.31
1984.852	2703.58
1988.048	2632.76
1991.245	2637.85
1994.441	2721.13
1997.637	2707.79
2000.833	2688.07
2004.028	2725.19
2007.223	2781.75
2010.418	2757.96
2013.613	2719.47
2016.807	2690.49
2020.001	2697.64
2023.194	2742.05
2026.388	2720.06
2029.581	2664.8
2032.774	2714.75
2035.966	2720.68
2039.158	2653.04
2042.35	2680.71
2045.542	2609.26
2048.733	2710.42
2051.924	2732.13
2055.115	2764.19
2058.306	2706.36
2061.496	2763.88
2064.686	2830.68
2067.875	2742.03
2071.065	2757.54
2074.254	2785.1
2077.442	2737.13
2080.631	2825.22
2083.819	2714.59
2087.007	2701.57
2090.195	2668.37
2093.382	2704.25
2096.569	2682.89
2099.756	2634.63
2102.942	2660.92
2106.128	2665.54
2109.314	2657.62
2112.5	2619.53
2115.685	2594.55
2118.87	2605.06
2122.055	2666.89
2125.239	2634
2128.424	2605.07
2131.608	2709.77
2134.791	2693.01
2137.974	2750.95
2141.157	2738.38
2144.34	2687.48
2147.523	2701.64
2150.705	2717.75
2153.887	2698.15
2157.068	2646.02
2160.25	2648.93
2163.431	2688.72
2166.611	2632.1
2169.792	2647.95
2172.972	2541.51
2176.152	2621.02
2179.331	2657.1
2182.511	2638.98
2185.69	2667.99
2188.868	2659.7
2192.047	2718.24
2195.225	2706.73
2198.403	2659.15
2201.58	2651.67
2204.758	2645.35
2207.935	2728.77
2211.111	2617.38
2214.288	2601.54
2217.464	2641.9
2220.64	2613.48
2223.815	2672.49
2226.991	2589.01
2230.166	2610.53
2233.34	2636.04
2236.515	2664.85
2239.689	2740.91
2242.863	2683.72
2246.036	2737.61
2249.209	2736.62
2252.382	2773.79
2255.555	2759.17
2258.727	2693.65
2261.9	2735.54
2265.071	2726.03
2268.243	2729.82
2271.414	2658.6
2274.585	2617.5
2277.756	2686.46
2280.926	2642.22
2284.096	2683.57
2287.266	2589.48
2290.436	2645.77
2293.605	2673.67
2296.774	2703.6
2299.942	2727.07
2303.111	2744.92
2306.279	2793.96
2309.447	2779.91
2312.614	2753.81
2315.781	2773.67
2318.948	2742.71
2322.115	2778.83
2325.281	2682.14
2328.447	2703.52
2331.613	2677.8
2334.779	2647.27
2337.944	2650.84
2341.109	2647.73
2344.274	2631.68
2347.438	2596.93
2350.602	2621.45
2353.766	2640.37
2356.929	2627.4
2360.092	2668.59
2363.255	2619.53
2366.418	2552.98
2369.58	2670.25
2372.742	2453.27
2375.904	2469.38
2379.066	2445.61
2382.227	2482.36
2385.388	2443.9
2388.548	2366.87
2391.709	2422.03
2394.869	2404.46
2398.029	2504.26
2401.188	2517.61
2404.347	2449.37
2407.506	2593
2410.665	2621.22
2413.823	2628.64
2416.981	2584.91
2420.139	2618.31
2423.296	2668.65
2426.453	2642.9
2429.61	2665.1
2432.767	2599.13
2435.923	2639.53
2439.079	2599.65
2442.235	2650.89
2445.391	2576.99
2448.546	2605.77
2451.701	2654.66
2454.855	2626.48
2458.009	2681.65
2461.163	2681.92
2464.317	2637.25
2467.471	2671.68
2470.624	2709.27
2473.777	2683.62
2476.929	2694.72
2480.082	2719.78
2483.234	2682.5
2486.385	2637.51
2489.537	2629.38
2492.688	2588.33
2495.839	2609.98
2498.989	2623.59
2502.14	2606.72
2505.29	2589.69
2508.439	2615.31
2511.589	2537.33
2514.738	2549.5
2517.887	2581.95
2521.035	2646.68
2524.183	2629.78
2527.331	2610.38
2530.479	2580.7
2533.627	2591.11
