Data from N_3_HIR_WI_4N_Splice17_13-11-53-412.txt Node
Date: Sat Mar 14 13:11:53 EDT 2020
User: sa697716
Spectrometer: FLMS03696
Trigger mode: 0
Integration Time (sec): 3.180400E-1
Scans to average: 20
Electric dark correction enabled: true
Nonlinearity correction enabled: true
Boxcar width: 5
XAxis mode: Wavelengths
Number of Pixels in Spectrum: 2048
>>>>>Begin Spectral Data<<<<<
187.83	-313024.93
188.298	2342.22
188.766	1228.16
189.233	1025.25
189.701	1422.38
190.169	2046.7
190.636	811.18
191.104	671.26
191.571	114.07
192.039	-73.52
192.506	-105.29
192.974	372.12
193.441	-645.47
193.908	-220.99
194.375	-107.13
194.842	-43.88
195.31	55.48
195.777	150.8
196.244	370.55
196.711	463.9
197.177	581.2
197.644	815.41
198.111	1421.69
198.578	2003.79
199.045	1622.4
199.511	2664.65
199.978	3110.47
200.445	2630.29
200.911	2914.93
201.378	3235.09
201.844	2937.33
202.31	5002.29
202.777	5271.42
203.243	2919.48
203.709	2797.16
204.176	3341.51
204.642	2744.05
205.108	2569.08
205.574	2119.24
206.04	1929.71
206.506	1818.23
206.972	1710.65
207.438	1664.9
207.903	1886.41
208.369	1657.12
208.835	1656.07
209.301	1729.32
209.766	1769.83
210.232	1750.47
210.697	2179.28
211.163	2722.56
211.628	4149.71
212.094	3530.62
212.559	4378.16
213.024	2727.96
213.49	3375.05
213.955	3335.84
214.42	3276.42
214.885	3076.81
215.35	2984.27
215.815	2904.57
216.28	3097.94
216.745	2557.7
217.21	2796.82
217.675	2622.65
218.14	3024.59
218.604	3463.1
219.069	4034.03
219.534	4323.06
219.998	5146.17
220.463	6346.14
220.927	7967.06
221.392	7617.29
221.856	7774.14
222.32	9925.79
222.785	12334.4
223.249	15652.06
223.713	17561.04
224.177	17653.18
224.642	22802.19
225.106	28127.84
225.57	30856.02
226.034	22917.92
226.497	34907.23
226.961	31554.9
227.425	36693.28
227.889	40782.82
228.353	40766.1
228.816	84177.65
229.28	80484.92
229.744	67784.63
230.207	41162.36
230.671	40489.67
231.134	67144.41
231.597	77469.68
232.061	77509.96
232.524	75707.09
232.987	52139.73
233.45	46912.24
233.914	42052.13
234.377	43125.24
234.84	39460.12
235.303	46535.26
235.766	51891.24
236.229	53521.53
236.691	33691.94
237.154	37808.07
237.617	28403.3
238.08	29078.47
238.542	34032.63
239.005	24336.48
239.468	24105.83
239.93	22711.32
240.393	20618.36
240.855	18090.58
241.317	18547.99
241.78	22559.04
242.242	23334.35
242.704	25167.85
243.166	21890.34
243.629	19842.98
244.091	22845.39
244.553	25045.71
245.015	26886.31
245.477	34785.98
245.939	51003.37
246.4	54057.68
246.862	52504.46
247.324	49448.45
247.786	55368.03
248.247	72583.52
248.709	74953.58
249.17	56036.36
249.632	52757.05
250.093	61084.24
250.555	52685.83
251.016	32080.08
251.477	30392.8
251.939	32776.29
252.4	34380.32
252.861	40837.65
253.322	37926.13
253.783	45128.31
254.244	58454.19
254.705	46071.08
255.166	40995.73
255.627	40343.89
256.088	56798.43
256.549	60266.91
257.009	51878.19
257.47	62924.21
257.931	51193.7
258.391	38344.47
258.852	39483.48
259.312	41419.02
259.773	51102.01
260.233	43161.24
260.694	36402.86
261.154	41320.59
261.614	33132.36
262.074	29621.41
262.534	30719.7
262.994	28937.54
263.455	38543.64
263.915	32478.91
264.374	30567.82
264.834	33367.71
265.294	36949.21
265.754	38228.66
266.214	36167.98
266.673	33893.15
267.133	42725.81
267.593	42383.42
268.052	51823.15
268.512	45014.18
268.971	54191
269.431	59328.95
269.89	53038.5
270.349	79436.31
270.809	88498.94
271.268	79405.64
271.727	177896.23
272.186	115089.7
272.645	86216.85
273.104	62148.89
273.563	89913.23
274.022	70628.81
274.481	60008.94
274.94	46197.55
275.399	34304.29
275.857	39903.73
276.316	53954.62
276.775	47912.26
277.233	47109.7
277.692	44031.78
278.15	49740.82
278.609	51052.37
279.067	47199.58
279.525	43793.73
279.984	56514.67
280.442	67810.5
280.9	66736.84
281.358	43828.74
281.816	40825.05
282.274	39938.02
282.732	41246.51
283.19	41413.31
283.648	35778.23
284.106	38077.68
284.564	38676.71
285.021	35807.97
285.479	26650.99
285.937	24239.22
286.394	21261.45
286.852	21869.83
287.309	22972.65
287.767	22190.97
288.224	21071.24
288.682	23093.37
289.139	25321.67
289.596	23158.81
290.053	24043.01
290.511	30330.54
290.968	36707.19
291.425	49799.3
291.882	41417.78
292.339	36043.79
292.796	35710.01
293.252	33632.23
293.709	26646.96
294.166	23868.06
294.623	26364.9
295.079	25291.33
295.536	25392.93
295.992	23046
296.449	22744.54
296.905	23590.6
297.362	22600.29
297.818	23771.37
298.274	24645.71
298.731	25120.76
299.187	24827.28
299.643	26626.42
300.099	32155.78
300.555	35229.53
301.011	29391.48
301.467	28287.86
301.923	33127.8
302.379	32302.19
302.835	31659.09
303.291	31644.61
303.746	35987.51
304.202	45453.04
304.658	45562.09
305.113	30628.29
305.569	29978.12
306.024	31950.69
306.479	30439.75
306.935	25605.15
307.39	27953.12
307.845	25826.36
308.301	25977.75
308.756	25267.99
309.211	24303.53
309.666	24905.01
310.121	30885.64
310.576	31352.06
311.031	31064.05
311.486	35508.88
311.94	35469.21
312.395	47333.75
312.85	88698.52
313.305	435168.69
313.759	2251460.09
314.214	162945.44
314.668	128800.9
315.123	108214.88
315.577	38763.65
316.032	34489.62
316.486	43196.66
316.94	34043.97
317.394	23718.62
317.849	18429.03
318.303	17457.56
318.757	16464
319.211	18197.75
319.665	15930.33
320.119	16118.15
320.572	23065.74
321.026	21543.58
321.48	17917.73
321.934	19545.84
322.387	19569.76
322.841	21135.56
323.295	18968.71
323.748	21848.46
324.202	22157.13
324.655	26602.2
325.108	37104.76
325.562	26187.95
326.015	31096.39
326.468	23470
326.921	26215.71
327.374	24394.18
327.827	25358.02
328.28	28653.43
328.733	19198.09
329.186	16851.13
329.639	16052.89
330.092	13512.6
330.545	12867.78
330.997	12963.93
331.45	14160.42
331.903	16568.53
332.355	28505.95
332.808	27713.4
333.26	22867.09
333.713	24765.87
334.165	24936.8
334.617	33229.55
335.069	26882.15
335.522	48566.62
335.974	53722.11
336.426	49009.44
336.878	33931.69
337.33	17189.49
337.782	16750.86
338.234	20957.02
338.686	25048.08
339.137	29646.89
339.589	27889.31
340.041	21827.4
340.493	18727.49
340.944	19135.31
341.396	20606.41
341.847	17323.41
342.299	20412.45
342.75	24887.89
343.201	21747.46
343.653	25022.44
344.104	30758.21
344.555	24226.57
345.006	37714.23
345.457	28846.07
345.908	22942.52
346.359	21577.54
346.81	17557.25
347.261	18501.36
347.712	18224.47
348.163	19520.76
348.613	19714.11
349.064	18369.27
349.515	16053.92
349.965	16421.06
350.416	19796.51
350.866	21716.37
351.317	24533.16
351.767	40585.66
352.217	51260.49
352.668	42422.69
353.118	38807.12
353.568	37397.43
354.018	29562.4
354.468	31173.51
354.918	22359.92
355.368	19540.98
355.818	27539.06
356.268	79234.11
356.718	331541.45
357.168	82432.8
357.617	41391.87
358.067	46046.42
358.517	43104.51
358.966	50494.05
359.416	56541.3
359.865	61144.47
360.315	72698.47
360.764	33923.13
361.213	18972.02
361.663	17923.9
362.112	22097.76
362.561	35680.74
363.01	26881.57
363.459	22622.24
363.908	24501.37
364.357	20802.45
364.806	35103.02
365.255	24131.8
365.703	22082.11
366.152	22090.61
366.601	17920.99
367.05	14544.62
367.498	13201.92
367.947	13781.23
368.395	14299.88
368.844	12629.12
369.292	15208.76
369.74	10491.52
370.189	16027.93
370.637	18753.25
371.085	16172.13
371.533	19661.7
371.981	18923.54
372.429	18026.26
372.877	18752.76
373.325	15698.46
373.773	16000.03
374.221	14215.42
374.669	17573.41
375.116	15206.34
375.564	15333.38
376.012	17108.6
376.459	14112.42
376.907	16836.62
377.354	20334.33
377.801	18971.63
378.249	21765.84
378.696	27739.97
379.143	33607.22
379.591	35906.28
380.038	60679.33
380.485	43751.51
380.932	47243.53
381.379	43163.56
381.826	31793.43
382.273	22579.17
382.72	19704.96
383.166	19180.1
383.613	12456.44
384.06	11232.46
384.506	12972.86
384.953	9526.03
385.4	9603.45
385.846	8408.66
386.292	8186.78
386.739	8001.67
387.185	7922.57
387.631	7931.4
388.078	7711.09
388.524	8242.25
388.97	7600.78
389.416	6335.75
389.862	6729.75
390.308	6371.85
390.754	6467
391.2	7008.79
391.645	7182.52
392.091	6865.25
392.537	6624.36
392.983	6630.76
393.428	6530.71
393.874	6998.61
394.319	7025.33
394.765	6662.2
395.21	6853.17
395.655	6426.79
396.101	6032.94
396.546	5435.15
396.991	5474.44
397.436	5084.71
397.881	4915.8
398.326	4638.23
398.771	4385.17
399.216	3825.09
399.661	3435.06
400.106	3414.52
400.551	3492.53
400.995	3118.75
401.44	3082.84
401.885	2895.42
402.329	2917.18
402.774	2788.99
403.218	2697.08
403.663	2592.59
404.107	2659.79
404.551	2682.93
404.995	2455.66
405.44	2357.97
405.884	2393.01
406.328	2304.01
406.772	2289.09
407.216	2080.85
407.66	2007.44
408.104	1903.93
408.547	1780.18
408.991	1721.56
409.435	1650.17
409.879	1623.63
410.322	1598.94
410.766	1544.28
411.209	1468.12
411.653	1408.46
412.096	1379.95
412.54	1375.71
412.983	1365.73
413.426	1368.3
413.869	1365.39
414.312	1337.61
414.756	1288.06
415.199	1227.42
415.642	1188.91
416.085	1191.49
416.527	1179.44
416.97	1192.79
417.413	1132.16
417.856	1116.06
418.298	1101.13
418.741	1092.03
419.184	1086.08
419.626	1129.44
420.069	1127.66
420.511	1131.15
420.953	1104.34
421.396	1093.69
421.838	1068.01
422.28	1091.29
422.722	1097.17
423.164	1111.57
423.606	1090.83
424.048	1092.27
424.49	1038.98
424.932	1035.62
425.374	1022.24
425.816	1036.63
426.258	1057.2
426.699	1066.03
427.141	1049.02
427.582	1062.31
428.024	1055.63
428.465	1048.89
428.907	1019.17
429.348	1005.46
429.789	1004.59
430.231	982.8
430.672	996.79
431.113	972.68
431.554	957.21
431.995	932.01
432.436	901.87
432.877	881.24
433.318	867.46
433.759	862.82
434.2	860.08
434.64	851.31
435.081	852.86
435.522	807.73
435.962	777.11
436.403	761.7
436.843	772.75
437.284	753.43
437.724	733.48
438.164	733.25
438.604	719.41
439.045	693.29
439.485	664.28
439.925	649.76
440.365	633.1
440.805	625.88
441.245	619.67
441.685	597.39
442.125	593
442.564	598.14
443.004	585.8
443.444	584.05
443.883	585.15
444.323	580.51
444.762	581.62
445.202	591.43
445.641	603.02
446.081	598.74
446.52	603.27
446.959	598.15
447.398	584.69
447.837	578.1
448.276	568.72
448.716	575.08
449.154	579.7
449.593	566.66
450.032	565.53
450.471	554.54
450.91	554.84
451.349	554.8
451.787	552.59
452.226	561.52
452.664	561.4
453.103	562.69
453.541	560.48
453.98	560.87
454.418	564.54
454.856	557.66
455.295	556.81
455.733	560.91
456.171	564.13
456.609	565.19
457.047	563.16
457.485	572.9
457.923	572.87
458.361	565.44
458.798	566.59
459.236	565.07
459.674	565.71
460.111	568.77
460.549	564.47
460.987	561.76
461.424	560.42
461.862	557.17
462.299	547.56
462.736	548.21
463.173	550.5
463.611	546.53
464.048	545.23
464.485	549.42
464.922	543.76
465.359	539.26
465.796	534.64
466.233	531.46
466.67	527.04
467.106	525.7
467.543	520.03
467.98	513.93
468.416	499.19
468.853	494.92
469.29	480.56
469.726	474.23
470.162	463.3
470.599	455.08
471.035	449.79
471.471	439.23
471.907	435.99
472.344	432.86
472.78	433.78
473.216	438.59
473.652	434.7
474.088	434.65
474.523	434.18
474.959	437.09
475.395	433.59
475.831	432.17
476.266	434.94
476.702	433.57
477.138	429.48
477.573	428.32
478.008	428.04
478.444	429.53
478.879	432.61
479.314	435.06
479.75	435.14
480.185	437.55
480.62	440.77
481.055	443.14
481.49	447.17
481.925	453.55
482.36	462.27
482.795	474.02
483.229	486.91
483.664	496.82
484.099	498.62
484.534	507.02
484.968	511.74
485.403	513.79
485.837	512.77
486.271	511.98
486.706	512.53
487.14	506.36
487.574	498.43
488.009	494.48
488.443	490.76
488.877	496.78
489.311	498.51
489.745	504.71
490.179	510.19
490.613	521.31
491.046	525.91
491.48	530.97
491.914	531.33
492.348	536.57
492.781	540.35
493.215	543.8
493.648	545.29
494.082	550.76
494.515	552.5
494.948	560.46
495.382	565.43
495.815	571.27
496.248	577.34
496.681	590.35
497.114	601.35
497.547	611.76
497.98	624.46
498.413	632.31
498.846	642.75
499.279	652.1
499.711	657.06
500.144	661.04
500.577	672.21
501.009	684.1
501.442	695.79
501.874	700.95
502.306	705.36
502.739	716.01
503.171	731.23
503.603	737.27
504.036	749.25
504.468	758.48
504.9	772.98
505.332	783.21
505.764	790.32
506.196	799.8
506.627	815.59
507.059	831.68
507.491	842.2
507.923	844.98
508.354	861.73
508.786	874.96
509.217	895.22
509.649	911.38
510.08	932
510.512	951.42
510.943	968.68
511.374	983.47
511.805	1005.41
512.237	1026.24
512.668	1059.34
513.099	1088.37
513.53	1117.84
513.961	1139.83
514.391	1173.71
514.822	1208.83
515.253	1245.61
515.684	1274.49
516.114	1306.7
516.545	1330.94
516.975	1360.39
517.406	1381.52
517.836	1387.07
518.267	1396.15
518.697	1417.27
519.127	1423.77
519.558	1432.71
519.988	1439.1
520.418	1450.57
520.848	1468.6
521.278	1478.63
521.708	1500.67
522.138	1515.33
522.567	1548.27
522.997	1575.99
523.427	1592.96
523.857	1612.84
524.286	1624.77
524.716	1642.01
525.145	1662.25
525.575	1675.65
526.004	1691.94
526.433	1684.31
526.863	1685.43
527.292	1678.08
527.721	1685.5
528.15	1691.58
528.579	1691.57
529.008	1703.68
529.437	1727.43
529.866	1742.47
530.295	1759.5
530.724	1772.87
531.152	1800.11
531.581	1815.02
532.01	1831.39
532.438	1839.37
532.867	1854.64
533.295	1875.18
533.723	1881.29
534.152	1878.61
534.58	1877.7
535.008	1862.62
535.436	1864.77
535.865	1873.36
536.293	1888.69
536.721	1905.65
537.149	1931.2
537.576	1933.85
538.004	1946.16
538.432	1954.89
538.86	1953.2
539.287	1961.17
539.715	1974.56
540.143	1977.29
540.57	1972.57
540.998	1966.8
541.425	1942.87
541.852	1920.7
542.28	1919.59
542.707	1902.43
543.134	1888.32
543.561	1884.94
543.988	1877.01
544.415	1876.47
544.842	1870.8
545.269	1864.54
545.696	1867.63
546.123	1880.9
546.549	1870.49
546.976	1857
547.403	1856.73
547.829	1857.85
548.256	1858.86
548.682	1856.43
549.108	1849.19
549.535	1849.26
549.961	1851.66
550.387	1838.73
550.813	1833.88
551.24	1841.2
551.666	1843.6
552.092	1835.62
552.518	1831.44
552.943	1826.61
553.369	1834.82
553.795	1841.92
554.221	1844.8
554.646	1842.78
555.072	1854.57
555.498	1861.34
555.923	1871.24
556.349	1886.12
556.774	1895.07
557.199	1896.72
557.625	1903.56
558.05	1897.82
558.475	1908.43
558.9	1906.64
559.325	1898.6
559.75	1891.08
560.175	1883.07
560.6	1875.7
561.025	1874.27
561.449	1874.89
561.874	1879.16
562.299	1883.98
562.723	1891.11
563.148	1881.35
563.572	1885.87
563.997	1895.15
564.421	1902.09
564.846	1902.36
565.27	1907.41
565.694	1905.01
566.118	1917.27
566.542	1924.59
566.966	1916.72
567.39	1911.17
567.814	1898.94
568.238	1896.48
568.662	1901.58
569.086	1903.6
569.509	1910.05
569.933	1891.75
570.357	1883.76
570.78	1860.13
571.204	1845.84
571.627	1834.17
572.05	1831.73
572.474	1830.59
572.897	1818.06
573.32	1808.61
573.743	1797.19
574.166	1777.89
574.589	1778.63
575.012	1769.16
575.435	1768.06
575.858	1758.87
576.281	1747.51
576.704	1730.16
577.126	1717.1
577.549	1704.83
577.972	1694.64
578.394	1683.37
578.817	1676.38
579.239	1656.99
579.661	1643.77
580.084	1628.18
580.506	1615.06
580.928	1611.12
581.35	1600.37
581.772	1595.64
582.194	1582.9
582.616	1569.41
583.038	1554.62
583.46	1544.13
583.882	1541.17
584.303	1545.06
584.725	1539.8
585.147	1541.55
585.568	1551.04
585.99	1563.31
586.411	1570.31
586.833	1584.66
587.254	1587
587.675	1601.91
588.096	1613.94
588.518	1607.96
588.939	1591.09
589.36	1589.62
589.781	1577.87
590.202	1549.24
590.623	1539.58
591.043	1536.31
591.464	1522.69
591.885	1518.38
592.305	1511.9
592.726	1498.98
593.147	1500.06
593.567	1493.51
593.987	1485.81
594.408	1480.86
594.828	1479.38
595.248	1472.88
595.669	1454.11
596.089	1447.89
596.509	1441.14
596.929	1427.51
597.349	1426.98
597.769	1416.91
598.189	1412.16
598.608	1412.95
599.028	1414.27
599.448	1414.07
599.867	1402.35
600.287	1398.87
600.706	1393.59
601.126	1383.69
601.545	1382.98
601.965	1380.89
602.384	1375.47
602.803	1377.12
603.222	1371.51
603.641	1364.22
604.061	1359.5
604.48	1354.71
604.898	1361.76
605.317	1365.96
605.736	1367.02
606.155	1362.61
606.574	1353.54
606.992	1357.69
607.411	1352.31
607.829	1343.23
608.248	1339.57
608.666	1337
609.085	1335.79
609.503	1326.04
609.921	1318.62
610.339	1319.82
610.758	1318.34
611.176	1313.03
611.594	1303.58
612.012	1298.14
612.43	1301.18
612.847	1307.1
613.265	1307.41
613.683	1309.83
614.101	1310.55
614.518	1306.15
614.936	1296.27
615.353	1281.61
615.771	1277.5
616.188	1277.34
616.606	1273.95
617.023	1266.84
617.44	1251.8
617.857	1243.71
618.274	1235.39
618.691	1227.59
619.108	1218.41
619.525	1210.83
619.942	1216.95
620.359	1217.36
620.776	1210.98
621.192	1207.01
621.609	1204.13
622.026	1210.02
622.442	1214.73
622.859	1217.07
623.275	1210.47
623.691	1214.27
624.108	1226.2
624.524	1238.73
624.94	1239.87
625.356	1248.78
625.772	1260.24
626.188	1270.25
626.604	1271.21
627.02	1266.72
627.436	1264.4
627.852	1271.11
628.268	1283.03
628.683	1273.12
629.099	1263.34
629.514	1258.41
629.93	1261.92
630.345	1266.11
630.761	1261.35
631.176	1264.76
631.591	1259.77
632.007	1253.58
632.422	1250.39
632.837	1238.26
633.252	1234.68
633.667	1225.25
634.082	1215.68
634.497	1202.56
634.911	1182.87
635.326	1178.55
635.741	1160.28
636.155	1149.36
636.57	1149.32
636.984	1148.17
637.399	1148.33
637.813	1145.91
638.228	1142.49
638.642	1144.12
639.056	1130.49
639.47	1127.44
639.884	1117.41
640.298	1108.63
640.712	1103.71
641.126	1088.35
641.54	1076.45
641.954	1069.17
642.368	1054.35
642.781	1045.57
643.195	1026.12
643.609	1025.79
644.022	1018.15
644.436	1010.82
644.849	997.68
645.262	985.8
645.676	985.72
646.089	979.48
646.502	963.57
646.915	957.5
647.328	938.99
647.741	936.05
648.154	922.48
648.567	918.46
648.98	906.81
649.393	906.05
649.805	901.18
650.218	892.39
650.631	877.36
651.043	870.51
651.456	864.62
651.868	864.78
652.28	877.82
652.693	888.08
653.105	892.68
653.517	898.63
653.929	896.51
654.341	899.25
654.753	886.82
655.165	890.68
655.577	887.29
655.989	881.46
656.401	872.26
656.813	840.86
657.224	821.46
657.636	794.07
658.047	777
658.459	758.71
658.87	748.61
659.282	736.2
659.693	715.81
660.104	700.46
660.515	686.38
660.926	682.15
661.338	675.21
661.749	665.6
662.159	656.18
662.57	649.37
662.981	643.63
663.392	634.19
663.803	635.23
664.213	630.17
664.624	624.55
665.035	623.43
665.445	609.84
665.855	603.44
666.266	596.61
666.676	592.5
667.086	583.83
667.497	580.85
667.907	575.26
668.317	565.82
668.727	564.13
669.137	563.33
669.547	560.72
669.956	561.66
670.366	561.38
670.776	562.8
671.186	565.18
671.595	567.03
672.005	568.38
672.414	567.72
672.824	567.45
673.233	568.21
673.642	568.82
674.052	571.65
674.461	573.99
674.87	576.87
675.279	575.8
675.688	576.57
676.097	579.29
676.506	577.45
676.915	589.05
677.323	591.39
677.732	591.48
678.141	592.64
678.549	585.31
678.958	585.63
679.366	587.06
679.775	591.39
680.183	602.17
680.592	607.87
681	614.64
681.408	611.21
681.816	620.71
682.224	629.76
682.632	641.42
683.04	668.99
683.448	691.38
683.856	719.71
684.264	752.15
684.671	782.9
685.079	821.59
685.487	864.37
685.894	922.62
686.302	969.81
686.709	1012.81
687.116	1062.93
687.524	1105.97
687.931	1146.76
688.338	1183.54
688.745	1215.55
689.152	1251.24
689.559	1295.55
689.966	1340.06
690.373	1365.24
690.78	1409.62
691.187	1474.12
691.593	1523.45
692	1567.67
692.407	1627.8
692.813	1703
693.22	1763.94
693.626	1824.04
694.032	1874.64
694.439	1950.93
694.845	2011.23
695.251	2085.81
695.657	2153.51
696.063	2250.56
696.469	2322.6
696.875	2392.07
697.281	2430.76
697.687	2478.22
698.093	2519.67
698.498	2596.46
698.904	2654.28
699.31	2741.81
699.715	2804.56
700.12	2894.83
700.526	2913.62
700.931	2983.67
701.337	3035.52
701.742	3070.93
702.147	3154.26
702.552	3185.81
702.957	3243.32
703.362	3263.55
703.767	3291.96
704.172	3332.73
704.577	3284.24
704.981	3334.64
705.386	3349.8
705.791	3341.68
706.195	3413.89
706.6	3422.65
707.004	3501.56
707.408	3471.25
707.813	3500.06
708.217	3490.67
708.621	3492.75
709.025	3589.9
709.43	3589.04
709.834	3650.7
710.237	3719.26
710.641	3704.38
711.045	3728
711.449	3721.01
711.853	3750.54
712.256	3790.51
712.66	3825.7
713.064	3899.18
713.467	3941.51
713.87	4053.01
714.274	4097.45
714.677	4209.58
715.08	4370.91
715.484	4536.03
715.887	4737.83
716.29	4934.32
716.693	5139.71
717.096	5374.66
717.499	5504.86
717.901	5531.16
718.304	5556.8
718.707	5579.18
719.109	5476.35
719.512	5443.18
719.915	5311.65
720.317	5255.58
720.719	5298.21
721.122	5269.72
721.524	5223.44
721.926	5182.17
722.328	5278.01
722.731	5267.62
723.133	5297.56
723.535	5485.37
723.937	5503.98
724.338	5552.5
724.74	5593.59
725.142	5536.76
725.544	5535.73
725.945	5562.19
726.347	5557.46
726.748	5550.8
727.15	5564.71
727.551	5528.68
727.952	5500.75
728.354	5471.13
728.755	5469.61
729.156	5426.75
729.557	5406.87
729.958	5282.65
730.359	5226.23
730.76	5205.86
731.161	5145.1
731.562	5121.06
731.962	5122.69
732.363	5059.71
732.763	4997.17
733.164	5033.36
733.564	4966.01
733.965	4874.11
734.365	4840.35
734.766	4868.09
735.166	4830.96
735.566	4779.99
735.966	4752.32
736.366	4746.62
736.766	4685.59
737.166	4717.2
737.566	4677.95
737.966	4654.96
738.365	4692.7
738.765	4687.63
739.165	4612.96
739.564	4587.05
739.964	4629.15
740.363	4583.14
740.763	4577.75
741.162	4567.23
741.561	4536.47
741.96	4491.41
742.36	4511.19
742.759	4514.04
743.158	4551.31
743.557	4565.34
743.955	4604.66
744.354	4561.33
744.753	4619.76
745.152	4582.37
745.55	4635.78
745.949	4629.42
746.348	4630.08
746.746	4643.31
747.144	4608.5
747.543	4585.52
747.941	4633.55
748.339	4565.02
748.737	4559.51
749.136	4550.9
749.534	4614.16
749.932	4588.66
750.33	4612.68
750.727	4665.23
751.125	4641.28
751.523	4624.72
751.921	4670.38
752.318	4636.59
752.716	4694.38
753.113	4706.4
753.511	4729.89
753.908	4728.2
754.305	4709.4
754.703	4765.45
755.1	4824.01
755.497	4882.72
755.894	5067.21
756.291	5239.95
756.688	5559.94
757.085	5984.81
757.482	6579.89
757.878	7233.81
758.275	7824.09
758.672	8636.94
759.068	9302.36
759.465	10251.88
759.861	11473.36
760.258	12888.78
760.654	13615.53
761.05	13507.88
761.447	12893.87
761.843	12012.39
762.239	11094.51
762.635	10686.06
763.031	10289.48
763.427	9714.15
763.822	9111.02
764.218	8511.46
764.614	7731.33
765.01	7214.05
765.405	6878.32
765.801	6625.89
766.196	6300.11
766.592	6119.03
766.987	5810.41
767.382	5604.09
767.778	5516.67
768.173	5389.62
768.568	5318.01
768.963	5199.7
769.358	5215.71
769.753	5170.98
770.148	5087.54
770.542	5086.53
770.937	5055.33
771.332	5144.16
771.726	5160.5
772.121	5101.05
772.515	5150.59
772.91	5140.59
773.304	5208.7
773.699	5142.98
774.093	5194.86
774.487	5248.99
774.881	5288.81
775.275	5284.35
775.669	5241.99
776.063	5287.29
776.457	5324.75
776.851	5253.6
777.245	5243.25
777.638	5274.77
778.032	5389.98
778.425	5356.08
778.819	5396.2
779.212	5354.19
779.606	5315.15
779.999	5336.82
780.392	5320.59
780.786	5399.36
781.179	5420.03
781.572	5462.61
781.965	5474.56
782.358	5418.02
782.751	5468.59
783.143	5421.32
783.536	5492.92
783.929	5534.04
784.322	5645.77
784.714	5674.53
785.107	5667.91
785.499	5737.05
785.891	5716.52
786.284	5696.64
786.676	5835.74
787.068	5820.11
787.46	5870.61
787.852	5890.58
788.245	5974.07
788.636	6002.69
789.028	6066.98
789.42	6106.8
789.812	6116.65
790.204	6212.46
790.595	6311.89
790.987	6117.9
791.378	6140.3
791.77	6266.28
792.161	6399.18
792.553	6454.34
792.944	6347.38
793.335	6285.54
793.726	6355.03
794.117	6444.84
794.508	6570.48
794.899	6542.52
795.29	6681.94
795.681	6737.92
796.072	6598.48
796.463	6418.25
796.853	6428.43
797.244	6579.08
797.634	6611.11
798.025	6610.22
798.415	6621.67
798.806	6712.23
799.196	6795.25
799.586	6846.43
799.976	6809.75
800.366	7039.22
800.756	7276.64
801.146	7239.56
801.536	7271.17
801.926	7342.24
802.316	7372.72
802.706	7440.95
803.095	7324.54
803.485	7425.67
803.874	7467.39
804.264	7725.54
804.653	7701.69
805.043	7841.15
805.432	7949.66
805.821	7953.65
806.21	7979.7
806.599	8093.88
806.988	8145.87
807.377	8251.65
807.766	8377.69
808.155	8654.33
808.544	8396.62
808.933	8407.08
809.321	8387.36
809.71	8676.82
810.098	8827.31
810.487	9277.42
810.875	9752.8
811.264	9770.08
811.652	10055.54
812.04	10201.43
812.428	10363.08
812.816	11107.93
813.204	11517.71
813.592	12061.72
813.98	12390.06
814.368	12303.14
814.756	12765.79
815.144	12679.99
815.531	13142.57
815.919	13071.81
816.306	13369.71
816.694	13067.36
817.081	13122.7
817.469	13472.87
817.856	13470.59
818.243	13736.72
818.63	14122.43
819.017	13719.42
819.404	13789.17
819.791	14158.33
820.178	14757.78
820.565	15000.53
820.952	15915.62
821.339	15428.76
821.725	15600.7
822.112	14875.95
822.498	14834.94
822.885	14961.09
823.271	14866.16
823.657	15275.72
824.044	15280.7
824.43	15354.89
824.816	15333.66
825.202	14911.7
825.588	15907.69
825.974	15917.59
826.36	16423.09
826.746	16457.53
827.132	16806.35
827.517	16783.44
827.903	16005.57
828.289	16045.79
828.674	15287.82
829.06	15182.01
829.445	15565.87
829.83	15920.11
830.216	16386.46
830.601	16743.18
830.986	16339.24
831.371	16197.88
831.756	16738.07
832.141	16320.94
832.526	16311.58
832.911	16579.18
833.295	16461.72
833.68	16910.67
834.065	16296.91
834.449	15402.71
834.834	15328.34
835.218	15322.9
835.603	15651.56
835.987	15446.09
836.371	16253.39
836.755	16152.66
837.139	16543.95
837.524	16773.5
837.908	16601.68
838.291	16656.58
838.675	16727.01
839.059	16929.85
839.443	16915.71
839.827	16697.63
840.21	17156.92
840.594	17005.46
840.977	17201.21
841.361	17175.27
841.744	17543.74
842.127	17384.37
842.511	17625.2
842.894	18201.45
843.277	18562.97
843.66	19087.07
844.043	19161.93
844.426	18383.84
844.809	18084.09
845.191	18109.37
845.574	17658.47
845.957	17299.2
846.339	17198.29
846.722	16684.16
847.104	16740.96
847.487	16572.51
847.869	16582.02
848.252	16848.81
848.634	17165.34
849.016	17423.95
849.398	17546.42
849.78	18373.2
850.162	18376.59
850.544	18780.91
850.926	19396.57
851.307	19321.79
851.689	19594.7
852.071	20040.16
852.452	20353.36
852.834	20328.26
853.215	20713.28
853.597	20859.27
853.978	21142.88
854.359	21579.17
854.741	20611.12
855.122	20505.35
855.503	20219.94
855.884	20347.47
856.265	20282.48
856.646	20391.49
857.026	20007.87
857.407	19939.48
857.788	20092.43
858.169	20361.44
858.549	19542.62
858.93	20142.81
859.31	20188.14
859.69	20390.18
860.071	19997.77
860.451	19791.02
860.831	19081.43
861.211	20210.33
861.591	20749.36
861.971	20728.49
862.351	20920.03
862.731	21307.56
863.111	21562.33
863.491	21893.03
863.87	22739.34
864.25	23074.61
864.629	22685.82
865.009	23177.92
865.388	24000.15
865.768	25711.43
866.147	25614.25
866.526	24202.86
866.905	24488.78
867.284	25862.43
867.663	24554.48
868.042	23530.98
868.421	23459.18
868.8	23840.89
869.179	24086.29
869.558	22680.2
869.936	20895.9
870.315	21263.9
870.693	21778.41
871.072	23472.08
871.45	22358.22
871.828	22630.13
872.207	23791.94
872.585	23431.85
872.963	24080.27
873.341	23242.44
873.719	22955.91
874.097	22692.98
874.475	23115.47
874.853	23645.15
875.23	22663.7
875.608	23619.33
875.986	25553.95
876.363	24457.74
876.741	25200.83
877.118	24562.73
877.495	25768.76
877.873	26215.59
878.25	27581.25
878.627	26473.38
879.004	26844.4
879.381	26719.46
879.758	26012.24
880.135	24216.07
880.512	25588.34
880.889	24906.68
881.265	24642.37
881.642	24434.2
882.019	24853.07
882.395	24338.47
882.772	25290.18
883.148	24194.52
883.524	24095.81
883.901	23958.39
884.277	24322.84
884.653	24164.18
885.029	24867.27
885.405	27542.13
885.781	27332.54
886.157	26190.55
886.532	26509.24
886.908	26494.72
887.284	29448.8
887.659	30408.86
888.035	31350.59
888.411	32159.44
888.786	32584.39
889.161	33697.52
889.537	33062.58
889.912	34110.35
890.287	34075.12
890.662	34955.02
891.037	34304.22
891.412	31982.83
891.787	31651.49
892.162	30539.73
892.536	31237.99
892.911	30064.56
893.286	29428.37
893.66	28241.43
894.035	28956.98
894.409	31531.28
894.784	30257.7
895.158	30768.46
895.532	32587.5
895.906	33471.17
896.281	34261.83
896.655	33718.3
897.029	38526.33
897.402	40117.74
897.776	44657.15
898.15	44502.16
898.524	44014.67
898.898	44602.91
899.271	49931.21
899.645	43255.69
900.018	41564.73
900.392	43086.58
900.765	43432.67
901.138	40184.21
901.511	39578.12
901.884	36338.51
902.258	33521.79
902.631	34639.13
903.003	39851.89
903.376	35975.91
903.749	40341.38
904.122	43161.89
904.495	47521.71
904.867	48125.59
905.24	41766.68
905.612	38869.8
905.985	39734.75
906.357	41518.87
906.729	39628.46
907.102	33855.47
907.474	32533.11
907.846	32713.95
908.218	32290.71
908.59	28536.5
908.962	27590
909.334	29723.95
909.705	31242.7
910.077	30342.08
910.449	31601.17
910.82	32493.15
911.192	35736.8
911.563	37146.35
911.935	39777.62
912.306	39828.58
912.677	41150.4
913.048	40746.58
913.419	44217.23
913.79	44459.55
914.161	47685.03
914.532	45577.48
914.903	41865.35
915.274	39803.2
915.645	39220.59
916.015	34529.04
916.386	32928.32
916.756	35047.39
917.127	36161.63
917.497	32316.18
917.868	35178.59
918.238	33438.28
918.608	34419.46
918.978	35157.21
919.348	37216.35
919.718	38448.56
920.088	37028.05
920.458	38477.31
920.828	40507.43
921.198	38424.04
921.567	41056.49
921.937	31802.64
922.306	32098.02
922.676	34608.25
923.045	28862.81
923.415	27416.51
923.784	24971.98
924.153	25691.81
924.522	25668.66
924.891	24120.26
925.26	25817.43
925.629	25196.83
925.998	28953.33
926.367	28272.75
926.736	26927.68
927.104	32080.16
927.473	34486.48
927.842	41666.09
928.21	41267.7
928.578	43374.26
928.947	40992.51
929.315	41254.62
929.683	48391.44
930.051	48811.59
930.42	56676.34
930.788	48446.9
931.156	48104.04
931.523	45101.07
931.891	41676.42
932.259	40013.75
932.627	46383.45
932.994	65707.1
933.362	54270.81
933.729	47136.59
934.097	45107.3
934.464	38180.16
934.831	44031.04
935.199	43395.17
935.566	42095.6
935.933	42575.24
936.3	51557.3
936.667	40118.27
937.034	36164.5
937.401	35800.25
937.767	30884.21
938.134	27469.75
938.501	38732.98
938.867	41324.23
939.234	69845.54
939.6	59547.45
939.967	65770.01
940.333	44034.29
940.699	37482.88
941.065	30064.67
941.431	39405.05
941.798	38011.49
942.163	49975.7
942.529	31235.67
942.895	28762.87
943.261	18604.94
943.627	24439.81
943.992	21394.68
944.358	21450.65
944.723	21571.49
945.089	21047.57
945.454	19441.03
945.82	20745.03
946.185	19912.98
946.55	23068.03
946.915	20690.59
947.28	24268.38
947.645	21381.92
948.01	19746.56
948.375	20577.03
948.74	24631.37
949.104	28726.33
949.469	41537
949.834	73438.69
950.198	69666.46
950.562	41742.46
950.927	34761.7
951.291	41870.85
951.655	35673.31
952.02	33460
952.384	25283.1
952.748	22017.02
953.112	21461.87
953.476	18640.4
953.839	17243.67
954.203	17077.21
954.567	21381.82
954.931	33659.94
955.294	28782.84
955.658	28904.53
956.021	49231.9
956.385	83557.42
956.748	123254.93
957.111	191270.04
957.474	214821.99
957.837	241886.6
958.2	182909.96
958.563	65701.95
958.926	44460.95
959.289	67498.24
959.652	75415.09
960.015	56577.82
960.377	81181.68
960.74	92758.78
961.102	160009.84
961.465	171806.34
961.827	92082.4
962.189	176703.82
962.552	122592.29
962.914	98140.66
963.276	63674.62
963.638	52643.69
964	52103.55
964.362	35209.33
964.724	33992.07
965.085	24250.06
965.447	19884.09
965.809	22631.81
966.17	22645.96
966.532	24497.01
966.893	22503.43
967.255	20487.34
967.616	24196.25
967.977	19371.46
968.338	21161.69
968.699	17397.95
969.061	17394.58
969.421	17507.43
969.782	19650.69
970.143	16622.55
970.504	17208.46
970.865	19551.42
971.225	19953
971.586	19529.25
971.946	27834.88
972.307	24134.57
972.667	31556.17
973.027	32492.93
973.388	39417.43
973.748	26811.26
974.108	29163.61
974.468	39450.71
974.828	30433.52
975.188	23460.66
975.548	21516.94
975.907	18077.72
976.267	20296.71
976.627	17056.97
976.986	17689.78
977.346	16844.52
977.705	16201.26
978.064	14764.88
978.424	12301.07
978.783	12715.78
979.142	14501.07
979.501	13879.24
979.86	14677.91
980.219	14138.5
980.578	18203.29
980.937	20368.87
981.296	18174.94
981.654	18700.01
982.013	29087.24
982.371	37726.42
982.73	35207.86
983.088	39905.27
983.447	42649.62
983.805	61003.17
984.163	127696.22
984.521	141891.26
984.879	208272.78
985.237	-338679.55
985.595	326694.73
985.953	81205.26
986.311	46867.09
986.669	27171.61
987.026	23442.13
987.384	31534.29
987.741	32546.84
988.099	23238.35
988.456	18532.04
988.814	17312.23
989.171	15059.4
989.528	14847.05
989.885	15671.02
990.242	12425.42
990.599	15524.7
990.956	12693.04
991.313	8866.88
991.67	7282.4
992.027	7715.27
992.383	6856.39
992.74	6019.87
993.096	6312.41
993.453	6548.96
993.809	6788.79
994.165	9043.75
994.522	8289.76
994.878	9123.13
995.234	11446.12
995.59	11278.14
995.946	10666.6
996.302	12162.59
996.658	14088.17
997.013	15497.04
997.369	18373.04
997.725	23519.68
998.08	15206.2
998.436	23417.12
998.791	32377.76
999.147	32357.89
999.502	35306.16
999.857	25672.34
1000.212	41768.1
1000.567	59249.35
1000.922	34244.32
1001.277	21774.93
1001.632	16191.83
1001.987	20902.4
1002.342	14986.2
1002.696	11980.45
1003.051	9574.24
1003.406	11608.56
1003.76	11561.7
1004.114	11412.99
1004.469	9631.82
1004.823	7971.86
1005.177	8597.01
1005.531	6794.12
1005.885	6029.52
1006.239	6815.05
1006.593	8544.93
1006.947	11421.16
1007.301	8560.26
1007.655	9318.87
1008.008	6854.98
1008.362	7708.36
1008.715	11028.01
1009.069	10033.24
1009.422	15129.75
1009.776	30339
1010.129	20122.17
1010.482	16833.51
1010.835	14231.45
1011.188	29669.18
1011.541	28023.33
1011.894	-170850.13
1012.247	501500.15
1012.6	34029.58
1012.952	21462.01
1013.305	11071.5
1013.657	7988.73
1014.01	7557.37
1014.362	6234.88
1014.715	5539.59
1015.067	4809.48
1015.419	4696.56
1015.771	4176.5
1016.123	3720.02
1016.475	3824.04
1016.827	4073.78
1017.179	4373.46
1017.531	4390.8
1017.883	4498.02
1018.234	4330.83
1018.586	5477.9
1018.938	5822.43
1019.289	8020.17
1019.64	9187.17
1019.992	8535.06
1020.343	7823.49
1020.694	6190.95
1021.045	5474.35
1021.396	6255.57
1021.747	6683.75
1022.098	8048.32
1022.449	5830.62
1022.8	5408.05
1023.151	3786.63
1023.501	3361.11
1023.852	3661.5
1024.202	3797.55
1024.553	4181.15
1024.903	4098.01
1025.253	3519.36
1025.604	3164.25
1025.954	3909.41
1026.304	4787.43
1026.654	5566.42
1027.004	8127.51
1027.354	13045.97
1027.703	12331.91
1028.053	16315.93
1028.403	23751.71
1028.753	34144.39
1029.102	46289.51
1029.452	238862.94
1029.801	10333.41
1030.15	6629.38
1030.499	5642.08
897.758	2755.42
901.051	2714.06
904.343	2748.19
907.636	2749.12
910.928	2813.85
914.22	2723.15
917.511	2732.35
920.803	2796.76
924.094	2819.66
927.384	2797.03
930.675	2758.73
933.965	2710.59
937.255	2717.58
940.544	2686.31
943.834	2614.04
947.123	2561.69
950.411	2656.53
953.7	2629.43
956.988	2597.47
960.276	2534.72
963.563	2621.13
966.851	2616.17
970.138	2676.27
973.424	2669.28
976.711	2618.14
979.997	2764.28
983.283	2795.16
986.568	2697.55
989.853	2717.6
993.138	2743.93
996.423	2830.96
999.708	2762.05
1002.992	2833.56
1006.275	2655.52
1009.559	2706.61
1012.842	2826.28
1016.125	2756.22
1019.408	2735.99
1022.69	2828.06
1025.972	2843.87
1029.254	2816.21
1032.536	2742.27
1035.817	2773.83
1039.098	2709.64
1042.379	2873.61
1045.659	2867.12
1048.939	2794.15
1052.219	2820.66
1055.498	2834.13
1058.778	2816.39
1062.057	2803
1065.335	2823.39
1068.614	2844.39
1071.892	2825.48
1075.17	2905.95
1078.447	2891.33
1081.724	2880.73
1085.001	2923
1088.278	2893.41
1091.554	2908.02
1094.83	2904.48
1098.106	2933.03
1101.382	2980.82
1104.657	2980.08
1107.932	2976.63
1111.206	2938.53
1114.481	2894.91
1117.755	2898.13
1121.029	2873.05
1124.302	2926.68
1127.575	2874.66
1130.848	2862.24
1134.121	2819.59
1137.393	2767.91
1140.665	2836.64
1143.937	2808.67
1147.208	2770.86
1150.48	2807.93
1153.75	2797.44
1157.021	2833.07
1160.291	2800.05
1163.561	2846.77
1166.831	2838.93
1170.101	2873.37
1173.37	2846.28
1176.639	2788.93
1179.907	2851.84
1183.176	2854.91
1186.444	2863.18
1189.711	2890.09
1192.979	2900.12
1196.246	2857.37
1199.513	2873.62
1202.78	2870.61
1206.046	2879.15
1209.312	2910.6
1212.578	2935.61
1215.843	2881.63
1219.108	2857.34
1222.373	2880.48
1225.638	2842.97
1228.902	2828.07
1232.166	2793.22
1235.43	2775.8
1238.693	2799.61
1241.956	2798.19
1245.219	2833.07
1248.482	2828.12
1251.744	2823.72
1255.006	2978.81
1258.268	2936.39
1261.529	2876.14
1264.79	2883.24
1268.051	2989.59
1271.312	3006.9
1274.572	2967.66
1277.832	2956.04
1281.092	2946.94
1284.351	2917.49
1287.61	2894.35
1290.869	2806.67
1294.128	2776.66
1297.386	2876.69
1300.644	2865.26
1303.902	2877.26
1307.159	2729.53
1310.416	2786.68
1313.673	2814.72
1316.93	2798.61
1320.186	2847.72
1323.442	2892.66
1326.697	2879.89
1329.953	2872.96
1333.208	2891.83
1336.463	2872.17
1339.717	2807.15
1342.972	2952.78
1346.226	2927.33
1349.479	2852.59
1352.733	2822.5
1355.986	2846.35
1359.238	2822.5
1362.491	2824.45
1365.743	2830.32
1368.995	2823.39
1372.247	2840.71
1375.498	2866.72
1378.749	2876.77
1382	2830.32
1385.251	2889.39
1388.501	2852.35
1391.751	2833.36
1395	2805.76
1398.25	2840.24
1401.499	2845.1
1404.748	2769.41
1407.996	2760.06
1411.244	2745.69
1414.492	2723.63
1417.74	2704.03
1420.987	2714.18
1424.234	2772.18
1427.481	2753.43
1430.728	2815.06
1433.974	2787.7
1437.22	2805.21
1440.465	2805.1
1443.711	2760.51
1446.956	2799.38
1450.201	2791.24
1453.445	2836.73
1456.689	2812.97
1459.933	2824.78
1463.177	2861.31
1466.42	2828.1
1469.663	2809.61
1472.906	2800.54
1476.148	2889.99
1479.391	2838.88
1482.633	2809.14
1485.874	2816.26
1489.115	2800.29
1492.356	2809.68
1495.597	2783.36
1498.838	2786.16
1502.078	2754.4
1505.318	2698.53
1508.557	2742.54
1511.797	2710.49
1515.036	2792.41
1518.274	2782.96
1521.513	2759.02
1524.751	2782.84
1527.989	2791.77
1531.227	2807.25
1534.464	2798.17
1537.701	2822
1540.938	2840.69
1544.174	2794.14
1547.41	2792.68
1550.646	2835.72
1553.882	2867.88
1557.117	2922.12
1560.352	2937.66
1563.587	2896.72
1566.821	2852.15
1570.055	2890.92
1573.289	2857.77
1576.523	2941.06
1579.756	2946.37
1582.989	2966.56
1586.222	2925.49
1589.454	2966.19
1592.686	2938.34
1595.918	2962.92
1599.15	2949.52
1602.381	3031.02
1605.612	2979.11
1608.843	3082.29
1612.073	2988.6
1615.303	2975.09
1618.533	2961.97
1621.762	2964.75
1624.992	2954.91
1628.221	2936.57
1631.449	2920.76
1634.678	2982.49
1637.906	2931.91
1641.134	2973.75
1644.361	2926.51
1647.588	2915.25
1650.815	2928.01
1654.042	2912.41
1657.269	2942.71
1660.495	2889.38
1663.72	2902.54
1666.946	2867.02
1670.171	2801.83
1673.396	2781.03
1676.621	2770.11
1679.845	2793.94
1683.069	2818.02
1686.293	2864.47
1689.517	2830.61
1692.74	2755.45
1695.963	2789.33
1699.185	2813.28
1702.408	2787.91
1705.63	2834.13
1708.852	2843.47
1712.073	2816.2
1715.294	2798.3
1718.515	2861.03
1721.736	2805.04
1724.956	2800.75
1728.176	2828.53
1731.396	2849.41
1734.616	2838.89
1737.835	2865.11
1741.054	2845.8
1744.272	2836.88
1747.491	2869.69
1750.709	2926.29
1753.927	2822.48
1757.144	2872.28
1760.361	2911.79
1763.578	2909.95
1766.795	2846.7
1770.011	2856.85
1773.227	2901.04
1776.443	2932.93
1779.658	2981.08
1782.874	2920.54
1786.089	2896.97
1789.303	2900.83
1792.518	2905.85
1795.732	2894.05
1798.945	2900.98
1802.159	2954.83
1805.372	2848.27
1808.585	2831.84
1811.797	2835.18
1815.01	2888.77
1818.222	2888.16
1821.434	2849.74
1824.645	2911.25
1827.856	2891.95
1831.067	2931.02
1834.278	2887.39
1837.488	2872.54
1840.698	3029.24
1843.908	2948.93
1847.117	2911
1850.326	2785.13
1853.535	2901.12
1856.744	2936.69
1859.952	2849.22
1863.16	2850.46
1866.368	2873.72
1869.575	2977.93
1872.782	2857.74
1875.989	2797.83
1879.196	2889.23
1882.402	2881.05
1885.608	2924.85
1888.814	2817.22
1892.019	2710.16
1895.224	2763.87
1898.429	2749.49
1901.634	2723.12
1904.838	2701.93
1908.042	2754.15
1911.246	2757.68
1914.449	2682.63
1917.652	2683.9
1920.855	2663.62
1924.058	2719.32
1927.26	2756.55
1930.462	2782.51
1933.664	2804
1936.865	2740.5
1940.066	2746.17
1943.267	2693.04
1946.467	2710.63
1949.668	2741.11
1952.868	2807.83
1956.067	2784.18
1959.267	2712.24
1962.466	2740.74
1965.665	2728.07
1968.863	2721.39
1972.061	2741.6
1975.259	2743.01
1978.457	2820.28
1981.654	2780.23
1984.852	2778.11
1988.048	2706.47
1991.245	2711.9
1994.441	2796.26
1997.637	2787.21
2000.833	2768.24
2004.028	2810.79
2007.223	2862.18
2010.418	2838.51
2013.613	2803.75
2016.807	2767.15
2020.001	2777.01
2023.194	2824.53
2026.388	2800.38
2029.581	2748.35
2032.774	2794.31
2035.966	2799.71
2039.158	2728.67
2042.35	2756.92
2045.542	2682.38
2048.733	2787.42
2051.924	2814.32
2055.115	2847.54
2058.306	2787.06
2061.496	2847.43
2064.686	2915.39
2067.875	2827.52
2071.065	2844.17
2074.254	2872.9
2077.442	2824.79
2080.631	2917.11
2083.819	2799.59
2087.007	2782.79
2090.195	2746.82
2093.382	2785.58
2096.569	2764.64
2099.756	2713.59
2102.942	2738.24
2106.128	2741.71
2109.314	2735.38
2112.5	2694.16
2115.685	2671.23
2118.87	2682.82
2122.055	2747.15
2125.239	2712.98
2128.424	2683.76
2131.608	2794.73
2134.791	2774.87
2137.974	2837.23
2141.157	2821.55
2144.34	2767.46
2147.523	2786.01
2150.705	2798.64
2153.887	2781.15
2157.068	2727.91
2160.25	2731.42
2163.431	2772.01
2166.611	2714.9
2169.792	2731.75
2172.972	2618.76
2176.152	2703.09
2179.331	2740.73
2182.511	2721.31
2185.69	2750.49
2188.868	2740.38
2192.047	2802.92
2195.225	2789.82
2198.403	2740.05
2201.58	2731.32
2204.758	2727.36
2207.935	2814.77
2211.111	2697.49
2214.288	2680.19
2217.464	2719.62
2220.64	2692.57
2223.815	2751.55
2226.991	2667.87
2230.166	2688.72
2233.34	2716.64
2236.515	2747.76
2239.689	2821.86
2242.863	2764.95
2246.036	2819.77
2249.209	2826.11
2252.382	2862.77
2255.555	2846.87
2258.727	2779.7
2261.9	2820.29
2265.071	2813.7
2268.243	2816.57
2271.414	2739.62
2274.585	2698.77
2277.756	2764.61
2280.926	2724.94
2284.096	2765.43
2287.266	2667.95
2290.436	2730.04
2293.605	2759.75
2296.774	2788.97
2299.942	2812.03
2303.111	2826.81
2306.279	2878.53
2309.447	2863.96
2312.614	2842.18
2315.781	2859.17
2318.948	2825.54
2322.115	2866.16
2325.281	2762.83
2328.447	2787.14
2331.613	2763.45
2334.779	2732.52
2337.944	2740.34
2341.109	2735.5
2344.274	2717.61
2347.438	2681.57
2350.602	2707.8
2353.766	2726.94
2356.929	2711.03
2360.092	2753.25
2363.255	2701.69
2366.418	2627.95
2369.58	2750.95
2372.742	2518.31
2375.904	2538.6
2379.066	2513.57
2382.227	2550.66
2385.388	2511.29
2388.548	2433.63
2391.709	2492.02
2394.869	2472.92
2398.029	2576.84
2401.188	2597.04
2404.347	2523.93
2407.506	2679.64
2410.665	2705.28
2413.823	2714.26
2416.981	2667.78
2420.139	2702.56
2423.296	2753.97
2426.453	2727.88
2429.61	2750.32
2432.767	2679.64
2435.923	2713.61
2439.079	2675.09
2442.235	2726.62
2445.391	2650.62
2448.546	2678.75
2451.701	2732.59
2454.855	2700.35
2458.009	2758.36
2461.163	2762.21
2464.317	2720.01
2467.471	2755.01
2470.624	2796.94
2473.777	2767.55
2476.929	2783.44
2480.082	2810.74
2483.234	2771.59
2486.385	2726.08
2489.537	2717.29
2492.688	2674.42
2495.839	2691.87
2498.989	2701.56
2502.14	2686.38
2505.29	2665.21
2508.439	2696.59
2511.589	2611.62
2514.738	2626.58
2517.887	2658.77
2521.035	2720.52
2524.183	2708.41
2527.331	2685.39
2530.479	2655.71
2533.627	2668.5
