Data from N_3_DIV_IL_4N_Splice17_13-20-51-547.txt Node
Date: Sat Mar 14 13:20:51 EDT 2020
User: sa697716
Spectrometer: FLMS03696
Trigger mode: 0
Integration Time (sec): 3.180400E-1
Scans to average: 20
Electric dark correction enabled: true
Nonlinearity correction enabled: true
Boxcar width: 5
XAxis mode: Wavelengths
Number of Pixels in Spectrum: 2048
>>>>>Begin Spectral Data<<<<<
187.83	-382969.14
188.298	2823.55
188.766	1421.44
189.233	1254.97
189.701	1823.29
190.169	2580.17
190.636	994.51
191.104	841.73
191.571	190.29
192.039	-40.97
192.506	-42.47
192.974	436.99
193.441	-454.57
193.908	-123.95
194.375	-45.57
194.842	37.12
195.31	220.68
195.777	221.32
196.244	470.17
196.711	489.31
197.177	569.55
197.644	774.18
198.111	1331.8
198.578	1818.11
199.045	1441.31
199.511	2347.41
199.978	2731.03
200.445	2275.19
200.911	2503.42
201.378	2759.23
201.844	2512.38
202.31	4275.09
202.777	4483.68
203.243	2484.39
203.709	2363.09
204.176	2829.99
204.642	2325.39
205.108	2159.3
205.574	1776.09
206.04	1609.75
206.506	1505.12
206.972	1413.69
207.438	1365.42
207.903	1539.96
208.369	1357.56
208.835	1367.52
209.301	1429.98
209.766	1464.54
210.232	1457.5
210.697	1780.5
211.163	2179.09
211.628	3279.23
212.094	2762.85
212.559	3422.15
213.024	2120
213.49	2569.66
213.955	2483.31
214.42	2398.31
214.885	2215.15
215.35	2113.97
215.815	2062.39
216.28	2172.08
216.745	1724.4
217.21	1821.2
217.675	1601.98
218.14	1753.72
218.604	1873.86
219.069	2054.74
219.534	2109.7
219.998	2368.18
220.463	2760.07
220.927	3239.96
221.392	2973.27
221.856	2965.72
222.32	3638.23
222.785	4449.53
223.249	5526.1
223.713	6121.89
224.177	6074.46
224.642	7688.27
225.106	9372.14
225.57	10180.79
226.034	7585.64
226.497	11528.84
226.961	10402.7
227.425	12137.08
227.889	13401.14
228.353	13348.55
228.816	27387.58
229.28	26154.27
229.744	21992.49
230.207	13407.19
230.671	13212.09
231.134	21736.85
231.597	25124.18
232.061	25054.32
232.524	24291.79
232.987	16731.65
233.45	15080.43
233.914	13546.58
234.377	13869.29
234.84	12717.36
235.303	14960.83
235.766	16677.23
236.229	17229.27
236.691	10808.16
237.154	12121.72
237.617	9161.58
238.08	9388.15
238.542	11007.16
239.005	7872.68
239.468	7825.3
239.93	7369.02
240.393	6715.03
240.855	5919.55
241.317	6056.52
241.78	7373.15
242.242	7655.52
242.704	8295.94
243.166	7229.85
243.629	6591.11
244.091	7614.49
244.553	8357.32
245.015	9010.2
245.477	11642.83
245.939	17020.1
246.4	18091.25
246.862	17573.07
247.324	16553.73
247.786	18516.17
248.247	24263.72
248.709	24925.85
249.17	18680.64
249.632	17673.32
250.093	20566.4
250.555	17792.88
251.016	10884.97
251.477	10332.32
251.939	11186.49
252.4	11751.61
252.861	13956.29
253.322	13025.75
253.783	15524.38
254.244	20077.5
254.705	15760.38
255.166	13965.63
255.627	13717.6
256.088	19390.85
256.549	20614.65
257.009	17709.44
257.47	21457.84
257.931	17422.46
258.391	13031.48
258.852	13395.7
259.312	14036.74
259.773	17322.91
260.233	14641.55
260.694	12363.88
261.154	13934.91
261.614	11200.93
262.074	9993.14
262.534	10364.68
262.994	9755.25
263.455	12945.99
263.915	10902.56
264.374	10229.73
264.834	11162.05
265.294	12317.88
265.754	12728.39
266.214	12035.56
266.673	11240.53
267.133	14141.51
267.593	13992.12
268.052	17134.4
268.512	14843.65
268.971	17912.25
269.431	19665.58
269.89	17583.6
270.349	26358.01
270.809	29377.88
271.268	26394.2
271.727	59009.36
272.186	38190.97
272.645	28617.51
273.104	20571.88
273.563	29814.97
274.022	23379.7
274.481	19861.81
274.94	15290.04
275.399	11335.61
275.857	13164.38
276.316	17794.18
276.775	15821.88
277.233	15562.18
277.692	14591
278.15	16526.53
278.609	17030.05
279.067	15744.19
279.525	14640.46
279.984	18870.85
280.442	22681.84
280.9	22441.08
281.358	14754.91
281.816	13780.05
282.274	13513.2
282.732	13948.3
283.19	13992.7
283.648	12073.25
284.106	12859.23
284.564	13065.58
285.021	12148.76
285.479	9040.94
285.937	8187.4
286.394	7195.48
286.852	7396.58
287.309	7783.91
287.767	7537.09
288.224	7181.93
288.682	7873.64
289.139	8663.05
289.596	7944.03
290.053	8238.92
290.511	10403
290.968	12648.58
291.425	17121.41
291.882	14283.67
292.339	12433.14
292.796	12334.38
293.252	11622.52
293.709	9247.17
294.166	8291.34
294.623	9145.18
295.079	8775.72
295.536	8843.29
295.992	8029.11
296.449	7954.55
296.905	8260.45
297.362	7946.34
297.818	8329.25
298.274	8666.52
298.731	8827.78
299.187	8726.62
299.643	9368.99
300.099	11339.13
300.555	12432.02
301.011	10387.42
301.467	10052.74
301.923	11727.29
302.379	11443.51
302.835	11260.14
303.291	11249.97
303.746	12784.05
304.202	16144.37
304.658	16235.95
305.113	10918.73
305.569	10707.53
306.024	11395.72
306.479	10816.66
306.935	9181.67
307.39	10002.42
307.845	9260.86
308.301	9365.49
308.756	9125.91
309.211	8806.07
309.666	9027.88
310.121	11277.32
310.576	11448.88
311.031	11391.66
311.486	13046.01
311.94	13008.54
312.395	17458.52
312.85	32769.36
313.305	160186.35
313.759	838152.72
314.214	60950.69
314.668	48371.09
315.123	40702.91
315.577	14631.09
316.032	13049.48
316.486	16367.24
316.94	12956.91
317.394	9048.77
317.849	7060.5
318.303	6682.24
318.757	6292.62
319.211	6958.36
319.665	6088.34
320.119	6148.26
320.572	8806.12
321.026	8230.17
321.48	6854.38
321.934	7467.41
322.387	7492.68
322.841	8098.6
323.295	7353.51
323.748	8428.69
324.202	8530.77
324.655	10286.56
325.108	14485.39
325.562	10246.77
326.015	12182.56
326.468	9237.49
326.921	10321.52
327.374	9615.43
327.827	10017.38
328.28	11285.83
328.733	7594.44
329.186	6715.89
329.639	6398.08
330.092	5371.58
330.545	5126.35
330.997	5179.77
331.45	5670.72
331.903	6679.56
332.355	11480.96
332.808	11172.32
333.26	9232.28
333.713	10022.84
334.165	10058.64
334.617	13421.83
335.069	10822.56
335.522	19550.78
335.974	21654.32
336.426	19761.05
336.878	13640.01
337.33	6947.04
337.782	6779.06
338.234	8529.85
338.686	10189.72
339.137	12113.54
339.589	11408.38
340.041	8958.23
340.493	7710.91
340.944	7893.98
341.396	8528.89
341.847	7202.35
342.299	8520.76
342.75	10439.28
343.201	9070.97
343.653	10433.95
344.104	12777.62
344.555	10048.88
345.006	15550.97
345.457	11938.13
345.908	9492.21
346.359	8928.79
346.81	7257.79
347.261	7612.36
347.712	7484.29
348.163	8006.39
348.613	8168.22
349.064	7660.52
349.515	6698.37
349.965	6899.9
350.416	8291.85
350.866	9082.73
351.317	10216.87
351.767	16907.73
352.217	21288.17
352.668	17641.24
353.118	16193.32
353.568	15505.34
354.018	12261.68
354.468	12979.69
354.918	9329.26
355.368	8166.98
355.818	11538.42
356.268	33220.1
356.718	139578.04
357.168	34969.46
357.617	17536.24
358.067	19514.35
358.517	18376.01
358.966	21550.81
359.416	24272.31
359.865	26231.18
360.315	31223.21
360.764	14629.14
361.213	8242.25
361.663	7789.78
362.112	9586.03
362.561	15505.27
363.01	11680.09
363.459	9806.85
363.908	10583.86
364.357	8978.38
364.806	15119.89
365.255	10398.65
365.703	9559.2
366.152	9563.94
366.601	7749.83
367.05	6317.7
367.498	5740.41
367.947	5995.51
368.395	6229.13
368.844	5556.1
369.292	6676.36
369.74	4625.68
370.189	7056.72
370.637	8252.78
371.085	7102.52
371.533	8639.46
371.981	8285.54
372.429	7912.02
372.877	8238.22
373.325	6879.5
373.773	6963.56
374.221	6189.64
374.669	7653.19
375.116	6600.69
375.564	6641.37
376.012	7421.3
376.459	6126.16
376.907	7303.74
377.354	8793.41
377.801	8237.98
378.249	9493.93
378.696	12106.84
379.143	14652.96
379.591	15588.94
380.038	26552.94
380.485	19252.64
380.932	20753.48
381.379	18994.33
381.826	14054.27
382.273	10005.32
382.72	8684.6
383.166	8453.08
383.613	5485.66
384.06	4933.72
384.506	5696.79
384.953	4150.34
385.4	4134.91
385.846	3610.68
386.292	3500.43
386.739	3406.8
387.185	3343.14
387.631	3339.4
388.078	3249.69
388.524	3466.82
388.97	3189.42
389.416	2665.17
389.862	2837.53
390.308	2693.88
390.754	2739.73
391.2	2961.28
391.645	3014.76
392.091	2920.6
392.537	2827.54
392.983	2814.03
393.428	2793.63
393.874	2994.65
394.319	3018.06
394.765	2876.9
395.21	2958.72
395.655	2764.89
396.101	2592.45
396.546	2347.62
396.991	2353.68
397.436	2188.27
397.881	2111.78
398.326	1980.68
398.771	1890.86
399.216	1649.8
399.661	1482.18
400.106	1482.02
400.551	1531.39
400.995	1383.08
401.44	1375.86
401.885	1292.14
402.329	1306.52
402.774	1264.43
403.218	1246.89
403.663	1201.57
404.107	1238.14
404.551	1255.46
404.995	1151.54
405.44	1107.44
405.884	1126.2
406.328	1086.85
406.772	1087.24
407.216	996.16
407.66	960.88
408.104	901.4
408.547	843.91
408.991	822.37
409.435	793.53
409.879	787.4
410.322	781.78
410.766	758.96
411.209	727.88
411.653	701.87
412.096	695.62
412.54	699.37
412.983	702.54
413.426	711.6
413.869	711.65
414.312	703.76
414.756	679.66
415.199	649.83
415.642	636.32
416.085	641.26
416.527	639.3
416.97	648.96
417.413	618.55
417.856	611
418.298	604.56
418.741	600.72
419.184	597.68
419.626	620.98
420.069	623.92
420.511	628.85
420.953	617.3
421.396	613.94
421.838	598.56
422.28	612.92
422.722	619.99
423.164	630.35
423.606	622.94
424.048	623.28
424.49	598.75
424.932	597.83
425.374	586.44
425.816	595.08
426.258	605.82
426.699	614.37
427.141	608.7
427.582	616.48
428.024	613.52
428.465	607.83
428.907	594.26
429.348	585.55
429.789	585.57
430.231	577.89
430.672	586.99
431.113	574.12
431.554	565.18
431.995	550.08
432.436	535.09
432.877	525.44
433.318	520.83
433.759	517.87
434.2	519.16
434.64	515.15
435.081	516.56
435.522	492.41
435.962	475.57
436.403	467.8
436.843	474.05
437.284	461.35
437.724	446.43
438.164	447.15
438.604	439.31
439.045	427.27
439.485	413.02
439.925	403.98
440.365	393.86
440.805	389.38
441.245	386.47
441.685	374.79
442.125	371.72
442.564	376.53
443.004	367.85
443.444	367.55
443.883	366.94
444.323	362.01
444.762	361.84
445.202	366.97
445.641	377.94
446.081	375.73
446.52	379.58
446.959	379.28
447.398	373.1
447.837	371.94
448.276	367.39
448.716	372.67
449.154	376.49
449.593	371.78
450.032	372.71
450.471	364.7
450.91	364.91
451.349	366.88
451.787	365.8
452.226	371.02
452.664	370.55
453.103	371.08
453.541	369.82
453.98	372.62
454.418	374.8
454.856	370.31
455.295	370.67
455.733	374.66
456.171	375.43
456.609	375.73
457.047	375.91
457.485	383.62
457.923	385.53
458.361	380.83
458.798	380.88
459.236	379.73
459.674	381.84
460.111	383.5
460.549	380.51
460.987	379.52
461.424	377.71
461.862	375.86
462.299	368.93
462.736	367.75
463.173	368.06
463.611	367.23
464.048	366.95
464.485	369.92
464.922	366.03
465.359	362.6
465.796	364.82
466.233	364.3
466.67	363.11
467.106	364.69
467.543	361.18
467.98	357.26
468.416	345.68
468.853	342.28
469.29	331.7
469.726	328.52
470.162	320.61
470.599	310.77
471.035	306.36
471.471	298.18
471.907	294.28
472.344	292.97
472.78	294.79
473.216	298.19
473.652	295.86
474.088	295.96
474.523	295.48
474.959	298.08
475.395	295.47
475.831	295.25
476.266	297.87
476.702	297.15
477.138	294.28
477.573	293.25
478.008	293.26
478.444	295.82
478.879	300.03
479.314	302.46
479.75	302.47
480.185	303.89
480.62	306.34
481.055	307.29
481.49	310.39
481.925	315.02
482.36	322.55
482.795	331.24
483.229	338.59
483.664	345.37
484.099	345.77
484.534	352.69
484.968	357.63
485.403	359.31
485.837	358.73
486.271	357.99
486.706	359.16
487.14	354.42
487.574	350.49
488.009	348.53
488.443	345.63
488.877	351.2
489.311	352.46
489.745	357.82
490.179	363.04
490.613	373.59
491.046	378.39
491.48	383.11
491.914	386.18
492.348	390.68
492.781	395.47
493.215	398.97
493.648	401.45
494.082	407.83
494.515	410.49
494.948	419.02
495.382	423.31
495.815	429.71
496.248	437.24
496.681	448.21
497.114	458.29
497.547	469.31
497.98	482.91
498.413	492.68
498.846	503.86
499.279	514.57
499.711	521.09
500.144	527.64
500.577	540.5
501.009	552.71
501.442	565.49
501.874	573.05
502.306	579.94
502.739	592.09
503.171	607.99
503.603	615.88
504.036	628.94
504.468	639.46
504.9	653.15
505.332	663.49
505.764	672.79
506.196	682.95
506.627	699.24
507.059	715.65
507.491	726.96
507.923	731.19
508.354	749.46
508.786	763.82
509.217	784.02
509.649	802.27
510.08	823.61
510.512	842.65
510.943	861.32
511.374	877.33
511.805	899.49
512.237	920.6
512.668	952.68
513.099	980.13
513.53	1008
513.961	1030.37
514.391	1063.03
514.822	1097.72
515.253	1134.54
515.684	1161.54
516.114	1191
516.545	1213.26
516.975	1240.58
517.406	1260.75
517.836	1267.23
518.267	1277.45
518.697	1297.49
519.127	1305.88
519.558	1314.7
519.988	1321.07
520.418	1333.08
520.848	1351.75
521.278	1362.86
521.708	1393.43
522.138	1408.47
522.567	1438.5
522.997	1463.35
523.427	1479.28
523.857	1496.11
524.286	1507.85
524.716	1523.79
525.145	1542.95
525.575	1555.56
526.004	1570.68
526.433	1555.82
526.863	1556.68
527.292	1550
527.721	1557.27
528.15	1564.78
528.579	1565.61
529.008	1576.78
529.437	1597.93
529.866	1611.06
530.295	1627.43
530.724	1639.5
531.152	1665.05
531.581	1679.18
532.01	1695.98
532.438	1703.75
532.867	1717.5
533.295	1735.66
533.723	1740.94
534.152	1739.79
534.58	1739.99
535.008	1725.04
535.436	1727.62
535.865	1735.71
536.293	1749.4
536.721	1763.89
537.149	1787.65
537.576	1789.87
538.004	1802.44
538.432	1809.19
538.86	1806.72
539.287	1814.46
539.715	1827.36
540.143	1829.88
540.57	1824.91
540.998	1821
541.425	1800.18
541.852	1780.72
542.28	1778.16
542.707	1762.42
543.134	1750.19
543.561	1747.2
543.988	1739.04
544.415	1738.8
544.842	1733.27
545.269	1726.88
545.696	1728.62
546.123	1740.48
546.549	1731.38
546.976	1720.54
547.403	1720.55
547.829	1722.72
548.256	1725
548.682	1723.6
549.108	1717.39
549.535	1718.57
549.961	1720.56
550.387	1708.92
550.813	1705.25
551.24	1712.05
551.666	1713.65
552.092	1705.76
552.518	1699.81
552.943	1694.95
553.369	1702.81
553.795	1709.06
554.221	1709.95
554.646	1708.66
555.072	1719.06
555.498	1723.81
555.923	1732.6
556.349	1747.49
556.774	1755.88
557.199	1759.69
557.625	1765.71
558.05	1760.44
558.475	1769.84
558.9	1770.26
559.325	1764.01
559.75	1760.18
560.175	1754.49
560.6	1748.43
561.025	1746.93
561.449	1747.99
561.874	1752.4
562.299	1758.11
562.723	1765.31
563.148	1757.07
563.572	1761.58
563.997	1770.46
564.421	1774.57
564.846	1774.32
565.27	1778.12
565.694	1775.94
566.118	1787.85
566.542	1796.22
566.966	1788.57
567.39	1782.62
567.814	1770.93
568.238	1768.6
568.662	1773.06
569.086	1775.15
569.509	1782.73
569.933	1768.6
570.357	1761.52
570.78	1739.79
571.204	1726.68
571.627	1716.98
572.05	1715.58
572.474	1716.24
572.897	1704.7
573.32	1697.26
573.743	1688.23
574.166	1670.33
574.589	1669.78
575.012	1662.22
575.435	1661.72
575.858	1653.13
576.281	1642.68
576.704	1627.03
577.126	1614.49
577.549	1604.58
577.972	1595.34
578.394	1585.31
578.817	1580.42
579.239	1561.76
579.661	1548.98
580.084	1535.23
580.506	1522.11
580.928	1518.27
581.35	1508.94
581.772	1505.62
582.194	1492.56
582.616	1480
583.038	1466.62
583.46	1455.21
583.882	1452.83
584.303	1457.16
584.725	1452.24
585.147	1454.81
585.568	1464.65
585.99	1475.82
586.411	1482.27
586.833	1495.86
587.254	1497.09
587.675	1510.34
588.096	1521.08
588.518	1515.71
588.939	1499.21
589.36	1497.13
589.781	1485.39
590.202	1458.38
590.623	1449.33
591.043	1445.24
591.464	1432.48
591.885	1428.14
592.305	1422.08
592.726	1409.32
593.147	1410.78
593.567	1405.83
593.987	1398.24
594.408	1393.08
594.828	1391.49
595.248	1386.63
595.669	1369.35
596.089	1361.96
596.509	1356.01
596.929	1343
597.349	1343.2
597.769	1332.88
598.189	1326.25
598.608	1327.54
599.028	1329.54
599.448	1327.9
599.867	1314.34
600.287	1309.62
600.706	1306.04
601.126	1296.69
601.545	1295.27
601.965	1294.38
602.384	1289.26
602.803	1292.36
603.222	1287.14
603.641	1280.05
604.061	1277.25
604.48	1273.84
604.898	1281.16
605.317	1285.69
605.736	1288.03
606.155	1284.99
606.574	1275
606.992	1279.87
607.411	1274.32
607.829	1266.25
608.248	1262.44
608.666	1258.76
609.085	1257.75
609.503	1249.51
609.921	1243.41
610.339	1243.59
610.758	1241.3
611.176	1236.97
611.594	1227.73
612.012	1224
612.43	1226.68
612.847	1232.82
613.265	1233.45
613.683	1236
614.101	1236.49
614.518	1231.95
614.936	1222.29
615.353	1208.52
615.771	1205.54
616.188	1204.89
616.606	1199.34
617.023	1191.08
617.44	1177.12
617.857	1169.48
618.274	1161.4
618.691	1155.73
619.108	1145.85
619.525	1138.46
619.942	1144.56
620.359	1145.24
620.776	1138.75
621.192	1135.38
621.609	1133.58
622.026	1138.73
622.442	1143.76
622.859	1145.77
623.275	1137.79
623.691	1142.56
624.108	1152.84
624.524	1164.63
624.94	1164.09
625.356	1172.88
625.772	1184.71
626.188	1195.09
626.604	1195.84
627.02	1191.21
627.436	1189.69
627.852	1195.9
628.268	1206.4
628.683	1198.38
629.099	1190.73
629.514	1185.67
629.93	1189.17
630.345	1191.51
630.761	1186.88
631.176	1189.72
631.591	1184.33
632.007	1176.67
632.422	1173.1
632.837	1160.81
633.252	1157.35
633.667	1145.76
634.082	1136.57
634.497	1122.75
634.911	1104.77
635.326	1098.63
635.741	1080.72
636.155	1069.6
636.57	1069.51
636.984	1066.89
637.399	1066.59
637.813	1063.25
638.228	1059.41
638.642	1059.46
639.056	1046.55
639.47	1043.07
639.884	1032.79
640.298	1023.67
640.712	1018.29
641.126	1002.73
641.54	990.93
641.954	980.75
642.368	964.73
642.781	955.66
643.195	936.65
643.609	933.59
644.022	922.83
644.436	914.69
644.849	900.39
645.262	885.64
645.676	882.36
646.089	875.14
646.502	860.72
646.915	853.47
647.328	834.63
647.741	830.46
648.154	816.61
648.567	813.11
648.98	800.68
649.393	798.36
649.805	793.86
650.218	787.28
650.631	773.14
651.043	766.41
651.456	760.69
651.868	760.59
652.28	771.58
652.693	780.78
653.105	783.35
653.517	787.37
653.929	786.31
654.341	789.41
654.753	777.54
655.165	780.17
655.577	776.28
655.989	770.67
656.401	760.84
656.813	731.07
657.224	712.52
657.636	688.22
658.047	673.62
658.459	656.31
658.87	643.59
659.282	630.44
659.693	612.02
660.104	597.3
660.515	582.19
660.926	575.44
661.338	568.12
661.749	558.62
662.159	547.86
662.57	538.87
662.981	530.53
663.392	522.17
663.803	520.66
664.213	513.63
664.624	505.74
665.035	503.25
665.445	490.21
665.855	481.78
666.266	473.41
666.676	467.13
667.086	457.28
667.497	452.7
667.907	445.62
668.317	436.47
668.727	433.39
669.137	430.11
669.547	425.62
669.956	425.43
670.366	423.86
670.776	422.61
671.186	423.15
671.595	424.61
672.005	424.3
672.414	423.85
672.824	421.7
673.233	419.79
673.642	420.34
674.052	422.26
674.461	423.32
674.87	425.39
675.279	425.44
675.688	425.62
676.097	426.58
676.506	426.45
676.915	433.73
677.323	436.88
677.732	437.72
678.141	438.73
678.549	434.29
678.958	434.93
679.366	436.87
679.775	441.28
680.183	452.5
680.592	458.67
681	464.39
681.408	465.4
681.816	474.61
682.224	485.39
682.632	498.81
683.04	523.95
683.448	547.15
683.856	575.36
684.264	607.46
684.671	637.13
685.079	674.2
685.487	718.19
685.894	772.37
686.302	821.34
686.709	867.35
687.116	918.88
687.524	966.16
687.931	1009.57
688.338	1048.93
688.745	1083.7
689.152	1123.51
689.559	1172.79
689.966	1220
690.373	1250.72
690.78	1295.68
691.187	1358.36
691.593	1407.83
692	1451.53
692.407	1512.94
692.813	1586.89
693.22	1646.17
693.626	1704.2
694.032	1754.2
694.439	1825.65
694.845	1881.36
695.251	1951.52
695.657	2013.48
696.063	2104.5
696.469	2173.62
696.875	2234.77
697.281	2269.86
697.687	2313.05
698.093	2350.76
698.498	2417
698.904	2467.25
699.31	2547.18
699.715	2603.36
700.12	2684.41
700.526	2698.7
700.931	2756.31
701.337	2801.96
701.742	2829.23
702.147	2902.57
702.552	2926.31
702.957	2977.88
703.362	2994.74
703.767	3016.71
704.172	3049.25
704.577	3001.73
704.981	3040.56
705.386	3054.01
705.791	3043.22
706.195	3107
706.6	3112.03
707.004	3181.41
707.408	3149.91
707.813	3170.41
708.217	3156.42
708.621	3154.64
709.025	3240.45
709.43	3239.91
709.834	3291.19
710.237	3350.55
710.641	3333.45
711.045	3350.95
711.449	3342.59
711.853	3367.7
712.256	3403.18
712.66	3434.28
713.064	3498.45
713.467	3532.18
713.87	3627.93
714.274	3663.73
714.677	3757.28
715.08	3896.82
715.484	4039.9
715.887	4215.04
716.29	4383.31
716.693	4561.03
717.096	4768.97
717.499	4879.14
717.901	4895.97
718.304	4914.08
718.707	4932.98
719.109	4841.08
719.512	4808.83
719.915	4688.05
720.317	4635.61
720.719	4671.66
721.122	4641.51
721.524	4594.54
721.926	4557.7
722.328	4642.03
722.731	4633.72
723.133	4656.22
723.535	4818.63
723.937	4835.43
724.338	4878.96
724.74	4912.85
725.142	4870.59
725.544	4866.72
725.945	4886.43
726.347	4878.06
726.748	4870.5
727.15	4878.33
727.551	4843.55
727.952	4816.69
728.354	4787.63
728.755	4786.39
729.156	4744.89
729.557	4717.42
729.958	4611.08
730.359	4561.75
730.76	4544.22
731.161	4492.11
731.562	4467.76
731.962	4468.99
732.363	4415.38
732.763	4359.35
733.164	4390.18
733.564	4332.61
733.965	4250.6
734.365	4220.79
734.766	4243.16
735.166	4210.13
735.566	4161.75
735.966	4142.1
736.366	4136.41
736.766	4083.08
737.166	4112.76
737.566	4076.8
737.966	4055.57
738.365	4088.11
738.765	4084.74
739.165	4023.06
739.564	3999.79
739.964	4037.82
740.363	3996.78
740.763	3992.92
741.162	3982.03
741.561	3953.19
741.96	3911.82
742.36	3926.79
742.759	3930.9
743.158	3961.16
743.557	3969.76
743.955	4003.77
744.354	3964.96
744.753	4013.47
745.152	3979.35
745.55	4024.7
745.949	4017.92
746.348	4020.01
746.746	4034.11
747.144	4000.79
747.543	3980.94
747.941	4022.07
748.339	3961.71
748.737	3956.6
749.136	3948.14
749.534	4000.97
749.932	3979.41
750.33	3997.41
750.727	4043.23
751.125	4021.92
751.523	4006.72
751.921	4043.6
752.318	4015.4
752.716	4065.12
753.113	4072.71
753.511	4093.29
753.908	4095.14
754.305	4081.21
754.703	4134.21
755.1	4184.61
755.497	4236.27
755.894	4395.01
756.291	4541.68
756.688	4816.62
757.085	5182.34
757.482	5703.59
757.878	6271.73
758.275	6782.76
758.672	7479
759.068	8049.28
759.465	8861.2
759.861	9909.92
760.258	11126.6
760.654	11764.95
761.05	11674.94
761.447	11148.67
761.843	10376.67
762.239	9581.39
762.635	9220.67
763.031	8883.13
763.427	8387.57
763.822	7872.81
764.218	7358.46
764.614	6693.29
765.01	6245.43
765.405	5956.63
765.801	5735.62
766.196	5454.36
766.592	5298.13
766.987	5035.18
767.382	4854.23
767.778	4783.4
768.173	4674.06
768.568	4612.19
768.963	4507.81
769.358	4524.59
769.753	4484.68
770.148	4413.23
770.542	4416.01
770.937	4389.46
771.332	4465.36
771.726	4482.01
772.121	4429.1
772.515	4474.86
772.91	4463.99
773.304	4522.77
773.699	4466.34
774.093	4511.95
774.487	4559.73
774.881	4593.51
775.275	4588.32
775.669	4552.4
776.063	4590.12
776.457	4618.73
776.851	4554.53
777.245	4547.73
777.638	4573.63
778.032	4668.99
778.425	4637.62
778.819	4670.88
779.212	4636
779.606	4603.97
779.999	4622.91
780.392	4608.77
780.786	4676.25
781.179	4695.35
781.572	4730.33
781.965	4743.79
782.358	4695.85
782.751	4741.56
783.143	4705.56
783.536	4767.35
783.929	4800.65
784.322	4896.05
784.714	4921.17
785.107	4915.04
785.499	4974.92
785.891	4956.6
786.284	4940.89
786.676	5059.57
787.068	5046.39
787.46	5085.31
787.852	5102.33
788.245	5176.88
788.636	5199.43
789.028	5258.48
789.42	5296.04
789.812	5303.1
790.204	5383.96
790.595	5469.19
790.987	5304.55
791.378	5322.82
791.77	5431.21
792.161	5542.45
792.553	5589.91
792.944	5495.89
793.335	5438.67
793.726	5501.66
794.117	5576.44
794.508	5694.74
794.899	5667.08
795.29	5787.17
795.681	5837.07
796.072	5724.25
796.463	5578.65
796.853	5589.3
797.244	5726.7
797.634	5753.33
798.025	5751.15
798.415	5766.04
798.806	5843.2
799.196	5917.3
799.586	5965.09
799.976	5934.41
800.366	6128.34
800.756	6321.77
801.146	6286.17
801.536	6311.84
801.926	6378.78
802.316	6403.82
802.706	6461.49
803.095	6357.77
803.485	6447.22
803.874	6475.91
804.264	6694.34
804.653	6672.66
805.043	6798.56
805.432	6893.3
805.821	6896.87
806.21	6913.71
806.599	7012.29
806.988	7051.28
807.377	7146.47
807.766	7252.56
808.155	7494.38
808.544	7273.06
808.933	7281.55
809.321	7266.02
809.71	7512.39
810.098	7644.08
810.487	8036.01
810.875	8440.42
811.264	8460.12
811.652	8701.77
812.04	8826.64
812.428	8962.31
812.816	9606.41
813.204	9967.88
813.592	10427.48
813.98	10717.14
814.368	10637.15
814.756	11043.44
815.144	10973.36
815.531	11367.28
815.919	11304.55
816.306	11557.47
816.694	11299.22
817.081	11338.35
817.469	11632.25
817.856	11632.74
818.243	11864.11
818.63	12195.75
819.017	11834.93
819.404	11888.36
819.791	12208.46
820.178	12728.08
820.565	12944.82
820.952	13740.56
821.339	13329.06
821.725	13474.23
822.112	12851.75
822.498	12809.65
822.885	12916.15
823.271	12837.96
823.657	13191.85
824.044	13194.82
824.43	13250.67
824.816	13224.76
825.202	12852.63
825.588	13712
825.974	13729.15
826.36	14159.74
826.746	14193.42
827.132	14491.86
827.517	14477.01
827.903	13812.95
828.289	13855.65
828.674	13199.56
829.06	13111.7
829.445	13447.65
829.83	13741.63
830.216	14145.51
830.601	14458.26
830.986	14114.57
831.371	14008.45
831.756	14483.97
832.141	14130.36
832.526	14118.99
832.911	14362.97
833.295	14263.64
833.68	14654.72
834.065	14137.7
834.449	13360.54
834.834	13302.53
835.218	13292.07
835.603	13577.21
835.987	13385.3
836.371	14083.52
836.755	13990.57
837.139	14321.95
837.524	14520.92
837.908	14367.09
838.291	14415.58
838.675	14470.07
839.059	14632.86
839.443	14618.31
839.827	14418.21
840.21	14817.9
840.594	14688.45
840.977	14863.64
841.361	14843.1
841.744	15159.03
842.127	15024.41
842.511	15225.26
842.894	15718.87
843.277	16035.83
843.66	16489.54
844.043	16547.62
844.426	15877.78
844.809	15612.31
845.191	15637.19
845.574	15246.67
845.957	14938.52
846.339	14853.67
846.722	14416.59
847.104	14480.46
847.487	14333
847.869	14336.42
848.252	14568.86
848.634	14834.56
849.016	15052.06
849.398	15153.46
849.78	15860.55
850.162	15861.61
850.544	16203.24
850.926	16715.33
851.307	16640.35
851.689	16864
852.071	17245.25
852.452	17520.4
852.834	17508.91
853.215	17845.12
853.597	17975.57
853.978	18229.56
854.359	18616.47
854.741	17780.06
855.122	17703.28
855.503	17460.11
855.884	17584.8
856.265	17535.06
856.646	17632.88
857.026	17302.56
857.407	17252.1
857.788	17374.86
858.169	17611.84
858.549	16890.25
858.93	17421.65
859.31	17464.06
859.69	17640.38
860.071	17298.12
860.451	17121.06
860.831	16503.96
861.211	17469.2
861.591	17921.54
861.971	17904.38
862.351	18060.36
862.731	18387.85
863.111	18599.11
863.491	18886.97
863.87	19619.18
864.25	19917.63
864.629	19591.39
865.009	20020.41
865.388	20744.38
865.768	22219.36
866.147	22140.69
866.526	20921.94
866.905	21191.64
867.284	22376.12
867.663	21237.27
868.042	20348.02
868.421	20281.2
868.8	20612.29
869.179	20817.56
869.558	19600.27
869.936	18080.13
870.315	18395.11
870.693	18847.66
871.072	20314.31
871.45	19356.8
871.828	19604.73
872.207	20621.83
872.585	20309.12
872.963	20867.35
873.341	20156.65
873.719	19929.28
874.097	19687.68
874.475	20068.54
874.853	20528.64
875.23	19672.4
875.608	20500.27
875.986	22175.61
876.363	21199.55
876.741	21855.3
877.118	21298.12
877.495	22349.46
877.873	22710.9
878.25	23899.83
878.627	22918.14
879.004	23223.66
879.381	23095.38
879.758	22484.64
880.135	20925.89
880.512	22128.52
880.889	21534.82
881.265	21307.37
881.642	21117.89
882.019	21475.36
882.395	21035.78
882.772	21876.27
883.148	20938.66
883.524	20869.95
883.901	20746.73
884.277	21060.17
884.653	20917.22
885.029	21515.86
885.405	23831.19
885.781	23638.01
886.157	22668.98
886.532	22939.82
886.908	22915.13
887.284	25465.26
887.659	26292.63
888.035	27106.08
888.411	27785.86
888.786	28149.39
889.161	29117.51
889.537	28573.27
889.912	29487.11
890.287	29432.62
890.662	30194.73
891.037	29642.9
891.412	27638.39
891.787	27353.61
892.162	26395.82
892.536	27011.74
892.911	26002.3
893.286	25445.96
893.66	24410.66
894.035	25025.19
894.409	27251.49
894.784	26144.98
895.158	26573.89
895.532	28143.33
895.906	28905.63
896.281	29580.91
896.655	29110.7
897.029	33266.58
897.402	34630.55
897.776	38553.89
898.15	38413.98
898.524	37981.83
898.898	38486.8
899.271	43104.77
899.645	37341.2
900.018	35856.29
900.392	37175.49
900.765	37475.09
901.138	34663.36
901.511	34137.93
901.884	31348.26
902.258	28927.29
902.631	29905.12
903.003	34417.52
903.376	31044.25
903.749	34807.12
904.122	37285.25
904.495	41069.5
904.867	41599.65
905.24	36126.82
905.612	33644.72
905.985	34402.61
906.357	35982.24
906.729	34359.41
907.102	29343.81
907.474	28235.12
907.846	28421.73
908.218	28043.92
908.59	24797.35
908.962	23977.08
909.334	25833.75
909.705	27152.5
910.077	26356.9
910.449	27443.06
910.82	28228.85
911.192	31076.78
911.563	32290.61
911.935	34553.78
912.306	34597.08
912.677	35715.04
913.048	35401.63
913.419	38409.97
913.79	38635.24
914.161	41468.24
914.532	39639.8
914.903	36409.51
915.274	34596.14
915.645	34089.53
916.015	30015.06
916.386	28614.17
916.756	30452.37
917.127	31406.23
917.497	28055.3
917.868	30544.26
918.238	29032.06
918.608	29869.57
918.978	30505.59
919.348	32290.68
919.718	33369.51
920.088	32131.9
920.458	33403.52
920.828	35144.34
921.198	33310.38
921.567	35611.97
921.937	27566.77
922.306	27815.98
922.676	29975.37
923.045	25002.66
923.415	23755.33
923.784	21651.29
924.153	22278.15
924.522	22253.67
924.891	20929.48
925.26	22417.86
925.629	21871.29
925.998	25153.96
926.367	24559.72
926.736	23395.69
927.104	27863.06
927.473	29961.42
927.842	36170.53
928.21	35813.81
928.578	37633.84
928.947	35570.96
929.315	35791.22
929.683	41983.91
930.051	42318.73
930.42	49150.88
930.788	42038.22
931.156	41698.61
931.523	39095.39
931.891	36097.35
932.259	34668.81
932.627	40181.9
932.994	56897.82
933.362	46987.43
933.729	40796.99
934.097	39040.29
934.464	33003.27
934.831	38038.46
935.199	37499.63
935.566	36361.69
935.933	36815.56
936.3	44577.9
936.667	34728.46
937.034	31352.04
937.401	31027.94
937.767	26766.99
938.134	23828.06
938.501	33615.92
938.867	35842.13
939.234	60658.59
939.6	51724.49
939.967	57087.49
940.333	38189.57
940.699	32498.72
941.065	26061.76
941.431	34198.96
941.798	33049.85
942.163	43399.33
942.529	27124.08
942.895	24993.14
943.261	16160.97
943.627	21201.63
943.992	18574.77
944.358	18643.22
944.723	18743.53
945.089	18261.82
945.454	16869.7
945.82	17976.86
946.185	17279.28
946.55	20009.97
946.915	17920.36
947.28	21030.98
947.645	18514.42
948.01	17090.76
948.375	17832.12
948.74	21318.32
949.104	24840.52
949.469	35926.63
949.834	63557.9
950.198	60335.84
950.562	36191.27
950.927	30155.83
951.291	36288.12
951.655	30936.9
952.02	29076.93
952.384	21994.32
952.748	19174.29
953.112	18731.68
953.476	16243.23
953.839	15019.19
954.203	14870.55
954.567	18597.19
954.931	29292.01
955.294	25066.67
955.658	25197.55
956.021	42836.69
956.385	72582.83
956.748	107199.88
957.111	166149.08
957.474	186696.76
957.837	210144.44
958.2	158902.2
958.563	57198.29
958.926	38692.07
959.289	58721.77
959.652	65670.65
960.015	49228.67
960.377	70650.92
960.74	80507.45
961.102	138958.41
961.465	149369.39
961.827	80150.59
962.189	153747.74
962.552	106492.7
962.914	85413.4
963.276	55382.7
963.638	45737.74
964	45361.67
964.362	30645.54
964.724	29626.72
965.085	21125.26
965.447	17316.8
965.809	19705.3
966.17	19733.88
966.532	21348.44
966.893	19572.49
967.255	17820.39
967.616	21053.02
967.977	16846.3
968.338	18407.4
968.699	15145.57
969.061	15150.38
969.421	15260.71
969.782	17126.58
970.143	14461.38
970.504	14997.86
970.865	17032.93
971.225	17403.81
971.586	17023.94
971.946	24276.23
972.307	21086.25
972.667	27551.86
973.027	28387.97
973.388	34365.74
973.748	23392.92
974.108	25483.37
974.468	34438.93
974.828	26631.13
975.188	20491.11
975.548	18821.56
975.907	15789.55
976.267	17685.27
976.627	14866.87
976.986	15380.62
977.346	14678.99
977.705	14110.51
978.064	12846.71
978.424	10688.36
978.783	11038.23
979.142	12603.96
979.501	12062.7
979.86	12752.5
980.219	12304.99
980.578	15869.66
980.937	17782.49
981.296	15852.4
981.654	16305.49
982.013	25381.84
982.371	33012.57
982.73	30831.83
983.088	34869.55
983.447	37164.41
983.805	53119.99
984.163	110911.56
984.521	123050.2
984.879	180399.88
985.237	-292935.02
985.595	282621.3
985.953	70200.49
986.311	40458.14
986.669	23471.72
987.026	20297.17
987.384	27302.31
987.741	28226.92
988.099	20199.38
988.456	16076.03
988.814	15057.82
989.171	13110.45
989.528	12933.98
989.885	13622.39
990.242	10788.05
990.599	13443.51
990.956	10989.26
991.313	7700.48
991.67	6325.89
992.027	6712.2
992.383	5973.53
992.74	5245.33
993.096	5500.77
993.453	5693.56
993.809	5920.41
994.165	7893.43
994.522	7250.24
994.878	8000.63
995.234	10028.76
995.59	9886.43
995.946	9331.72
996.302	10665.3
996.658	12297.71
997.013	13551.76
997.369	16102.23
997.725	20612.72
998.08	13381.95
998.436	20591.92
998.791	28370.92
999.147	28389.09
999.502	30959.92
999.857	22560.31
1000.212	36706.31
1000.567	52364.79
1000.922	30216.11
1001.277	19181.59
1001.632	14252.79
1001.987	18332.92
1002.342	13138.14
1002.696	10518.74
1003.051	8396.65
1003.406	10204.92
1003.76	10143.26
1004.114	10017.54
1004.469	8446.32
1004.823	6994.32
1005.177	7550.29
1005.531	5976.73
1005.885	5306.36
1006.239	5987.09
1006.593	7489.64
1006.947	10010.4
1007.301	7485.8
1007.655	8163.98
1008.008	5978.94
1008.362	6708.83
1008.715	9555.24
1009.069	8674.99
1009.422	13107.58
1009.776	26266.1
1010.129	17510.38
1010.482	14660.22
1010.835	12375.54
1011.188	25792.25
1011.541	24316.14
1011.894	-148341.87
1012.247	436607.28
1012.6	29715.68
1012.952	18771.41
1013.305	9619.9
1013.657	6944.03
1014.01	6575.28
1014.362	5429.53
1014.715	4867.61
1015.067	4231.15
1015.419	4130.26
1015.771	3674.09
1016.123	3277.58
1016.475	3379.41
1016.827	3604.08
1017.179	3900.68
1017.531	3933.51
1017.883	4002.01
1018.234	3879.19
1018.586	4892.03
1018.938	5214.74
1019.289	7188.24
1019.64	8221.83
1019.992	7666.82
1020.343	7007.52
1020.694	5551.74
1021.045	4885.65
1021.396	5559.9
1021.747	5973.97
1022.098	7125.4
1022.449	5137.48
1022.8	4753.39
1023.151	3317.89
1023.501	2948.6
1023.852	3192.1
1024.202	3320.52
1024.553	3643
1024.903	3567.68
1025.253	3060.8
1025.604	2759.65
1025.954	3426.51
1026.304	4186.6
1026.654	4879.01
1027.004	7143.2
1027.354	11548.83
1027.703	10955.23
1028.053	14395.97
1028.403	21113.32
1028.753	30421.79
1029.102	41375.46
1029.452	212376.93
1029.801	9185.53
1030.15	5924.09
1030.499	5016.72
897.758	2856.33
901.051	2821.9
904.343	2857.41
907.636	2854.94
910.928	2920.3
914.22	2826.75
917.511	2834.26
920.803	2906.39
924.094	2932.01
927.384	2902.89
930.675	2868.3
933.965	2818.14
937.255	2818.44
940.544	2787.24
943.834	2701.96
947.123	2652.21
950.411	2750.71
953.7	2719.42
956.988	2679.28
960.276	2623.65
963.563	2715.53
966.851	2702.41
970.138	2768.19
973.424	2760.3
976.711	2707.13
979.997	2874.54
983.283	2900.85
986.568	2796.15
989.853	2822
993.138	2850.34
996.423	2931.16
999.708	2860.85
1002.992	2944.6
1006.275	2746.78
1009.559	2807.37
1012.842	2930.28
1016.125	2855.34
1019.408	2835.89
1022.69	2931.84
1025.972	2947.32
1029.254	2919.2
1032.536	2839.08
1035.817	2874.38
1039.098	2800.63
1042.379	2984.74
1045.659	2969.7
1048.939	2894.64
1052.219	2920.12
1055.498	2937.57
1058.778	2919.42
1062.057	2906.36
1065.335	2927.45
1068.614	2949.54
1071.892	2924.15
1075.17	3010.83
1078.447	2993.6
1081.724	2983.79
1085.001	3026.42
1088.278	2998.08
1091.554	3012.29
1094.83	3009.64
1098.106	3035.13
1101.382	3083.58
1104.657	3085.59
1107.932	3081.17
1111.206	3040.5
1114.481	2997.21
1117.755	3003.19
1121.029	2976.65
1124.302	3027.34
1127.575	2974.85
1130.848	2959.33
1134.121	2916.74
1137.393	2863.79
1140.665	2933.26
1143.937	2903.51
1147.208	2870.97
1150.48	2904.41
1153.75	2886.28
1157.021	2928.8
1160.291	2895.07
1163.561	2939.35
1166.831	2935.4
1170.101	2969.49
1173.37	2947.89
1176.639	2885.1
1179.907	2955.27
1183.176	2949.21
1186.444	2961.7
1189.711	2993.03
1192.979	2998.98
1196.246	2958.97
1199.513	2974.63
1202.78	2973.87
1206.046	2980.34
1209.312	3006.27
1212.578	3038.28
1215.843	2976.33
1219.108	2957.8
1222.373	2980.12
1225.638	2938.06
1228.902	2921.62
1232.166	2888.96
1235.43	2869.48
1238.693	2888.49
1241.956	2890.98
1245.219	2926.65
1248.482	2920.66
1251.744	2919.36
1255.006	3080.79
1258.268	3037.33
1261.529	2977.12
1264.79	2984.75
1268.051	3091.37
1271.312	3112.67
1274.572	3071.7
1277.832	3059.31
1281.092	3053
1284.351	3018.78
1287.61	2992.95
1290.869	2899.14
1294.128	2866.45
1297.386	2970.44
1300.644	2959.13
1303.902	2971.88
1307.159	2825.35
1310.416	2881.29
1313.673	2905.47
1316.93	2888.5
1320.186	2940.55
1323.442	2988.29
1326.697	2969.55
1329.953	2968.99
1333.208	2987.97
1336.463	2971.32
1339.717	2899.43
1342.972	3047.65
1346.226	3030.83
1349.479	2955.98
1352.733	2919.01
1355.986	2949.83
1359.238	2925.7
1362.491	2929.61
1365.743	2933.1
1368.995	2932.55
1372.247	2942.09
1375.498	2969.26
1378.749	2974.16
1382	2928.91
1385.251	2988.1
1388.501	2955.48
1391.751	2932.66
1395	2906.73
1398.25	2941.6
1401.499	2943.65
1404.748	2861.31
1407.996	2859.8
1411.244	2843.62
1414.492	2818.99
1417.74	2797.47
1420.987	2812.5
1424.234	2866.97
1427.481	2853.33
1430.728	2912.59
1433.974	2887.7
1437.22	2907.71
1440.465	2911.43
1443.711	2859.98
1446.956	2899.56
1450.201	2896.63
1453.445	2938.48
1456.689	2912.49
1459.933	2926.26
1463.177	2956.1
1466.42	2925.85
1469.663	2905.74
1472.906	2890.82
1476.148	2986.48
1479.391	2924.72
1482.633	2901.94
1485.874	2904.13
1489.115	2885.57
1492.356	2894.57
1495.597	2871.31
1498.838	2876.22
1502.078	2839.9
1505.318	2777.6
1508.557	2825.82
1511.797	2781.75
1515.036	2881.42
1518.274	2870.11
1521.513	2850.05
1524.751	2875.26
1527.989	2886.36
1531.227	2896.16
1534.464	2882.81
1537.701	2912.4
1540.938	2934.69
1544.174	2888.42
1547.41	2891.17
1550.646	2931.05
1553.882	2957.89
1557.117	3014.16
1560.352	3030.87
1563.587	2987.73
1566.821	2942.65
1570.055	2985.12
1573.289	2955.01
1576.523	3037.53
1579.756	3040.84
1582.989	3059.37
1586.222	3020.29
1589.454	3064.31
1592.686	3028.74
1595.918	3055
1599.15	3038.35
1602.381	3130.1
1605.612	3073.95
1608.843	3171.11
1612.073	3077.61
1615.303	3060.63
1618.533	3049.68
1621.762	3052.23
1624.992	3045.04
1628.221	3027.57
1631.449	3011.04
1634.678	3079.32
1637.906	3025.49
1641.134	3072.11
1644.361	3022.68
1647.588	3012.42
1650.815	3027.38
1654.042	3008.36
1657.269	3041.9
1660.495	2987.56
1663.72	2987.28
1666.946	2952.1
1670.171	2881.21
1673.396	2858.16
1676.621	2847.15
1679.845	2879.74
1683.069	2902.84
1686.293	2954.79
1689.517	2917.91
1692.74	2834.2
1695.963	2868.76
1699.185	2904.71
1702.408	2877.81
1705.63	2925.45
1708.852	2933.99
1712.073	2906.75
1715.294	2880.42
1718.515	2950.05
1721.736	2889.75
1724.956	2891.54
1728.176	2920.99
1731.396	2939.41
1734.616	2934.09
1737.835	2958.27
1741.054	2937.9
1744.272	2933.12
1747.491	2960.56
1750.709	3023.8
1753.927	2912.06
1757.144	2965.88
1760.361	3001.01
1763.578	3002.24
1766.795	2938.44
1770.011	2947.88
1773.227	2996.45
1776.443	3033
1779.658	3075.72
1782.874	3020.71
1786.089	2994.58
1789.303	2998.55
1792.518	3005.7
1795.732	2994.98
1798.945	3000.4
1802.159	3055.32
1805.372	2942.06
1808.585	2921.21
1811.797	2920.28
1815.01	2983.09
1818.222	2981.89
1821.434	2927.75
1824.645	2999.43
1827.856	2973.74
1831.067	3009.9
1834.278	2976.02
1837.488	2958.77
1840.698	3120.94
1843.908	3038.42
1847.117	3002.19
1850.326	2864.11
1853.535	2983.97
1856.744	3039.3
1859.952	2946.01
1863.16	2944.19
1866.368	2972.32
1869.575	3073.84
1872.782	2959.2
1875.989	2898.74
1879.196	2998.94
1882.402	2991.59
1885.608	3038.01
1888.814	2924.19
1892.019	2812.92
1895.224	2864.7
1898.429	2852.88
1901.634	2826.14
1904.838	2805.47
1908.042	2852.81
1911.246	2858.31
1914.449	2775.69
1917.652	2779.58
1920.855	2761.19
1924.058	2822.77
1927.26	2858.18
1930.462	2885.21
1933.664	2907.38
1936.865	2843.46
1940.066	2845.96
1943.267	2793.04
1946.467	2812.91
1949.668	2843.08
1952.868	2911.43
1956.067	2883.99
1959.267	2809.97
1962.466	2838.82
1965.665	2825.69
1968.863	2824.27
1972.061	2842.97
1975.259	2845.32
1978.457	2927.54
1981.654	2886.04
1984.852	2885.49
1988.048	2806.88
1991.245	2816.65
1994.441	2902.84
1997.637	2899.66
2000.833	2881.94
2004.028	2921.78
2007.223	2972.02
2010.418	2945.61
2013.613	2912.88
2016.807	2868.71
2020.001	2878.67
2023.194	2934.17
2026.388	2907.94
2029.581	2853
2032.774	2896
2035.966	2898.66
2039.158	2822.3
2042.35	2854.01
2045.542	2780.43
2048.733	2887.36
2051.924	2924.27
2055.115	2959.4
2058.306	2891.39
2061.496	2949.76
2064.686	3021.95
2067.875	2937.56
2071.065	2957.37
2074.254	2989.2
2077.442	2940.7
2080.631	3034.49
2083.819	2908.57
2087.007	2883.63
2090.195	2848.33
2093.382	2892.77
2096.569	2872.53
2099.756	2820.18
2102.942	2836.24
2106.128	2839.34
2109.314	2830.5
2112.5	2782.89
2115.685	2764.73
2118.87	2775.87
2122.055	2843.04
2125.239	2806.13
2128.424	2769.64
2131.608	2891.79
2134.791	2872.07
2137.974	2939.88
2141.157	2920.99
2144.34	2866.8
2147.523	2890.46
2150.705	2897.25
2153.887	2881.16
2157.068	2822.91
2160.25	2835.33
2163.431	2879.01
2166.611	2815.64
2169.792	2829.66
2172.972	2714.3
2176.152	2808.06
2179.331	2845.1
2182.511	2820.58
2185.69	2851.38
2188.868	2842.87
2192.047	2910.28
2195.225	2886.3
2198.403	2840.65
2201.58	2833.77
2204.758	2832.56
2207.935	2919.72
2211.111	2796.94
2214.288	2780.01
2217.464	2823.16
2220.64	2800.63
2223.815	2858.51
2226.991	2772.84
2230.166	2794.73
2233.34	2817.81
2236.515	2846.75
2239.689	2929.02
2242.863	2869.5
2246.036	2926.93
2249.209	2934.22
2252.382	2974.2
2255.555	2952.42
2258.727	2883.45
2261.9	2930.41
2265.071	2922.41
2268.243	2929.18
2271.414	2854.01
2274.585	2802.98
2277.756	2875.06
2280.926	2831.44
2284.096	2876.21
2287.266	2772.21
2290.436	2836.2
2293.605	2869.36
2296.774	2892.37
2299.942	2923.04
2303.111	2940.02
2306.279	2985.99
2309.447	2969.62
2312.614	2947.61
2315.781	2965.44
2318.948	2929.72
2322.115	2972.07
2325.281	2870.27
2328.447	2896.62
2331.613	2873.33
2334.779	2835.33
2337.944	2843.74
2341.109	2841.61
2344.274	2824.5
2347.438	2784.15
2350.602	2809.18
2353.766	2831
2356.929	2813.2
2360.092	2860.07
2363.255	2802.59
2366.418	2722.57
2369.58	2856.34
2372.742	2602.76
2375.904	2626.57
2379.066	2598.72
2382.227	2643.8
2385.388	2605.47
2388.548	2521.85
2391.709	2583.62
2394.869	2557.53
2398.029	2674.67
2401.188	2696.89
2404.347	2617.81
2407.506	2786.68
2410.665	2809.62
2413.823	2825.76
2416.981	2771.26
2420.139	2810.24
2423.296	2864.06
2426.453	2838.1
2429.61	2863.19
2432.767	2782.35
2435.923	2820.16
2439.079	2764.23
2442.235	2821.51
2445.391	2743.59
2448.546	2764.35
2451.701	2822.54
2454.855	2782.29
2458.009	2846.12
2461.163	2855.74
2464.317	2806.74
2467.471	2844.13
2470.624	2887.98
2473.777	2874.75
2476.929	2887.26
2480.082	2909.77
2483.234	2872.04
2486.385	2816.13
2489.537	2807.67
2492.688	2755.38
2495.839	2769.29
2498.989	2781.11
2502.14	2763.58
2505.29	2738.83
2508.439	2768.36
2511.589	2682
2514.738	2702.78
2517.887	2736.44
2521.035	2810.18
2524.183	2804.47
2527.331	2781.07
2530.479	2748.9
2533.627	2761.39
