Data from N_3_DEC_NC_4N_Splice17_13-07-00-505.txt Node
Date: Sat Mar 14 13:07:00 EDT 2020
User: sa697716
Spectrometer: FLMS03696
Trigger mode: 0
Integration Time (sec): 3.180400E-1
Scans to average: 20
Electric dark correction enabled: true
Nonlinearity correction enabled: true
Boxcar width: 5
XAxis mode: Wavelengths
Number of Pixels in Spectrum: 2048
>>>>>Begin Spectral Data<<<<<
187.83	-281372.44
188.298	2153.43
188.766	1149.86
189.233	1008.72
189.701	1493.18
190.169	2051.53
190.636	823.19
191.104	674.55
191.571	109.08
192.039	-55.5
192.506	-41.66
192.974	553.43
193.441	-855.73
193.908	-291.91
194.375	-86.01
194.842	35.61
195.31	116.07
195.777	175.3
196.244	339.25
196.711	348.57
197.177	430.9
197.644	605.62
198.111	1061.81
198.578	1519.77
199.045	1215.61
199.511	1984.95
199.978	2277.6
200.445	1970.39
200.911	2195.77
201.378	2456.47
201.844	2283.3
202.31	3947.59
202.777	4120.83
203.243	2277.1
203.709	2149.09
204.176	2548.68
204.642	2107.7
205.108	1984.43
205.574	1595.64
206.04	1439.01
206.506	1340.32
206.972	1251.12
207.438	1206.3
207.903	1362.88
208.369	1215.03
208.835	1224.32
209.301	1304.35
209.766	1327.71
210.232	1307.09
210.697	1622.8
211.163	1994.6
211.628	3024.17
212.094	2536.87
212.559	3126.42
213.024	1981.19
213.49	2414.14
213.955	2311.9
214.42	2213.19
214.885	2048.34
215.35	1967.6
215.815	1920.86
216.28	2040.73
216.745	1657.89
217.21	1791.99
217.675	1626.59
218.14	1811.26
218.604	2011.98
219.069	2296.2
219.534	2415.37
219.998	2789.61
220.463	3356.82
220.927	4062.78
221.392	3817.15
221.856	3842.07
222.32	4796.38
222.785	5912.9
223.249	7378.4
223.713	8189.26
224.177	8200.96
224.642	10457.09
225.106	12794.58
225.57	13941.96
226.034	10405.69
226.497	15785.28
226.961	14270.89
227.425	16615.09
227.889	18387.06
228.353	18370.13
228.816	37879.82
229.28	36142.75
229.744	30523.93
230.207	18608.17
230.671	18310.22
231.134	30140.85
231.597	34747.92
232.061	34617.31
232.524	33651.1
232.987	23147.65
233.45	20783.47
233.914	18633.64
234.377	19039.84
234.84	17378.87
235.303	20427.44
235.766	22749.12
236.229	23460.89
236.691	14751.74
237.154	16571.56
237.617	12494.75
238.08	12797.36
238.542	14979.2
239.005	10691.97
239.468	10605.16
239.93	10015.83
240.393	9114.77
240.855	8005.32
241.317	8197.68
241.78	9969.49
242.242	10333.54
242.704	11160.02
243.166	9709.53
243.629	8848
244.091	10192.39
244.553	11203.16
245.015	12037.34
245.477	15549.16
245.939	22774.34
246.4	24156.55
246.862	23446.48
247.324	22046.46
247.786	24669.54
248.247	32334.34
248.709	33287.72
249.17	24923.14
249.632	23497.49
250.093	27266.66
250.555	23554
251.016	14365.88
251.477	13654.85
251.939	14773.79
252.4	15495.33
252.861	18407.38
253.322	17136.94
253.783	20423.19
254.244	26453.47
254.705	20841.65
255.166	18501.42
255.627	18248.03
256.088	25830.75
256.549	27408.34
257.009	23616.13
257.47	28728.81
257.931	23398.48
258.391	17555.59
258.852	18082.55
259.312	18988.5
259.773	23475.41
260.233	19871.39
260.694	16776.19
261.154	18988.53
261.614	15293.54
262.074	13671.15
262.534	14220.61
262.994	13433.72
263.455	17899.02
263.915	15080.68
264.374	14197.18
264.834	15477.81
265.294	17138.93
265.754	17753.43
266.214	16816.13
266.673	15738.7
267.133	19865.35
267.593	19672.03
268.052	24033.65
268.512	20894.98
268.971	25268.35
269.431	27738
269.89	24859.9
270.349	37346.99
270.809	41644.81
271.268	37449.99
271.727	83884.76
272.186	54279.84
272.645	40680.51
273.104	29335.29
273.563	42488.57
274.022	33360.9
274.481	28393.21
274.94	21896.97
275.399	16273.25
275.857	18958.75
276.316	25653.19
276.775	22842.91
277.233	22548.23
277.692	21176.65
278.15	24002.29
278.609	24736.91
279.067	22908.11
279.525	21301.93
279.984	27509.99
280.442	33046.88
280.9	32632.38
281.358	21465.61
281.816	20041.45
282.274	19607.22
282.732	20226.16
283.19	20336.29
283.648	17518.24
284.106	18693.09
284.564	19008.32
285.021	17637.06
285.479	13138.27
285.937	11924.95
286.394	10485.74
286.852	10789.83
287.309	11359.16
287.767	11023.08
288.224	10489.32
288.682	11532.13
289.139	12649.59
289.596	11599.13
290.053	12060.31
290.511	15235.93
290.968	18504.28
291.425	25138.94
291.882	20991.71
292.339	18278.61
292.796	18080.2
293.252	17010.9
293.709	13528.72
294.166	12138.71
294.623	13418.36
295.079	12863.96
295.536	12941.05
295.992	11752.72
296.449	11612.97
296.905	12060.9
297.362	11582.59
297.818	12192.92
298.274	12681.01
298.731	12916.56
299.187	12781.18
299.643	13696.42
300.099	16585.7
300.555	18153.98
301.011	15161.31
301.467	14623.4
301.923	17088.47
302.379	16669.78
302.835	16382.78
303.291	16366.34
303.746	18607.66
304.202	23460.83
304.658	23573.96
305.113	15857.23
305.569	15558.91
306.024	16575.27
306.479	15774.34
306.935	13319.18
307.39	14537.85
307.845	13426.87
308.301	13543.71
308.756	13223.73
309.211	12767.25
309.666	13076.17
310.121	16260.82
310.576	16477.88
311.031	16370.1
311.486	18769.14
311.94	18750.56
312.395	25099.26
312.85	47117.14
313.305	231395.57
313.759	1199725.94
314.214	86892.84
314.668	69024.38
315.123	58018.07
315.577	20850.22
316.032	18560.31
316.486	23193.24
316.94	18301.91
317.394	12729.87
317.849	9922.92
318.303	9383.96
318.757	8844.7
319.211	9788.09
319.665	8569.03
320.119	8667.66
320.572	12412.65
321.026	11601.91
321.48	9672.67
321.934	10534.82
322.387	10559.56
322.841	11379.23
323.295	10256.76
323.748	11801.46
324.202	11975.99
324.655	14366.58
325.108	20113.67
325.562	14253.71
326.015	16897.16
326.468	12763.72
326.921	14290.89
327.374	13352.26
327.827	13924.53
328.28	15785.97
328.733	10590.32
329.186	9303.03
329.639	8885.6
330.092	7488.25
330.545	7135.67
330.997	7223.71
331.45	7915.27
331.903	9309.7
332.355	15999.62
332.808	15541.35
333.26	12796.97
333.713	13910.66
334.165	14005.36
334.617	18693.75
335.069	15079.77
335.522	27191.72
335.974	30089.77
336.426	27486.83
336.878	18962.72
337.33	9628.72
337.782	9425.57
338.234	11831.24
338.686	14144.79
339.137	16816.69
339.589	15818.34
340.041	12430.77
340.493	10699.34
340.944	10985.68
341.396	11815.06
341.847	9957.54
342.299	11753.16
342.75	14387.86
343.201	12588.3
343.653	14491.62
344.104	17826.83
344.555	14036.05
345.006	21814.7
345.457	16763.58
345.908	13298.91
346.359	12580.37
346.81	10239.96
347.261	10794.05
347.712	10613.34
348.163	11364.62
348.613	11539.19
349.064	10761.17
349.515	9428.77
349.965	9696.15
350.416	11658.96
350.866	12775
351.317	14383.9
351.767	23832.38
352.217	30151.67
352.668	24980.05
353.118	22893.86
353.568	21993.72
354.018	17433.4
354.468	18409.57
354.918	13179.99
355.368	11521.56
355.818	16305.48
356.268	46903.14
356.718	197026.4
357.168	49035.92
357.617	24604.65
358.067	27346.33
358.517	25631.16
358.966	30044.95
359.416	33810.56
359.865	36646.58
360.315	43658.39
360.764	20443
361.213	11504.98
361.663	10870.47
362.112	13421.83
362.561	21687.61
363.01	16366.29
363.459	13806.7
363.908	14928.62
364.357	12666.8
364.806	21340.52
365.255	14672.83
365.703	13455.96
366.152	13428.9
366.601	10894.61
367.05	8863.65
367.498	8062.59
367.947	8424.32
368.395	8752.16
368.844	7777.33
369.292	9354.58
369.74	6476.59
370.189	9935.03
370.637	11620.9
371.085	10050.37
371.533	12247.01
371.981	11780.54
372.429	11288.19
372.877	11751.9
373.325	9860.6
373.773	10023.33
374.221	8946.86
374.669	11109.46
375.116	9605.5
375.564	9695.96
376.012	10858.72
376.459	8957.78
376.907	10700.76
377.354	12886.93
377.801	12051.84
378.249	13867.27
378.696	17746.38
379.143	21435.14
379.591	22896.31
380.038	38831.83
380.485	28195.03
380.932	30476.52
381.379	27953.68
381.826	20684.88
382.273	14728.01
382.72	12891.71
383.166	12560.27
383.613	8159.42
384.06	7367.46
384.506	8527.04
384.953	6266.36
385.4	6307.57
385.846	5525.24
386.292	5385.97
386.739	5256.44
387.185	5211.85
387.631	5223.25
388.078	5095.95
388.524	5465.72
388.97	5068.75
389.416	4243.95
389.862	4516.44
390.308	4280.33
390.754	4362.61
391.2	4734.34
391.645	4863.28
392.091	4658.56
392.537	4527.76
392.983	4531.02
393.428	4470.39
393.874	4790.81
394.319	4815.53
394.765	4586.28
395.21	4717.99
395.655	4417.02
396.101	4155.78
396.546	3755.15
396.991	3797.34
397.436	3521.92
397.881	3410.78
398.326	3229.89
398.771	3072
399.216	2686.93
399.661	2417.01
400.106	2415.64
400.551	2484.85
400.995	2231.36
401.44	2212.44
401.885	2079.2
402.329	2098.15
402.774	2011.63
403.218	1951.72
403.663	1878.48
404.107	1932.67
404.551	1954.16
404.995	1787.89
405.44	1717.52
405.884	1742.64
406.328	1680.78
406.772	1674.35
407.216	1525.28
407.66	1472.95
408.104	1394.35
408.547	1303.21
408.991	1261.6
409.435	1210.08
409.879	1196.78
410.322	1182.95
410.766	1142.18
411.209	1088.34
411.653	1045.1
412.096	1026.69
412.54	1025.69
412.983	1019.83
413.426	1025.56
413.869	1019.71
414.312	1001.59
414.756	961.98
415.199	915.42
415.642	889
416.085	890.44
416.527	883.67
416.97	894.82
417.413	852.54
417.856	842.31
418.298	829.99
418.741	825.56
419.184	821.79
419.626	853.97
420.069	856.25
420.511	862.39
420.953	846.12
421.396	837.82
421.838	816.48
422.28	833.26
422.722	840.17
423.164	854.09
423.606	842.99
424.048	841.27
424.49	802.1
424.932	797.66
425.374	784.15
425.816	792.32
426.258	807.69
426.699	817.92
427.141	806.31
427.582	814.11
428.024	806.68
428.465	797.92
428.907	779.11
429.348	766.47
429.789	765.97
430.231	752.26
430.672	763.74
431.113	745.19
431.554	732.69
431.995	712.17
432.436	688.49
432.877	671.72
433.318	661.94
433.759	656.17
434.2	657.49
434.64	648.45
435.081	647.03
435.522	613.2
435.962	588.28
436.403	575.98
436.843	581.44
437.284	567.01
437.724	551.97
438.164	550.65
438.604	538.08
439.045	518.04
439.485	499.11
439.925	486.31
440.365	472.62
440.805	466.78
441.245	459.97
441.685	444
442.125	438.94
442.564	440.89
443.004	430.91
443.444	429.52
443.883	428.69
444.323	421.36
444.762	421.26
445.202	424.85
445.641	433.91
446.081	428.91
446.52	430.79
446.959	428.32
447.398	418.86
447.837	412.28
448.276	404.66
448.716	407.95
449.154	411.37
449.593	402.81
450.032	402.65
450.471	392.73
450.91	391.27
451.349	391.34
451.787	388.54
452.226	393.44
452.664	392.55
453.103	391.62
453.541	390.74
453.98	390.74
454.418	392.75
454.856	387.1
455.295	385.86
455.733	389.62
456.171	390.09
456.609	388.24
457.047	387.8
457.485	394.73
457.923	397.32
458.361	390.72
458.798	390.82
459.236	388.43
459.674	389.12
460.111	391.27
460.549	387.85
460.987	385.55
461.424	385.26
461.862	383.16
462.299	376.82
462.736	375.89
463.173	377.76
463.611	376.67
464.048	376.69
464.485	380.47
464.922	376.94
465.359	373.53
465.796	375.54
466.233	374.24
466.67	372.5
467.106	371.77
467.543	367.55
467.98	362.18
468.416	349.36
468.853	345.24
469.29	333.97
469.726	329.95
470.162	322.25
470.599	313.04
471.035	309.16
471.471	300.73
471.907	298.7
472.344	296.56
472.78	298.39
473.216	302.9
473.652	301.09
474.088	299.87
474.523	299.69
474.959	302.12
475.395	299.87
475.831	298.91
476.266	300.18
476.702	298.99
477.138	295.77
477.573	293.85
478.008	292.96
478.444	294.2
478.879	297.81
479.314	298.64
479.75	298.56
480.185	298.76
480.62	300.72
481.055	301.99
481.49	304.03
481.925	308.66
482.36	315.94
482.795	323.75
483.229	331.79
483.664	338.14
484.099	339
484.534	344.4
484.968	348.55
485.403	349.23
485.837	347.91
486.271	347.71
486.706	348.44
487.14	342.91
487.574	338.06
488.009	334.95
488.443	332.08
488.877	336.11
489.311	336.16
489.745	339.52
490.179	343.29
490.613	351.66
491.046	354.96
491.48	357.17
491.914	358.54
492.348	361.76
492.781	364.84
493.215	366.48
493.648	367.49
494.082	371.96
494.515	373.51
494.948	379.06
495.382	381.69
495.815	385.41
496.248	390.22
496.681	397.96
497.114	404.9
497.547	411.68
497.98	421.06
498.413	427.28
498.846	434.48
499.279	441.62
499.711	445.1
500.144	448.22
500.577	456.07
501.009	463.75
501.442	471.99
501.874	475.85
502.306	479.02
502.739	488.21
503.171	498.69
503.603	503.34
504.036	511.44
504.468	517.95
504.9	527.94
505.332	535.19
505.764	541.87
506.196	548.77
506.627	560.9
507.059	572.8
507.491	579.53
507.923	582.07
508.354	594.92
508.786	604.69
509.217	619.26
509.649	631.81
510.08	647.14
510.512	661.21
510.943	675.31
511.374	685.77
511.805	702.04
512.237	717.91
512.668	742.32
513.099	763.62
513.53	785.06
513.961	803.27
514.391	828.25
514.822	855.07
515.253	882.87
515.684	903.69
516.114	927.88
516.545	946.8
516.975	967.67
517.406	982.74
517.836	988.32
518.267	997.91
518.697	1013.98
519.127	1020.92
519.558	1029.11
519.988	1035.65
520.418	1045.35
520.848	1061.42
521.278	1070.44
521.708	1104.14
522.138	1117.82
522.567	1143.69
522.997	1164.74
523.427	1178.34
523.857	1193.98
524.286	1203.92
524.716	1217.51
525.145	1235.26
525.575	1245.86
526.004	1259.53
526.433	1242.11
526.863	1244.35
527.292	1239.61
527.721	1245.58
528.15	1252.36
528.579	1255.03
529.008	1265.56
529.437	1284.34
529.866	1295.68
530.295	1309.82
530.724	1321.48
531.152	1342.93
531.581	1355.15
532.01	1369.12
532.438	1377.85
532.867	1389.67
533.295	1404.53
533.723	1409.3
534.152	1408.08
534.58	1409.84
535.008	1398.7
535.436	1400.61
535.865	1407.04
536.293	1418.13
536.721	1430.74
537.149	1449.54
537.576	1452.32
538.004	1461.92
538.432	1468.32
538.86	1467.69
539.287	1472.25
539.715	1483.26
540.143	1485.3
540.57	1482.23
540.998	1479.24
541.425	1461.62
541.852	1445.7
542.28	1444.01
542.707	1432.51
543.134	1421.75
543.561	1418.39
543.988	1413.04
544.415	1413.13
544.842	1408.99
545.269	1403.48
545.696	1406.17
546.123	1417.53
546.549	1410.13
546.976	1400.98
547.403	1400.8
547.829	1402.77
548.256	1404.27
548.682	1402.67
549.108	1397.56
549.535	1397.58
549.961	1399.65
550.387	1390.12
550.813	1385.73
551.24	1390.34
551.666	1391.65
552.092	1384.5
552.518	1379.65
552.943	1375.31
553.369	1379.51
553.795	1382.73
554.221	1383.67
554.646	1380.84
555.072	1388.86
555.498	1392.96
555.923	1399.73
556.349	1411.24
556.774	1416.84
557.199	1418.01
557.625	1422.4
558.05	1419.12
558.475	1426.77
558.9	1425.28
559.325	1418.9
559.75	1412.52
560.175	1405.62
560.6	1399.42
561.025	1396.41
561.449	1395.55
561.874	1398.51
562.299	1401.41
562.723	1404.58
563.148	1396.12
563.572	1396.98
563.997	1402.92
564.421	1404.69
564.846	1403.27
565.27	1405.02
565.694	1401.9
566.118	1409.17
566.542	1413.49
566.966	1406.19
567.39	1400.47
567.814	1390.13
568.238	1388.21
568.662	1390.58
569.086	1391.01
569.509	1393.57
569.933	1379.31
570.357	1371.09
570.78	1353.99
571.204	1341.68
571.627	1331.14
572.05	1327.57
572.474	1324.61
572.897	1312.69
573.32	1303.89
573.743	1293.16
574.166	1278.53
574.589	1276.54
575.012	1268.83
575.435	1265.28
575.858	1256.78
576.281	1247.3
576.704	1234.5
577.126	1224.15
577.549	1214.82
577.972	1206.16
578.394	1198.06
578.817	1192.44
579.239	1177.48
579.661	1166.37
580.084	1154.17
580.506	1143.1
580.928	1139.25
581.35	1129.77
581.772	1125.27
582.194	1115.03
582.616	1105.19
583.038	1093.93
583.46	1084.66
583.882	1081.5
584.303	1082.58
584.725	1078.45
585.147	1081.21
585.568	1087.53
585.99	1095.46
586.411	1099.94
586.833	1109.52
587.254	1109.99
587.675	1118.84
588.096	1126.02
588.518	1122.11
588.939	1110.13
589.36	1107.46
589.781	1096.51
590.202	1076.13
590.623	1069.04
591.043	1064.95
591.464	1054.84
591.885	1051.26
592.305	1046.83
592.726	1036.7
593.147	1036.65
593.567	1033.04
593.987	1027.2
594.408	1022.33
594.828	1019.52
595.248	1015.06
595.669	1003.47
596.089	997.54
596.509	991.77
596.929	981.99
597.349	981.97
597.769	973.73
598.189	967.41
598.608	968.27
599.028	968.68
599.448	967.92
599.867	957.92
600.287	953.35
600.706	950.29
601.126	943.48
601.545	941.81
601.965	940.3
602.384	936.39
602.803	938.74
603.222	933.92
603.641	929.16
604.061	926.04
604.48	922.95
604.898	928.32
605.317	931.03
605.736	931.98
606.155	929.28
606.574	922.45
606.992	924.87
607.411	920.87
607.829	914.25
608.248	911.55
608.666	908.41
609.085	906.84
609.503	899.76
609.921	894.7
610.339	894.4
610.758	893.25
611.176	888.7
611.594	881.15
612.012	877.14
612.43	879.02
612.847	881.33
613.265	882.43
613.683	884.47
614.101	883.37
614.518	878.63
614.936	870.07
615.353	859.17
615.771	856.1
616.188	855.52
616.606	852.59
617.023	846.86
617.44	837.38
617.857	830.6
618.274	823.99
618.691	820.15
619.108	813.79
619.525	809.24
619.942	812.54
620.359	813.34
620.776	809.01
621.192	806.08
621.609	803.93
622.026	807.41
622.442	811.15
622.859	812.25
623.275	806.77
623.691	809.06
624.108	816.18
624.524	824.82
624.94	824.4
625.356	830.96
625.772	839.2
626.188	846.37
626.604	846.42
627.02	842.34
627.436	840.86
627.852	845.17
628.268	853.25
628.683	846.65
629.099	840.79
629.514	837.85
629.93	839.84
630.345	840.94
630.761	836.99
631.176	837.95
631.591	835.68
632.007	831.11
632.422	828.17
632.837	819.29
633.252	817.36
633.667	809.43
634.082	801.24
634.497	792.03
634.911	779.17
635.326	776.23
635.741	764.45
636.155	755.06
636.57	754.18
636.984	752.01
637.399	751.4
637.813	748.87
638.228	746.11
638.642	747.2
639.056	738.2
639.47	735.72
639.884	727.16
640.298	721.01
640.712	716.97
641.126	706.92
641.54	698.8
641.954	692.4
642.368	682.03
642.781	675.9
643.195	662.89
643.609	661.36
644.022	655.11
644.436	650.28
644.849	640.84
645.262	632.25
645.676	630.34
646.089	626.17
646.502	616.78
646.915	611.45
647.328	599.75
647.741	596.28
648.154	586.04
648.567	584.44
648.98	576.16
649.393	575.53
649.805	572.71
650.218	567.98
650.631	559.15
651.043	554.79
651.456	551.92
651.868	551.72
652.28	560.89
652.693	566.71
653.105	568.56
653.517	573.52
653.929	573.63
654.341	576.46
654.753	568.69
655.165	570.27
655.577	567.71
655.989	564.45
656.401	557.27
656.813	537.62
657.224	527.02
657.636	509.34
658.047	498.26
658.459	485.53
658.87	478.8
659.282	471.57
659.693	460.58
660.104	451.43
660.515	442.2
660.926	440.35
661.338	437.28
661.749	431.54
662.159	427.2
662.57	423.75
662.981	421.21
663.392	415.92
663.803	416.52
664.213	412.32
664.624	408.73
665.035	409.24
665.445	400.79
665.855	396.82
666.266	394.76
666.676	392.44
667.086	386.56
667.497	385.84
667.907	382.87
668.317	378.98
668.727	380.16
669.137	380.22
669.547	379.6
669.956	382.02
670.366	382.63
670.776	383.49
671.186	385.43
671.595	388.97
672.005	391.17
672.414	392.66
672.824	393.03
673.233	393.65
673.642	396.54
674.052	399.61
674.461	402.66
674.87	405.5
675.279	405.63
675.688	406.9
676.097	409.4
676.506	408.57
676.915	416.57
677.323	419.01
677.732	419.92
678.141	421.57
678.549	416.35
678.958	416.81
679.366	417.99
679.775	420.64
680.183	429.28
680.592	433.1
681	437.72
681.408	435.06
681.816	439.79
682.224	445.48
682.632	452.95
683.04	471.63
683.448	486.15
683.856	505.69
684.264	528.05
684.671	546.83
685.079	570.91
685.487	597.58
685.894	634.94
686.302	667.73
686.709	694.79
687.116	725.07
687.524	752.86
687.931	778.97
688.338	801.32
688.745	820.05
689.152	842.64
689.559	873.15
689.966	904.18
690.373	922.48
690.78	952.32
691.187	996.85
691.593	1033.37
692	1065.82
692.407	1110.52
692.813	1167.01
693.22	1214.94
693.626	1264.93
694.032	1305.32
694.439	1363.35
694.845	1412.29
695.251	1470.17
695.657	1525.44
696.063	1602.66
696.469	1661.63
696.875	1719.95
697.281	1756.72
697.687	1800.88
698.093	1837.38
698.498	1902.46
698.904	1955.2
699.31	2028.44
699.715	2087.89
700.12	2165.33
700.526	2189.53
700.931	2251.46
701.337	2299.79
701.742	2334.84
702.147	2406.79
702.552	2439.14
702.957	2493.22
703.362	2518.31
703.767	2551.19
704.172	2589.62
704.577	2560.3
704.981	2604.07
705.386	2626.08
705.791	2629.33
706.195	2695.46
706.6	2708.81
707.004	2780.12
707.408	2763.73
707.813	2793.78
708.217	2790.37
708.621	2797.96
709.025	2883.66
709.43	2892.28
709.834	2945.04
710.237	3004.88
710.641	2996.85
711.045	3022.19
711.449	3024.04
711.853	3052.93
712.256	3089.94
712.66	3127.48
713.064	3194.03
713.467	3232.43
713.87	3330.49
714.274	3376.28
714.677	3470.94
715.08	3611.26
715.484	3755.37
715.887	3925.9
716.29	4095.09
716.693	4272.95
717.096	4472.93
717.499	4587.64
717.901	4613.94
718.304	4639.92
718.707	4665.75
719.109	4588.83
719.512	4566.95
719.915	4459.7
720.317	4419.84
720.719	4460.21
721.122	4439.55
721.524	4404.65
721.926	4373.75
722.328	4462.93
722.731	4457.88
723.133	4484.09
723.535	4647.86
723.937	4667.9
724.338	4713.88
724.74	4751.07
725.142	4716.39
725.544	4719.41
725.945	4746.18
726.347	4745.62
726.748	4742.3
727.15	4757.94
727.551	4728.41
727.952	4706.75
728.354	4684.49
728.755	4688
729.156	4652.41
729.557	4631.81
729.958	4531.51
730.359	4483.84
730.76	4469.79
731.161	4421.82
731.562	4403.56
731.962	4408.6
732.363	4359.13
732.763	4306.87
733.164	4340.14
733.564	4285.7
733.965	4205.63
734.365	4176.17
734.766	4200.8
735.166	4170.17
735.566	4123.39
735.966	4100.65
736.366	4095.26
736.766	4043.16
737.166	4069.56
737.566	4031.74
737.966	4011.81
738.365	4046.12
738.765	4043.74
739.165	3981.98
739.564	3960.51
739.964	3999.19
740.363	3960.8
740.763	3960.57
741.162	3950.2
741.561	3924.99
741.96	3886.67
742.36	3902.19
742.759	3906.49
743.158	3937.24
743.557	3949.92
743.955	3985.56
744.354	3947.75
744.753	3996.57
745.152	3962.07
745.55	4007.74
745.949	4003.21
746.348	4006.76
746.746	4020.21
747.144	3987.21
747.543	3971.6
747.941	4014.03
748.339	3952.68
748.737	3948.17
749.136	3942.23
749.534	3997.54
749.932	3976.43
750.33	3997.27
750.727	4044.21
751.125	4027.71
751.523	4016.08
751.921	4051.92
752.318	4023.56
752.716	4075.29
753.113	4084.79
753.511	4105.45
753.908	4104.5
754.305	4091.53
754.703	4143.13
755.1	4193.94
755.497	4243.05
755.894	4401.43
756.291	4554.53
756.688	4833.25
757.085	5201.72
757.482	5725.79
757.878	6297.82
758.275	6816.06
758.672	7521.72
759.068	8096.96
759.465	8920.56
759.861	9980.81
760.258	11216.12
760.654	11845.42
761.05	11748.41
761.447	11210.14
761.843	10436.16
762.239	9633.8
762.635	9269.57
763.031	8923.9
763.427	8427.01
763.822	7905.44
764.218	7388.26
764.614	6712.82
765.01	6260.06
765.405	5971.63
765.801	5753.27
766.196	5473.14
766.592	5314.22
766.987	5048.15
767.382	4867.54
767.778	4790.9
768.173	4679.09
768.568	4617.73
768.963	4513.79
769.358	4528.94
769.753	4486.28
770.148	4415.95
770.542	4412.84
770.937	4385.48
771.332	4462.55
771.726	4479.71
772.121	4429.48
772.515	4478.51
772.91	4466.21
773.304	4526.25
773.699	4471.51
774.093	4516.51
774.487	4561.47
774.881	4597.71
775.275	4595.67
775.669	4559.52
776.063	4595.37
776.457	4624.39
776.851	4558.31
777.245	4552.83
777.638	4576.29
778.032	4673.84
778.425	4643.93
778.819	4681.09
779.212	4648.61
779.606	4613.29
779.999	4629.86
780.392	4617.77
780.786	4686.39
781.179	4706.56
781.572	4742.24
781.965	4757.13
782.358	4708.58
782.751	4754.54
783.143	4712.46
783.536	4770.58
783.929	4810.31
784.322	4908.51
784.714	4931.67
785.107	4925.43
785.499	4984.2
785.891	4963.12
786.284	4948.28
786.676	5066.5
787.068	5053.64
787.46	5098.36
787.852	5114.62
788.245	5187.58
788.636	5213.73
789.028	5270.81
789.42	5306.27
789.812	5313.98
790.204	5394.76
790.595	5478.38
790.987	5315.95
791.378	5333.64
791.77	5443.71
792.161	5560.01
792.553	5605.3
792.944	5512.26
793.335	5457.24
793.726	5519.98
794.117	5599.4
794.508	5716.04
794.899	5688.72
795.29	5808.99
795.681	5858.27
796.072	5738.62
796.463	5586.74
796.853	5598.27
797.244	5730.81
797.634	5761.79
798.025	5762.77
798.415	5771.9
798.806	5849.47
799.196	5924.59
799.586	5967.64
799.976	5939.4
800.366	6135.14
800.756	6332.48
801.146	6297.45
801.536	6325.15
801.926	6386.08
802.316	6407.7
802.706	6471.2
803.095	6370.41
803.485	6456.05
803.874	6489.21
804.264	6706.94
804.653	6680.91
805.043	6807
805.432	6900.71
805.821	6901.16
806.21	6923.61
806.599	7023.73
806.988	7060.83
807.377	7148.82
807.766	7261.82
808.155	7503.41
808.544	7283.26
808.933	7300.84
809.321	7286.38
809.71	7538.13
810.098	7671.27
810.487	8057.05
810.875	8468.53
811.264	8486.42
811.652	8737.67
812.04	8860.67
812.428	9003.53
812.816	9650.24
813.204	10003.86
813.592	10468.07
813.98	10758.99
814.368	10680.78
814.756	11095.21
815.144	11024.73
815.531	11424.26
815.919	11361.24
816.306	11624.56
816.694	11359.35
817.081	11410
817.469	11705.31
817.856	11711.2
818.243	11932.33
818.63	12268.7
819.017	11913.93
819.404	11967.69
819.791	12285.96
820.178	12812.91
820.565	13016.49
820.952	13806.22
821.339	13383.67
821.725	13544.63
822.112	12915.18
822.498	12882.67
822.885	12992.42
823.271	12917.24
823.657	13275.3
824.044	13280.5
824.43	13344.61
824.816	13324.62
825.202	12959.74
825.588	13823.13
825.974	13832.03
826.36	14259.44
826.746	14282.57
827.132	14584.86
827.517	14553.71
827.903	13885.11
828.289	13922.81
828.674	13261.1
829.06	13173.48
829.445	13503.99
829.83	13803.79
830.216	14205.99
830.601	14524.24
830.986	14183.56
831.371	14069.64
831.756	14537.64
832.141	14174.09
832.526	14166.01
832.911	14404.11
833.295	14302.58
833.68	14701.61
834.065	14174.73
834.449	13404.97
834.834	13337.5
835.218	13334.99
835.603	13613.07
835.987	13433.38
836.371	14137.25
836.755	14048.27
837.139	14377.73
837.524	14580.22
837.908	14422.03
838.291	14473.27
838.675	14520.68
839.059	14693.26
839.443	14678
839.827	14496.11
840.21	14900.98
840.594	14772.66
840.977	14945.71
841.361	14927.6
841.744	15234.44
842.127	15106.04
842.511	15306.91
842.894	15812.65
843.277	16129.91
843.66	16588.46
844.043	16646.01
844.426	15965.04
844.809	15701.87
845.191	15723.42
845.574	15337.17
845.957	15031.64
846.339	14943.46
846.722	14505.03
847.104	14559.33
847.487	14407.29
847.869	14406.84
848.252	14634.93
848.634	14914.71
849.016	15132.45
849.398	15237.4
849.78	15944.06
850.162	15950.5
850.544	16292.67
850.926	16821.6
851.307	16749
851.689	16979.68
852.071	17367.06
852.452	17649.05
852.834	17634.2
853.215	17962.42
853.597	18092.21
853.978	18345.8
854.359	18729.65
854.741	17888.94
855.122	17797.96
855.503	17549.35
855.884	17678.77
856.265	17622.51
856.646	17715.9
857.026	17379.66
857.407	17327.33
857.788	17457.61
858.169	17697.22
858.549	16983.7
858.93	17512.37
859.31	17556.44
859.69	17742.22
860.071	17391.4
860.451	17220.65
860.831	16593.79
861.211	17565.88
861.591	18032.48
861.971	18016.77
862.351	18182.02
862.731	18508.21
863.111	18731.6
863.491	19014.14
863.87	19748.01
864.25	20050.39
864.629	19702.19
865.009	20138.7
865.388	20862.66
865.768	22360
866.147	22266.62
866.526	21035.51
866.905	21291.92
867.284	22486.85
867.663	21346.39
868.042	20453.57
868.421	20380.52
868.8	20720.36
869.179	20928.2
869.558	19710.61
869.936	18162.36
870.315	18484.47
870.693	18933.18
871.072	20411.97
871.45	19444.86
871.828	19692.43
872.207	20709.61
872.585	20400.02
872.963	20957.46
873.341	20237.87
873.719	20000
874.097	19766.94
874.475	20137.32
874.853	20600.54
875.23	19746.64
875.608	20567.92
875.986	22250.04
876.363	21279.39
876.741	21932.72
877.118	21375.16
877.495	22418.28
877.873	22783.8
878.25	23971.13
878.627	22998.52
879.004	23310.96
879.381	23183.66
879.758	22578.87
880.135	21018.51
880.512	22229.24
880.889	21625.05
881.265	21415.6
881.642	21246.38
882.019	21606.21
882.395	21162.18
882.772	22012.2
883.148	21057.95
883.524	20985.33
883.901	20861.08
884.277	21178.7
884.653	21030.88
885.029	21644.38
885.405	23965.2
885.781	23768.03
886.157	22785.43
886.532	23067.82
886.908	23048.62
887.284	25628.33
887.659	26464.52
888.035	27281.49
888.411	27989.72
888.786	28371.69
889.161	29365.97
889.537	28822.74
889.912	29742.02
890.287	29718.37
890.662	30473.26
891.037	29914.07
891.412	27889.94
891.787	27594.88
892.162	26631.66
892.536	27240.9
892.911	26200.47
893.286	25625.69
893.66	24576.51
894.035	25200.55
894.409	27427.59
894.784	26330.29
895.158	26762.36
895.532	28334.99
895.906	29107.57
896.281	29783.47
896.655	29297.29
897.029	33474.08
897.402	34870.04
897.776	38816.32
898.15	38685.88
898.524	38268.39
898.898	38743.61
899.271	43365.05
899.645	37568.44
900.018	36077.74
900.392	37394.98
900.765	37696.88
901.138	34882.69
901.511	34342.21
901.884	31528.96
902.258	29066.84
902.631	30023.84
903.003	34566.99
903.376	31196.3
903.749	34976.22
904.122	37446.35
904.495	41254.39
904.867	41771.65
905.24	36274.02
905.612	33779.66
905.985	34566.41
906.357	36162.15
906.729	34535.72
907.102	29514.17
907.474	28388.58
907.846	28573.14
908.218	28204.41
908.59	24936.65
908.962	24122.57
909.334	25980.23
909.705	27292.4
910.077	26499.07
910.449	27571.17
910.82	28347.51
911.192	31179.41
911.563	32398.04
911.935	34665.95
912.306	34717.34
912.677	35851.25
913.048	35519.2
913.419	38546.61
913.79	38750.99
914.161	41564.41
914.532	39757.1
914.903	36521.03
915.274	34696.32
915.645	34194.46
916.015	30107.23
916.386	28694.34
916.756	30532.49
917.127	31488.22
917.497	28148.38
917.868	30664.01
918.238	29128.22
918.608	29957.91
918.978	30602.78
919.348	32421.79
919.718	33500.6
920.088	32298.3
920.458	33561.04
920.828	35328.36
921.198	33501.9
921.567	35763.63
921.937	27697.81
922.306	27947.3
922.676	30144.65
923.045	25141.73
923.415	23883.7
923.784	21757.84
924.153	22378.42
924.522	22372.4
924.891	21026.56
925.26	22522.13
925.629	21998.78
925.998	25290.35
926.367	24706.42
926.736	23537.48
927.104	28020.8
927.473	30116.69
927.842	36366.72
928.21	35991.89
928.578	37821.36
928.947	35809.28
929.315	36009.27
929.683	42262.44
930.051	42615.41
930.42	49488.42
930.788	42285.08
931.156	41988.3
931.523	39368.88
931.891	36398.77
932.259	34925.92
932.627	40466.8
932.994	57179.08
933.362	47272.03
933.729	41024.05
934.097	39223.97
934.464	33159.06
934.831	38266.15
935.199	37712.45
935.566	36572.59
935.933	36994.21
936.3	44880.74
936.667	34937.64
937.034	31547.94
937.401	31218.27
937.767	26948.7
938.134	24000.7
938.501	33875.28
938.867	36099.24
939.234	61078.86
939.6	52103.94
939.967	57560.94
940.333	38495.33
940.699	32821.48
941.065	26311.73
941.431	34507.56
941.798	33274.94
942.163	43718.29
942.529	27337.9
942.895	25165.67
943.261	16277.69
943.627	21375.64
943.992	18694.01
944.358	18733.49
944.723	18794.15
945.089	18319.85
945.454	16910.17
945.82	18047.05
946.185	17348.93
946.55	20106.84
946.915	18052.73
947.28	21194.88
947.645	18657.63
948.01	17234.16
948.375	17960.39
948.74	21539.04
949.104	25152.44
949.469	36338.58
949.834	64269.56
950.198	60940.39
950.562	36542.51
950.927	30429.96
951.291	36611.23
951.655	31180.22
952.02	29272.65
952.384	22159.17
952.748	19293.87
953.112	18822.57
953.476	16367.09
953.839	15132.08
954.203	14987.92
954.567	18742
954.931	29520.23
955.294	25259.63
955.658	25384.88
956.021	43213.42
956.385	73241.63
956.748	108015.58
957.111	167387.52
957.474	188079.4
957.837	211776.66
958.2	160109.45
958.563	57566.51
958.926	38927.98
959.289	59066.98
959.652	66036.14
960.015	49472.99
960.377	70971.44
960.74	80951.55
961.102	139735.52
961.465	149935.34
961.827	80377.22
962.189	154218.56
962.552	106929.86
962.914	85674.79
963.276	55555.76
963.638	45911.5
964	45539.46
964.362	30818.91
964.724	29795.01
965.085	21259.42
965.447	17429.37
965.809	19842.44
966.17	19847.84
966.532	21482.37
966.893	19727.52
967.255	17956.44
967.616	21191.46
967.977	16951.94
968.338	18486.19
968.699	15190.56
969.061	15174.79
969.421	15277.7
969.782	17131.8
970.143	14478.33
970.504	14991.09
970.865	17045
971.225	17424.88
971.586	17054.14
971.946	24276.79
972.307	21074.16
972.667	27581.11
973.027	28448.77
973.388	34495.45
973.748	23502.37
974.108	25615.13
974.468	34633.89
974.828	26698.01
975.188	20557.31
975.548	18854.11
975.907	15863.78
976.267	17788.18
976.627	14934.85
976.986	15452.6
977.346	14722.05
977.705	14141.34
978.064	12875.64
978.424	10717.01
978.783	11073.1
979.142	12634.75
979.501	12119.38
979.86	12809.46
980.219	12333.03
980.578	15912.95
980.937	17856.44
981.296	15907.8
981.654	16376.93
982.013	25452.38
982.371	33038.94
982.73	30850.03
983.088	34890.44
983.447	37188.42
983.805	53078.43
984.163	111050.29
984.521	123174.75
984.879	180433.46
985.237	-293594.3
985.595	282959.84
985.953	70513.94
986.311	40675.02
986.669	23603.36
987.026	20365.13
987.384	27388.77
987.741	28312.59
988.099	20249.42
988.456	16140.87
988.814	15115.15
989.171	13159.59
989.528	12996.21
989.885	13703.64
990.242	10866.91
990.599	13530.84
990.956	11089.94
991.313	7757.25
991.67	6375.41
992.027	6774.13
992.383	6023.16
992.74	5281.18
993.096	5550.47
993.453	5746.39
993.809	5947.48
994.165	7926.64
994.522	7275.81
994.878	8004.84
995.234	10058.93
995.59	9918.89
995.946	9361.87
996.302	10684.05
996.658	12342.5
997.013	13561.37
997.369	16109.31
997.725	20668.73
998.08	13382.23
998.436	20616.64
998.791	28458.28
999.147	28408.23
999.502	31003.26
999.857	22563.4
1000.212	36796.49
1000.567	52406.59
1000.922	30275.48
1001.277	19243.42
1001.632	14258.22
1001.987	18418.51
1002.342	13226.64
1002.696	10584.39
1003.051	8449.16
1003.406	10233.62
1003.76	10184.29
1004.114	10012.9
1004.469	8433.9
1004.823	6964.38
1005.177	7503.1
1005.531	5944.71
1005.885	5267.96
1006.239	5942.94
1006.593	7455.26
1006.947	9958.48
1007.301	7483.98
1007.655	8156.22
1008.008	6009.28
1008.362	6751.73
1008.715	9664.04
1009.069	8779.61
1009.422	13241.61
1009.776	26507.52
1010.129	17567.19
1010.482	14672.3
1010.835	12411.8
1011.188	25716
1011.541	24242.46
1011.894	-147442.53
1012.247	432787.07
1012.6	29255.41
1012.952	18474.86
1013.305	9497.55
1013.657	6848.35
1014.01	6501.59
1014.362	5381.76
1014.715	4797.82
1015.067	4191.24
1015.419	4091.11
1015.771	3659.04
1016.123	3251.28
1016.475	3358.44
1016.827	3576.74
1017.179	3852.61
1017.531	3885.92
1017.883	3961.37
1018.234	3827.09
1018.586	4839.41
1018.938	5147.49
1019.289	7076.49
1019.64	8074.92
1019.992	7531.83
1020.343	6897.64
1020.694	5461.51
1021.045	4834.77
1021.396	5519.57
1021.747	5949.57
1022.098	7123.56
1022.449	5158.41
1022.8	4769.03
1023.151	3336.48
1023.501	2940.46
1023.852	3200.43
1024.202	3315.05
1024.553	3641.31
1024.903	3567.6
1025.253	3056.75
1025.604	2746.57
1025.954	3412.8
1026.304	4125.52
1026.654	4791.8
1027.004	7052.94
1027.354	11386.73
1027.703	10749.48
1028.053	14089.14
1028.403	20652.96
1028.753	30013.72
1029.102	40637.52
1029.452	207730.44
1029.801	8904.68
1030.15	5783.98
1030.499	4923.89
897.758	2701.63
901.051	2657.49
904.343	2692.44
907.636	2693.65
910.928	2758.47
914.22	2668.27
917.511	2676.78
920.803	2737.22
924.094	2758.6
927.384	2737.64
930.675	2701.59
933.965	2653.18
937.255	2660.84
940.544	2627.77
943.834	2563.86
947.123	2508.07
950.411	2603.65
953.7	2576.18
956.988	2547.73
960.276	2483.58
963.563	2567.25
966.851	2561.84
970.138	2621.52
973.424	2616.02
976.711	2564.41
979.997	2703.65
983.283	2736.35
986.568	2640.1
989.853	2657.76
993.138	2682.83
996.423	2769.94
999.708	2703.74
1002.992	2770.64
1006.275	2601.29
1009.559	2650.37
1012.842	2769.17
1016.125	2696.05
1019.408	2676.25
1022.69	2764.8
1025.972	2781.12
1029.254	2756.96
1032.536	2686.46
1035.817	2715.19
1039.098	2654.15
1042.379	2806.92
1045.659	2800.04
1048.939	2730.71
1052.219	2753.47
1055.498	2766.9
1058.778	2751.12
1062.057	2739.12
1065.335	2756.68
1068.614	2776.7
1071.892	2758.61
1075.17	2838.95
1078.447	2822.24
1081.724	2816.41
1085.001	2852.3
1088.278	2827.71
1091.554	2842.47
1094.83	2837.5
1098.106	2864.8
1101.382	2910.1
1104.657	2908.77
1107.932	2904.84
1111.206	2868.17
1114.481	2828.07
1117.755	2825.98
1121.029	2805.75
1124.302	2858.07
1127.575	2805.81
1130.848	2794.44
1134.121	2753.36
1137.393	2704.64
1140.665	2774.48
1143.937	2748.38
1147.208	2707.84
1150.48	2744.8
1153.75	2734.14
1157.021	2769.66
1160.291	2738.09
1163.561	2784.41
1166.831	2773.61
1170.101	2806.33
1173.37	2779.18
1176.639	2721.78
1179.907	2780.63
1183.176	2785.18
1186.444	2792.98
1189.711	2822.55
1192.979	2830.91
1196.246	2787.67
1199.513	2803.65
1202.78	2801.97
1206.046	2809.45
1209.312	2838.08
1212.578	2864.3
1215.843	2816.52
1219.108	2792.4
1222.373	2815.74
1225.638	2777.14
1228.902	2763.28
1232.166	2726.74
1235.43	2709.81
1238.693	2732.61
1241.956	2732.03
1245.219	2768.08
1248.482	2758.68
1251.744	2752.79
1255.006	2903.67
1258.268	2861.83
1261.529	2804.41
1264.79	2810.46
1268.051	2915.4
1271.312	2933.48
1274.572	2895.12
1277.832	2884.55
1281.092	2876.43
1284.351	2849.21
1287.61	2826.6
1290.869	2742.18
1294.128	2715.84
1297.386	2807.66
1300.644	2796.1
1303.902	2809.21
1307.159	2665.11
1310.416	2720.92
1313.673	2747.14
1316.93	2730.93
1320.186	2777.68
1323.442	2822.11
1326.697	2808.43
1329.953	2799.18
1333.208	2823.85
1336.463	2805.05
1339.717	2742.98
1342.972	2882.33
1346.226	2857.57
1349.479	2787.66
1352.733	2757.19
1355.986	2783.01
1359.238	2759.84
1362.491	2762.43
1365.743	2767.3
1368.995	2761.28
1372.247	2773.51
1375.498	2799.32
1378.749	2810.31
1382	2767.59
1385.251	2822.89
1388.501	2785.88
1391.751	2768.06
1395	2742.43
1398.25	2773.69
1401.499	2780.09
1404.748	2704.89
1407.996	2696.25
1411.244	2680.6
1414.492	2663.06
1417.74	2640.96
1420.987	2649.99
1424.234	2707.86
1427.481	2689.17
1430.728	2745.93
1433.974	2721.38
1437.22	2736.71
1440.465	2738.72
1443.711	2700.27
1446.956	2738.41
1450.201	2724.46
1453.445	2770.01
1456.689	2748.45
1459.933	2760.06
1463.177	2793.6
1466.42	2762.84
1469.663	2743.39
1472.906	2736.45
1476.148	2813.98
1479.391	2772.86
1482.633	2740.87
1485.874	2753.03
1489.115	2737.38
1492.356	2744.31
1495.597	2717.79
1498.838	2721.59
1502.078	2691.05
1505.318	2639.36
1508.557	2682.21
1511.797	2656.31
1515.036	2726.59
1518.274	2718.63
1521.513	2693.5
1524.751	2714.38
1527.989	2725.57
1531.227	2740.41
1534.464	2730.42
1537.701	2752.04
1540.938	2771.19
1544.174	2724.37
1547.41	2723.9
1550.646	2765.64
1553.882	2796.03
1557.117	2847.72
1560.352	2866.19
1563.587	2820.68
1566.821	2778.59
1570.055	2816.34
1573.289	2785.58
1576.523	2861.21
1579.756	2867.81
1582.989	2887.94
1586.222	2847.25
1589.454	2888.17
1592.686	2858.66
1595.918	2881.1
1599.15	2872.06
1602.381	2950.69
1605.612	2900.94
1608.843	3000.1
1612.073	2912.08
1615.303	2896.12
1618.533	2884.21
1621.762	2887.41
1624.992	2876.73
1628.221	2861.24
1631.449	2846.83
1634.678	2903.73
1637.906	2857.74
1641.134	2897.9
1644.361	2851.62
1647.588	2842.91
1650.815	2858.94
1654.042	2838.58
1657.269	2869.79
1660.495	2816.69
1663.72	2840.38
1666.946	2806.51
1670.171	2747.74
1673.396	2721.84
1676.621	2712.12
1679.845	2734.42
1683.069	2756.22
1686.293	2799.29
1689.517	2768.03
1692.74	2695.73
1695.963	2729.61
1699.185	2745.74
1702.408	2718.47
1705.63	2762.69
1708.852	2774.09
1712.073	2746.48
1715.294	2729.1
1718.515	2788.79
1721.736	2735.89
1724.956	2730.52
1728.176	2758.21
1731.396	2779.72
1734.616	2766.8
1737.835	2793.46
1741.054	2775.63
1744.272	2767.88
1747.491	2799.38
1750.709	2855.42
1753.927	2757.67
1757.144	2803.39
1760.361	2845.99
1763.578	2838.33
1766.795	2779.16
1770.011	2788.67
1773.227	2832.91
1776.443	2864.37
1779.658	2910.68
1782.874	2850.42
1786.089	2827.86
1789.303	2830.81
1792.518	2837.5
1795.732	2824.66
1798.945	2835.18
1802.159	2884.85
1805.372	2782.72
1808.585	2765.75
1811.797	2767.55
1815.01	2820.41
1818.222	2822.34
1821.434	2794.11
1824.645	2855.63
1827.856	2837.75
1831.067	2875.05
1834.278	2834.6
1837.488	2817.91
1840.698	2969.6
1843.908	2892.48
1847.117	2855.22
1850.326	2734.22
1853.535	2843.38
1856.744	2872
1859.952	2782.03
1863.16	2785.91
1866.368	2810.43
1869.575	2913.19
1872.782	2799.2
1875.989	2738.61
1879.196	2824.9
1882.402	2818.23
1885.608	2861.19
1888.814	2759.12
1892.019	2652.09
1895.224	2706.86
1898.429	2689.1
1901.634	2663.66
1904.838	2640.85
1908.042	2690.99
1911.246	2697.75
1914.449	2627.63
1917.652	2624.63
1920.855	2605.87
1924.058	2660.15
1927.26	2696.34
1930.462	2723.44
1933.664	2747.71
1936.865	2683.96
1940.066	2692.77
1943.267	2639.19
1946.467	2655.28
1949.668	2683.45
1952.868	2751.77
1956.067	2728.34
1959.267	2657.27
1962.466	2685.89
1965.665	2671.39
1968.863	2664.53
1972.061	2682.34
1975.259	2685.18
1978.457	2763.11
1981.654	2722.55
1984.852	2722.45
1988.048	2655.09
1991.245	2658.21
1994.441	2742.77
1997.637	2730.06
2000.833	2713.24
2004.028	2754.52
2007.223	2809.67
2010.418	2782.22
2013.613	2745.64
2016.807	2714.31
2020.001	2719.23
2023.194	2766.83
2026.388	2740.98
2029.581	2689.19
2032.774	2737.35
2035.966	2741.53
2039.158	2672.23
2042.35	2698.55
2045.542	2623.45
2048.733	2726.49
2051.924	2750.34
2055.115	2782.42
2058.306	2721.18
2061.496	2782.8
2064.686	2849.14
2067.875	2762.48
2071.065	2777.13
2074.254	2805.85
2077.442	2760.76
2080.631	2850.46
2083.819	2738.36
2087.007	2720.27
2090.195	2688.54
2093.382	2726.88
2096.569	2706.55
2099.756	2658.02
2102.942	2682.31
2106.128	2689.69
2109.314	2681.01
2112.5	2640.49
2115.685	2617.43
2118.87	2628.18
2122.055	2697.1
2125.239	2663.04
2128.424	2636.2
2131.608	2743.64
2134.791	2722.71
2137.974	2781.19
2141.157	2765.26
2144.34	2715.4
2147.523	2732.3
2150.705	2746.54
2153.887	2726.52
2157.068	2671.49
2160.25	2675.64
2163.431	2715.18
2166.611	2655.25
2169.792	2671.16
2172.972	2563.45
2176.152	2646.72
2179.331	2680.26
2182.511	2660.15
2185.69	2690.49
2188.868	2684.83
2192.047	2742.25
2195.225	2730.55
2198.403	2677.79
2201.58	2674.56
2204.758	2669.57
2207.935	2753.34
2211.111	2639.9
2214.288	2622.77
2217.464	2661.47
2220.64	2636.35
2223.815	2690.39
2226.991	2610.02
2230.166	2631.53
2233.34	2658.62
2236.515	2684.99
2239.689	2760.24
2242.863	2705.06
2246.036	2757.05
2249.209	2764.79
2252.382	2801.09
2255.555	2784.06
2258.727	2720.88
2261.9	2762.81
2265.071	2753.05
2268.243	2757.46
2271.414	2687.51
2274.585	2647.33
2277.756	2716.29
2280.926	2671.64
2284.096	2711.33
2287.266	2617.95
2290.436	2675.16
2293.605	2701.15
2296.774	2732.65
2299.942	2755.18
2303.111	2770.69
2306.279	2819.43
2309.447	2804.45
2312.614	2778.19
2315.781	2800.3
2318.948	2767.65
2322.115	2805.38
2325.281	2707.06
2328.447	2731.14
2331.613	2705.33
2334.779	2675.91
2337.944	2679.15
2341.109	2675.08
2344.274	2661.58
2347.438	2624.2
2350.602	2648.85
2353.766	2669.31
2356.929	2654.46
2360.092	2695.24
2363.255	2646.92
2366.418	2576.28
2369.58	2694.2
2372.742	2475.07
2375.904	2491.3
2379.066	2463.41
2382.227	2505.67
2385.388	2467.67
2388.548	2386.68
2391.709	2446.73
2394.869	2426.89
2398.029	2527.46
2401.188	2543.8
2404.347	2475.75
2407.506	2623.06
2410.665	2653.85
2413.823	2661.21
2416.981	2614.17
2420.139	2647.04
2423.296	2699.68
2426.453	2671.19
2429.61	2694.7
2432.767	2626.04
2435.923	2664.52
2439.079	2625.68
2442.235	2677.07
2445.391	2601.79
2448.546	2632.54
2451.701	2682.96
2454.855	2651.97
2458.009	2709.6
2461.163	2709.71
2464.317	2668.66
2467.471	2701.92
2470.624	2741.25
2473.777	2711.45
2476.929	2724.45
2480.082	2746.32
2483.234	2708.74
2486.385	2664.96
2489.537	2656.92
2492.688	2613.67
2495.839	2634.75
2498.989	2644.09
2502.14	2632.29
2505.29	2612.93
2508.439	2640.8
2511.589	2561.11
2514.738	2576.99
2517.887	2608.43
2521.035	2671.86
2524.183	2658.5
2527.331	2638.02
2530.479	2608.06
2533.627	2621.94
