Data from N_3_DEC_NC_4N_Splice17_13-06-45-666.txt Node
Date: Sat Mar 14 13:06:45 EDT 2020
User: sa697716
Spectrometer: FLMS03696
Trigger mode: 0
Integration Time (sec): 3.180400E-1
Scans to average: 20
Electric dark correction enabled: true
Nonlinearity correction enabled: true
Boxcar width: 5
XAxis mode: Wavelengths
Number of Pixels in Spectrum: 2048
>>>>>Begin Spectral Data<<<<<
187.83	-251838.12
188.298	1664.25
188.766	958.12
189.233	840.86
189.701	1180.9
190.169	1661.24
190.636	672.01
191.104	615.71
191.571	104.39
192.039	-86.2
192.506	-106.66
192.974	467.24
193.441	-1142.75
193.908	-472.07
194.375	-133.96
194.842	-78.9
195.31	-8.53
195.777	163.62
196.244	414.95
196.711	440.03
197.177	530.68
197.644	709.06
198.111	1220.86
198.578	1726.1
199.045	1381.06
199.511	2230.12
199.978	2592.92
200.445	2183.07
200.911	2396
201.378	2652.96
201.844	2405.4
202.31	4125.5
202.777	4312.4
203.243	2397.72
203.709	2281.66
204.176	2719.69
204.642	2260.14
205.108	2110.86
205.574	1725.91
206.04	1570.75
206.506	1463.96
206.972	1378.3
207.438	1327.35
207.903	1518.08
208.369	1328.68
208.835	1318.25
209.301	1377.58
209.766	1385.9
210.232	1373.45
210.697	1695.7
211.163	2062.94
211.628	3078.51
212.094	2606.02
212.559	3250.6
213.024	2015.54
213.49	2460.64
213.955	2397.44
214.42	2327.54
214.885	2187.27
215.35	2088.61
215.815	2036.3
216.28	2172.07
216.745	1774.12
217.21	1908.32
217.675	1717.35
218.14	1918.12
218.604	2133.57
219.069	2409.04
219.534	2522.04
219.998	2876.12
220.463	3427.1
220.927	4130.58
221.392	3854.63
221.856	3887.85
222.32	4844.78
222.785	5947.7
223.249	7429.56
223.713	8213.58
224.177	8215.25
224.642	10450.03
225.106	12854.58
225.57	14037.92
226.034	10455.67
226.497	15876.14
226.961	14330.16
227.425	16672.24
227.889	18419.14
228.353	18399.51
228.816	37965.12
229.28	36184.53
229.744	30448.47
230.207	18512.81
230.671	18203.12
231.134	30009
231.597	34580.16
232.061	34445.34
232.524	33564.64
232.987	23116.9
233.45	20836.4
233.914	18684.91
234.377	19113.9
234.84	17527.13
235.303	20635.8
235.766	22995.62
236.229	23717.77
236.691	14927.54
237.154	16751.93
237.617	12592.72
238.08	12885.09
238.542	15030.54
239.005	10760.45
239.468	10666.5
239.93	10041.34
240.393	9111.83
240.855	8012.55
241.317	8218.86
241.78	9989.02
242.242	10338.36
242.704	11202.4
243.166	9759.97
243.629	8883.13
244.091	10235.71
244.553	11245.5
245.015	12089.63
245.477	15646.84
245.939	22875.59
246.4	24257.54
246.862	23577.22
247.324	22260.7
247.786	24825.13
248.247	32573.16
248.709	33613.7
249.17	25072.36
249.632	23669.96
250.093	27508.35
250.555	23761.5
251.016	14531.3
251.477	13800.66
251.939	14928.04
252.4	15614.79
252.861	18560.43
253.322	17261.39
253.783	20510.68
254.244	26597.44
254.705	20954.32
255.166	18598.32
255.627	18320.44
256.088	25893.02
256.549	27535.37
257.009	23710.27
257.47	28836.38
257.931	23534.7
258.391	17637.47
258.852	18195.8
259.312	19126.73
259.773	23644.77
260.233	20054.55
260.694	16948.33
261.154	19214.4
261.614	15426.76
262.074	13814.97
262.534	14375.27
262.994	13548.89
263.455	18050.47
263.915	15235.62
264.374	14351.53
264.834	15660.3
265.294	17335.53
265.754	17945.32
266.214	16997.5
266.673	15932.5
267.133	20059.21
267.593	19902.73
268.052	24364.92
268.512	21221.87
268.971	25644.28
269.431	28158.16
269.89	25203.85
270.349	37826.59
270.809	42242.31
271.268	37962.36
271.727	85037.72
272.186	55182.45
272.645	41344.55
273.104	29834.68
273.563	43178.39
274.022	33917.49
274.481	28867.57
274.94	22287.12
275.399	16553.63
275.857	19259.06
276.316	26041.84
276.775	23207.41
277.233	22862.31
277.692	21412.57
278.15	24205.73
278.609	24939.78
279.067	23077.77
279.525	21448.74
279.984	27699.89
280.442	33258.13
280.9	32884.56
281.358	21653.83
281.816	20200.69
282.274	19776.59
282.732	20429.69
283.19	20566.9
283.648	17729.19
284.106	18890.69
284.564	19203.74
285.021	17803.05
285.479	13286.04
285.937	12049.33
286.394	10595.03
286.852	10901.92
287.309	11470.13
287.767	11109.96
288.224	10598.54
288.682	11642.04
289.139	12807.98
289.596	11731.86
290.053	12194.02
290.511	15398.89
290.968	18713.13
291.425	25379.28
291.882	21165.55
292.339	18438.1
292.796	18314.05
293.252	17234.93
293.709	13729.92
294.166	12291.84
294.623	13589.83
295.079	13035.08
295.536	13106.09
295.992	11897.11
296.449	11761.73
296.905	12228.48
297.362	11735.41
297.818	12354.13
298.274	12812.31
298.731	13047.17
299.187	12907.55
299.643	13852.01
300.099	16767.91
300.555	18360.26
301.011	15356.81
301.467	14834.71
301.923	17319.62
302.379	16921.95
302.835	16604.33
303.291	16622.57
303.746	18908.32
304.202	23940.78
304.658	24049.9
305.113	16195.7
305.569	15883.43
306.024	16897.83
306.479	16054.99
306.935	13581.88
307.39	14806.05
307.845	13680.34
308.301	13802.56
308.756	13437.66
309.211	12925.93
309.666	13230.66
310.121	16452.19
310.576	16693.71
311.031	16562.48
311.486	18918.37
311.94	18877
312.395	25261.99
312.85	47393.34
313.305	232035.59
313.759	1203722.47
314.214	87348.29
314.668	69296.92
315.123	58229.2
315.577	20941.11
316.032	18700.5
316.486	23531.69
316.94	18583.47
317.394	12957.91
317.849	10101.54
318.303	9580.7
318.757	9049.29
319.211	10003.8
319.665	8772.04
320.119	8873.13
320.572	12709.8
321.026	11879.28
321.48	9890.58
321.934	10775.92
322.387	10777.06
322.841	11633.24
323.295	10472.11
323.748	12045.68
324.202	12249.93
324.655	14725.91
325.108	20628.03
325.562	14598.63
326.015	17306.89
326.468	13100.6
326.921	14662.48
327.374	13721.46
327.827	14304.73
328.28	16195.27
328.733	10851.17
329.186	9529.91
329.639	9074.54
330.092	7640.84
330.545	7270.32
330.997	7369.55
331.45	8054.45
331.903	9460.56
332.355	16234.02
332.808	15788.79
333.26	13034.73
333.713	14163.38
334.165	14273.45
334.617	19046.21
335.069	15356.93
335.522	27717.17
335.974	30602.96
336.426	27934.66
336.878	19271.61
337.33	9795.14
337.782	9540.43
338.234	11966.34
338.686	14322.68
339.137	16931.12
339.589	15969.13
340.041	12583.73
340.493	10851.38
340.944	11115.38
341.396	11978.5
341.847	10123.13
342.299	11975.14
342.75	14695.41
343.201	12819.18
343.653	14777.19
344.104	18203.42
344.555	14312.95
345.006	22165.21
345.457	17029.56
345.908	13526.53
346.359	12755.22
346.81	10385.01
347.261	10933.48
347.712	10730.93
348.163	11505.46
348.613	11653.74
349.064	10905.04
349.515	9557.42
349.965	9833.67
350.416	11798.99
350.866	12966.9
351.317	14637.95
351.767	24233.43
352.217	30637.96
352.668	25458.69
353.118	23368.1
353.568	22516.19
354.018	17750
354.468	18726.55
354.918	13448.43
355.368	11767.1
355.818	16616.11
356.268	47742.51
356.718	200100.34
357.168	49881.54
357.617	25013.93
358.067	27838.29
358.517	26084.36
358.966	30681.04
359.416	34506.84
359.865	37311.2
360.315	44592.48
360.764	20874.01
361.213	11728.85
361.663	11114.51
362.112	13685.22
362.561	22123.91
363.01	16686.87
363.459	14074.19
363.908	15226.45
364.357	12921.68
364.806	21815.35
365.255	14988.33
365.703	13753.35
366.152	13753.76
366.601	11155.07
367.05	9085.99
367.498	8288.16
367.947	8655.07
368.395	8975.26
368.844	7963.28
369.292	9582.89
369.74	6633.82
370.189	10160.37
370.637	11895.03
371.085	10279.66
371.533	12508.98
371.981	12043.19
372.429	11455.04
372.877	11943.21
373.325	10050.97
373.773	10230.44
374.221	9130.41
374.669	11322.93
375.116	9777.2
375.564	9848.68
376.012	11023.41
376.459	9134.05
376.907	10926.39
377.354	13251.16
377.801	12397.64
378.249	14236.68
378.696	18245.87
379.143	22097.83
379.591	23578.7
380.038	40032.05
380.485	29063.41
380.932	31432.17
381.379	28791.96
381.826	21220.46
382.273	15046.98
382.72	13125.96
383.166	12813.85
383.613	8290.22
384.06	7487.82
384.506	8671.88
384.953	6378.45
385.4	6412.26
385.846	5628.79
386.292	5472.41
386.739	5365.45
387.185	5332.59
387.631	5355.67
388.078	5216.11
388.524	5607.95
388.97	5198.76
389.416	4356.86
389.862	4649.06
390.308	4418.61
390.754	4501.72
391.2	4907.22
391.645	5031.75
392.091	4819.85
392.537	4671.61
392.983	4683.78
393.428	4634.57
393.874	4958.65
394.319	4984.54
394.765	4733.65
395.21	4876.68
395.655	4581.85
396.101	4292.57
396.546	3886.51
396.991	3933.2
397.436	3664.51
397.881	3547.12
398.326	3351.69
398.771	3193.94
399.216	2797.98
399.661	2526.52
400.106	2524.21
400.551	2586.96
400.995	2326.6
401.44	2305.92
401.885	2167.68
402.329	2185.85
402.774	2097.9
403.218	2036.15
403.663	1959.35
404.107	2016.32
404.551	2033.15
404.995	1862.68
405.44	1794.27
405.884	1820.67
406.328	1758.23
406.772	1752.33
407.216	1597.5
407.66	1541.45
408.104	1459.31
408.547	1365.11
408.991	1319.05
409.435	1262.28
409.879	1247.25
410.322	1232.35
410.766	1188.48
411.209	1132.16
411.653	1088.04
412.096	1065.88
412.54	1065.99
412.983	1059.53
413.426	1062.42
413.869	1060.83
414.312	1047.43
414.756	1009
415.199	961.77
415.642	935.58
416.085	936.07
416.527	927.86
416.97	942.75
417.413	897.07
417.856	888.86
418.298	880.07
418.741	872.48
419.184	867.58
419.626	899.92
420.069	899.83
420.511	905.19
420.953	884.59
421.396	877.58
421.838	854.26
422.28	872.21
422.722	876.18
423.164	888.29
423.606	873.7
424.048	870.36
424.49	828.05
424.932	822.7
425.374	810.72
425.816	825.74
426.258	839.84
426.699	848.03
427.141	835.3
427.582	845.56
428.024	838.39
428.465	830.88
428.907	811.4
429.348	800.57
429.789	799.35
430.231	781.71
430.672	790.8
431.113	770.75
431.554	759.39
431.995	736.64
432.436	711.81
432.877	694.97
433.318	686.1
433.759	679.61
434.2	679.55
434.64	671.87
435.081	672.95
435.522	637.03
435.962	612.97
436.403	600.52
436.843	609.62
437.284	596.51
437.724	578.81
438.164	576.72
438.604	563.76
439.045	541.62
439.485	521.43
439.925	509.16
440.365	495.78
440.805	487.98
441.245	481.65
441.685	462.92
442.125	456.93
442.564	459.75
443.004	449.72
443.444	447.88
443.883	448.08
444.323	440.42
444.762	437.23
445.202	441.54
445.641	451.06
446.081	445.06
446.52	448.94
446.959	444.82
447.398	434.66
447.837	428.7
448.276	421.58
448.716	425.53
449.154	429.5
449.593	423.16
450.032	422.3
450.471	412.84
450.91	412.48
451.349	410.75
451.787	408.64
452.226	413.91
452.664	413.15
453.103	413.7
453.541	410.3
453.98	409.97
454.418	411.06
454.856	404.41
455.295	403.17
455.733	406.47
456.171	408.18
456.609	407.89
457.047	408.61
457.485	414.3
457.923	416.03
458.361	411.58
458.798	411.78
459.236	409.39
459.674	411.23
460.111	411.99
460.549	407.4
460.987	405.62
461.424	404.64
461.862	401.97
462.299	396.2
462.736	395.78
463.173	396.05
463.611	392.66
464.048	393.22
464.485	396.51
464.922	394.31
465.359	393.03
465.796	393.51
466.233	390.71
466.67	387.93
467.106	387.86
467.543	382.22
467.98	377.6
468.416	367.21
468.853	363.56
469.29	352.77
469.726	347.64
470.162	337.72
470.599	328.55
471.035	324.21
471.471	316.37
471.907	311.62
472.344	310.24
472.78	310.6
473.216	313.43
473.652	309.88
474.088	307.93
474.523	306.93
474.959	309.39
475.395	305.95
475.831	305.15
476.266	306.9
476.702	306.46
477.138	302.87
477.573	302.36
478.008	301.67
478.444	303.88
478.879	308.29
479.314	309.63
479.75	309.84
480.185	311.59
480.62	313.83
481.055	314.84
481.49	317.44
481.925	321.83
482.36	329.04
482.795	337.68
483.229	345.18
483.664	351.15
484.099	352.51
484.534	357.67
484.968	361.15
485.403	361.55
485.837	359.6
486.271	358.68
486.706	357.79
487.14	351.85
487.574	347.26
488.009	344.18
488.443	341.06
488.877	345.26
489.311	346.5
489.745	350.73
490.179	354.06
490.613	363.42
491.046	367.46
491.48	371.28
491.914	372.69
492.348	375.23
492.781	378.47
493.215	380.29
493.648	380.83
494.082	384.31
494.515	385.78
494.948	392.07
495.382	393.71
495.815	396.1
496.248	400.1
496.681	408.22
497.114	415.74
497.547	423.3
497.98	432.08
498.413	437.85
498.846	444.92
499.279	450.33
499.711	453.3
500.144	456.21
500.577	465.37
501.009	473.97
501.442	482.42
501.874	485.83
502.306	488.29
502.739	496.41
503.171	506.76
503.603	511.34
504.036	520.03
504.468	527.19
504.9	537.21
505.332	543.86
505.764	549.76
506.196	556.5
506.627	568.34
507.059	580.51
507.491	587.76
507.923	590.43
508.354	603.58
508.786	613.95
509.217	627.77
509.649	640.85
510.08	656.46
510.512	671.03
510.943	683.96
511.374	695.36
511.805	711.42
512.237	728.33
512.668	752.77
513.099	773.86
513.53	795.85
513.961	815
514.391	840.46
514.822	867.47
515.253	895.92
515.684	918.3
516.114	941.97
516.545	961.54
516.975	983.18
517.406	1000.95
517.836	1007.2
518.267	1015.51
518.697	1031.16
519.127	1037.14
519.558	1045.26
519.988	1051.73
520.418	1061.73
520.848	1078.34
521.278	1087.37
521.708	1119.69
522.138	1131.5
522.567	1157.26
522.997	1179.02
523.427	1193.31
523.857	1209.76
524.286	1220.79
524.716	1234.3
525.145	1251.76
525.575	1262.28
526.004	1275.89
526.433	1258.97
526.863	1261.71
527.292	1256.33
527.721	1263.17
528.15	1269.11
528.579	1271.92
529.008	1282.28
529.437	1301.26
529.866	1312.57
530.295	1327.06
530.724	1338.69
531.152	1359.99
531.581	1372.18
532.01	1387.63
532.438	1394.45
532.867	1407.67
533.295	1423.01
533.723	1428.2
534.152	1426.95
534.58	1428.46
535.008	1416.7
535.436	1418.66
535.865	1425.99
536.293	1438.14
536.721	1450.29
537.149	1470.89
537.576	1473.1
538.004	1483.31
538.432	1488.82
538.86	1488.41
539.287	1493.13
539.715	1504.63
540.143	1507.33
540.57	1503.65
540.998	1500
541.425	1482.17
541.852	1465.36
542.28	1464.52
542.707	1451.06
543.134	1441.21
543.561	1437.84
543.988	1432.17
544.415	1431.05
544.842	1425.31
545.269	1419.73
545.696	1422.19
546.123	1433.35
546.549	1425.29
546.976	1415
547.403	1415.59
547.829	1416.19
548.256	1417.81
548.682	1415.07
549.108	1410.26
549.535	1411.19
549.961	1413.52
550.387	1402.67
550.813	1398.37
551.24	1403.7
551.666	1405.01
552.092	1396.66
552.518	1392.55
552.943	1388.62
553.369	1395.53
553.795	1400.18
554.221	1400.15
554.646	1397.93
555.072	1407.16
555.498	1410.03
555.923	1416.99
556.349	1428.76
556.774	1435.94
557.199	1436.74
557.625	1441.13
558.05	1435.85
558.475	1443.08
558.9	1442.07
559.325	1434.28
559.75	1428.29
560.175	1422.41
560.6	1416.29
561.025	1413.1
561.449	1412.42
561.874	1415.1
562.299	1416.98
562.723	1420.99
563.148	1411.78
563.572	1413.84
563.997	1421.04
564.421	1422.36
564.846	1422.3
565.27	1424.3
565.694	1420.24
566.118	1427.2
566.542	1432.13
566.966	1424.91
567.39	1419.18
567.814	1408.7
568.238	1406.73
568.662	1407.62
569.086	1408.47
569.509	1411.5
569.933	1397.73
570.357	1390.14
570.78	1371.74
571.204	1359.69
571.627	1349.51
572.05	1345.33
572.474	1343.94
572.897	1331.11
573.32	1323.7
573.743	1313.15
574.166	1296.61
574.589	1294.05
575.012	1287.23
575.435	1285.37
575.858	1276.76
576.281	1266.91
576.704	1253.37
577.126	1242.79
577.549	1233.81
577.972	1224.19
578.394	1216.3
578.817	1210.51
579.239	1195.05
579.661	1184.24
580.084	1172.33
580.506	1160.93
580.928	1157.03
581.35	1148.91
581.772	1143.9
582.194	1132.68
582.616	1122.55
583.038	1110.51
583.46	1101.01
583.882	1098.49
584.303	1099.35
584.725	1094.64
585.147	1097.53
585.568	1103.57
585.99	1111.37
586.411	1115.5
586.833	1125.86
587.254	1126.24
587.675	1135.61
588.096	1144.18
588.518	1138.79
588.939	1125.77
589.36	1122.65
589.781	1111.29
590.202	1092.14
590.623	1084.76
591.043	1081.8
591.464	1072.1
591.885	1069.44
592.305	1064.88
592.726	1054.92
593.147	1055.91
593.567	1052.73
593.987	1046.88
594.408	1042.7
594.828	1038.79
595.248	1034.78
595.669	1021.03
596.089	1015.26
596.509	1009.76
596.929	999.29
597.349	998.43
597.769	989.49
598.189	984.31
598.608	984.12
599.028	985.42
599.448	984.85
599.867	975.02
600.287	971.54
600.706	968.3
601.126	960.81
601.545	959.8
601.965	958.14
602.384	954.87
602.803	956.15
603.222	952.93
603.641	946.94
604.061	944.59
604.48	940.62
604.898	944.61
605.317	946.6
605.736	947.07
606.155	943.78
606.574	936.6
606.992	938.84
607.411	934.61
607.829	927.84
608.248	924.96
608.666	921.71
609.085	920.83
609.503	914.35
609.921	909.7
610.339	910.14
610.758	908.75
611.176	905.19
611.594	898.56
612.012	893.94
612.43	894.73
612.847	897.62
613.265	897.85
613.683	899.58
614.101	899.61
614.518	894.76
614.936	886.92
615.353	876.46
615.771	873.64
616.188	872.59
616.606	869.39
617.023	863.94
617.44	854.03
617.857	847.24
618.274	840.77
618.691	835.89
619.108	830.03
619.525	824.61
619.942	828.64
620.359	829.23
620.776	824.51
621.192	822.19
621.609	820.29
622.026	823.78
622.442	827.04
622.859	828.36
623.275	822.92
623.691	825.36
624.108	832.3
624.524	839.85
624.94	838.97
625.356	845.11
625.772	852.13
626.188	858.8
626.604	859.16
627.02	856.54
627.436	855.2
627.852	860.18
628.268	868.16
628.683	861.95
629.099	855.55
629.514	851.69
629.93	853.94
630.345	856.83
630.761	853.11
631.176	855.42
631.591	851.23
632.007	846.61
632.422	843.8
632.837	834.4
633.252	832.02
633.667	824.54
634.082	817.99
634.497	808.44
634.911	795
635.326	790.92
635.741	776.98
636.155	768.63
636.57	767.63
636.984	764.58
637.399	765.55
637.813	763.13
638.228	760.87
638.642	760.67
639.056	751.05
639.47	748.95
639.884	742.43
640.298	737.08
640.712	733.58
641.126	722.15
641.54	714.35
641.954	705.83
642.368	695.46
642.781	688.97
643.195	675.79
643.609	674.9
644.022	667.96
644.436	661.51
644.849	651.13
645.262	641.78
645.676	640.06
646.089	635.92
646.502	626.5
646.915	622.26
647.328	610.71
647.741	608.26
648.154	598.92
648.567	597.64
648.98	589.73
649.393	589
649.805	585.08
650.218	580.15
650.631	569.93
651.043	565.96
651.456	561.15
651.868	559.99
652.28	568.11
652.693	574.31
653.105	576.08
653.517	580.53
653.929	580.25
654.341	583.87
654.753	577.49
655.165	580.48
655.577	577.47
655.989	574.68
656.401	568.68
656.813	549.19
657.224	536.95
657.636	519.41
658.047	509.4
658.459	497.63
658.87	491
659.282	482.11
659.693	470.37
660.104	461.45
660.515	452.16
660.926	449.42
661.338	446.34
661.749	442.24
662.159	437.14
662.57	432.79
662.981	429.01
663.392	424.26
663.803	424.92
664.213	422.34
664.624	419.25
665.035	420.49
665.445	413.8
665.855	409.63
666.266	405.59
666.676	403
667.086	398.34
667.497	398.53
667.907	394.74
668.317	391.12
668.727	391.17
669.137	390.77
669.547	389.78
669.956	390.02
670.366	391.4
670.776	392.63
671.186	394.69
671.595	396.91
672.005	398.75
672.414	399.48
672.824	400.19
673.233	401.44
673.642	403.59
674.052	405.72
674.461	409.6
674.87	412.37
675.279	412.13
675.688	413.92
676.097	416.88
676.506	415.48
676.915	424.5
677.323	426.45
677.732	427.1
678.141	428.21
678.549	424.59
678.958	424.27
679.366	424.63
679.775	427.35
680.183	436.5
680.592	440.21
681	445.49
681.408	443.98
681.816	449.85
682.224	455.29
682.632	463.43
683.04	481.36
683.448	496.82
683.856	517.32
684.264	540.59
684.671	559.14
685.079	584.92
685.487	612.93
685.894	650.87
686.302	682.94
686.709	710.14
687.116	743.73
687.524	770.96
687.931	796.25
688.338	817.28
688.745	837.31
689.152	860.91
689.559	891.37
689.966	922.98
690.373	941.88
690.78	973
691.187	1019.41
691.593	1056.5
692	1090.91
692.407	1138.71
692.813	1196.47
693.22	1243.48
693.626	1292.84
694.032	1333.8
694.439	1393.25
694.845	1440.89
695.251	1500.02
695.657	1553.76
696.063	1629.46
696.469	1688.97
696.875	1746.19
697.281	1782.92
697.687	1826.15
698.093	1863.83
698.498	1927.62
698.904	1978.18
699.31	2052.59
699.715	2110.4
700.12	2187.35
700.526	2211.71
700.931	2272.71
701.337	2319.76
701.742	2355.59
702.147	2427.44
702.552	2459.41
702.957	2515.26
703.362	2540.11
703.767	2570.24
704.172	2608.61
704.577	2580.45
704.981	2622.99
705.386	2644.71
705.791	2647
706.195	2711.45
706.6	2725.57
707.004	2796.15
707.408	2776.68
707.813	2805.3
708.217	2802.46
708.621	2811.12
709.025	2896.52
709.43	2902.91
709.834	2956.18
710.237	3017.8
710.641	3012.85
711.045	3037.47
711.449	3038.41
711.853	3067.85
712.256	3106.72
712.66	3143.08
713.064	3209.9
713.467	3248.19
713.87	3347.3
714.274	3391.58
714.677	3487.92
715.08	3625.18
715.484	3767.22
715.887	3940.85
716.29	4112.05
716.693	4290.67
717.096	4493.12
717.499	4604.25
717.901	4631.55
718.304	4659.9
718.707	4683.76
719.109	4601.27
719.512	4578.2
719.915	4471.98
720.317	4429.83
720.719	4469.2
721.122	4449.17
721.524	4413.78
721.926	4384.4
722.328	4470.25
722.731	4465.35
723.133	4493.37
723.535	4660.51
723.937	4681.71
724.338	4729.84
724.74	4763.69
725.142	4723.81
725.544	4728.36
725.945	4755.59
726.347	4754.68
726.748	4754.29
727.15	4769.12
727.551	4740.26
727.952	4719.14
728.354	4696.28
728.755	4698.97
729.156	4668.37
729.557	4649.69
729.958	4544.41
730.359	4498.97
730.76	4485.78
731.161	4435.01
731.562	4415.88
731.962	4417.3
732.363	4365.27
732.763	4312.44
733.164	4342.27
733.564	4286.16
733.965	4208.32
734.365	4183.09
734.766	4206.82
735.166	4174.79
735.566	4131.16
735.966	4110.68
736.366	4108.59
736.766	4056.91
737.166	4086.17
737.566	4052.83
737.966	4031.01
738.365	4064.75
738.765	4057.73
739.165	3995
739.564	3973.45
739.964	4010.57
740.363	3972.15
740.763	3970.37
741.162	3961.21
741.561	3933.88
741.96	3896.17
742.36	3914.06
742.759	3918.82
743.158	3953.78
743.557	3966.53
743.955	4000.46
744.354	3961.9
744.753	4008.91
745.152	3976.57
745.55	4021.71
745.949	4016.48
746.348	4019.72
746.746	4033.06
747.144	4001.13
747.543	3978.68
747.941	4020.83
748.339	3962.92
748.737	3957.6
749.136	3952.81
749.534	4008.32
749.932	3987.2
750.33	4007.85
750.727	4055.14
751.125	4037.28
751.523	4024.52
751.921	4065.11
752.318	4036.96
752.716	4087.23
753.113	4100.83
753.511	4119.86
753.908	4118.5
754.305	4105.22
754.703	4156.1
755.1	4208.71
755.497	4256.77
755.894	4416.03
756.291	4567.64
756.688	4846.95
757.085	5215.83
757.482	5737.98
757.878	6309.13
758.275	6826.6
758.672	7532.46
759.068	8112.39
759.465	8932.43
759.861	9998.19
760.258	11233.87
760.654	11873.43
761.05	11773.08
761.447	11232.99
761.843	10457.36
762.239	9657.46
762.635	9294.51
763.031	8946.64
763.427	8449.42
763.822	7918.7
764.218	7400.22
764.614	6723.56
765.01	6267.46
765.405	5973.79
765.801	5757.89
766.196	5472.02
766.592	5312.51
766.987	5044.64
767.382	4863.14
767.778	4785.76
768.173	4676.25
768.568	4613.24
768.963	4508.69
769.358	4524.37
769.753	4485.97
770.148	4414.45
770.542	4415.04
770.937	4389.94
771.332	4469.85
771.726	4488.03
772.121	4436.03
772.515	4484.24
772.91	4473.19
773.304	4531.37
773.699	4476.3
774.093	4521.48
774.487	4568.88
774.881	4606.63
775.275	4603.24
775.669	4564.03
776.063	4601.51
776.457	4632.03
776.851	4567.63
777.245	4562.51
777.638	4591.38
778.032	4686.35
778.425	4656.23
778.819	4692.83
779.212	4657
779.606	4625.64
779.999	4644.46
780.392	4630.15
780.786	4697.2
781.179	4714.78
781.572	4750.4
781.965	4762.87
782.358	4717.84
782.751	4766.86
783.143	4723
783.536	4784.51
783.929	4820.36
784.322	4918.23
784.714	4944.85
785.107	4944.67
785.499	5008.04
785.891	4985.52
786.284	4967.88
786.676	5086.38
787.068	5070.2
787.46	5116.13
787.852	5132.43
788.245	5204.05
788.636	5227.98
789.028	5285.79
789.42	5318.43
789.812	5326.4
790.204	5412.42
790.595	5500.95
790.987	5337.48
791.378	5358.22
791.77	5467
792.161	5580.74
792.553	5627.52
792.944	5533.78
793.335	5479.63
793.726	5542.76
794.117	5619.22
794.508	5737.11
794.899	5711.62
795.29	5830.84
795.681	5881.5
796.072	5760.68
796.463	5613.99
796.853	5622.16
797.244	5756.82
797.634	5781.63
798.025	5779.88
798.415	5792.49
798.806	5864.41
799.196	5935.05
799.586	5979.14
799.976	5946.46
800.366	6144.26
800.756	6340.79
801.146	6313.11
801.536	6339.63
801.926	6405.64
802.316	6429.6
802.706	6489.07
803.095	6386.7
803.485	6475.35
803.874	6508.44
804.264	6726.17
804.653	6706.35
805.043	6828.58
805.432	6917.96
805.821	6919.99
806.21	6936.09
806.599	7035.59
806.988	7072.8
807.377	7164.1
807.766	7271.51
808.155	7512.61
808.544	7291.71
808.933	7304.15
809.321	7285.66
809.71	7534.45
810.098	7667.63
810.487	8061.63
810.875	8471.79
811.264	8494.07
811.652	8744.11
812.04	8866.31
812.428	9004.5
812.816	9654.03
813.204	10004.74
813.592	10479.36
813.98	10767.53
814.368	10692.23
814.756	11095.56
815.144	11023.86
815.531	11417.94
815.919	11354.56
816.306	11617.97
816.694	11357.54
817.081	11398.9
817.469	11695.01
817.856	11692.1
818.243	11920.25
818.63	12250.2
819.017	11895.38
819.404	11951.94
819.791	12275.97
820.178	12795.84
820.565	13003.87
820.952	13793.06
821.339	13373.36
821.725	13528.47
822.112	12903.08
822.498	12863.52
822.885	12974.66
823.271	12893.79
823.657	13249.9
824.044	13253.67
824.43	13316.56
824.816	13298.19
825.202	12933.78
825.588	13801.61
825.974	13825.08
826.36	14254.61
826.746	14289.7
827.132	14590.95
827.517	14569.05
827.903	13894.41
828.289	13935.75
828.674	13275.94
829.06	13184.96
829.445	13518.71
829.83	13820.47
830.216	14213.17
830.601	14521.82
830.986	14172.42
831.371	14060.13
831.756	14533.41
832.141	14182.6
832.526	14166.33
832.911	14402.77
833.295	14302.58
833.68	14701.72
834.065	14176.71
834.449	13403.62
834.834	13341.54
835.218	13335.79
835.603	13616.95
835.987	13438.04
836.371	14135.96
836.755	14041.94
837.139	14376.34
837.524	14574.72
837.908	14415.04
838.291	14465.78
838.675	14519.59
839.059	14692.69
839.443	14680.93
839.827	14486.35
840.21	14890.55
840.594	14758.2
840.977	14933.42
841.361	14921.91
841.744	15237.78
842.127	15104.9
842.511	15306.04
842.894	15812.42
843.277	16131.64
843.66	16586.71
844.043	16656.54
844.426	15977.59
844.809	15711.89
845.191	15740.26
845.574	15345.81
845.957	15047.9
846.339	14959.63
846.722	14520.12
847.104	14572.39
847.487	14424.24
847.869	14437.3
848.252	14674.08
848.634	14945.72
849.016	15167.73
849.398	15270.68
849.78	15981.58
850.162	15975.73
850.544	16323.95
850.926	16845.51
851.307	16771.04
851.689	17004.46
852.071	17383.96
852.452	17649.31
852.834	17630.39
853.215	17969.13
853.597	18095.52
853.978	18351.78
854.359	18739.13
854.741	17897.76
855.122	17815.88
855.503	17572.16
855.884	17687.63
856.265	17642.24
856.646	17738.12
857.026	17407.59
857.407	17357.87
857.788	17492.12
858.169	17725.89
858.549	17009.74
858.93	17538.48
859.31	17578.44
859.69	17759.26
860.071	17414.05
860.451	17226.8
860.831	16610.27
861.211	17586.58
861.591	18038.79
861.971	18019.34
862.351	18189.15
862.731	18515.86
863.111	18740.7
863.491	19013.6
863.87	19741.89
864.25	20041.28
864.629	19702.14
865.009	20132.1
865.388	20850.86
865.768	22343.57
866.147	22266.13
866.526	21037.01
866.905	21295.07
867.284	22493.94
867.663	21370.75
868.042	20477.62
868.421	20401.68
868.8	20750.43
869.179	20955.64
869.558	19731.72
869.936	18201.83
870.315	18519.58
870.693	18965.98
871.072	20441.22
871.45	19464.11
871.828	19715.83
872.207	20736.63
872.585	20435.66
872.963	20986.38
873.341	20267.17
873.719	20029.09
874.097	19778.52
874.475	20150.18
874.853	20603.14
875.23	19752.45
875.608	20579.6
875.986	22245.99
876.363	21273.71
876.741	21918.48
877.118	21366.86
877.495	22414.85
877.873	22791.42
878.25	23986.34
878.627	22999.03
879.004	23321.69
879.381	23207.41
879.758	22596.31
880.135	21045.08
880.512	22265.48
880.889	21680.62
881.265	21464.29
881.642	21283.42
882.019	21642.89
882.395	21210.16
882.772	22066.82
883.148	21117.24
883.524	21034.18
883.901	20916.52
884.277	21229.54
884.653	21102.65
885.029	21701.51
885.405	24019.23
885.781	23826.99
886.157	22844.43
886.532	23106.75
886.908	23092.54
887.284	25677.14
887.659	26512.75
888.035	27340.46
888.411	28026.92
888.786	28387.37
889.161	29376.13
889.537	28848.89
889.912	29768.98
890.287	29739.42
890.662	30520.04
891.037	29976.79
891.412	27950.73
891.787	27660.69
892.162	26682.57
892.536	27309.4
892.911	26277
893.286	25715.16
893.66	24648.69
894.035	25268.3
894.409	27501.04
894.784	26375.5
895.158	26787.83
895.532	28352.03
895.906	29104.95
896.281	29782.44
896.655	29312.9
897.029	33475.34
897.402	34856.43
897.776	38808.49
898.15	38685.46
898.524	38268.14
898.898	38779.14
899.271	43425.5
899.645	37629.52
900.018	36154.65
900.392	37490.1
900.765	37786.48
901.138	34956.25
901.511	34418.56
901.884	31613.87
902.258	29151.72
902.631	30129.56
903.003	34657.71
903.376	31259.62
903.749	35045.04
904.122	37505.99
904.495	41301.32
904.867	41810.4
905.24	36306.93
905.612	33795.29
905.985	34563.42
906.357	36139.86
906.729	34489.13
907.102	29477.44
907.474	28355.73
907.846	28535.5
908.218	28190.05
908.59	24914.66
908.962	24100.7
909.334	25962.2
909.705	27296.57
910.077	26497.07
910.449	27584.13
910.82	28369.55
911.192	31213.32
911.563	32453.54
911.935	34743.04
912.306	34774.7
912.677	35908.67
913.048	35557.64
913.419	38579.86
913.79	38784.82
914.161	41597.26
914.532	39773.64
914.903	36538.65
915.274	34713.64
915.645	34220.76
916.015	30113.68
916.386	28717.03
916.756	30594.14
917.127	31559.63
917.497	28198.17
917.868	30697.2
918.238	29183.78
918.608	30022.23
918.978	30633.38
919.348	32440.19
919.718	33496.06
920.088	32281.44
920.458	33564.6
920.828	35298.7
921.198	33464.31
921.567	35748.35
921.937	27701.2
922.306	27945.65
922.676	30138.55
923.045	25161.59
923.415	23901.07
923.784	21765.08
924.153	22371.62
924.522	22337.63
924.891	20992.48
925.26	22488.54
925.629	21951.04
925.998	25242.03
926.367	24671.63
926.736	23502.1
927.104	27998.76
927.473	30117.77
927.842	36398.14
928.21	36060.95
928.578	37918.87
928.947	35877.9
929.315	36128.07
929.683	42389.51
930.051	42698.76
930.42	49522.04
930.788	42321.48
931.156	42003.16
931.523	39368.36
931.891	36359.36
932.259	34929.97
932.627	40452.72
932.994	57201.37
933.362	47250.22
933.729	41042.19
934.097	39249.07
934.464	33221.72
934.831	38330.39
935.199	37759.7
935.566	36614.44
935.933	37072.26
936.3	44854.45
936.667	34930.59
937.034	31530.59
937.401	31182.54
937.767	26913.92
938.134	23983.79
938.501	33844.09
938.867	36089.55
939.234	61051.29
939.6	52024.14
939.967	57383.8
940.333	38463.18
940.699	32729.75
941.065	26242.94
941.431	34404.91
941.798	33187.95
942.163	43584.12
942.529	27262.59
942.895	25067.04
943.261	16217.65
943.627	21307.59
943.992	18664.78
944.358	18707.83
944.723	18810.86
945.089	18350.6
945.454	16961.32
945.82	18112.53
946.185	17420.28
946.55	20148.57
946.915	18116.4
947.28	21271.79
947.645	18733.81
948.01	17286.2
948.375	18016.55
948.74	21598.19
949.104	25191.11
949.469	36340.96
949.834	64197.54
950.198	60884.53
950.562	36523.9
950.927	30386.51
951.291	36544.15
951.655	31133.74
952.02	29227.85
952.384	22116.94
952.748	19228.22
953.112	18763.57
953.476	16344.02
953.839	15115.27
954.203	14968.97
954.567	18722.94
954.931	29487.31
955.294	25211.48
955.658	25357.98
956.021	43181.32
956.385	73182.1
956.748	107923.94
957.111	167349.53
957.474	187550.89
957.837	210992.48
958.2	159305.54
958.563	57303.67
958.926	38751.36
959.289	58862.06
959.652	65731.26
960.015	49296.92
960.377	70658.72
960.74	80741.18
961.102	139342.8
961.465	149669.48
961.827	80334.99
962.189	154317.02
962.552	106900.71
962.914	85756.34
963.276	55664.67
963.638	46008.95
964	45561.06
964.362	30819.9
964.724	29805.26
965.085	21270.41
965.447	17449.52
965.809	19891.59
966.17	19915.39
966.532	21568.61
966.893	19796.45
967.255	18001.84
967.616	21255.59
967.977	17015.1
968.338	18593.41
968.699	15262.75
969.061	15249.41
969.421	15350.15
969.782	17193.45
970.143	14520.31
970.504	15034.88
970.865	17066.01
971.225	17454.21
971.586	17069.77
971.946	24330.84
972.307	21130.28
972.667	27634.56
973.027	28470.14
973.388	34519.67
973.748	23492.94
974.108	25614.89
974.468	34628.55
974.828	26735.79
975.188	20544.75
975.548	18877.82
975.907	15848.1
976.267	17768.85
976.627	14928.66
976.986	15462.15
977.346	14726.73
977.705	14165.04
978.064	12875.41
978.424	10715.76
978.783	11065.62
979.142	12643.42
979.501	12089
979.86	12787.72
980.219	12317.45
980.578	15907.78
980.937	17826.18
981.296	15903.17
981.654	16346.1
982.013	25420.05
982.371	33006.22
982.73	30773.03
983.088	34853.83
983.447	37217.85
983.805	53179.62
984.163	111124.9
984.521	123071.56
984.879	180249.07
985.237	-293572.52
985.595	283710.1
985.953	70628.45
986.311	40763.78
986.669	23735.41
987.026	20476.11
987.384	27521.12
987.741	28437.66
988.099	20325.18
988.456	16214.95
988.814	15202.63
989.171	13191.32
989.528	13001.21
989.885	13728.04
990.242	10864.8
990.599	13503.66
990.956	11017.76
991.313	7719.8
991.67	6345.46
992.027	6745.22
992.383	5991.6
992.74	5259
993.096	5518.13
993.453	5709.3
993.809	5912.8
994.165	7886.67
994.522	7246.61
994.878	8014.96
995.234	10052.35
995.59	9892.9
995.946	9331.58
996.302	10639.26
996.658	12288.57
997.013	13534
997.369	16099.55
997.725	20667.8
998.08	13378.46
998.436	20605.76
998.791	28392.51
999.147	28360.46
999.502	30974.81
999.857	22507.26
1000.212	36729.7
1000.567	52303.24
1000.922	30196.79
1001.277	19123.14
1001.632	14136.51
1001.987	18202.81
1002.342	13051.33
1002.696	10440.91
1003.051	8339.09
1003.406	10108.31
1003.76	10054.64
1004.114	9901.41
1004.469	8324.78
1004.823	6902.28
1005.177	7460.33
1005.531	5931.71
1005.885	5281.74
1006.239	5966.15
1006.593	7495.22
1006.947	10011.3
1007.301	7508.71
1007.655	8199.72
1008.008	6021
1008.362	6754.12
1008.715	9607.86
1009.069	8725.89
1009.422	13142.78
1009.776	26336.22
1010.129	17484.43
1010.482	14557.12
1010.835	12308.28
1011.188	25633.17
1011.541	24116.75
1011.894	-147502.37
1012.247	433938.88
1012.6	29590.73
1012.952	18736.88
1013.305	9645.27
1013.657	6958.52
1014.01	6595.33
1014.362	5467.2
1014.715	4876.65
1015.067	4240.25
1015.419	4150.73
1015.771	3682.66
1016.123	3276.34
1016.475	3371.95
1016.827	3586.57
1017.179	3862.75
1017.531	3871
1017.883	3959.99
1018.234	3836.29
1018.586	4846.87
1018.938	5152.59
1019.289	7108.84
1019.64	8125.28
1019.992	7580.9
1020.343	6906.61
1020.694	5454.75
1021.045	4787.89
1021.396	5474.91
1021.747	5849.32
1022.098	6957.11
1022.449	5030.02
1022.8	4647.71
1023.151	3233.8
1023.501	2876.68
1023.852	3133.21
1024.202	3258.3
1024.553	3571.37
1024.903	3502.03
1025.253	3031.12
1025.604	2742.42
1025.954	3408.1
1026.304	4151.49
1026.654	4867.97
1027.004	7119.93
1027.354	11450.89
1027.703	10735
1028.053	14127.9
1028.403	20613.81
1028.753	29976.72
1029.102	40236.02
1029.452	205142.4
1029.801	8850.24
1030.15	5704.81
1030.499	4789.7
897.758	2697.41
901.051	2650.05
904.343	2687.81
907.636	2689.31
910.928	2753.35
914.22	2664.21
917.511	2671.92
920.803	2733.91
924.094	2756.01
927.384	2734.61
930.675	2698.04
933.965	2648.63
937.255	2659.62
940.544	2625.48
943.834	2561.84
947.123	2506.37
950.411	2603.18
953.7	2576.33
956.988	2547.4
960.276	2482.36
963.563	2565.14
966.851	2561.61
970.138	2619.58
973.424	2612.05
976.711	2558.76
979.997	2697.22
983.283	2730.72
986.568	2632.5
989.853	2650.17
993.138	2676.75
996.423	2762.23
999.708	2696.01
1002.992	2761.16
1006.275	2594.11
1009.559	2644.12
1012.842	2762.92
1016.125	2691.8
1019.408	2672.02
1022.69	2760.14
1025.972	2778.35
1029.254	2751.41
1032.536	2681.69
1035.817	2710.05
1039.098	2651.2
1042.379	2802.94
1045.659	2794.77
1048.939	2728.78
1052.219	2749.78
1055.498	2761.69
1058.778	2746.48
1062.057	2733
1065.335	2752.65
1068.614	2773.55
1071.892	2756.17
1075.17	2833.46
1078.447	2818.68
1081.724	2811.37
1085.001	2845.64
1088.278	2818.65
1091.554	2832.39
1094.83	2828.7
1098.106	2855.42
1101.382	2901.34
1104.657	2899.6
1107.932	2897.37
1111.206	2861.26
1114.481	2817
1117.755	2819.32
1121.029	2799.98
1124.302	2853.05
1127.575	2802.83
1130.848	2789.19
1134.121	2749.59
1137.393	2699.43
1140.665	2768.08
1143.937	2740.83
1147.208	2702.77
1150.48	2743.45
1153.75	2728.47
1157.021	2762.42
1160.291	2732.65
1163.561	2778.97
1166.831	2768.41
1170.101	2800.66
1173.37	2774.6
1176.639	2718.22
1179.907	2777.19
1183.176	2781.12
1186.444	2786.53
1189.711	2816.77
1192.979	2826.91
1196.246	2783.98
1199.513	2799.04
1202.78	2798.21
1206.046	2804.93
1209.312	2834.69
1212.578	2861.73
1215.843	2813.37
1219.108	2785.78
1222.373	2811.31
1225.638	2775.99
1228.902	2758.42
1232.166	2724.07
1235.43	2707.05
1238.693	2730.5
1241.956	2729.87
1245.219	2765
1248.482	2754.84
1251.744	2749.33
1255.006	2903.04
1258.268	2858.57
1261.529	2800.42
1264.79	2807.96
1268.051	2911.21
1271.312	2929.28
1274.572	2889.87
1277.832	2879.26
1281.092	2869.55
1284.351	2842.29
1287.61	2820.92
1290.869	2735.32
1294.128	2710.57
1297.386	2802.19
1300.644	2791.13
1303.902	2803.49
1307.159	2659.38
1310.416	2716.01
1313.673	2742.92
1316.93	2727.1
1320.186	2773.4
1323.442	2818.87
1326.697	2804.26
1329.953	2797.34
1333.208	2820.61
1336.463	2800.35
1339.717	2738
1342.972	2877.91
1346.226	2854.59
1349.479	2783.42
1352.733	2755.7
1355.986	2781.11
1359.238	2754.46
1362.491	2761.25
1365.743	2763.25
1368.995	2757.16
1372.247	2771
1375.498	2795.48
1378.749	2808.46
1382	2763.28
1385.251	2819.28
1388.501	2780.03
1391.751	2762.75
1395	2736.33
1398.25	2766.85
1401.499	2774
1404.748	2699.54
1407.996	2691.21
1411.244	2676.46
1414.492	2657.71
1417.74	2638.59
1420.987	2645.06
1424.234	2702.93
1427.481	2685.2
1430.728	2743.29
1433.974	2718.25
1437.22	2733.19
1440.465	2734.48
1443.711	2695.85
1446.956	2733.26
1450.201	2721.36
1453.445	2763.85
1456.689	2744.96
1459.933	2756.86
1463.177	2787.73
1466.42	2758.81
1469.663	2739.99
1472.906	2732.57
1476.148	2811.88
1479.391	2770.77
1482.633	2739.01
1485.874	2749.84
1489.115	2734.5
1492.356	2740.64
1495.597	2714.85
1498.838	2720.09
1502.078	2688.44
1505.318	2636.49
1508.557	2678.66
1511.797	2651.96
1515.036	2721.11
1518.274	2712.26
1521.513	2687.01
1524.751	2707.82
1527.989	2719.46
1531.227	2733.25
1534.464	2723.44
1537.701	2744.93
1540.938	2763.39
1544.174	2716.86
1547.41	2716.68
1550.646	2757.87
1553.882	2790.14
1557.117	2842.38
1560.352	2859.43
1563.587	2817.09
1566.821	2775.5
1570.055	2811.74
1573.289	2781.77
1576.523	2857.8
1579.756	2863.9
1582.989	2882.72
1586.222	2844.21
1589.454	2885.29
1592.686	2855.61
1595.918	2881.19
1599.15	2868.35
1602.381	2945.94
1605.612	2898.09
1608.843	2995.59
1612.073	2909.04
1615.303	2894.59
1618.533	2882.87
1621.762	2884.49
1624.992	2872.08
1628.221	2856.6
1631.449	2840.93
1634.678	2899.57
1637.906	2852.47
1641.134	2891.76
1644.361	2847.02
1647.588	2837.2
1650.815	2852.72
1654.042	2832.9
1657.269	2864.49
1660.495	2814.42
1663.72	2837.71
1666.946	2802.19
1670.171	2743.55
1673.396	2718.84
1676.621	2709.23
1679.845	2732.01
1683.069	2752.39
1686.293	2794.58
1689.517	2764.09
1692.74	2691.47
1695.963	2724.33
1699.185	2737.78
1702.408	2711.96
1705.63	2755.2
1708.852	2766.7
1712.073	2738.13
1715.294	2719.41
1718.515	2781.94
1721.736	2729.21
1724.956	2726.5
1728.176	2753.62
1731.396	2773.79
1734.616	2761.97
1737.835	2789.07
1741.054	2771.28
1744.272	2763.98
1747.491	2794.33
1750.709	2850.04
1753.927	2751.11
1757.144	2799.46
1760.361	2838.27
1763.578	2832.53
1766.795	2774.46
1770.011	2783.35
1773.227	2825.59
1776.443	2856.9
1779.658	2904.03
1782.874	2846.54
1786.089	2824.28
1789.303	2826.41
1792.518	2833.64
1795.732	2819.9
1798.945	2828.65
1802.159	2880.08
1805.372	2779.13
1808.585	2763.48
1811.797	2766.22
1815.01	2816.24
1818.222	2817.75
1821.434	2790.4
1824.645	2852.23
1827.856	2831.05
1831.067	2869.12
1834.278	2828.46
1837.488	2808.65
1840.698	2961.82
1843.908	2886.03
1847.117	2846.43
1850.326	2727.57
1853.535	2837.27
1856.744	2862.58
1859.952	2777.01
1863.16	2781.09
1866.368	2805.08
1869.575	2907.94
1872.782	2795.22
1875.989	2733.96
1879.196	2819.88
1882.402	2814.64
1885.608	2856.85
1888.814	2754.29
1892.019	2649.72
1895.224	2699.87
1898.429	2683.72
1901.634	2659.8
1904.838	2637.38
1908.042	2686.18
1911.246	2693.76
1914.449	2622.71
1917.652	2622.54
1920.855	2603.34
1924.058	2656.48
1927.26	2693.05
1930.462	2720.9
1933.664	2744.85
1936.865	2682.97
1940.066	2687.95
1943.267	2636.97
1946.467	2653.73
1949.668	2681.85
1952.868	2747.07
1956.067	2724.37
1959.267	2654.93
1962.466	2683.15
1965.665	2669.28
1968.863	2663.05
1972.061	2679.08
1975.259	2684.43
1978.457	2762.78
1981.654	2718.3
1984.852	2718.51
1988.048	2651.87
1991.245	2655.99
1994.441	2739.3
1997.637	2726.52
2000.833	2708.36
2004.028	2749.26
2007.223	2802.66
2010.418	2777.07
2013.613	2740.37
2016.807	2710.4
2020.001	2719.15
2023.194	2764.05
2026.388	2738.25
2029.581	2687.03
2032.774	2733.48
2035.966	2741.44
2039.158	2671.65
2042.35	2700
2045.542	2624.07
2048.733	2725.18
2051.924	2750.67
2055.115	2779.91
2058.306	2721.13
2061.496	2781.12
2064.686	2847.1
2067.875	2760.61
2071.065	2772.04
2074.254	2801.12
2077.442	2753.52
2080.631	2844.15
2083.819	2733.23
2087.007	2715.51
2090.195	2681.83
2093.382	2721.55
2096.569	2701.96
2099.756	2652.25
2102.942	2678.67
2106.128	2684.45
2109.314	2676.25
2112.5	2637.16
2115.685	2613.8
2118.87	2623.9
2122.055	2690.44
2125.239	2658.62
2128.424	2627.92
2131.608	2735.32
2134.791	2716.5
2137.974	2774.5
2141.157	2760.63
2144.34	2710.8
2147.523	2726.18
2150.705	2740.16
2153.887	2721.01
2157.068	2666.68
2160.25	2668.63
2163.431	2709.47
2166.611	2651.51
2169.792	2668.93
2172.972	2559.42
2176.152	2641.02
2179.331	2675.27
2182.511	2656.5
2185.69	2687.72
2188.868	2679.72
2192.047	2738.4
2195.225	2728.57
2198.403	2676.18
2201.58	2669.21
2204.758	2664.99
2207.935	2749.52
2211.111	2637.14
2214.288	2621
2217.464	2659.94
2220.64	2632.32
2223.815	2688.93
2226.991	2606.46
2230.166	2626.84
2233.34	2655.3
2236.515	2683.38
2239.689	2755.03
2242.863	2700.56
2246.036	2754.22
2249.209	2759.66
2252.382	2796.74
2255.555	2780.22
2258.727	2716.14
2261.9	2758.44
2265.071	2750.17
2268.243	2753
2271.414	2682.08
2274.585	2643.5
2277.756	2711.43
2280.926	2668.32
2284.096	2706.95
2287.266	2612.11
2290.436	2670.97
2293.605	2699.34
2296.774	2731.72
2299.942	2754.74
2303.111	2769.9
2306.279	2819.76
2309.447	2805.26
2312.614	2779.09
2315.781	2798.27
2318.948	2766.18
2322.115	2805.33
2325.281	2706.04
2328.447	2726.68
2331.613	2702.41
2334.779	2672.61
2337.944	2676.31
2341.109	2672.07
2344.274	2656.14
2347.438	2621.22
2350.602	2646.3
2353.766	2665.08
2356.929	2650.03
2360.092	2690.89
2363.255	2642.13
2366.418	2569.77
2369.58	2688.83
2372.742	2471.03
2375.904	2487.53
2379.066	2460.61
2382.227	2499.46
2385.388	2461.94
2388.548	2384.77
2391.709	2442.84
2394.869	2424.08
2398.029	2526.96
2401.188	2541.92
2404.347	2470.21
2407.506	2616.82
2410.665	2647.61
2413.823	2654.46
2416.981	2609.05
2420.139	2640.21
2423.296	2691.89
2426.453	2664.01
2429.61	2687.94
2432.767	2616.34
2435.923	2655.96
2439.079	2621.26
2442.235	2672.53
2445.391	2596.46
2448.546	2627.11
2451.701	2675.45
2454.855	2646.05
2458.009	2703.72
2461.163	2707.28
2464.317	2663.04
2467.471	2699.22
2470.624	2738.24
2473.777	2706.81
2476.929	2719.48
2480.082	2746.15
2483.234	2709.08
2486.385	2667.7
2489.537	2659.51
2492.688	2615.33
2495.839	2632.47
2498.989	2644.12
2502.14	2631.04
2505.29	2609.49
2508.439	2638.72
2511.589	2559.49
2514.738	2572.95
2517.887	2603.21
2521.035	2668.68
2524.183	2652.01
2527.331	2632.85
2530.479	2605.21
2533.627	2617.6
