Data from N_3_DEC_ON_6N_Splice17_13-37-39-023.txt Node
Date: Sat Mar 14 13:37:39 EDT 2020
User: sa697716
Spectrometer: FLMS03696
Trigger mode: 0
Integration Time (sec): 3.180400E-1
Scans to average: 20
Electric dark correction enabled: true
Nonlinearity correction enabled: true
Boxcar width: 5
XAxis mode: Wavelengths
Number of Pixels in Spectrum: 2048
>>>>>Begin Spectral Data<<<<<
187.83	-429246.85
188.298	2932.98
188.766	1508.9
189.233	1384.92
189.701	1951.76
190.169	2791.22
190.636	1060.51
191.104	875.77
191.571	161.07
192.039	-85.95
192.506	-109.03
192.974	560.44
193.441	-986.76
193.908	-440.31
194.375	-148.25
194.842	-84.11
195.31	37.2
195.777	165.35
196.244	431.25
196.711	517.43
197.177	621.7
197.644	879.2
198.111	1555.81
198.578	2134.65
199.045	1703.22
199.511	2774.2
199.978	3216.86
200.445	2758.9
200.911	3053.92
201.378	3385.65
201.844	3055.06
202.31	5258.52
202.777	5470.65
203.243	3003.2
203.709	2881.9
204.176	3424.34
204.642	2847.72
205.108	2651.57
205.574	2138.04
206.04	1928.76
206.506	1796.85
206.972	1695.92
207.438	1642.08
207.903	1866.05
208.369	1639.23
208.835	1623.75
209.301	1697.29
209.766	1714.47
210.232	1700.08
210.697	2098.73
211.163	2572.28
211.628	3865.64
212.094	3230.25
212.559	3963.61
213.024	2450.45
213.49	2982.96
213.955	2900.68
214.42	2823.12
214.885	2627.15
215.35	2511.73
215.815	2460.42
216.28	2602.29
216.745	2115.28
217.21	2281.14
217.675	2057.12
218.14	2306.39
218.604	2539.8
219.069	2868.12
219.534	2997.52
219.998	3452.92
220.463	4138.17
220.927	4988.03
221.392	4672.66
221.856	4715.69
222.32	5895.63
222.785	7254.57
223.249	9038.32
223.713	10071.21
224.177	10049.08
224.642	12823.05
225.106	15719.3
225.57	17183.7
226.034	12818.81
226.497	19515.4
226.961	17593.33
227.425	20469.87
227.889	22651.35
228.353	22708.81
228.816	46723.31
229.28	44670.37
229.744	37685.82
230.207	22928.49
230.671	22502.16
231.134	37053
231.597	42716.15
232.061	42697.93
232.524	41604.79
232.987	28685.39
233.45	25782.37
233.914	23145.89
234.377	23692.48
234.84	21691.58
235.303	25615.1
235.766	28612.31
236.229	29567.3
236.691	18616.35
237.154	20917.45
237.617	15748.5
238.08	16116.97
238.542	18877.74
239.005	13501.43
239.468	13413.91
239.93	12633.89
240.393	11466.77
240.855	10061.58
241.317	10305.03
241.78	12523.53
242.242	12953.68
242.704	13998.66
243.166	12200.57
243.629	11105.03
244.091	12806.28
244.553	14045.67
245.015	15117.62
245.477	19566.26
245.939	28721.76
246.4	30515.36
246.862	29684.74
247.324	27997.45
247.786	31332.38
248.247	41103.59
248.709	42379.39
249.17	31704.62
249.632	29930.88
250.093	34766.18
250.555	30064.37
251.016	18363.83
251.477	17446.15
251.939	18867.01
252.4	19819.28
252.861	23574.84
253.322	21949.46
253.783	26155.85
254.244	34002.21
254.705	26789.92
255.166	23807.05
255.627	23428.59
256.088	33127.07
256.549	35244.22
257.009	30340.7
257.47	36799.22
257.931	29990.34
258.391	22500.41
258.852	23191.3
259.312	24284.87
259.773	30036.41
260.233	25454.44
260.694	21525.52
261.154	24394.42
261.614	19636.49
262.074	17589.6
262.534	18306.17
262.994	17283.32
263.455	23053.84
263.915	19465.58
264.374	18364.81
264.834	20069.5
265.294	22225.37
265.754	23035.04
266.214	21812.5
266.673	20426.81
267.133	25789.11
267.593	25584.13
268.052	31337.45
268.512	27262.63
268.971	32904.43
269.431	36097.34
269.89	32344.41
270.349	48555.22
270.809	54159.29
271.268	48734.61
271.727	109306.44
272.186	70894.92
272.645	53212.27
273.104	38387.25
273.563	55649.91
274.022	43762.34
274.481	37319.13
274.94	28781.71
275.399	21407.28
275.857	24961.99
276.316	33803.53
276.775	30120.35
277.233	29669.6
277.692	27847.24
278.15	31565.01
278.609	32515.78
279.067	30129.6
279.525	28021.18
279.984	36227.82
280.442	43565.31
280.9	43003.41
281.358	28325.48
281.816	26410.12
282.274	25861.7
282.732	26708.49
283.19	26835.18
283.648	23148.68
284.106	24691.49
284.564	25115.74
285.021	23293.59
285.479	17382.29
285.937	15800.59
286.394	13869.03
286.852	14267.98
287.309	15002.19
287.767	14531.85
288.224	13840.32
288.682	15211.07
289.139	16698.52
289.596	15289.86
290.053	15923.23
290.511	20089.32
290.968	24421.91
291.425	33193.3
291.882	27720.98
292.339	24183.62
292.796	23989.85
293.252	22610.14
293.709	17974.71
294.166	16134
294.623	17837.7
295.079	17100.42
295.536	17212.05
295.992	15627
296.449	15437.92
296.905	16020.27
297.362	15396.03
297.818	16198.03
298.274	16828.97
298.731	17166.05
299.187	16990.55
299.643	18256.21
300.099	22113.15
300.555	24252.12
301.011	20265.88
301.467	19600.85
301.923	22973.7
302.379	22437.83
302.835	22059.32
303.291	22114.54
303.746	25197.27
304.202	31838.21
304.658	31974.02
305.113	21529
305.569	21129.65
306.024	22546.41
306.479	21423.93
306.935	18093.22
307.39	19756.41
307.845	18263.23
308.301	18391.44
308.756	17908.16
309.211	17247.49
309.666	17682.07
310.121	21973.26
310.576	22299.34
311.031	22153.16
311.486	25382.15
311.94	25322.54
312.395	33891.89
312.85	63663.58
313.305	312294.1
313.759	1620232.43
314.214	117766.18
314.668	93438.87
315.123	78759.34
315.577	28273.05
316.032	25166.56
316.486	31611.75
316.94	24974.78
317.394	17398.29
317.849	13539.85
318.303	12827.03
318.757	12111.12
319.211	13402.03
319.665	11739.61
320.119	11862.09
320.572	16995.9
321.026	15885.77
321.48	13237.45
321.934	14445.07
322.387	14490.89
322.841	15663.48
323.295	14129.26
323.748	16275.37
324.202	16518.92
324.655	19897.66
325.108	27880.15
325.562	19724.87
326.015	23467.61
326.468	17725.88
326.921	19860.74
327.374	18533.46
327.827	19389.91
328.28	21933.88
328.733	14712.51
329.186	12944.09
329.639	12319.83
330.092	10391.9
330.545	9904.6
330.997	9987.1
331.45	10952.65
331.903	12861.3
332.355	22091.45
332.808	21386.07
333.26	17669.93
333.713	19184.58
334.165	19310.16
334.617	25751.31
335.069	20761.84
335.522	37609.19
335.974	41735.89
336.426	38070.15
336.878	26301.32
337.33	13376.69
337.782	13070.83
338.234	16375.04
338.686	19605.42
339.137	23226.97
339.589	21899.16
340.041	17161.2
340.493	14738.7
340.944	15084.45
341.396	16247.97
341.847	13688.78
342.299	16165.83
342.75	19769.54
343.201	17272.94
343.653	19876.77
344.104	24493.62
344.555	19297.08
345.006	30066.76
345.457	23070.55
345.908	18333.1
346.359	17269.74
346.81	14075.06
347.261	14823.62
347.712	14580.84
348.163	15624.73
348.613	15837.39
349.064	14788.24
349.515	12939.41
349.965	13293.8
350.416	15996.58
350.866	17553.47
351.317	19826.35
351.767	32844.6
352.217	41572.12
352.668	34536.26
353.118	31673.35
353.568	30531.64
354.018	24133.66
354.468	25480.77
354.918	18298.9
355.368	16042.46
355.818	22671.21
356.268	65244.25
356.718	273682.48
357.168	68101.73
357.617	34227.73
358.067	38067.97
358.517	35677.28
358.966	41952.87
359.416	47143.79
359.865	50874.14
360.315	60569.6
360.764	28360.71
361.213	15944.33
361.663	15096.61
362.112	18628.47
362.561	30150.17
363.01	22783.78
363.459	19186.07
363.908	20764.79
364.357	17706.43
364.806	30022.13
365.255	20685.11
365.703	19018.72
366.152	19113.54
366.601	15539.62
367.05	12710.28
367.498	11589.95
367.947	12174.33
368.395	12739.6
368.844	11359.11
369.292	13743.35
369.74	9541.93
370.189	14693.16
370.637	17324.88
371.085	15049.2
371.533	18453.67
371.981	17905.96
372.429	17206.65
372.877	18111.22
373.325	15294.23
373.773	15752.29
374.221	14167.93
374.669	17758.59
375.116	15504.51
375.564	15811.41
376.012	17865.5
376.459	14918.13
376.907	18047.94
377.354	22105.58
377.801	20847.85
378.249	24308.36
378.696	31462.88
379.143	38673.8
379.591	41935.55
380.038	72094.04
380.485	53035.86
380.932	58257.76
381.379	54197.95
381.826	40535.16
382.273	29312.06
382.72	26093.33
383.166	25874.27
383.613	17077.29
384.06	15655.27
384.506	18399.59
384.953	13757.65
385.4	14083.16
385.846	12534.94
386.292	12422.59
386.739	12355.65
387.185	12402.96
387.631	12587.78
388.078	12384.65
388.524	13438.36
388.97	12587.11
389.416	10657.57
389.862	11477.6
390.308	11021.93
390.754	11329.05
391.2	12456.13
391.645	12889.29
392.091	12442.29
392.537	12161
392.983	12323.16
393.428	12226.19
393.874	13246.47
394.319	13406.92
394.765	12828.5
395.21	13301.82
395.655	12589.18
396.101	11881.8
396.546	10816.41
396.991	11027.31
397.436	10305.93
397.881	10022.19
398.326	9578.38
398.771	9104.53
399.216	8016.25
399.661	7274.15
400.106	7282.2
400.551	7492.46
400.995	6759.82
401.44	6723.48
401.885	6342.47
402.329	6441.45
402.774	6204.18
403.218	6008.27
403.663	5812.67
404.107	5986.76
404.551	6035.64
404.995	5549.65
405.44	5364.66
405.884	5460.53
406.328	5299.26
406.772	5299.03
407.216	4834.69
407.66	4684.12
408.104	4464.85
408.547	4186.59
408.991	4058.4
409.435	3921.16
409.879	3868.04
410.322	3820.9
410.766	3688.89
411.209	3504.33
411.653	3360.37
412.096	3288.59
412.54	3291.52
412.983	3273.99
413.426	3277.31
413.869	3275.16
414.312	3203.94
414.756	3088.35
415.199	2943.29
415.642	2856.24
416.085	2858.75
416.527	2840.18
416.97	2886.22
417.413	2737.89
417.856	2711.85
418.298	2692.92
418.741	2680.47
419.184	2679.67
419.626	2798.81
420.069	2801.68
420.511	2816.47
420.953	2757.17
421.396	2733.27
421.838	2666.57
422.28	2727.55
422.722	2734.4
423.164	2766.57
423.606	2717.59
424.048	2714.67
424.49	2573.28
424.932	2561.45
425.374	2525.46
425.816	2566.47
426.258	2615.05
426.699	2642.08
427.141	2597.37
427.582	2637.83
428.024	2624.6
428.465	2606.06
428.907	2535.63
429.348	2500.74
429.789	2491.57
430.231	2430.48
430.672	2457.82
431.113	2392.75
431.554	2350.52
431.995	2284.86
432.436	2193.32
432.877	2135.74
433.318	2090.65
433.759	2076.4
434.2	2072.28
434.64	2046.83
435.081	2049.03
435.522	1937.2
435.962	1862.76
436.403	1815.38
436.843	1840.53
437.284	1801.01
437.724	1755.86
438.164	1763.62
438.604	1724.51
439.045	1657.6
439.485	1587.32
439.925	1555.92
440.365	1521.8
440.805	1504.54
441.245	1488.55
441.685	1437.66
442.125	1430.52
442.564	1441.2
443.004	1410.76
443.444	1411.3
443.883	1417.07
444.323	1414.08
444.762	1424.83
445.202	1449.6
445.641	1477.94
446.081	1476.71
446.52	1491.74
446.959	1481.32
447.398	1448.09
447.837	1435.64
448.276	1415.97
448.716	1434.02
449.154	1451.95
449.593	1418.44
450.032	1415.35
450.471	1395.03
450.91	1399.82
451.349	1398.96
451.787	1397.58
452.226	1422.99
452.664	1425.64
453.103	1431.94
453.541	1434.64
453.98	1431.91
454.418	1447.21
454.856	1425.15
455.295	1425.25
455.733	1438.98
456.171	1448.97
456.609	1449.25
457.047	1450.23
457.485	1471.21
457.923	1471.91
458.361	1451.97
458.798	1457.85
459.236	1452.75
459.674	1465.23
460.111	1470.52
460.549	1453.64
460.987	1447.26
461.424	1444.38
461.862	1436.59
462.299	1413.26
462.736	1408.78
463.173	1412.18
463.611	1392.93
464.048	1386.17
464.485	1394.23
464.922	1379.52
465.359	1371.38
465.796	1345.84
466.233	1331.89
466.67	1314.69
467.106	1308.56
467.543	1296.6
467.98	1280.72
468.416	1250.32
468.853	1241.86
469.29	1205.84
469.726	1193.7
470.162	1163.76
470.599	1154.85
471.035	1147.27
471.471	1122.8
471.907	1120.75
472.344	1115.26
472.78	1119.47
473.216	1135.17
473.652	1124.51
474.088	1123.21
474.523	1122.43
474.959	1135.49
475.395	1129.11
475.831	1125.16
476.266	1133.27
476.702	1132.08
477.138	1123.16
477.573	1122.72
478.008	1119.84
478.444	1126.51
478.879	1138.28
479.314	1144.7
479.75	1145.44
480.185	1153.93
480.62	1165.47
481.055	1174.23
481.49	1184.93
481.925	1203.57
482.36	1224.65
482.795	1263.02
483.229	1300.93
483.664	1330.81
484.099	1338.39
484.534	1361
484.968	1374.35
485.403	1381.48
485.837	1382.41
486.271	1382.12
486.706	1385.99
487.14	1372.3
487.574	1351.56
488.009	1339.52
488.443	1329.72
488.877	1343.78
489.311	1349.8
489.745	1366.53
490.179	1379.79
490.613	1403.9
491.046	1416.15
491.48	1426.99
491.914	1429.96
492.348	1440.97
492.781	1450.38
493.215	1454.79
493.648	1458.99
494.082	1471.26
494.515	1472.23
494.948	1487.48
495.382	1500.33
495.815	1510.31
496.248	1521.9
496.681	1549.5
497.114	1573.43
497.547	1593.21
497.98	1618.59
498.413	1629.32
498.846	1646.58
499.279	1663.5
499.711	1670.86
500.144	1672.52
500.577	1689.82
501.009	1709.23
501.442	1723.99
501.874	1720.65
502.306	1719.89
502.739	1728.48
503.171	1753.67
503.603	1753.76
504.036	1766.87
504.468	1771.88
504.9	1786.72
505.332	1792.18
505.764	1791.52
506.196	1796.75
506.627	1816.8
507.059	1833.19
507.491	1840.98
507.923	1825.04
508.354	1842.15
508.786	1848.86
509.217	1869.38
509.649	1884.56
510.08	1906.11
510.512	1921.84
510.943	1934.23
511.374	1938.32
511.805	1958.57
512.237	1976.71
512.668	2017.25
513.099	2048.23
513.53	2079.13
513.961	2095.45
514.391	2130.3
514.822	2167.29
515.253	2208.45
515.684	2230.58
516.114	2259.76
516.545	2275.93
516.975	2298.32
517.406	2309
517.836	2293.73
518.267	2283.54
518.697	2293.8
519.127	2282.37
519.558	2274.6
519.988	2261.53
520.418	2260.9
520.848	2270.48
521.278	2265.69
521.708	2268.95
522.138	2271.58
522.567	2301.95
522.997	2323.61
523.427	2329.85
523.857	2339.24
524.286	2339.61
524.716	2348.84
525.145	2361.84
525.575	2364.67
526.004	2374.36
526.433	2354.23
526.863	2342.67
527.292	2317.83
527.721	2315.56
528.15	2313.95
528.579	2306.15
529.008	2312.33
529.437	2335.04
529.866	2345.88
530.295	2361.45
530.724	2369.61
531.152	2400.69
531.581	2413.01
532.01	2429.89
532.438	2435.61
532.867	2450.81
533.295	2469.58
533.723	2472.34
534.152	2463.44
534.58	2459.13
535.008	2434
535.436	2431.88
535.865	2438.01
536.293	2453.48
536.721	2471.08
537.149	2501.62
537.576	2502.04
538.004	2516.53
538.432	2524.66
538.86	2519.57
539.287	2525.76
539.715	2542.07
540.143	2545.17
540.57	2537.81
540.998	2531.13
541.425	2498.94
541.852	2467.98
542.28	2463.12
542.707	2439.87
543.134	2419.98
543.561	2413.51
543.988	2402.03
544.415	2399.68
544.842	2390.19
545.269	2380.76
545.696	2382.19
546.123	2398.44
546.549	2384.48
546.976	2367.42
547.403	2366.98
547.829	2369.89
548.256	2373.46
548.682	2369.61
549.108	2360
549.535	2360.76
549.961	2364.1
550.387	2347.54
550.813	2341.24
551.24	2351.32
551.666	2354.63
552.092	2342.27
552.518	2335.81
552.943	2329.73
553.369	2340.82
553.795	2349.15
554.221	2351.88
554.646	2349.14
555.072	2366.01
555.498	2376.58
555.923	2391.94
556.349	2415.37
556.774	2430.76
557.199	2435.22
557.625	2446.91
558.05	2444.41
558.475	2464.36
558.9	2468.61
559.325	2462.13
559.75	2459.83
560.175	2455.75
560.6	2452.53
561.025	2456.04
561.449	2464.23
561.874	2479.01
562.299	2491.23
562.723	2507.37
563.148	2500.92
563.572	2513.86
563.997	2537.06
564.421	2550.95
564.846	2560.27
565.27	2574.17
565.694	2578.56
566.118	2604.32
566.542	2623.86
566.966	2625.66
567.39	2629.02
567.814	2622.75
568.238	2631.03
568.662	2648.18
569.086	2661.79
569.509	2681.88
569.933	2668.3
570.357	2668.28
570.78	2647.57
571.204	2638.64
571.627	2632.11
572.05	2640.01
572.474	2649.7
572.897	2639.73
573.32	2638.96
573.743	2635.25
574.166	2617.83
574.589	2629.32
575.012	2626.83
575.435	2635.04
575.858	2630.8
576.281	2623.25
576.704	2608.05
577.126	2598.22
577.549	2593.12
577.972	2585.96
578.394	2579.04
578.817	2576.93
579.239	2556.02
579.661	2543.84
580.084	2526.31
580.506	2513
580.928	2515.68
581.35	2505.2
581.772	2506.82
582.194	2491.95
582.616	2479.01
583.038	2462.17
583.46	2451.46
583.882	2452.45
584.303	2466.49
584.725	2466.93
585.147	2475.63
585.568	2498.34
585.99	2524.38
586.411	2540.26
586.833	2570
587.254	2577.19
587.675	2606.04
588.096	2632.69
588.518	2630.58
588.939	2607.63
589.36	2608.03
589.781	2597.29
590.202	2552.38
590.623	2543.47
591.043	2545.36
591.464	2529.04
591.885	2526.51
592.305	2522.33
592.726	2502.32
593.147	2508.88
593.567	2503.51
593.987	2494.42
594.408	2489.51
594.828	2490.99
595.248	2481.85
595.669	2451.79
596.089	2441.24
596.509	2432.85
596.929	2410.35
597.349	2413.78
597.769	2398.41
598.189	2389.94
598.608	2394.99
599.028	2400.42
599.448	2404.89
599.867	2387.82
600.287	2384.29
600.706	2380.83
601.126	2368.09
601.545	2370.25
601.965	2373.5
602.384	2368.02
602.803	2376.01
603.222	2372.11
603.641	2364.68
604.061	2362.37
604.48	2358.99
604.898	2377.38
605.317	2391.18
605.736	2399.89
606.155	2400.48
606.574	2389.5
606.992	2404.45
607.411	2402.57
607.829	2393.98
608.248	2394.76
608.666	2396.64
609.085	2402.76
609.503	2394.22
609.921	2388.69
610.339	2398.99
610.758	2405.34
611.176	2402.76
611.594	2393.49
612.012	2393.9
612.43	2406.75
612.847	2425.62
613.265	2434.56
613.683	2450.13
614.101	2459.78
614.518	2460.35
614.936	2448.86
615.353	2428.33
615.771	2429.15
616.188	2436.6
616.606	2437.23
617.023	2429.98
617.44	2409.36
617.857	2402.75
618.274	2391.1
618.691	2384.18
619.108	2372.45
619.525	2366.75
619.942	2383.38
620.359	2392.74
620.776	2387.68
621.192	2383.32
621.609	2382.83
622.026	2398.7
622.442	2410.79
622.859	2422.51
623.275	2412.31
623.691	2424.97
624.108	2448.44
624.524	2478.52
624.94	2480.49
625.356	2501.58
625.772	2528.87
626.188	2554.29
626.604	2559.3
627.02	2553.78
627.436	2549.28
627.852	2562.63
628.268	2587.9
628.683	2572
629.099	2556.66
629.514	2551.55
629.93	2559.89
630.345	2570.03
630.761	2562.68
631.176	2569.91
631.591	2559.27
632.007	2549.45
632.422	2549.95
632.837	2530.83
633.252	2528.96
633.667	2511.54
634.082	2496.11
634.497	2474.23
634.911	2439.55
635.326	2437.47
635.741	2409.02
636.155	2396.4
636.57	2404.35
636.984	2409.93
637.399	2418.6
637.813	2426.35
638.228	2433.67
638.642	2449.49
639.056	2435.6
639.47	2445.03
639.884	2436.32
640.298	2432.3
640.712	2436.42
641.126	2419.54
641.54	2409.32
641.954	2409.75
642.368	2391.89
642.781	2379.94
643.195	2351.57
643.609	2361.59
644.022	2358.4
644.436	2359.61
644.849	2343.61
645.262	2328.54
645.676	2340.99
646.089	2337.94
646.502	2309.69
646.915	2305.71
647.328	2277.92
647.741	2279.32
648.154	2256.94
648.567	2252.76
648.98	2227.53
649.393	2231.25
649.805	2226.25
650.218	2212.03
650.631	2181.93
651.043	2173.04
651.456	2162.28
651.868	2168.23
652.28	2210.35
652.693	2244.37
653.105	2264.6
653.517	2290.43
653.929	2295.52
654.341	2312.81
654.753	2288.74
655.165	2306.93
655.577	2305.26
655.989	2300.54
656.401	2288.84
656.813	2210.55
657.224	2169.47
657.636	2109.76
658.047	2071.08
658.459	2033.27
658.87	2018.31
659.282	1999.43
659.693	1956.97
660.104	1929.71
660.515	1902.76
660.926	1899.66
661.338	1896.42
661.749	1886.14
662.159	1866.76
662.57	1862.08
662.981	1852.27
663.392	1836.8
663.803	1843.74
664.213	1838.01
664.624	1826.89
665.035	1833.47
665.445	1803.04
665.855	1783.8
666.266	1762.57
666.676	1754.7
667.086	1730.71
667.497	1724.75
667.907	1705.03
668.317	1681.14
668.727	1665.91
669.137	1664.55
669.547	1653.36
669.956	1654.83
670.366	1655.9
670.776	1654.16
671.186	1659.14
671.595	1660.33
672.005	1663.41
672.414	1658.56
672.824	1650.53
673.233	1659.64
673.642	1657.67
674.052	1660.4
674.461	1657.58
674.87	1662.68
675.279	1651.6
675.688	1651.27
676.097	1649.63
676.506	1638.86
676.915	1665.47
677.323	1669.16
677.732	1661.19
678.141	1658.85
678.549	1635.55
678.958	1635.13
679.366	1634.31
679.775	1647.81
680.183	1669.51
680.592	1685.87
681	1702.36
681.408	1691.83
681.816	1713.09
682.224	1739.15
682.632	1765.78
683.04	1835.55
683.448	1894.98
683.856	1967.9
684.264	2050.03
684.671	2125.97
685.079	2218.06
685.487	2317.01
685.894	2454.43
686.302	2563.69
686.709	2647.12
687.116	2745.04
687.524	2816.09
687.931	2869.85
688.338	2908.75
688.745	2932.71
689.152	2962.12
689.559	3008.08
689.966	3046.31
690.373	3036.15
690.78	3061.29
691.187	3127.38
691.593	3156.7
692	3175.03
692.407	3227
692.813	3297.37
693.22	3338.55
693.626	3381.48
694.032	3397.87
694.439	3458.73
694.845	3489.95
695.251	3546.28
695.657	3586.04
696.063	3678.59
696.469	3726.26
696.875	3766.16
697.281	3761.12
697.687	3769.12
698.093	3765.07
698.498	3814.84
698.904	3839.72
699.31	3908.65
699.715	3938.36
700.12	4010.5
700.526	3981.92
700.931	4026.56
701.337	4045.81
701.742	4041
702.147	4103.86
702.552	4098.74
702.957	4132.22
703.362	4116.48
703.767	4109.2
704.172	4117.52
704.577	4019.19
704.981	4038.9
705.386	4019.05
705.791	3976.77
706.195	4030.67
706.6	4006.88
707.004	4066.83
707.408	4000.07
707.813	4001.12
708.217	3960.51
708.621	3935.38
709.025	4019.01
709.43	3993.96
709.834	4037.69
710.237	4086.24
710.641	4045.78
711.045	4045.03
711.449	4014.18
711.853	4022.48
712.256	4042.54
712.66	4060.82
713.064	4118.77
713.467	4139.91
713.87	4233.72
714.274	4257.89
714.677	4348.41
715.08	4489.46
715.484	4641.4
715.887	4828.13
716.29	5007.18
716.693	5197.97
717.096	5412.69
717.499	5524.08
717.901	5528.71
718.304	5535.85
718.707	5537.63
719.109	5417.16
719.512	5370.06
719.915	5221.99
720.317	5147.66
720.719	5169.31
721.122	5118.85
721.524	5053.76
721.926	4999.1
722.328	5078.27
722.731	5052.32
723.133	5064.24
723.535	5233.7
723.937	5238.4
724.338	5269.97
724.74	5296.56
725.142	5252.25
725.544	5242.56
725.945	5263.13
726.347	5247.33
726.748	5230.05
727.15	5234.28
727.551	5191.71
727.952	5155.28
728.354	5115.67
728.755	5107.4
729.156	5056.69
729.557	5013.36
729.958	4891.88
730.359	4826.13
730.76	4801.67
731.161	4741.35
731.562	4711.95
731.962	4707.76
732.363	4643.98
732.763	4581.73
733.164	4609.32
733.564	4546.26
733.965	4452.63
734.365	4416.44
734.766	4438.88
735.166	4397.74
735.566	4343.36
735.966	4314.86
736.366	4304.72
736.766	4245.16
737.166	4269.69
737.566	4229.43
737.966	4202.38
738.365	4234.84
738.765	4228.5
739.165	4159.2
739.564	4131.84
739.964	4168.68
740.363	4125.04
740.763	4118.69
741.162	4107.93
741.561	4081.42
741.96	4036.55
742.36	4051.53
742.759	4054.53
743.158	4085.8
743.557	4097.02
743.955	4130.77
744.354	4088.91
744.753	4139.37
745.152	4103.97
745.55	4149.42
745.949	4137.55
746.348	4137.73
746.746	4150.44
747.144	4115.26
747.543	4094.13
747.941	4134.79
748.339	4074.12
748.737	4068.84
749.136	4059.27
749.534	4114.75
749.932	4090.24
750.33	4111.16
750.727	4160.1
751.125	4140.95
751.523	4125.38
751.921	4163.91
752.318	4133.1
752.716	4186.58
753.113	4198.06
753.511	4221.18
753.908	4221.81
754.305	4211.67
754.703	4266.28
755.1	4320.64
755.497	4371.42
755.894	4537.51
756.291	4691.89
756.688	4981.64
757.085	5359.91
757.482	5900.58
757.878	6490.85
758.275	7024.64
758.672	7746.79
759.068	8339.69
759.465	9185.62
759.861	10277.72
760.258	11547.61
760.654	12203.17
761.05	12102.98
761.447	11548.75
761.843	10744.8
762.239	9916.16
762.635	9539.36
763.031	9179.79
763.427	8667.38
763.822	8128.4
764.218	7598.96
764.614	6908.51
765.01	6442.47
765.405	6141.39
765.801	5914.69
766.196	5622.59
766.592	5460.95
766.987	5186.94
767.382	5002.99
767.778	4926.15
768.173	4812.65
768.568	4747.06
768.963	4637.37
769.358	4654.37
769.753	4616.41
770.148	4544.17
770.542	4546.16
770.937	4518.53
771.332	4597.08
771.726	4615.32
772.121	4561.12
772.515	4608.42
772.91	4596.72
773.304	4658.21
773.699	4601.33
774.093	4646.13
774.487	4693.41
774.881	4727.83
775.275	4726.83
775.669	4690.5
776.063	4730.08
776.457	4761.25
776.851	4696.73
777.245	4689.72
777.638	4720.83
778.032	4822.39
778.425	4790.88
778.819	4829.69
779.212	4794.28
779.606	4757.93
779.999	4777.13
780.392	4764.05
780.786	4835.4
781.179	4854.5
781.572	4891.64
781.965	4901.55
782.358	4851.83
782.751	4900.03
783.143	4855.64
783.536	4921.45
783.929	4956.37
784.322	5056.66
784.714	5081.14
785.107	5078.79
785.499	5142.07
785.891	5124.51
786.284	5106.18
786.676	5226.08
787.068	5208.87
787.46	5255.46
787.852	5272.89
788.245	5350.34
788.636	5376.09
789.028	5435.67
789.42	5469.98
789.812	5480.61
790.204	5561.88
790.595	5652.26
790.987	5483.56
791.378	5509.55
791.77	5622
792.161	5735.86
792.553	5786.38
792.944	5691.76
793.335	5631.46
793.726	5698.1
794.117	5775.85
794.508	5900.43
794.899	5871.76
795.29	5998.51
795.681	6044.88
796.072	5924.53
796.463	5778.57
796.853	5787.93
797.244	5927.89
797.634	5960.81
798.025	5956.38
798.415	5966.46
798.806	6044.86
799.196	6124.48
799.586	6171.5
799.976	6144.61
800.366	6346.55
800.756	6542.26
801.146	6511.39
801.536	6535.63
801.926	6599.82
802.316	6626.71
802.706	6693.03
803.095	6588.17
803.485	6678.1
803.874	6714.62
804.264	6940.51
804.653	6918.41
805.043	7051.28
805.432	7149.63
805.821	7154.54
806.21	7177.01
806.599	7280.59
806.988	7325.96
807.377	7417.75
807.766	7530.51
808.155	7778.04
808.544	7548.06
808.933	7565.43
809.321	7553.89
809.71	7810.35
810.098	7945.7
810.487	8349.06
810.875	8776.64
811.264	8792.74
811.652	9059.05
812.04	9187.59
812.428	9330.1
812.816	10008.62
813.204	10379.12
813.592	10859.6
813.98	11159.18
814.368	11089.46
814.756	11515.11
815.144	11447.83
815.531	11863.28
815.919	11787.97
816.306	12064.21
816.694	11796.71
817.081	11839.52
817.469	12145.65
817.856	12145.04
818.243	12383.7
818.63	12725.04
819.017	12354.95
819.404	12408.19
819.791	12735.15
820.178	13279.67
820.565	13505.33
820.952	14336.16
821.339	13901.77
821.725	14058.69
822.112	13404.17
822.498	13375.72
822.885	13491.75
823.271	13410.05
823.657	13776.16
824.044	13786.79
824.43	13847.53
824.816	13819.73
825.202	13433.56
825.588	14332.81
825.974	14352.48
826.36	14811.91
826.746	14838.11
827.132	15145.45
827.517	15124.6
827.903	14428.99
828.289	14465.95
828.674	13783.6
829.06	13683.73
829.445	14024.12
829.83	14330.86
830.216	14746.44
830.601	15062.63
830.986	14705.43
831.371	14586.53
831.756	15076.17
832.141	14704.24
832.526	14697.82
832.911	14944.51
833.295	14841.89
833.68	15254.73
834.065	14712.91
834.449	13906.71
834.834	13843.02
835.218	13838.41
835.603	14136.51
835.987	13949.23
836.371	14681.76
836.755	14580.99
837.139	14923.07
837.524	15126.51
837.908	14967.04
838.291	15017.92
838.675	15073.59
839.059	15250.17
839.443	15230.88
839.827	15024.82
840.21	15432.59
840.594	15292.26
840.977	15472.92
841.361	15455.61
841.744	15786.21
842.127	15647.94
842.511	15854.97
842.894	16368.5
843.277	16693.61
843.66	17156.87
844.043	17231.49
844.426	16532.54
844.809	16254.81
845.191	16278.9
845.574	15874.76
845.957	15553.07
846.339	15456.2
846.722	14996.2
847.104	15061.78
847.487	14905.96
847.869	14915.9
848.252	15146.56
848.634	15431.83
849.016	15668.67
849.398	15774.88
849.78	16514.42
850.162	16522.79
850.544	16882.84
850.926	17426.7
851.307	17346.25
851.689	17597.25
852.071	17999.08
852.452	18293.09
852.834	18272.82
853.215	18612.88
853.597	18751.03
853.978	19015.95
854.359	19416.3
854.741	18552.05
855.122	18470.01
855.503	18223.98
855.884	18336.39
856.265	18286.63
856.646	18375.56
857.026	18033
857.407	17985.15
857.788	18117.58
858.169	18364.74
858.549	17616.98
858.93	18168.03
859.31	18209.01
859.69	18386.56
860.071	18039.15
860.451	17838.78
860.831	17198.59
861.211	18204.78
861.591	18665.56
861.971	18653.31
862.351	18811.13
862.731	19150.47
863.111	19369.31
863.491	19665.58
863.87	20435.51
864.25	20742.55
864.629	20405.56
865.009	20853.07
865.388	21615.3
865.768	23173.09
866.147	23078.16
866.526	21814.9
866.905	22073.83
867.284	23316.71
867.663	22138.04
868.042	21211.01
868.421	21141.64
868.8	21486.79
869.179	21700.26
869.558	20425.12
869.936	18831.66
870.315	19168.13
870.693	19634.22
871.072	21175.64
871.45	20177.38
871.828	20443.5
872.207	21497.55
872.585	21169.21
872.963	21743.31
873.341	21002.81
873.719	20764.49
874.097	20513.65
874.475	20902.7
874.853	21378.91
875.23	20484.83
875.608	21337.4
875.986	23074.23
876.363	22064.36
876.741	22746.07
877.118	22188.12
877.495	23266.99
877.873	23645.29
878.25	24882.39
878.627	23852.16
879.004	24178.09
879.381	24049.42
879.758	23408.63
880.135	21786.06
880.512	23030.46
880.889	22404.1
881.265	22158.96
881.642	21972.37
882.019	22336.8
882.395	21887.61
882.772	22766.4
883.148	21777.94
883.524	21704.61
883.901	21578.28
884.277	21889.61
884.653	21745.97
885.029	22374.12
885.405	24773.09
885.781	24569.69
886.157	23550.05
886.532	23820.64
886.908	23792.41
887.284	26452.89
887.659	27312.03
888.035	28158.36
888.411	28883.78
888.786	29255.74
889.161	30267.59
889.537	29705.2
889.912	30660.01
890.287	30642.45
890.662	31418.18
891.037	30850.45
891.412	28763.79
891.787	28466.09
892.162	27474.1
892.536	28108.07
892.911	27060.18
893.286	26483.82
893.66	25408.74
894.035	26056.43
894.409	28355.78
894.784	27219.11
895.158	27668.47
895.532	29311.22
895.906	30120.96
896.281	30819.97
896.655	30329.34
897.029	34659.28
897.402	36087.71
897.776	40168.62
898.15	40034.18
898.524	39609.74
898.898	40143.08
899.271	44947.01
899.645	38938.55
900.018	37368.95
900.392	38753.43
900.765	39052.23
901.138	36120.97
901.511	35568.85
901.884	32671.89
902.258	30144.02
902.631	31150.79
903.003	35848.8
903.376	32337.44
903.749	36243.41
904.122	38823.59
904.495	42727.13
904.867	43293.94
905.24	37601.35
905.612	34995.02
905.985	35769.38
906.357	37402.71
906.729	35696.59
907.102	30492.78
907.474	29333.96
907.846	29518.83
908.218	29141.7
908.59	25764.23
908.962	24921.74
909.334	26829.53
909.705	28204.86
910.077	27403.15
910.449	28501.47
910.82	29302.81
911.192	32239.09
911.563	33503.2
911.935	35852.1
912.306	35884.87
912.677	37075.41
913.048	36720.68
913.419	39882.91
913.79	40108.05
914.161	43002.09
914.532	41142.81
914.903	37827.46
915.274	35940.29
915.645	35426.88
916.015	31199.04
916.386	29752.72
916.756	31666.31
917.127	32641.06
917.497	29152.35
917.868	31717.59
918.238	30123.48
918.608	30975.83
918.978	31620.8
919.348	33497.92
919.718	34614.77
920.088	33340.43
920.458	34649.16
920.828	36460.81
921.198	34585.5
921.567	36959.09
921.937	28644.83
922.306	28946.27
922.676	31221.83
923.045	26044.71
923.415	24746.89
923.784	22534.5
924.153	23182.49
924.522	23161.8
924.891	21763.06
925.26	23308.91
925.629	22748.9
925.998	26161.1
926.367	25540.67
926.736	24340.57
927.104	28984.64
927.473	31140.19
927.842	37607.41
928.21	37217.91
928.578	39111.8
928.947	37025.3
929.315	37256.92
929.683	43708.86
930.051	44057.65
930.42	51178.02
930.788	43744.4
931.156	43437.41
931.523	40757.88
931.891	37663.83
932.259	36189.24
932.627	41962.72
932.994	59343.58
933.362	49087.26
933.729	42628.63
934.097	40768.97
934.464	34457.14
934.831	39693.78
935.199	39090.69
935.566	37877.02
935.933	38363.75
936.3	46505.81
936.667	36171.16
937.034	32698.17
937.401	32326.51
937.767	27891.27
938.134	24842.54
938.501	35070.91
938.867	37455.65
939.234	63442.6
939.6	54165.17
939.967	59773.8
940.333	40036.98
940.699	34128.99
941.065	27330.82
941.431	35842.03
941.798	34595.96
942.163	45461.48
942.529	28376.33
942.895	26126.88
943.261	16875.71
943.627	22142.43
943.992	19387.61
944.358	19403.12
944.723	19490.28
945.089	19007.55
945.454	17577.04
945.82	18774.6
946.185	18027.02
946.55	20919.6
946.915	18760.51
947.28	22027.11
947.645	19416.37
948.01	17952.82
948.375	18722.07
948.74	22403.54
949.104	26133.74
949.469	37735.47
949.834	66599.62
950.198	63268.62
950.562	37928.36
950.927	31619.74
951.291	38054.03
951.655	32393.85
952.02	30346.29
952.384	22946.13
952.748	19997.38
953.112	19511.13
953.476	16965.51
953.839	15692.72
954.203	15535.19
954.567	19424.99
954.931	30544.09
955.294	26143.32
955.658	26268.27
956.021	44703.43
956.385	75734.51
956.748	111713.77
957.111	173109.46
957.474	194111.6
957.837	218649.12
958.2	165233.74
958.563	59332.84
958.926	40113.14
959.289	60809.16
959.652	67983.64
960.015	51059.85
960.377	73285.34
960.74	83521.78
961.102	144104.71
961.465	154886.63
961.827	83139.02
962.189	159524.42
962.552	110702.6
962.914	88819.7
963.276	57636.73
963.638	47616.85
964	47092.67
964.362	31852.1
964.724	30822.82
965.085	21957.51
965.447	18016.11
965.809	20480.96
966.17	20501.25
966.532	22167.62
966.893	20330.58
967.255	18493.01
967.616	21842.57
967.977	17504.98
968.338	19102.1
968.699	15693.42
969.061	15716.32
969.421	15809.38
969.782	17742.45
970.143	14997.66
970.504	15566.03
970.865	17703.1
971.225	18120.76
971.586	17710.27
971.946	25205.68
972.307	21876.85
972.667	28585.19
973.027	29461.5
973.388	35688.97
973.748	24263.18
974.108	26391.55
974.468	35607.04
974.828	27451.03
975.188	21106.8
975.548	19389.98
975.907	16279.75
976.267	18243.77
976.627	15362.67
976.986	15908.01
977.346	15159.08
977.705	14597.3
978.064	13304.06
978.424	11082.01
978.783	11439.72
979.142	13050.92
979.501	12496.5
979.86	13214.46
980.219	12741.2
980.578	16370.54
980.937	18309.45
981.296	16321.99
981.654	16763.02
982.013	26080.9
982.371	33877.36
982.73	31626.55
983.088	35847.2
983.447	38271
983.805	54738.15
984.163	114375.92
984.521	127261.27
984.879	186646.43
985.237	-303436.75
985.595	292805.69
985.953	72688.02
986.311	41915.43
986.669	24374.23
987.026	21001.44
987.384	28236.71
987.741	29180.42
988.099	20866.74
988.456	16609.59
988.814	15567.73
989.171	13555.9
989.528	13358.22
989.885	14140.98
990.242	11210.82
990.599	13944.6
990.956	11424.39
991.313	7995.17
991.67	6553.52
992.027	6975.19
992.383	6200.57
992.74	5436.17
993.096	5706.02
993.453	5920.33
993.809	6118.9
994.165	8145.71
994.522	7491.24
994.878	8255.04
995.234	10371.91
995.59	10252.4
995.946	9663.17
996.302	11061.29
996.658	12763.52
997.013	14048.03
997.369	16704.39
997.725	21452.6
998.08	13911.97
998.436	21381.38
998.791	29492.14
999.147	29404.34
999.502	32035.36
999.857	23259.22
1000.212	37764.84
1000.567	53983.6
1000.922	31112.79
1001.277	19723.09
1001.632	14575.35
1001.987	18763.06
1002.342	13474.65
1002.696	10764.06
1003.051	8605.48
1003.406	10429.85
1003.76	10380.82
1004.114	10256.98
1004.469	8624.82
1004.823	7147.98
1005.177	7717.67
1005.531	6136.56
1005.885	5433.53
1006.239	6142.9
1006.593	7708.14
1006.947	10302.35
1007.301	7732.62
1007.655	8450.31
1008.008	6193.21
1008.362	6957.29
1008.715	9929.68
1009.069	8999.41
1009.422	13567.83
1009.776	27339.96
1010.129	18141.33
1010.482	15167.71
1010.835	12791.58
1011.188	26748.03
1011.541	25214.29
1011.894	-154453.19
1012.247	453166.73
1012.6	30877.82
1012.952	19550.87
1013.305	10020.09
1013.657	7222.43
1014.01	6816.56
1014.362	5625.01
1014.715	5021.88
1015.067	4351.73
1015.419	4238.8
1015.771	3758.13
1016.123	3360.53
1016.475	3460.31
1016.827	3685.87
1017.179	3993.85
1017.531	4025.72
1017.883	4113.86
1018.234	4000.54
1018.586	5055.12
1018.938	5402.61
1019.289	7472.21
1019.64	8522.17
1019.992	7918.34
1020.343	7230.28
1020.694	5731.89
1021.045	5059.97
1021.396	5765.44
1021.747	6207.34
1022.098	7418.61
1022.449	5388.57
1022.8	4975.4
1023.151	3477.99
1023.501	3099.6
1023.852	3351.14
1024.202	3491.62
1024.553	3820.58
1024.903	3738.73
1025.253	3225.89
1025.604	2906.83
1025.954	3588.97
1026.304	4366.46
1026.654	5087.63
1027.004	7450.07
1027.354	12054.75
1027.703	11466.95
1028.053	15048.11
1028.403	22156.23
1028.753	31976
1029.102	42848.52
1029.452	218502.53
1029.801	9382.25
1030.15	6042.29
1030.499	5097.05
897.758	3283.13
901.051	3265.17
904.343	3301.22
907.636	3294.04
910.928	3365.28
914.22	3264.1
917.511	3276.63
920.803	3360.67
924.094	3409.86
927.384	3360.2
930.675	3324.1
933.965	3262.53
937.255	3257.12
940.544	3223.27
943.834	3075.94
947.123	3031.74
950.411	3141
953.7	3102.55
956.988	3050.96
960.276	2994.94
963.563	3115.21
966.851	3097.4
970.138	3173.31
973.424	3150.24
976.711	3096.63
979.997	3352.77
983.283	3370.85
986.568	3238.4
989.853	3283.63
993.138	3314.57
996.423	3398.81
999.708	3312.92
1002.992	3428.62
1006.275	3158
1009.559	3263.71
1012.842	3406.11
1016.125	3309.49
1019.408	3282.52
1022.69	3410.65
1025.972	3415.84
1029.254	3384.5
1032.536	3275.1
1035.817	3319.52
1039.098	3222.15
1042.379	3490.18
1045.659	3440.69
1048.939	3350.24
1052.219	3388.57
1055.498	3419
1058.778	3387.78
1062.057	3379.07
1065.335	3395.5
1068.614	3428.74
1071.892	3393.27
1075.17	3494.56
1078.447	3469.41
1081.724	3454.97
1085.001	3507.88
1088.278	3469.9
1091.554	3496.41
1094.83	3494.34
1098.106	3517.59
1101.382	3580.78
1104.657	3578.32
1107.932	3575.5
1111.206	3521.77
1114.481	3480.5
1117.755	3490.62
1121.029	3451.02
1124.302	3502.9
1127.575	3429.37
1130.848	3405.15
1134.121	3356.47
1137.393	3287.28
1140.665	3370.06
1143.937	3347.2
1147.208	3253.73
1150.48	3277.74
1153.75	3257.23
1157.021	3326.7
1160.291	3282.27
1163.561	3323.39
1166.831	3344.36
1170.101	3380.51
1173.37	3372.09
1176.639	3293.78
1179.907	3367.32
1183.176	3417.2
1186.444	3425.27
1189.711	3457
1192.979	3459.88
1196.246	3419.81
1199.513	3441.99
1202.78	3438.09
1206.046	3442.92
1209.312	3473.66
1212.578	3510.82
1215.843	3439.67
1219.108	3423.82
1222.373	3446.48
1225.638	3394.98
1228.902	3368.48
1232.166	3339.51
1235.43	3314.74
1238.693	3329.79
1241.956	3333.52
1245.219	3368.38
1248.482	3372.19
1251.744	3362.45
1255.006	3548.02
1258.268	3509.57
1261.529	3437.49
1264.79	3453.24
1268.051	3577.31
1271.312	3597.22
1274.572	3549.88
1277.832	3543.6
1281.092	3542.44
1284.351	3487.34
1287.61	3459.82
1290.869	3345.19
1294.128	3296.03
1297.386	3436.84
1300.644	3422.31
1303.902	3432.31
1307.159	3277.38
1310.416	3337.16
1313.673	3355.37
1316.93	3325.8
1320.186	3394.93
1323.442	3451.56
1326.697	3427.47
1329.953	3443.55
1333.208	3453.16
1336.463	3436
1339.717	3360.05
1342.972	3454.13
1346.226	3461.64
1349.479	3370.55
1352.733	3324.68
1355.986	3368.83
1359.238	3337.23
1362.491	3338.16
1365.743	3341.56
1368.995	3341.43
1372.247	3357.73
1375.498	3374.79
1378.749	3436.84
1382	3373.78
1385.251	3450.95
1388.501	3421.48
1391.751	3390.58
1395	3369.79
1398.25	3408.98
1401.499	3401.33
1404.748	3314.46
1407.996	3228.93
1411.244	3222.93
1414.492	3197.81
1417.74	3170.38
1420.987	3191.34
1424.234	3245.87
1427.481	3244.42
1430.728	3301.45
1433.974	3276.21
1437.22	3308.37
1440.465	3310.96
1443.711	3315.26
1446.956	3350.93
1450.201	3358.72
1453.445	3405.92
1456.689	3370.04
1459.933	3384.83
1463.177	3413.65
1466.42	3382.67
1469.663	3362.44
1472.906	3329.93
1476.148	3475.42
1479.391	3353.07
1482.633	3340.06
1485.874	3338.79
1489.115	3302.86
1492.356	3331.04
1495.597	3298.65
1498.838	3314.65
1502.078	3260.53
1505.318	3177.84
1508.557	3233.67
1511.797	3146.55
1515.036	3325.78
1518.274	3306.8
1521.513	3289.14
1524.751	3322.41
1527.989	3326.14
1531.227	3333.7
1534.464	3299.34
1537.701	3353.07
1540.938	3382.27
1544.174	3340.65
1547.41	3352.47
1550.646	3389.47
1553.882	3413.6
1557.117	3467.14
1560.352	3492.8
1563.587	3443.71
1566.821	3392.12
1570.055	3452.55
1573.289	3411.3
1576.523	3511.69
1579.756	3511.23
1582.989	3526.89
1586.222	3482.09
1589.454	3532.21
1592.686	3496.01
1595.918	3515.92
1599.15	3490.83
1602.381	3605.58
1605.612	3527.24
1608.843	3633.36
1612.073	3531.39
1615.303	3507.53
1618.533	3486.74
1621.762	3501.49
1624.992	3502.57
1628.221	3467
1631.449	3455.7
1634.678	3546.01
1637.906	3484.75
1641.134	3541.34
1644.361	3482.83
1647.588	3464.57
1650.815	3474.11
1654.042	3470.12
1657.269	3510.07
1660.495	3457.09
1663.72	3398.38
1666.946	3382.32
1670.171	3284.84
1673.396	3263.48
1676.621	3261.35
1679.845	3311.13
1683.069	3356.48
1686.293	3417.58
1689.517	3366.98
1692.74	3257.33
1695.963	3276.57
1699.185	3378.9
1702.408	3326.46
1705.63	3384.35
1708.852	3387.8
1712.073	3359.37
1715.294	3321.78
1718.515	3346.49
1721.736	3290.3
1724.956	3253.87
1728.176	3289.81
1731.396	3308.56
1734.616	3305.85
1737.835	3312.72
1741.054	3306.77
1744.272	3304.33
1747.491	3315.4
1750.709	3407.16
1753.927	3304.29
1757.144	3363.98
1760.361	3436.94
1763.578	3448.71
1766.795	3377.02
1770.011	3398.51
1773.227	3464.21
1776.443	3493.98
1779.658	3540.17
1782.874	3482.93
1786.089	3445.53
1789.303	3449.58
1792.518	3462.43
1795.732	3450.76
1798.945	3452.03
1802.159	3515.55
1805.372	3372.48
1808.585	3340.26
1811.797	3346.53
1815.01	3428.13
1818.222	3435.93
1821.434	3303.78
1824.645	3417.1
1827.856	3374.96
1831.067	3424.03
1834.278	3345.8
1837.488	3335.77
1840.698	3523.14
1843.908	3421.74
1847.117	3377.27
1850.326	3201.5
1853.535	3344.09
1856.744	3479.36
1859.952	3350.99
1863.16	3350.04
1866.368	3372.68
1869.575	3532.93
1872.782	3406.61
1875.989	3346.93
1879.196	3478.56
1882.402	3473.62
1885.608	3528.35
1888.814	3384.28
1892.019	3252.34
1895.224	3306.15
1898.429	3304.15
1901.634	3275.57
1904.838	3258.74
1908.042	3301.41
1911.246	3302.05
1914.449	3192.44
1917.652	3209.54
1920.855	3191.41
1924.058	3270.97
1927.26	3300.78
1930.462	3337.76
1933.664	3350.53
1936.865	3278.87
1940.066	3276.17
1943.267	3224.56
1946.467	3254.07
1949.668	3291.49
1952.868	3356.95
1956.067	3316.07
1959.267	3232.97
1962.466	3267.5
1965.665	3256.28
1968.863	3254.08
1972.061	3286.65
1975.259	3287.09
1978.457	3377.64
1981.654	3322.75
1984.852	3323.77
1988.048	3228.96
1991.245	3252.19
1994.441	3340.4
1997.637	3356.92
2000.833	3337.98
2004.028	3383.2
2007.223	3429.47
2010.418	3394
2013.613	3361.49
2016.807	3302.93
2020.001	3323.78
2023.194	3400.65
2026.388	3362.45
2029.581	3310
2032.774	3340.63
2035.966	3336.56
2039.158	3246.39
2042.35	3285.2
2045.542	3207.09
2048.733	3341.85
2051.924	3402.45
2055.115	3449.48
2058.306	3357.01
2061.496	3428.14
2064.686	3509.97
2067.875	3430.23
2071.065	3463.91
2074.254	3502.23
2077.442	3448.88
2080.631	3555.28
2083.819	3386.02
2087.007	3352.25
2090.195	3302.77
2093.382	3364.31
2096.569	3336.36
2099.756	3275.88
2102.942	3276.5
2106.128	3267.2
2109.314	3262.99
2112.5	3196.18
2115.685	3182.48
2118.87	3196.56
2122.055	3272.3
2125.239	3219.4
2128.424	3171.43
2131.608	3336.78
2134.791	3316.69
2137.974	3404.36
2141.157	3380.67
2144.34	3308.35
2147.523	3327.26
2150.705	3321.37
2153.887	3317.48
2157.068	3235.87
2160.25	3265.36
2163.431	3328.09
2166.611	3238.25
2169.792	3250.42
2172.972	3114.63
2176.152	3238.48
2179.331	3283.4
2182.511	3264
2185.69	3300.85
2188.868	3286.74
2192.047	3369.46
2195.225	3328.09
2198.403	3274.41
2201.58	3278.33
2204.758	3277.8
2207.935	3379.89
2211.111	3224.94
2214.288	3203.57
2217.464	3253.85
2220.64	3240.8
2223.815	3307.36
2226.991	3214.18
2230.166	3239.09
2233.34	3253.07
2236.515	3286.17
2239.689	3382.2
2242.863	3314.3
2246.036	3377.71
2249.209	3404.36
2252.382	3456.99
2255.555	3422.7
2258.727	3335.78
2261.9	3387.44
2265.071	3379.23
2268.243	3391.15
2271.414	3302.66
2274.585	3231.17
2277.756	3312.7
2280.926	3265.88
2284.096	3318.05
2287.266	3195.54
2290.436	3266.26
2293.605	3311.39
2296.774	3331.23
2299.942	3375.37
2303.111	3393.2
2306.279	3438.61
2309.447	3427.14
2312.614	3403.53
2315.781	3420.23
2318.948	3375.19
2322.115	3417.93
2325.281	3316.55
2328.447	3349.37
2331.613	3330.82
2334.779	3276.4
2337.944	3291.06
2341.109	3281.83
2344.274	3258.27
2347.438	3217.66
2350.602	3253.25
2353.766	3276.08
2356.929	3256.44
2360.092	3303.12
2363.255	3229.59
2366.418	3119.68
2369.58	3296.05
2372.742	2961.1
2375.904	3002.02
2379.066	2961.52
2382.227	3013.04
2385.388	2967.55
2388.548	2864.97
2391.709	2940.35
2394.869	2908.2
2398.029	3065.97
2401.188	3103.52
2404.347	2998.26
2407.506	3222.65
2410.665	3246.26
2413.823	3277.3
2416.981	3204.18
2420.139	3258.36
2423.296	3322.84
2426.453	3295.68
2429.61	3324.97
2432.767	3212.74
2435.923	3267.86
2439.079	3141.52
2442.235	3233.08
2445.391	3134.8
2448.546	3142.07
2451.701	3217.75
2454.855	3153.78
2458.009	3238.29
2461.163	3258.31
2464.317	3196.7
2467.471	3241.04
2470.624	3280.03
2473.777	3334.45
2476.929	3326.45
2480.082	3358.4
2483.234	3326.36
2486.385	3190.38
2489.537	3193.12
2492.688	3118.36
2495.839	3133.17
2498.989	3138.95
2502.14	3117.51
2505.29	3082.29
2508.439	3115.04
2511.589	3013.62
2514.738	3038.64
2517.887	3067.59
2521.035	3231.69
2524.183	3224.52
2527.331	3191.4
2530.479	3143.35
2533.627	3164.13
