Data from N_3_DEC_ON_6N_Splice17_13-37-19-931.txt Node
Date: Sat Mar 14 13:37:19 EDT 2020
User: sa697716
Spectrometer: FLMS03696
Trigger mode: 0
Integration Time (sec): 3.180400E-1
Scans to average: 20
Electric dark correction enabled: true
Nonlinearity correction enabled: true
Boxcar width: 5
XAxis mode: Wavelengths
Number of Pixels in Spectrum: 2048
>>>>>Begin Spectral Data<<<<<
187.83	-380347.56
188.298	2639.58
188.766	1518
189.233	1332.68
189.701	1840.7
190.169	2546.3
190.636	937.89
191.104	762.53
191.571	81.16
192.039	-137.82
192.506	-120.71
192.974	535.57
193.441	-1036.21
193.908	-217
194.375	-77.81
194.842	-41.07
195.31	26.26
195.777	179.29
196.244	499.02
196.711	712.9
197.177	894.52
197.644	1320.84
198.111	2284.04
198.578	3185.81
199.045	2531.57
199.511	4123.48
199.978	4808.48
200.445	4023.14
200.911	4413.89
201.378	4894.49
201.844	4307.64
202.31	7262.26
202.777	7425.9
203.243	4029.43
203.709	3771.47
204.176	4459.83
204.642	3651.51
205.108	3368.26
205.574	2717.05
206.04	2452.15
206.506	2284.91
206.972	2143.68
207.438	2062.82
207.903	2334.66
208.369	2045.25
208.835	2035.43
209.301	2100.59
209.766	2116.65
210.232	2069.18
210.697	2530.63
211.163	3064.07
211.628	4535.54
212.094	3758.05
212.559	4561.29
213.024	2809.7
213.49	3390.89
213.955	3267.69
214.42	3166.43
214.885	2909.61
215.35	2773.13
215.815	2678.44
216.28	2785.82
216.745	2222.44
217.21	2303.25
217.675	1986.19
218.14	2106.64
218.604	2167.86
219.069	2275.34
219.534	2219.96
219.998	2367.55
220.463	2622.93
220.927	2879.35
221.392	2529.79
221.856	2393.52
222.32	2786.93
222.785	3286.4
223.249	3893.67
223.713	4182.39
224.177	4014.07
224.642	4853.63
225.106	5750.01
225.57	6062.22
226.034	4450.63
226.497	6579.9
226.961	5817.16
227.425	6700.06
227.889	7172.98
228.353	6994.19
228.816	13962.35
229.28	13143.51
229.744	10899.04
230.207	6614.8
230.671	6419.99
231.134	10242.61
231.597	11746.04
232.061	11471.76
232.524	10935.09
232.987	7441.01
233.45	6692.9
233.914	5957.45
234.377	5955.89
234.84	5418.29
235.303	6255.81
235.766	6891.12
236.229	7031.55
236.691	4340.69
237.154	4842.32
237.617	3650.43
238.08	3720.83
238.542	4284.89
239.005	3073.15
239.468	3060.49
239.93	2869.17
240.393	2610.67
240.855	2294.8
241.317	2349.07
241.78	2828.71
242.242	2936.3
242.704	3206.37
243.166	2799.08
243.629	2594.16
244.091	2967.9
244.553	3233.85
245.015	3499.05
245.477	4489.42
245.939	6521
246.4	6947.09
246.862	6741.7
247.324	6341.84
247.786	6994.63
248.247	9092.37
248.709	9127.61
249.17	6850.56
249.632	6590.34
250.093	7734.55
250.555	6687.83
251.016	4137.83
251.477	3931
251.939	4280.35
252.4	4461.29
252.861	5275.73
253.322	4954.19
253.783	5885.67
254.244	7627.56
254.705	5956.39
255.166	5197.77
255.627	5135.37
256.088	7288.5
256.549	7720.64
257.009	6616.31
257.47	8016.68
257.931	6551.52
258.391	4878.27
258.852	5027.59
259.312	5213.98
259.773	6397.84
260.233	5467.54
260.694	4608.89
261.154	5125.59
261.614	4179.24
262.074	3726.02
262.534	3891.83
262.994	3660.77
263.455	4827.26
263.915	4071.64
264.374	3816.53
264.834	4147.03
265.294	4558.69
265.754	4709.71
266.214	4447.58
266.673	4115.68
267.133	5123.59
267.593	5008.6
268.052	6113.37
268.512	5311.02
268.971	6476.8
269.431	7125.36
269.89	6373.6
270.349	9530.49
270.809	10615.68
271.268	9577.5
271.727	21284.18
272.186	13887.12
272.645	10443.53
273.104	7458.9
273.563	10770.06
274.022	8305.87
274.481	7142.52
274.94	5526.44
275.399	4084.01
275.857	4732.45
276.316	6376.26
276.775	5706.75
277.233	5639.64
277.692	5372.93
278.15	6158.24
278.609	6453.88
279.067	6033.67
279.525	5634.77
279.984	7300.34
280.442	8881.72
280.9	8956.63
281.358	5960.81
281.816	5591.03
282.274	5491.13
282.732	5643.81
283.19	5691.55
283.648	4895.45
284.106	5251.07
284.564	5343.89
285.021	5010.93
285.479	3726.82
285.937	3342.94
286.394	2963.77
286.852	3060.52
287.309	3249.52
287.767	3192.02
288.224	3063.16
288.682	3403.57
289.139	3771.42
289.596	3487.07
290.053	3624.21
290.511	4575.76
290.968	5597.34
291.425	7538.77
291.882	6376.17
292.339	5553.94
292.796	5449.52
293.252	5097.42
293.709	4068.88
294.166	3635.64
294.623	3989.81
295.079	3791.23
295.536	3841.67
295.992	3484.45
296.449	3451.4
296.905	3578.26
297.362	3446.69
297.818	3618.46
298.274	3793.31
298.731	3825.15
299.187	3774.21
299.643	4039.39
300.099	4932.17
300.555	5404.44
301.011	4510.82
301.467	4450.92
301.923	5132.92
302.379	5024.52
302.835	4972.66
303.291	4985.57
303.746	5687.12
304.202	7250.54
304.658	7311.51
305.113	4891.94
305.569	4810.79
306.024	5119.86
306.479	4765.36
306.935	4081
307.39	4435.78
307.845	4109.43
308.301	4177.87
308.756	4083.89
309.211	3944.77
309.666	4073.35
310.121	5156.55
310.576	5236.54
311.031	5251.68
311.486	6063.91
311.94	6053.43
312.395	8180.84
312.85	15456.88
313.305	75527.53
313.759	400793.95
314.214	29078.82
314.668	23177.23
315.123	19727
315.577	7184.83
316.032	6438.34
316.486	8100.25
316.94	6493.58
317.394	4546.19
317.849	3534.51
318.303	3328.8
318.757	3130.84
319.211	3484.54
319.665	3020.46
320.119	3032.07
320.572	4310.38
321.026	4038.92
321.48	3337.12
321.934	3577.84
322.387	3570.31
322.841	3872.64
323.295	3548.82
323.748	4030.48
324.202	4066.99
324.655	4954.09
325.108	7045.47
325.562	4992.65
326.015	5892.5
326.468	4490.91
326.921	5047.8
327.374	4768.51
327.827	5027.48
328.28	5703.59
328.733	3864.02
329.186	3438.07
329.639	3288.28
330.092	2750.97
330.545	2636.04
330.997	2689.84
331.45	2997.89
331.903	3577.32
332.355	6112.21
332.808	5919.6
333.26	4879.77
333.713	5363.46
334.165	5407.56
334.617	7200.65
335.069	5771.71
335.522	10411.94
335.974	11555.52
336.426	10443.13
336.878	7122.91
337.33	3629.3
337.782	3577.8
338.234	4556.25
338.686	5418.91
339.137	6437.02
339.589	6093.02
340.041	4795.56
340.493	4145.74
340.944	4250.1
341.396	4614.48
341.847	3939.31
342.299	4718.57
342.75	5749.71
343.201	4924.85
343.653	5656.75
344.104	6866.89
344.555	5384.33
345.006	8323.04
345.457	6451.42
345.908	5104.82
346.359	4826.07
346.81	3919.34
347.261	4075.54
347.712	3968.66
348.163	4265.98
348.613	4394.07
349.064	4133.58
349.515	3620.17
349.965	3741.88
350.416	4466.08
350.866	4906.49
351.317	5455.62
351.767	9073.87
352.217	11469.89
352.668	9632.94
353.118	8872.07
353.568	8410.89
354.018	6727.05
354.468	7145.03
354.918	5198.72
355.368	4568.48
355.818	6468.92
356.268	18744.48
356.718	78760.47
357.168	19766.86
357.617	9862
358.067	10947.74
358.517	10322.41
358.966	12161.33
359.416	13717.97
359.865	14674.79
360.315	17472.93
360.764	8242.04
361.213	4653.68
361.663	4368.28
362.112	5384.96
362.561	8751.26
363.01	6644.63
363.459	5595.43
363.908	6020.74
364.357	5178.8
364.806	8724.13
365.255	6002.13
365.703	5524.27
366.152	5566.72
366.601	4576.27
367.05	3763.15
367.498	3461.01
367.947	3629.84
368.395	3775.94
368.844	3388.11
369.292	4034.04
369.74	2832.32
370.189	4352.68
370.637	5139.43
371.085	4432.13
371.533	5412.76
371.981	5196.56
372.429	4975.36
372.877	5191.27
373.325	4379.24
373.773	4444.48
374.221	3983.59
374.669	4933.76
375.116	4284.67
375.564	4326.95
376.012	4873.52
376.459	4043.91
376.907	4837.8
377.354	5855.7
377.801	5555.78
378.249	6469.72
378.696	8331.11
379.143	10227.88
379.591	10974.04
380.038	18739.77
380.485	13755.46
380.932	14913.15
381.379	13894.13
381.826	10483.38
382.273	7561.08
382.72	6619.92
383.166	6570.51
383.613	4345.71
384.06	3975.82
384.506	4729.53
384.953	3540.71
385.4	3610.29
385.846	3254.75
386.292	3246.09
386.739	3260.05
387.185	3348.06
387.631	3497.24
388.078	3563.16
388.524	3984.17
388.97	3846.3
389.416	3319.31
389.862	3656.93
390.308	3585.82
390.754	3784.76
391.2	4301.14
391.645	4667.9
392.091	4778.2
392.537	4905.39
392.983	5152.24
393.428	5317.55
393.874	5963.18
394.319	6396.22
394.765	6596.66
395.21	7460.28
395.655	7732.83
396.101	7967.51
396.546	7872.25
396.991	8700.64
397.436	8847.04
397.881	9405.37
398.326	9853.54
398.771	10264.25
399.216	9853.23
399.661	9657.67
400.106	10360.64
400.551	11366.23
400.995	10871.69
401.44	11409.57
401.885	11293.91
402.329	11986.55
402.774	12015.61
403.218	12084.51
403.663	12173.91
404.107	13055.03
404.551	13745.61
404.995	13236.12
405.44	13425.91
405.884	14319.99
406.328	14514.07
406.772	15080.65
407.216	14311.79
407.66	14481.53
408.104	14516.82
408.547	14241.56
408.991	14392.46
409.435	14413.34
409.879	14669.71
410.322	14918.85
410.766	14838.83
411.209	14555.01
411.653	14480.67
412.096	14657.81
412.54	15140.23
412.983	15442.34
413.426	15846.21
413.869	16245.71
414.312	16283.87
414.756	16093.34
415.199	15712.54
415.642	15580.82
416.085	15906.1
416.527	16082.41
416.97	16624.83
417.413	15979.64
417.856	16045.93
418.298	16064.53
418.741	16085.63
419.184	16176.27
419.626	16986.1
420.069	17097.74
420.511	17304.25
420.953	17068.52
421.396	17074.39
421.838	16835.48
422.28	17395.24
422.722	17644.56
423.164	18196.22
423.606	18159.51
424.048	18466.67
424.49	17769.98
424.932	17944.56
425.374	17955.23
425.816	18426.51
426.258	18760.78
426.699	18771.42
427.141	18128.59
427.582	18126.12
428.024	17851.56
428.465	17821.6
428.907	17574.98
429.348	17694.17
429.789	17951.43
430.231	17759.06
430.672	18225.44
431.113	18132.54
431.554	18414.76
431.995	18762.44
432.436	18776.48
432.877	18983.28
433.318	19060.76
433.759	19346.89
434.2	19609.22
434.64	19661.91
435.081	19985.66
435.522	19234.46
435.962	18893.29
436.403	18768.13
436.843	19340.24
437.284	19238.34
437.724	18975.66
438.164	19307.19
438.604	19060.32
439.045	18473.02
439.485	17865.62
439.925	17750.5
440.365	17565.49
440.805	17535.06
441.245	17450.54
441.685	16907.12
442.125	16891.67
442.564	17062.69
443.004	16676.83
443.444	16690.04
443.883	16782.37
444.323	16834.41
444.762	17054.64
445.202	17393.17
445.641	17728.04
446.081	17788.11
446.52	18003.17
446.959	17906.71
447.398	17574.36
447.837	17526.49
448.276	17360.81
448.716	17614.4
449.154	17824.87
449.593	17310.63
450.032	17187.63
450.471	16898.58
450.91	16873
451.349	16730.55
451.787	16613.58
452.226	16774.09
452.664	16668.37
453.103	16586.81
453.541	16487.62
453.98	16270.49
454.418	16310.81
454.856	15923.56
455.295	15802.09
455.733	15774.01
456.171	15772.78
456.609	15648.08
457.047	15509.18
457.485	15585.43
457.923	15493.9
458.361	15220.09
458.798	15255.53
459.236	15191.53
459.674	15350.36
460.111	15418
460.549	15299.49
460.987	15313.28
461.424	15320.38
461.862	15306.97
462.299	15131.21
462.736	15129.95
463.173	15234.86
463.611	15028.96
464.048	15020.89
464.485	15177.63
464.922	15122.27
465.359	15151.81
465.796	14790.22
466.233	14768.09
466.67	14668.52
467.106	14694.52
467.543	14687.62
467.98	14604.92
468.416	14412.58
468.853	14436.64
469.29	14115.57
469.726	14043.85
470.162	13736.8
470.599	13816.85
471.035	13768.16
471.471	13515.89
471.907	13536.78
472.344	13486.83
472.78	13494.12
473.216	13652.43
473.652	13439.09
474.088	13372.58
474.523	13245.85
474.959	13311.12
475.395	13117.09
475.831	12934.52
476.266	12919.14
476.702	12792.48
477.138	12539.44
477.573	12399.45
478.008	12228.71
478.444	12134.49
478.879	12074.58
479.314	11994
479.75	11844.14
480.185	11772.06
480.62	11737.43
481.055	11653.38
481.49	11563.07
481.925	11559.8
482.36	11525.62
482.795	11658.16
483.229	11790.72
483.664	11839.62
484.099	11703.07
484.534	11689.63
484.968	11629.54
485.403	11510.74
485.837	11370.38
486.271	11220.79
486.706	11111.02
487.14	10933.4
487.574	10675.67
488.009	10509.03
488.443	10351.42
488.877	10352.29
489.311	10308.82
489.745	10335.58
490.179	10339.53
490.613	10401.85
491.046	10412.45
491.48	10415.67
491.914	10344.75
492.348	10348.91
492.781	10338.44
493.215	10309.19
493.648	10299
494.082	10325.55
494.515	10276.46
494.948	10318.53
495.382	10354.56
495.815	10349.39
496.248	10354.52
496.681	10473.46
497.114	10572.92
497.547	10628.36
497.98	10704.65
498.413	10670.55
498.846	10701.18
499.279	10730.3
499.711	10711.95
500.144	10655.67
500.577	10688.78
501.009	10743.17
501.442	10756.66
501.874	10658.8
502.306	10612.39
502.739	10587.31
503.171	10709.9
503.603	10661.16
504.036	10680.28
504.468	10644.46
504.9	10675.32
505.332	10657.98
505.764	10598.46
506.196	10579.89
506.627	10639.33
507.059	10667.32
507.491	10685.07
507.923	10518.2
508.354	10554.22
508.786	10545.76
509.217	10608.45
509.649	10637.43
510.08	10707.6
510.512	10736.87
510.943	10756.69
511.374	10738.19
511.805	10801.33
512.237	10859.46
512.668	11051.45
513.099	11175.82
513.53	11274
513.961	11294.31
514.391	11414.85
514.822	11520.67
515.253	11669.9
515.684	11719.53
516.114	11805.78
516.545	11811.28
516.975	11858.76
517.406	11835.86
517.836	11699.98
518.267	11607.66
518.697	11610.91
519.127	11511.5
519.558	11444.55
519.988	11344.81
520.418	11301.23
520.848	11308.64
521.278	11253.89
521.708	10969.33
522.138	10950.45
522.567	11061.1
522.997	11121.8
523.427	11116.37
523.857	11110.23
524.286	11074.44
524.716	11074.44
525.145	11098.18
525.575	11080.94
526.004	11096.65
526.433	11229.62
526.863	11156.12
527.292	11009.33
527.721	10982.03
528.15	10973.58
528.579	10934.53
529.008	10961.19
529.437	11064.31
529.866	11103.24
530.295	11160.35
530.724	11175.75
531.152	11290.36
531.581	11320.95
532.01	11390.5
532.438	11404.25
532.867	11456.44
533.295	11533.48
533.723	11534.42
534.152	11486.52
534.58	11454.44
535.008	11330.14
535.436	11317.09
535.865	11345.12
536.293	11417.55
536.721	11491.14
537.149	11614.72
537.576	11601.78
538.004	11664
538.432	11703.42
538.86	11684.07
539.287	11726.64
539.715	11808.05
540.143	11838.38
540.57	11827.61
540.998	11823.95
541.425	11687.26
541.852	11592.6
542.28	11614.37
542.707	11549.47
543.134	11489.95
543.561	11489.24
543.988	11470.2
544.415	11500.12
544.842	11494.31
545.269	11470.89
545.696	11501.93
546.123	11626.23
546.549	11586.05
546.976	11527.29
547.403	11543.11
547.829	11584.57
548.256	11630.98
548.682	11631.57
549.108	11604.7
549.535	11630.26
549.961	11670.69
550.387	11609.26
550.813	11586.16
551.24	11649.22
551.666	11680.78
552.092	11640.18
552.518	11621.87
552.943	11594.13
553.369	11666.82
553.795	11722.09
554.221	11735.18
554.646	11728.12
555.072	11791.58
555.498	11836.85
555.923	11900.13
556.349	11994.98
556.774	12050.73
557.199	12055.04
557.625	12110.86
558.05	12069.49
558.475	12141.95
558.9	12137.96
559.325	12083.13
559.75	12057.3
560.175	12024.86
560.6	11995.42
561.025	11990.72
561.449	12005.11
561.874	12044.25
562.299	12058.23
562.723	12104.12
563.148	12026.97
563.572	12046.39
563.997	12106.24
564.421	12135.66
564.846	12127.69
565.27	12127.17
565.694	12096.32
566.118	12145.2
566.542	12166.98
566.966	12104.48
567.39	12045.63
567.814	11953.22
568.238	11936.05
568.662	11959.96
569.086	11968.42
569.509	12023.88
569.933	11932.19
570.357	11911.73
570.78	11806.74
571.204	11752.82
571.627	11733.74
572.05	11781.63
572.474	11840.51
572.897	11832.95
573.32	11851.77
573.743	11875.14
574.166	11823.04
574.589	11915.68
575.012	11945.34
575.435	12034.31
575.858	12065.94
576.281	12085.38
576.704	12074.95
577.126	12095.34
577.549	12111.81
577.972	12147.95
578.394	12161.15
578.817	12187.44
579.239	12146.33
579.661	12137.18
580.084	12093.05
580.506	12089.66
580.928	12152.9
581.35	12158.81
581.772	12205.62
582.194	12179.04
582.616	12147.65
583.038	12117.54
583.46	12121.24
583.882	12157.61
584.303	12262.13
584.725	12305.48
585.147	12323.79
585.568	12436.89
585.99	12544.81
586.411	12607.32
586.833	12736.21
587.254	12765.36
587.675	12901.46
588.096	13029.13
588.518	13008.03
588.939	12888
589.36	12887.91
589.781	12883
590.202	12650.5
590.623	12624.78
591.043	12649.11
591.464	12571.81
591.885	12557.25
592.305	12522.06
592.726	12411.98
593.147	12416.04
593.567	12364.33
593.987	12285.92
594.408	12223.16
594.828	12215.65
595.248	12122.03
595.669	11919.83
596.089	11823.61
596.509	11738.23
596.929	11574.75
597.349	11526.58
597.769	11393.21
598.189	11280.03
598.608	11235.55
599.028	11189.73
599.448	11137.19
599.867	10994.48
600.287	10929.98
600.706	10849.71
601.126	10726.41
601.545	10679.71
601.965	10646.48
602.384	10584.71
602.803	10594.69
603.222	10539.53
603.641	10486.08
604.061	10448.71
604.48	10424.65
604.898	10494.31
605.317	10552.26
605.736	10589.01
606.155	10583.74
606.574	10534.9
606.992	10604.72
607.411	10593.44
607.829	10574.79
608.248	10590.82
608.666	10618.27
609.085	10650.61
609.503	10618.81
609.921	10606.14
610.339	10664.08
610.758	10710.2
611.176	10719.96
611.594	10689.57
612.012	10711.45
612.43	10770.96
612.847	10863.65
613.265	10898.78
613.683	10977.42
614.101	11033.49
614.518	11057.64
614.936	11023.52
615.353	10945.15
615.771	10962.71
616.188	11010.59
616.606	11026
617.023	11016.64
617.44	10943.44
617.857	10945.44
618.274	10921.6
618.691	10902.18
619.108	10855.85
619.525	10835.66
619.942	10914.4
620.359	10954.39
620.776	10927.61
621.192	10894.87
621.609	10879.09
622.026	10929.97
622.442	10975.93
622.859	11004.34
623.275	10948.26
623.691	10994.6
624.108	11090.98
624.524	11216.49
624.94	11211.96
625.356	11292.28
625.772	11412.58
626.188	11519.98
626.604	11533.68
627.02	11496.78
627.436	11471.07
627.852	11520.35
628.268	11617.22
628.683	11541.57
629.099	11471.28
629.514	11448.93
629.93	11497.46
630.345	11551.61
630.761	11536.83
631.176	11592.71
631.591	11550.75
632.007	11526.08
632.422	11554.87
632.837	11496.13
633.252	11501.26
633.667	11452.37
634.082	11409.06
634.497	11336.12
634.911	11194.35
635.326	11213.76
635.741	11112.63
636.155	11093.77
636.57	11156.31
636.984	11210.43
637.399	11272.2
637.813	11343.57
638.228	11398.89
638.642	11514.12
639.056	11494.17
639.47	11584.53
639.884	11581.82
640.298	11604.54
640.712	11671.16
641.126	11638.79
641.54	11648.86
641.954	11715.99
642.368	11678.93
642.781	11662.66
643.195	11568.8
643.609	11652.89
644.022	11674.19
644.436	11706.77
644.849	11659.78
645.262	11611.83
645.676	11707.4
646.089	11710.82
646.502	11585.94
646.915	11595.91
647.328	11501.64
647.741	11539.88
648.154	11463.48
648.567	11458.33
648.98	11364.37
649.393	11425.71
649.805	11443.05
650.218	11418.1
650.631	11289.82
651.043	11282.7
651.456	11256.36
651.868	11303.05
652.28	11527.6
652.693	11679.1
653.105	11739.62
653.517	11804.62
653.929	11763.4
654.341	11803.48
654.753	11651.94
655.165	11752.84
655.577	11760.24
655.989	11763.88
656.401	11750.99
656.813	11399.13
657.224	11285.24
657.636	11119.94
658.047	11064.04
658.459	10993.02
658.87	11048.69
659.282	11052.56
659.693	10895.47
660.104	10811.81
660.515	10740.38
660.926	10807.36
661.338	10876.66
661.749	10892.19
662.159	10841.52
662.57	10888.07
662.981	10908.46
663.392	10876.81
663.803	10995.26
664.213	11047.69
664.624	11068.66
665.035	11182.44
665.445	11063.55
665.855	11008.99
666.266	10933.75
666.676	10954.19
667.086	10869.02
667.497	10882.13
667.907	10824.09
668.317	10717.22
668.727	10632.97
669.137	10664.12
669.547	10631.83
669.956	10676.13
670.366	10705.4
670.776	10721.29
671.186	10775.21
671.595	10803.34
672.005	10851.52
672.414	10808.91
672.824	10755.95
673.233	10851.53
673.642	10850.21
674.052	10851.65
674.461	10827.89
674.87	10865.44
675.279	10783.14
675.688	10784.01
676.097	10745.65
676.506	10655.99
676.915	10828.6
677.323	10827.15
677.732	10756.3
678.141	10710.24
678.549	10535.1
678.958	10492.75
679.366	10437.93
679.775	10474.07
680.183	10505.98
680.592	10528.75
681	10529.74
681.408	10352.21
681.816	10368.95
682.224	10392.83
682.632	10382.92
683.04	10619.21
683.448	10734.9
683.856	10845.39
684.264	10943.43
684.671	11014.27
685.079	11133.94
685.487	11275.02
685.894	11578.03
686.302	11730.25
686.709	11742.77
687.116	11821.33
687.524	11790.24
687.931	11740.65
688.338	11704.29
688.745	11676.66
689.152	11660.65
689.559	11700.99
689.966	11696.53
690.373	11497.65
690.78	11427.91
691.187	11514.9
691.593	11466.93
692	11373.98
692.407	11404.67
692.813	11496.49
693.22	11502.1
693.626	11545
694.032	11516.99
694.439	11650.57
694.845	11700.52
695.251	11839.44
695.657	11923.26
696.063	12179.12
696.469	12283.58
696.875	12351.49
697.281	12269.92
697.687	12212.15
698.093	12100.6
698.498	12152.36
698.904	12126.53
699.31	12235.01
699.715	12229.7
700.12	12380.6
700.526	12240.42
700.931	12336.87
701.337	12372.42
701.742	12352.83
702.147	12546.3
702.552	12530.26
702.957	12641.19
703.362	12603.13
703.767	12604.47
704.172	12658.65
704.577	12378.78
704.981	12451.86
705.386	12399.56
705.791	12262.48
706.195	12427.06
706.6	12352.88
707.004	12544.38
707.408	12342.89
707.813	12344.52
708.217	12211.81
708.621	12129.67
709.025	12374.89
709.43	12285.23
709.834	12402.55
710.237	12553.19
710.641	12416.77
711.045	12402.31
711.449	12285.37
711.853	12269.92
712.256	12305.89
712.66	12320.08
713.064	12428.32
713.467	12387.41
713.87	12508.75
714.274	12368.91
714.677	12369.22
715.08	12471.67
715.484	12554.99
715.887	12679.73
716.29	12778.91
716.693	12851.45
717.096	12983.22
717.499	12897.44
717.901	12670.68
718.304	12604.92
718.707	12662.48
719.109	12529.13
719.512	12597.64
719.915	12412.2
720.317	12410.67
720.719	12611.77
721.122	12631.33
721.524	12579.05
721.926	12502.83
722.328	12716.43
722.731	12596.29
723.133	12522.63
723.535	12799.22
723.937	12670.03
724.338	12642.37
724.74	12610.37
725.142	12328.45
725.544	12284.91
725.945	12298.12
726.347	12271.45
726.748	12232.52
727.15	12254.94
727.551	12149.32
727.952	12068.89
728.354	11994.84
728.755	12009.82
729.156	11970.26
729.557	12083.52
729.958	11900.82
730.359	11907.09
730.76	12000.85
731.161	12013.97
731.562	12101.87
731.962	12254.73
732.363	12235.13
732.763	12202.39
733.164	12385.87
733.564	12290.68
733.965	12097.79
734.365	12047.96
734.766	12136.34
735.166	12042.98
735.566	11889.92
735.966	11798.04
736.366	11763.8
736.766	11607
737.166	11688.48
737.566	11597.79
737.966	11545.02
738.365	11651.67
738.765	11635.01
739.165	11451.56
739.564	11388.99
739.964	11516.28
740.363	11428.21
740.763	11449.72
741.162	11434.09
741.561	11361.36
741.96	11251.08
742.36	11313.35
742.759	11334.73
743.158	11445.44
743.557	11491.14
743.955	11595.76
744.354	11481.49
744.753	11616.34
745.152	11497.51
745.55	11626.84
745.949	11597.25
746.348	11584.37
746.746	11597.69
747.144	11471.06
747.543	11385.9
747.941	11475.44
748.339	11271.84
748.737	11221.58
749.136	11170.72
749.534	11302.32
749.932	11199.25
750.33	11231.7
750.727	11345.99
751.125	11275.78
751.523	11224.55
751.921	11306.19
752.318	11209.74
752.716	11336.64
753.113	11350.89
753.511	11391.45
753.908	11367.36
754.305	11299.85
754.703	11420.12
755.1	11529.78
755.497	11629.06
755.894	11987.53
756.291	12206.38
756.688	12572.53
757.085	12930.74
757.482	13402.33
757.878	13746.86
758.275	13854.61
758.672	14282.44
759.068	14361.73
759.465	14726.95
759.861	15232.5
760.258	15787.58
760.654	15601.28
761.05	14898.7
761.447	14193.57
761.843	13594.41
762.239	13109.7
762.635	13194.14
763.031	13214.63
763.427	12963.27
763.822	12676.93
764.218	12434.87
764.614	11908.52
765.01	11714.74
765.405	11737.02
765.801	11825.47
766.196	11708.45
766.592	11785.2
766.987	11553.16
767.382	11449.93
767.778	11528.6
768.173	11471.13
768.568	11482.16
768.963	11336.4
769.358	11461.67
769.753	11431.41
770.148	11304.73
770.542	11346.02
770.937	11310.46
771.332	11520.81
771.726	11564.49
772.121	11418.82
772.515	11530.56
772.91	11495.25
773.304	11649.91
773.699	11498.95
774.093	11601.26
774.487	11705.74
774.881	11771.52
775.275	11733.45
775.669	11625.13
776.063	11700.75
776.457	11760.36
776.851	11577.16
777.245	11528.87
777.638	11568.77
778.032	11781.35
778.425	11671.92
778.819	11723.13
779.212	11608.21
779.606	11497.85
779.999	11509.87
780.392	11440.96
780.786	11577.68
781.179	11580.45
781.572	11629.82
781.965	11618.18
782.358	11459.4
782.751	11534.16
783.143	11394.06
783.536	11488.94
783.929	11518.99
784.322	11685.46
784.714	11680.58
785.107	11606.52
785.499	11681.83
785.891	11559.76
786.284	11434.25
786.676	11617.47
787.068	11485.39
787.46	11491.76
787.852	11445.47
788.245	11522.05
788.636	11496.54
789.028	11541.17
789.42	11534.43
789.812	11472.48
790.204	11574.52
790.595	11694.86
790.987	11294.03
791.378	11291.21
791.77	11479.28
792.161	11670.89
792.553	11719.53
792.944	11470.17
793.335	11292.07
793.726	11356.24
794.117	11459.83
794.508	11656.7
794.899	11562.89
795.29	11757.13
795.681	11802.16
796.072	11502.69
796.463	11120.72
796.853	11070.15
797.244	11268.59
797.634	11267.57
798.025	11207.49
798.415	11161.94
798.806	11229.71
799.196	11279.35
799.586	11267.19
799.976	11113.76
800.366	11385.75
800.756	11683.83
801.146	11538.34
801.536	11508.69
801.926	11544.4
802.316	11517.66
802.706	11565.5
803.095	11323.68
803.485	11423.48
803.874	11435.68
804.264	11770.8
804.653	11681.43
805.043	11831.72
805.432	11930.3
805.821	11859.76
806.21	11810.15
806.599	11885.23
806.988	11835.85
807.377	11867.13
807.766	11917.15
808.155	12159.63
808.544	11646.25
808.933	11506.25
809.321	11317.51
809.71	11521.82
810.098	11519.73
810.487	11874.38
810.875	12214.23
811.264	11970.41
811.652	12016.11
812.04	11871.49
812.428	11735
812.816	12231.02
813.204	12313.01
813.592	12502.47
813.98	12488.87
814.368	12078.25
814.756	12251.03
815.144	11915.7
815.531	12112.69
815.919	11860.56
816.306	11978.44
816.694	11588.85
817.081	11567.01
817.469	11859
817.856	11908.49
818.243	12193.96
818.63	12582.49
819.017	12231.62
819.404	12232.02
819.791	12429.27
820.178	12779.94
820.565	12838.67
820.952	13509.67
821.339	13010.45
821.725	13068.62
822.112	12346.36
822.498	12192.63
822.885	12176.96
823.271	12030.39
823.657	12379.75
824.044	12460.47
824.43	12589.83
824.816	12593.01
825.202	12202.35
825.588	12930.34
825.974	12817.04
826.36	13077.55
826.746	12964.85
827.132	13104.21
827.517	12937.11
827.903	12199.49
828.289	12100.55
828.674	11424.05
829.06	11258.31
829.445	11473.28
829.83	11660.69
830.216	11930.39
830.601	12121.9
830.986	11778.72
831.371	11634.79
831.756	11992.35
832.141	11655.11
832.526	11619.76
832.911	11795.73
833.295	11702.99
833.68	12021.24
834.065	11588.15
834.449	10953.2
834.834	10908.72
835.218	10902.04
835.603	11130.6
835.987	10958.62
836.371	11516.02
836.755	11421.28
837.139	11675.39
837.524	11818.98
837.908	11658.88
838.291	11665.77
838.675	11672.71
839.059	11774.98
839.443	11719.47
839.827	11522.11
840.21	11799.16
840.594	11654.83
840.977	11736.93
841.361	11669.81
841.744	11855.69
842.127	11710.99
842.511	11814.63
842.894	12156.32
843.277	12350.94
843.66	12638.63
844.043	12639.44
844.426	12079.77
844.809	11823.03
845.191	11796.15
845.574	11455.56
845.957	11165.9
846.339	11022.03
846.722	10617.51
847.104	10558.8
847.487	10354.89
847.869	10285.52
848.252	10363.14
848.634	10476.22
849.016	10551.2
849.398	10541.17
849.78	10949.44
850.162	10872.79
850.544	11018.06
850.926	11259.09
851.307	11101.39
851.689	11136.78
852.071	11265.88
852.452	11342.86
852.834	11234.05
853.215	11370.58
853.597	11382.07
853.978	11473.96
854.359	11662.02
854.741	11119.48
855.122	11087.72
855.503	10967.03
855.884	11079.41
856.265	11077.19
856.646	11136.65
857.026	10930.46
857.407	10875.75
857.788	10931.28
858.169	11044.13
858.549	10569.54
858.93	10854.55
859.31	10831.51
859.69	10891.05
860.071	10635.33
860.451	10471.27
860.831	10054.26
861.211	10586.88
861.591	10807.48
861.971	10729.22
862.351	10751.77
862.731	10840.5
863.111	10854.24
863.491	10886.34
863.87	11178.47
864.25	11214
864.629	10932.05
865.009	11062.78
865.388	11355.78
865.768	12066.2
866.147	11934.42
866.526	11206.04
866.905	11301.18
867.284	11924.99
867.663	11319.17
868.042	10852.77
868.421	10814.15
868.8	10969.08
869.179	11071.47
869.558	10413.14
869.936	9580.86
870.315	9724.05
870.693	9950.12
871.072	10691.67
871.45	10157.43
871.828	10268.6
872.207	10768.32
872.585	10571.2
872.963	10808.99
873.341	10404.76
873.719	10252.99
874.097	10099.03
874.475	10267.96
874.853	10462.82
875.23	10007.76
875.608	10395.43
875.986	11214.95
876.363	10694.47
876.741	11004.61
877.118	10706.3
877.495	11177.38
877.873	11302.76
878.25	11851.45
878.627	11305.69
879.004	11413.78
879.381	11316.3
879.758	10984.54
880.135	10176.83
880.512	10718
880.889	10380.61
881.265	10242.45
881.642	10119.36
882.019	10262.84
882.395	10025.18
882.772	10405.91
883.148	9923.42
883.524	9844.58
883.901	9737.49
884.277	9837.13
884.653	9726.1
885.029	9977.78
885.405	11008.1
885.781	10883.28
886.157	10385.92
886.532	10463.27
886.908	10409.03
887.284	11526.54
887.659	11864.51
888.035	12190.91
888.411	12465.58
888.786	12585.34
889.161	12954.93
889.537	12647.7
889.912	12974.23
890.287	12885.14
890.662	13119.45
891.037	12770.23
891.412	11811.06
891.787	11576.58
892.162	11043.07
892.536	11162
892.911	10594.64
893.286	10206.73
893.66	9629.73
894.035	9707.41
894.409	10374.62
894.784	9789.05
895.158	9782.53
895.532	10164.65
895.906	10239.96
896.281	10281.64
896.655	9930
897.029	11157.28
897.402	11442.54
897.776	12536.14
898.15	12333.69
898.524	12058.09
898.898	12074.11
899.271	13388.54
899.645	11510.73
900.018	11001.72
900.392	11411.36
900.765	11525.54
901.138	10717.03
901.511	10639.2
901.884	9892.25
902.258	9220.25
902.631	9659.55
903.003	11235.16
903.376	10238.53
903.749	11593.06
904.122	12475.86
904.495	13762.91
904.867	13922.55
905.24	12030.71
905.612	11100.44
905.985	11228.46
906.357	11618.41
906.729	10930.83
907.102	9217.94
907.474	8744.02
907.846	8690.46
908.218	8490.87
908.59	7463.39
908.962	7175.3
909.334	7687.56
909.705	8058.42
910.077	7788.74
910.449	8072.23
910.82	8265.72
911.192	9069.58
911.563	9414.8
911.935	10019.6
912.306	9989.27
912.677	10242.46
913.048	10079.82
913.419	10868.75
913.79	10854.68
914.161	11581.06
914.532	11036.04
914.903	10102.51
915.274	9553.85
915.645	9378.41
916.015	8241.97
916.386	7871.37
916.756	8393.6
917.127	8703.14
917.497	7837.38
917.868	8602.21
918.238	8245.33
918.608	8552.55
918.978	8824.69
919.348	9432.52
919.718	9838.18
920.088	9571.02
920.458	10028.83
920.828	10597.25
921.198	10078.58
921.567	10765.52
921.937	8331.8
922.306	8378.42
922.676	9004.6
923.045	7506.25
923.415	7121.78
923.784	6460.51
924.153	6634.2
924.522	6605.8
924.891	6184.21
925.26	6585.53
925.629	6379.22
925.998	7259.62
926.367	7037.13
926.736	6669.33
927.104	7810.35
927.473	8241.86
927.842	9764.33
928.21	9439
928.578	9672.64
928.947	8923.33
929.315	8752.9
929.683	10008.82
930.051	9805.7
930.42	11032.59
930.788	9092.16
931.156	8781.95
931.523	8033.43
931.891	7204.77
932.259	6726.36
932.627	7595.42
932.994	10481.57
933.362	8491.58
933.729	7225.01
934.097	6809.16
934.464	5710.44
934.831	6492.23
935.199	6314.23
935.566	6103.64
935.933	6177.53
936.3	7533.63
936.667	5873.12
937.034	5499.72
937.401	5513.68
937.767	4864.64
938.134	4431.25
938.501	6390.72
938.867	7036.43
939.234	12234.71
939.6	10595.65
939.967	11980.23
940.333	8216.5
940.699	7144.78
941.065	5649.02
941.431	7490.77
941.798	7312.23
942.163	9669.26
942.529	6029.76
942.895	5517.88
943.261	3572.01
943.627	4709.58
943.992	4133.44
944.358	4098.09
944.723	4124.05
945.089	4020.8
945.454	3701.02
945.82	3919.89
946.185	3752.99
946.55	4364.6
946.915	3909.98
947.28	4565.69
947.645	4002.93
948.01	3722.64
948.375	3919.79
948.74	4657.23
949.104	5421.19
949.469	7773.76
949.834	13712.39
950.198	13176.14
950.562	7914.83
950.927	6588.71
951.291	7896.83
951.655	6718.47
952.02	6220.75
952.384	4666.72
952.748	4108.18
953.112	4061.78
953.476	3544.34
953.839	3251.73
954.203	3201.45
954.567	3967.24
954.931	6186.13
955.294	5326.48
955.658	5343.32
956.021	9126.22
956.385	15402.04
956.748	22654.2
957.111	34673.07
957.474	38917.76
957.837	43890.46
958.2	32855.22
958.563	11818.65
958.926	8079.81
959.289	12266.2
959.652	13765.92
960.015	10349.33
960.377	14862.81
960.74	16954.64
961.102	29265.82
961.465	31668.47
961.827	17705.45
962.189	34285.16
962.552	23997.87
962.914	19312.67
963.276	12567.43
963.638	10482.9
964	10415.19
964.362	7114.95
964.724	6894.66
965.085	4960.44
965.447	4079.7
965.809	4530.61
966.17	4534.64
966.532	4922.92
966.893	4563.86
967.255	4188.02
967.616	4981.58
967.977	4035.32
968.338	4450
968.699	3734.77
969.061	3764.68
969.421	3862.46
969.782	4380.5
970.143	3778.63
970.504	4017.12
970.865	4628.94
971.225	4808.14
971.586	4717.67
971.946	6753.34
972.307	5872.41
972.667	7621.49
973.027	7887.31
973.388	9483.69
973.748	6457.18
974.108	7011.73
974.468	9275.49
974.828	7188.73
975.188	5459.23
975.548	5013.67
975.907	4214.57
976.267	4711.89
976.627	3996.32
976.986	4123.48
977.346	3937.28
977.705	3799.14
978.064	3459.86
978.424	2921.95
978.783	2969.93
979.142	3414
979.501	3290.01
979.86	3494.57
980.219	3379.48
980.578	4331.37
980.937	4872.72
981.296	4349.71
981.654	4502.62
982.013	6993.88
982.371	9134.93
982.73	8619.46
983.088	9825.73
983.447	10617.56
983.805	15257.03
984.163	32121.31
984.521	35927.35
984.879	52864.63
985.237	-87187.05
985.595	84788.61
985.953	21115.12
986.311	12177.26
986.669	7133.73
987.026	6175.04
987.384	8225.96
987.741	8504.04
988.099	6192.36
988.456	4975.08
988.814	4722.64
989.171	4098.2
989.528	4009.72
989.885	4281.81
990.242	3439.61
990.599	4262.99
990.956	3503.08
991.313	2474.1
991.67	2043.59
992.027	2224.35
992.383	1989.8
992.74	1760.75
993.096	1873.69
993.453	1958.67
993.809	2023.78
994.165	2678.97
994.522	2537.9
994.878	2804.01
995.234	3527.72
995.59	3489.88
995.946	3229.47
996.302	3689.21
996.658	4231.76
997.013	4644.36
997.369	5580.29
997.725	7243.39
998.08	4722.5
998.436	7064.22
998.791	9792.85
999.147	9816.3
999.502	10762.09
999.857	7772.18
1000.212	12688.33
1000.567	18163.28
1000.922	10542.5
1001.277	6686.52
1001.632	4979.71
1001.987	6414.17
1002.342	4612.09
1002.696	3686.86
1003.051	2978.57
1003.406	3623.93
1003.76	3605.01
1004.114	3583.12
1004.469	3037.75
1004.823	2497.64
1005.177	2688.34
1005.531	2133.58
1005.885	1915.92
1006.239	2199.87
1006.593	2786.72
1006.947	3730.94
1007.301	2782.66
1007.655	3057.03
1008.008	2251.11
1008.362	2547.23
1008.715	3689.61
1009.069	3354.95
1009.422	5146.32
1009.776	10288.94
1010.129	6876.12
1010.482	5771.55
1010.835	4837.33
1011.188	10129.49
1011.541	9589.71
1011.894	-58669.01
1012.247	172272.42
1012.6	11659.6
1012.952	7497.14
1013.305	3781.19
1013.657	2765.35
1014.01	2607.84
1014.362	2138.41
1014.715	1980.4
1015.067	1762.71
1015.419	1725.33
1015.771	1562.47
1016.123	1416.71
1016.475	1473.95
1016.827	1569.17
1017.179	1742.22
1017.531	1744.33
1017.883	1788.92
1018.234	1824.98
1018.586	2309.3
1018.938	2505.1
1019.289	3528.51
1019.64	3975.86
1019.992	3678.71
1020.343	3394.03
1020.694	2755.89
1021.045	2407.36
1021.396	2742.52
1021.747	2973.34
1022.098	3464.8
1022.449	2486.4
1022.8	2296.96
1023.151	1603.03
1023.501	1449.97
1023.852	1570.36
1024.202	1663.92
1024.553	1789.49
1024.903	1813.33
1025.253	1612.43
1025.604	1473.63
1025.954	1828.61
1026.304	2241.15
1026.654	2628.08
1027.004	3825.45
1027.354	6142.43
1027.703	5950.6
1028.053	7650.01
1028.403	11309.88
1028.753	16025.03
1029.102	21338.03
1029.452	107690.41
1029.801	4636.18
1030.15	2985.28
1030.499	2456.55
897.758	3289.3
901.051	3272.16
904.343	3308.95
907.636	3301.41
910.928	3371.17
914.22	3272.96
917.511	3285.66
920.803	3371.04
924.094	3418.52
927.384	3368.51
930.675	3333.92
933.965	3274.19
937.255	3265.67
940.544	3231.52
943.834	3083.26
947.123	3041.8
950.411	3147.65
953.7	3107.54
956.988	3057.06
960.276	3001.68
963.563	3125.39
966.851	3103.91
970.138	3180.94
973.424	3159.17
976.711	3107.61
979.997	3363.36
983.283	3381.81
986.568	3249.51
989.853	3297.03
993.138	3328.97
996.423	3414.01
999.708	3326.22
1002.992	3442.68
1006.275	3169.4
1009.559	3277.96
1012.842	3418.8
1016.125	3323.13
1019.408	3297.04
1022.69	3425.85
1025.972	3430.96
1029.254	3398.61
1032.536	3288.81
1035.817	3334.33
1039.098	3237.82
1042.379	3506.95
1045.659	3456.4
1048.939	3366.56
1052.219	3407.89
1055.498	3437
1058.778	3406.44
1062.057	3396.8
1065.335	3414.9
1068.614	3448.39
1071.892	3411.4
1075.17	3513.58
1078.447	3490.8
1081.724	3475.81
1085.001	3528.83
1088.278	3493.23
1091.554	3518.63
1094.83	3515.83
1098.106	3541.33
1101.382	3604.69
1104.657	3604.32
1107.932	3600.18
1111.206	3542.86
1114.481	3501.75
1117.755	3512.9
1121.029	3473.01
1124.302	3522.26
1127.575	3449.44
1130.848	3427.03
1134.121	3376.47
1137.393	3308.78
1140.665	3390.42
1143.937	3369.8
1147.208	3274.33
1150.48	3298.58
1153.75	3279.81
1157.021	3349.47
1160.291	3303.47
1163.561	3345.08
1166.831	3367.04
1170.101	3402.9
1173.37	3389.18
1176.639	3309.81
1179.907	3386.88
1183.176	3439.55
1186.444	3443.89
1189.711	3476.13
1192.979	3477.8
1196.246	3438.35
1199.513	3462.23
1202.78	3454.25
1206.046	3460.36
1209.312	3495.68
1212.578	3531.2
1215.843	3457.65
1219.108	3439.28
1222.373	3467.52
1225.638	3413.94
1228.902	3387.66
1232.166	3355.7
1235.43	3330.78
1238.693	3347.15
1241.956	3353.69
1245.219	3384.53
1248.482	3390.15
1251.744	3379.14
1255.006	3571.73
1258.268	3532.97
1261.529	3459.26
1264.79	3473.94
1268.051	3601.46
1271.312	3621.53
1274.572	3575.23
1277.832	3566.26
1281.092	3567
1284.351	3513.34
1287.61	3484.05
1290.869	3367.52
1294.128	3315.23
1297.386	3460.58
1300.644	3447.95
1303.902	3456.78
1307.159	3299.96
1310.416	3360.95
1313.673	3378.2
1316.93	3347.55
1320.186	3418.92
1323.442	3475.63
1326.697	3450.29
1329.953	3464.52
1333.208	3471.87
1336.463	3454.47
1339.717	3380.84
1342.972	3470.99
1346.226	3476.88
1349.479	3385.92
1352.733	3339.67
1355.986	3382.58
1359.238	3350.39
1362.491	3352.25
1365.743	3356.71
1368.995	3359.22
1372.247	3374.21
1375.498	3390.52
1378.749	3453.45
1382	3393.3
1385.251	3470.33
1388.501	3442.19
1391.751	3406.71
1395	3389.48
1398.25	3427.87
1401.499	3420.04
1404.748	3329.25
1407.996	3242.17
1411.244	3235.69
1414.492	3210.21
1417.74	3180.69
1420.987	3203.37
1424.234	3255.63
1427.481	3258.61
1430.728	3312.62
1433.974	3286.29
1437.22	3320.78
1440.465	3324.33
1443.711	3329.48
1446.956	3364.61
1450.201	3374.56
1453.445	3421.76
1456.689	3385.5
1459.933	3406.03
1463.177	3432.69
1466.42	3401.02
1469.663	3380.28
1472.906	3347.96
1476.148	3493.44
1479.391	3369.85
1482.633	3357.8
1485.874	3356.89
1489.115	3319.19
1492.356	3346.76
1495.597	3313.83
1498.838	3329.41
1502.078	3276.45
1505.318	3193.6
1508.557	3249.97
1511.797	3161.65
1515.036	3345.1
1518.274	3326.17
1521.513	3309.92
1524.751	3344.99
1527.989	3347.18
1531.227	3352.52
1534.464	3319.72
1537.701	3374.76
1540.938	3405.21
1544.174	3361.33
1547.41	3375.19
1550.646	3412.37
1553.882	3435.87
1557.117	3490.57
1560.352	3516.39
1563.587	3468.09
1566.821	3415.14
1570.055	3476.29
1573.289	3433.37
1576.523	3535.39
1579.756	3534.95
1582.989	3549.18
1586.222	3505.24
1589.454	3560.58
1592.686	3519.22
1595.918	3539.08
1599.15	3517.27
1602.381	3630.32
1605.612	3554.06
1608.843	3661.05
1612.073	3552.45
1615.303	3533.83
1618.533	3512.92
1621.762	3525.24
1624.992	3523.06
1628.221	3491.37
1631.449	3476.01
1634.678	3567.69
1637.906	3508.75
1641.134	3564.64
1644.361	3506.17
1647.588	3492.03
1650.815	3498.08
1654.042	3495.61
1657.269	3534.92
1660.495	3483.16
1663.72	3419.88
1666.946	3408.49
1670.171	3308.51
1673.396	3286.42
1676.621	3284.6
1679.845	3336.7
1683.069	3380.38
1686.293	3440.18
1689.517	3388.41
1692.74	3279.99
1695.963	3296.79
1699.185	3403.17
1702.408	3347.26
1705.63	3407.78
1708.852	3408.51
1712.073	3380.55
1715.294	3341.06
1718.515	3364.84
1721.736	3312.1
1724.956	3272.05
1728.176	3307.75
1731.396	3327.87
1734.616	3324.94
1737.835	3332.14
1741.054	3327.09
1744.272	3327.68
1747.491	3337.48
1750.709	3428.77
1753.927	3327.52
1757.144	3385.03
1760.361	3462.89
1763.578	3474.64
1766.795	3401.67
1770.011	3422.49
1773.227	3489.91
1776.443	3516.69
1779.658	3563.36
1782.874	3506.45
1786.089	3467.82
1789.303	3472.51
1792.518	3486.85
1795.732	3472.92
1798.945	3472.42
1802.159	3537.09
1805.372	3392.12
1808.585	3358.46
1811.797	3365.66
1815.01	3448.58
1818.222	3455.36
1821.434	3320.59
1824.645	3435.75
1827.856	3390.73
1831.067	3443.3
1834.278	3362.91
1837.488	3350.96
1840.698	3540.63
1843.908	3438.97
1847.117	3394.48
1850.326	3215.12
1853.535	3359.27
1856.744	3496.1
1859.952	3366.37
1863.16	3365.97
1866.368	3390.73
1869.575	3552.53
1872.782	3426.62
1875.989	3365.09
1879.196	3498.25
1882.402	3491.9
1885.608	3544.01
1888.814	3397.65
1892.019	3267.61
1895.224	3321
1898.429	3318
1901.634	3284.27
1904.838	3267.02
1908.042	3308.23
1911.246	3311.44
1914.449	3199.25
1917.652	3213.97
1920.855	3200.21
1924.058	3280.75
1927.26	3308.49
1930.462	3344.01
1933.664	3357.71
1936.865	3286.54
1940.066	3283.41
1943.267	3231.89
1946.467	3260.49
1949.668	3297.62
1952.868	3364.42
1956.067	3321.35
1959.267	3239
1962.466	3273.48
1965.665	3263.51
1968.863	3257.89
1972.061	3291.72
1975.259	3298
1978.457	3387.19
1981.654	3331.38
1984.852	3333.55
1988.048	3237.59
1991.245	3260.88
1994.441	3347.65
1997.637	3364.09
2000.833	3346.05
2004.028	3396.75
2007.223	3440.41
2010.418	3401.17
2013.613	3371.53
2016.807	3312.18
2020.001	3335.09
2023.194	3415.64
2026.388	3376.39
2029.581	3325.3
2032.774	3357.45
2035.966	3354.7
2039.158	3260.86
2042.35	3300.91
2045.542	3223.71
2048.733	3357.78
2051.924	3418.32
2055.115	3462.89
2058.306	3368.35
2061.496	3440.89
2064.686	3522.76
2067.875	3444.24
2071.065	3477.16
2074.254	3513.46
2077.442	3463.03
2080.631	3568.02
2083.819	3398.9
2087.007	3367.65
2090.195	3318.8
2093.382	3379.6
2096.569	3351.76
2099.756	3292.11
2102.942	3291.02
2106.128	3278.88
2109.314	3278.77
2112.5	3209.12
2115.685	3194.4
2118.87	3209.76
2122.055	3283.36
2125.239	3229.38
2128.424	3182.39
2131.608	3348.12
2134.791	3326.49
2137.974	3412.97
2141.157	3392.87
2144.34	3317.21
2147.523	3335.27
2150.705	3330.34
2153.887	3326.73
2157.068	3243.97
2160.25	3274.11
2163.431	3338.4
2166.611	3248.33
2169.792	3259.23
2172.972	3128.09
2176.152	3249.29
2179.331	3297.07
2182.511	3280.3
2185.69	3315.77
2188.868	3301.7
2192.047	3387.41
2195.225	3346.32
2198.403	3291.31
2201.58	3293.23
2204.758	3294.94
2207.935	3392.82
2211.111	3241.81
2214.288	3217.82
2217.464	3268.73
2220.64	3256.49
2223.815	3321.27
2226.991	3225.18
2230.166	3250.73
2233.34	3263.74
2236.515	3301.37
2239.689	3396.33
2242.863	3329.1
2246.036	3391.58
2249.209	3416.73
2252.382	3468.63
2255.555	3437.03
2258.727	3349.56
2261.9	3401.98
2265.071	3394.81
2268.243	3406.1
2271.414	3316.8
2274.585	3244.42
2277.756	3325.59
2280.926	3277.49
2284.096	3333.11
2287.266	3208.25
2290.436	3276.96
2293.605	3321.03
2296.774	3339.57
2299.942	3384.26
2303.111	3401.61
2306.279	3445.38
2309.447	3433.18
2312.614	3413.05
2315.781	3430.05
2318.948	3383.02
2322.115	3426.6
2325.281	3321.82
2328.447	3361.5
2331.613	3342.51
2334.779	3287.05
2337.944	3300.34
2341.109	3291.62
2344.274	3270.01
2347.438	3227.84
2350.602	3260.71
2353.766	3284.8
2356.929	3265.04
2360.092	3313.95
2363.255	3237.19
2366.418	3125.62
2369.58	3302.19
2372.742	2968.07
2375.904	3007.8
2379.066	2966.34
2382.227	3016.84
2385.388	2975.04
2388.548	2872.13
2391.709	2948.67
2394.869	2918.91
2398.029	3074.32
2401.188	3112.73
2404.347	3008.84
2407.506	3234.46
2410.665	3257.69
2413.823	3287.55
2416.981	3214.1
2420.139	3267.41
2423.296	3331.96
2426.453	3304.73
2429.61	3331.39
2432.767	3218.98
2435.923	3275.29
2439.079	3145.88
2442.235	3238.96
2445.391	3140.3
2448.546	3147.86
2451.701	3224.19
2454.855	3160.21
2458.009	3240.34
2461.163	3262.06
2464.317	3203.52
2467.471	3249.41
2470.624	3285.77
2473.777	3341.66
2476.929	3333.65
2480.082	3365.05
2483.234	3333.24
2486.385	3195.87
2489.537	3197.26
2492.688	3125.19
2495.839	3139.97
2498.989	3144.46
2502.14	3121.37
2505.29	3088.18
2508.439	3122.03
2511.589	3018.14
2514.738	3047.89
2517.887	3075.62
2521.035	3239.15
2524.183	3234.09
2527.331	3200.37
2530.479	3150.62
2533.627	3169.4
