Data from N_3_DEC_CT_2N_Splice17_13-02-30-412.txt Node
Date: Sat Mar 14 13:02:30 EDT 2020
User: sa697716
Spectrometer: FLMS03696
Trigger mode: 0
Integration Time (sec): 3.180400E-1
Scans to average: 20
Electric dark correction enabled: true
Nonlinearity correction enabled: true
Boxcar width: 5
XAxis mode: Wavelengths
Number of Pixels in Spectrum: 2048
>>>>>Begin Spectral Data<<<<<
187.83	-336624.99
188.298	2431.69
188.766	1307.57
189.233	1180.13
189.701	1653.35
190.169	2192.93
190.636	768.64
191.104	556.43
191.571	13.21
192.039	-133.82
192.506	-164.08
192.974	389.97
193.441	-692.56
193.908	-180.17
194.375	-70.13
194.842	-2.59
195.31	-11.44
195.777	135.18
196.244	370.39
196.711	475.5
197.177	617.59
197.644	887.91
198.111	1559.75
198.578	2198.06
199.045	1772.43
199.511	2883.1
199.978	3370.2
200.445	2882.21
200.911	3185.16
201.378	3554.96
201.844	3202.84
202.31	5487.39
202.777	5718.42
203.243	3183.92
203.709	3050.22
204.176	3644.48
204.642	3007.97
205.108	2805.16
205.574	2289.65
206.04	2087.35
206.506	1952.3
206.972	1851.6
207.438	1774.41
207.903	2026.4
208.369	1764.27
208.835	1742.17
209.301	1823.39
209.766	1898.89
210.232	1875.33
210.697	2327.5
211.163	2882.42
211.628	4372.43
212.094	3672.87
212.559	4523.93
213.024	2827.02
213.49	3458.3
213.955	3385.99
214.42	3303.61
214.885	3066.76
215.35	2969.98
215.815	2857.23
216.28	3031.27
216.745	2485.93
217.21	2701.42
217.675	2526.3
218.14	2877.81
218.604	3272.03
219.069	3795.85
219.534	4040.65
219.998	4750.58
220.463	5811.49
220.927	7233.8
221.392	6854.19
221.856	6964.21
222.32	8859.11
222.785	10954.08
223.249	13843.81
223.713	15470.93
224.177	15479.39
224.642	19880.36
225.106	24530.24
225.57	26867.2
226.034	20012.47
226.497	30576.77
226.961	27659.18
227.425	32225.4
227.889	35809.54
228.353	35851.47
228.816	74273.53
229.28	71203.41
229.744	60265.14
230.207	36636.12
230.671	36064.26
231.134	59769.49
231.597	68988.42
232.061	69142.68
232.524	67530.89
232.987	46579.14
233.45	41885.66
233.914	37563.71
234.377	38538.15
234.84	35280.82
235.303	41592.6
235.766	46472.13
236.229	47984.29
236.691	30192.32
237.154	33939.9
237.617	25541.5
238.08	26156.86
238.542	30663.06
239.005	21916.94
239.468	21743.5
239.93	20477.35
240.393	18628.44
240.855	16345.41
241.317	16762.31
241.78	20426.36
242.242	21114.21
242.704	22789.68
243.166	19859.73
243.629	18021.72
244.091	20790.71
244.553	22805.63
245.015	24534.73
245.477	31759.84
245.939	46540.86
246.4	49398.33
246.862	48036.25
247.324	45277.85
247.786	50730.18
248.247	66614.94
248.709	68881.04
249.17	51507.86
249.632	48529.22
250.093	56217.97
250.555	48585.3
251.016	29676.99
251.477	28162.94
251.939	30393.18
252.4	31948.33
252.861	37985.42
253.322	35320.99
253.783	42062.95
254.244	54601.63
254.705	43134.93
255.166	38416.2
255.627	37837.07
256.088	53399.5
256.549	56779.33
257.009	48957.14
257.47	59389.36
257.931	48449.33
258.391	36310.33
258.852	37490.9
259.312	39342.89
259.773	48583.47
260.233	41066.13
260.694	34665.61
261.154	39351.23
261.614	31600.19
262.074	28271.3
262.534	29384.15
262.994	27705.57
263.455	36950.24
263.915	31149.36
264.374	29364.53
264.834	32097.36
265.294	35610.07
265.754	36939.18
266.214	34981.98
266.673	32790.72
267.133	41423.59
267.593	41135.38
268.052	50332.54
268.512	43773.63
268.971	52718.76
269.431	57806.29
269.89	51779.81
270.349	77648.43
270.809	86496.96
271.268	77751.13
271.727	174517.46
272.186	113049.89
272.645	84842.2
273.104	61240.15
273.563	88690.57
274.022	69835.26
274.481	59380.43
274.94	45719.99
275.399	33996.29
275.857	39592.06
276.316	53537.88
276.775	47631.28
277.233	46900.63
277.692	43863.76
278.15	49587.98
278.609	51017.44
279.067	47204.9
279.525	43831.88
279.984	56618.43
280.442	67969.17
280.9	66985.06
281.358	44078.91
281.816	41056.33
282.274	40187.83
282.732	41515.58
283.19	41758.81
283.648	36031.2
284.106	38364.51
284.564	39054.16
285.021	36191.39
285.479	26978.72
285.937	24554.31
286.394	21536.11
286.852	22185.4
287.309	23344.58
287.767	22557.06
288.224	21444.82
288.682	23535.77
289.139	25852.92
289.596	23659.01
290.053	24622.47
290.511	31112.79
290.968	37720.8
291.425	51222.41
291.882	42599.67
292.339	37043.63
292.796	36781.36
293.252	34630.37
293.709	27497.36
294.166	24628.22
294.623	27210.79
295.079	26096.31
295.536	26187.7
295.992	23756.37
296.449	23492.66
296.905	24413.58
297.362	23386.11
297.818	24607.91
298.274	25531.94
298.731	26021.59
299.187	25737.44
299.643	27627.43
300.099	33446.63
300.555	36687.72
301.011	30684.96
301.467	29535.43
301.923	34590.17
302.379	33778.43
302.835	33147.04
303.291	33197.82
303.746	37786.5
304.202	47762.24
304.658	47987.96
305.113	32249
305.569	31600.27
306.024	33704.31
306.479	32133.43
306.935	27047.7
307.39	29560.31
307.845	27299.32
308.301	27440.67
308.756	26743.65
309.211	25757.13
309.666	26352.65
310.121	32696.29
310.576	33199.72
311.031	32906.24
311.486	37690.81
311.94	37701.69
312.395	50383.86
312.85	94685.53
313.305	465984.28
313.759	2411209.01
314.214	174631.14
314.668	138556.2
315.123	116466.28
315.577	41728.33
316.032	37146.8
316.486	46578.31
316.94	36721.12
317.394	25552.85
317.849	19854.53
318.303	18789.92
318.757	17720.42
319.211	19619
319.665	17152.24
320.119	17363.61
320.572	24889.91
321.026	23223.51
321.48	19299.35
321.934	21060.37
322.387	21105.82
322.841	22789.67
323.295	20452.12
323.748	23582.02
324.202	23917.59
324.655	28756.53
325.108	40122.42
325.562	28337.57
326.015	33696.48
326.468	25470.05
326.921	28445.27
327.374	26516.59
327.827	27604.85
328.28	31235.27
328.733	20887.28
329.186	18373.1
329.639	17484.62
330.092	14735.67
330.545	14026.66
330.997	14140.9
331.45	15435.44
331.903	18072.02
332.355	31100.03
332.808	30185.58
333.26	24873.45
333.713	27009.77
334.165	27150.47
334.617	36264.7
335.069	29320
335.522	52984.62
335.974	58602.61
336.426	53526.71
336.878	37117.98
337.33	18804.92
337.782	18358.22
338.234	22983.82
338.686	27516.32
339.137	32563.8
339.589	30597
340.041	23985.51
340.493	20603.07
340.944	21062.25
341.396	22697.16
341.847	19085.54
342.299	22503.57
342.75	27489.48
343.201	24037.26
343.653	27567.61
344.104	33895.66
344.555	26714.04
345.006	41515.09
345.457	31732.31
345.908	25254.94
346.359	23742.49
346.81	19306.25
347.261	20364.33
347.712	20051.81
348.163	21522.97
348.613	21798.51
349.064	20355.8
349.515	17799.84
349.965	18259.68
350.416	22029.19
350.866	24165.04
351.317	27289.13
351.767	45198.75
352.217	56974.14
352.668	47176.92
353.118	43151.24
353.568	41597.66
354.018	32848.42
354.468	34641.35
354.918	24828.44
355.368	21716.27
355.818	30613.97
356.268	88113.98
356.718	368471.52
357.168	91881.32
357.617	46076.35
358.067	51302.4
358.517	48078.95
358.966	56378.66
359.416	63206.39
359.865	68312.59
360.315	81221.85
360.764	37976.72
361.213	21270.46
361.663	20137.83
362.112	24807.62
362.561	40098.22
363.01	30204.76
363.459	25424.39
363.908	27511.39
364.357	23304.98
364.806	39295.55
365.255	27028.5
365.703	24740.05
366.152	24756.58
366.601	20061.24
367.05	16278.32
367.498	14770.58
367.947	15438.55
368.395	16024.99
368.844	14160.13
369.292	17106.31
369.74	11830.43
370.189	18102.14
370.637	21177.09
371.085	18261.54
371.533	22194.92
371.981	21346.47
372.429	20367.23
372.877	21162.95
373.325	17728.33
373.773	18064.31
374.221	16058.35
374.669	19918.61
375.116	17216.53
375.564	17361.5
376.012	19374.16
376.459	15956.82
376.907	19065.02
377.354	23005.16
377.801	21400.1
378.249	24518.11
378.696	31245.79
379.143	37781.86
379.591	40149.13
380.038	67802.2
380.485	48923.82
380.932	52831.47
381.379	48301.55
381.826	35489.35
382.273	25170.35
382.72	22001.92
383.166	21404.6
383.613	13881.97
384.06	12499.75
384.506	14437.04
384.953	10567.83
385.4	10609
385.846	9274.58
386.292	9022.72
386.739	8823.61
387.185	8707.61
387.631	8704
388.078	8436.73
388.524	9015.57
388.97	8320.97
389.416	6930.07
389.862	7364.41
390.308	6969
390.754	7065.96
391.2	7646.68
391.645	7805.67
392.091	7450.76
392.537	7186.53
392.983	7172.05
393.428	7040.01
393.874	7529.26
394.319	7533.2
394.765	7131.01
395.21	7311.52
395.655	6831.31
396.101	6401.65
396.546	5772.39
396.991	5818.21
397.436	5398.47
397.881	5219.26
398.326	4933.05
398.771	4655.91
399.216	4072.51
399.661	3661.55
400.106	3641.95
400.551	3727.05
400.995	3341.44
401.44	3305.54
401.885	3103.93
402.329	3130.53
402.774	2998.91
403.218	2898.39
403.663	2783.52
404.107	2851.19
404.551	2867.17
404.995	2633.6
405.44	2537.05
405.884	2566.77
406.328	2473.29
406.772	2462.96
407.216	2237.94
407.66	2159.21
408.104	2048.06
408.547	1917.45
408.991	1856.01
409.435	1783.19
409.879	1751.2
410.322	1726.43
410.766	1663.24
411.209	1580.83
411.653	1513.46
412.096	1483.99
412.54	1482.82
412.983	1475.71
413.426	1479.92
413.869	1475.5
414.312	1448.88
414.756	1396.65
415.199	1328.18
415.642	1291.42
416.085	1295.75
416.527	1287.76
416.97	1304.88
417.413	1236.86
417.856	1220.47
418.298	1204.5
418.741	1196.78
419.184	1190.42
419.626	1238.05
420.069	1238.69
420.511	1244.46
420.953	1215.42
421.396	1204.18
421.838	1171.55
422.28	1198.1
422.722	1202.45
423.164	1217.24
423.606	1195.09
424.048	1193.05
424.49	1132.55
424.932	1127.57
425.374	1111.6
425.816	1131.07
426.258	1150.21
426.699	1164.98
427.141	1146.53
427.582	1164.73
428.024	1160.42
428.465	1152.93
428.907	1123.07
429.348	1109.25
429.789	1109.44
430.231	1086.11
430.672	1097.57
431.113	1070.43
431.554	1052.56
431.995	1021.45
432.436	983.38
432.877	962.68
433.318	947.56
433.759	944.42
434.2	944.7
434.64	932.97
435.081	934.6
435.522	886.31
435.962	854.34
436.403	836.43
436.843	851.4
437.284	834.86
437.724	811.34
438.164	812.46
438.604	793.46
439.045	761.04
439.485	731.01
439.925	714.54
440.365	697.02
440.805	687.78
441.245	678.34
441.685	652.23
442.125	645.25
442.564	649
443.004	633.73
443.444	632.87
443.883	635.38
444.323	627.87
444.762	629.74
445.202	637.89
445.641	649.68
446.081	645.64
446.52	651.57
446.959	644.93
447.398	630.33
447.837	624.33
448.276	613.52
448.716	619.55
449.154	626.25
449.593	611.36
450.032	608.39
450.471	596.31
450.91	596.32
451.349	595.16
451.787	592.2
452.226	598.95
452.664	598.8
453.103	599.19
453.541	596.79
453.98	595.78
454.418	600.5
454.856	592.24
455.295	589.75
455.733	594.49
456.171	597.06
456.609	595.97
457.047	595.29
457.485	601.45
457.923	601.27
458.361	593.51
458.798	594.6
459.236	591.46
459.674	593.07
460.111	596.07
460.549	588.71
460.987	585.03
461.424	583.78
461.862	581.48
462.299	572.02
462.736	572.23
463.173	572.39
463.611	566.14
464.048	565.03
464.485	570.43
464.922	564.71
465.359	561.18
465.796	557.85
466.233	554.13
466.67	548.39
467.106	548.6
467.543	541.72
467.98	536.51
468.416	522.19
468.853	516.91
469.29	501.48
469.726	496.33
470.162	484.1
470.599	473.34
471.035	468.49
471.471	456.75
471.907	452.53
472.344	450.08
472.78	450.91
473.216	456.28
473.652	450.82
474.088	448.37
474.523	446.65
474.959	450.97
475.395	448.23
475.831	445.45
476.266	448.96
476.702	448.33
477.138	443.43
477.573	441.23
478.008	439.31
478.444	441.78
478.879	447.45
479.314	449.4
479.75	449.31
480.185	450.83
480.62	454.68
481.055	455.9
481.49	458.98
481.925	466.31
482.36	475.43
482.795	487.63
483.229	500.59
483.664	509.96
484.099	511.27
484.534	518.39
484.968	523.12
485.403	523.94
485.837	523.06
486.271	521.84
486.706	521.5
487.14	514.26
487.574	506.09
488.009	500.06
488.443	495.08
488.877	500.46
489.311	501.08
489.745	506.71
490.179	511.74
490.613	521.4
491.046	525.15
491.48	529.26
491.914	529.92
492.348	533.94
492.781	537.4
493.215	538.8
493.648	540.18
494.082	545.48
494.515	546.14
494.948	552.54
495.382	556.35
495.815	560.62
496.248	564.42
496.681	574.85
497.114	584.32
497.547	593.34
497.98	604.46
498.413	610.34
498.846	618.23
499.279	625.8
499.711	629.61
500.144	632.97
500.577	643.26
501.009	653.85
501.442	663.48
501.874	666.73
502.306	670.43
502.739	678.86
503.171	692.24
503.603	697.03
504.036	707.12
504.468	713.76
504.9	726.17
505.332	733.3
505.764	739.08
506.196	747.29
506.627	762.81
507.059	776.94
507.491	786.35
507.923	788.3
508.354	805.59
508.786	818.27
509.217	838.91
509.649	854.57
510.08	874.99
510.512	893.81
510.943	911.63
511.374	925.57
511.805	947.26
512.237	969.86
512.668	1002.12
513.099	1030.21
513.53	1059.92
513.961	1082.52
514.391	1115.35
514.822	1150.82
515.253	1187.8
515.684	1216.18
516.114	1248.44
516.545	1273.29
516.975	1302.08
517.406	1324.64
517.836	1332.2
518.267	1342.98
518.697	1364.54
519.127	1373.99
519.558	1385.35
519.988	1394.22
520.418	1407.89
520.848	1427.94
521.278	1439.77
521.708	1468.22
522.138	1484.74
522.567	1518.76
522.997	1548.11
523.427	1567.3
523.857	1588.06
524.286	1601.06
524.716	1619.46
525.145	1642.45
525.575	1657.6
526.004	1676.44
526.433	1666.68
526.863	1669.29
527.292	1661.35
527.721	1669.91
528.15	1678.06
528.579	1680.68
529.008	1694.56
529.437	1719.33
529.866	1734.76
530.295	1753.78
530.724	1767.63
531.152	1798.54
531.581	1815.26
532.01	1836.45
532.438	1845.72
532.867	1862.58
533.295	1883.57
533.723	1891.84
534.152	1890.85
534.58	1891.99
535.008	1877.83
535.436	1881.3
535.865	1888.85
536.293	1904.92
536.721	1921.59
537.149	1948.66
537.576	1952.18
538.004	1966.6
538.432	1974.9
538.86	1974.56
539.287	1982.38
539.715	1996.32
540.143	1999.52
540.57	1996.47
540.998	1993.63
541.425	1970.22
541.852	1949.31
542.28	1947.67
542.707	1930.02
543.134	1916.33
543.561	1912.33
543.988	1904.97
544.415	1905.25
544.842	1901.24
545.269	1894.56
545.696	1896.12
546.123	1910.22
546.549	1899.11
546.976	1886.92
547.403	1887.63
547.829	1890.42
548.256	1893.1
548.682	1891.31
549.108	1883.4
549.535	1883.29
549.961	1886.04
550.387	1873.23
550.813	1867.99
551.24	1875.95
551.666	1877.98
552.092	1868.93
552.518	1862.93
552.943	1857.66
553.369	1864.98
553.795	1872.26
554.221	1873.26
554.646	1869.58
555.072	1880.99
555.498	1887.04
555.923	1896.38
556.349	1912.24
556.774	1921.19
557.199	1922.14
557.625	1927.72
558.05	1922.5
558.475	1933.71
558.9	1932.21
559.325	1924.55
559.75	1918.53
560.175	1910.4
560.6	1903.71
561.025	1900.18
561.449	1900.92
561.874	1907.02
562.299	1911.97
562.723	1917.61
563.148	1906.64
563.572	1909.97
563.997	1919.36
564.421	1923.98
564.846	1923.29
565.27	1925.39
565.694	1921.82
566.118	1932.22
566.542	1937.39
566.966	1927.89
567.39	1920.9
567.814	1907.26
568.238	1905.6
568.662	1909.23
569.086	1909.57
569.509	1914.99
569.933	1897.34
570.357	1888.69
570.78	1864.21
571.204	1849.35
571.627	1837.26
572.05	1833.25
572.474	1831.33
572.897	1815.93
573.32	1805.97
573.743	1794.34
574.166	1774.84
574.589	1774.62
575.012	1765.26
575.435	1763.74
575.858	1753.48
576.281	1740.91
576.704	1724.72
577.126	1710.73
577.549	1698.91
577.972	1687.93
578.394	1676.51
578.817	1668.52
579.239	1647.92
579.661	1632.17
580.084	1615.79
580.506	1602.03
580.928	1597.91
581.35	1586.19
581.772	1581.89
582.194	1568.38
582.616	1554.94
583.038	1540.08
583.46	1528.46
583.882	1524.42
584.303	1528.92
584.725	1523.77
585.147	1524.56
585.568	1534.4
585.99	1546.15
586.411	1551.7
586.833	1565.72
587.254	1565.91
587.675	1579.03
588.096	1590.7
588.518	1585.4
588.939	1568.13
589.36	1565.41
589.781	1553.85
590.202	1524.14
590.623	1513.82
591.043	1510.24
591.464	1496.87
591.885	1493.26
592.305	1485.84
592.726	1472.15
593.147	1471.68
593.567	1465.83
593.987	1458.41
594.408	1452.3
594.828	1450.48
595.248	1444.45
595.669	1426.43
596.089	1419.03
596.509	1411.74
596.929	1398.4
597.349	1398.34
597.769	1387.97
598.189	1381.22
598.608	1380.92
599.028	1382.44
599.448	1381.15
599.867	1368.21
600.287	1363.14
600.706	1358.6
601.126	1348.77
601.545	1347.27
601.965	1344.32
602.384	1338.76
602.803	1341.04
603.222	1335.05
603.641	1328.41
604.061	1324.7
604.48	1320.48
604.898	1326.69
605.317	1329.34
605.736	1330.23
606.155	1327.01
606.574	1317.88
606.992	1322.81
607.411	1317.16
607.829	1313.81
608.248	1309.47
608.666	1305.5
609.085	1303.83
609.503	1293.93
609.921	1287.62
610.339	1288.21
610.758	1286.22
611.176	1280.95
611.594	1270.45
612.012	1264.78
612.43	1261.4
612.847	1265.39
613.265	1265.08
613.683	1267.18
614.101	1268.14
614.518	1263.18
614.936	1252.34
615.353	1236.22
615.771	1231.35
616.188	1231.17
616.606	1227.43
617.023	1219.82
617.44	1206.41
617.857	1198.51
618.274	1189.67
618.691	1182.61
619.108	1172.56
619.525	1165.89
619.942	1171.65
620.359	1173.65
620.776	1166.16
621.192	1162.21
621.609	1159.57
622.026	1165.27
622.442	1170.4
622.859	1172.66
623.275	1165.82
623.691	1171.58
624.108	1182.24
624.524	1194.22
624.94	1194.05
625.356	1203.97
625.772	1215.23
626.188	1226.18
626.604	1225.88
627.02	1221.58
627.436	1219.51
627.852	1225.71
628.268	1235.7
628.683	1226.8
629.099	1219.77
629.514	1214.87
629.93	1217.07
630.345	1220.76
630.761	1215.29
631.176	1218.85
631.591	1212.98
632.007	1206.87
632.422	1203.35
632.837	1192.45
633.252	1189.28
633.667	1177.75
634.082	1168.12
634.497	1155.44
634.911	1136.72
635.326	1132.37
635.741	1114.08
636.155	1103.53
636.57	1102.57
636.984	1100.93
637.399	1099.8
637.813	1096.8
638.228	1093.91
638.642	1095.39
639.056	1083.98
639.47	1080.33
639.884	1069.74
640.298	1061.72
640.712	1057.26
641.126	1042.4
641.54	1031.19
641.954	1023.08
642.368	1010.26
642.781	1001.49
643.195	982.63
643.609	979.3
644.022	971.19
644.436	964.47
644.849	950.68
645.262	937.23
645.676	936.5
646.089	928.71
646.502	913.88
646.915	906.19
647.328	888.47
647.741	884.41
648.154	872.2
648.567	868.67
648.98	856.27
649.393	855.38
649.805	851.63
650.218	843.63
650.631	830.7
651.043	824.44
651.456	817.54
651.868	816.83
652.28	830.26
652.693	840.39
653.105	844.15
653.517	851.04
653.929	849.78
654.341	853.81
654.753	842.9
655.165	845.87
655.577	841.38
655.989	836.72
656.401	828.77
656.813	797.94
657.224	779.46
657.636	753.82
658.047	737.03
658.459	720.31
658.87	711.14
659.282	699.36
659.693	682.36
660.104	670.99
660.515	658.02
660.926	655.39
661.338	651.16
661.749	644.34
662.159	636.79
662.57	632.34
662.981	627.58
663.392	619.93
663.803	621.98
664.213	618.19
664.624	612.62
665.035	615.11
665.445	603.78
665.855	599.02
666.266	592.48
666.676	589.69
667.086	582.14
667.497	581.41
667.907	576.15
668.317	569.92
668.727	568.88
669.137	569.95
669.547	568.04
669.956	569.44
670.366	569.97
670.776	572.2
671.186	575.27
671.595	579.11
672.005	582.05
672.414	583.07
672.824	583.32
673.233	585.49
673.642	587.22
674.052	589.72
674.461	593.18
674.87	598.09
675.279	596.83
675.688	598.65
676.097	600.95
676.506	599.84
676.915	611.78
677.323	614.84
677.732	615.07
678.141	616.74
678.549	610.64
678.958	609.76
679.366	609.7
679.775	613.82
680.183	624.96
680.592	630.55
681	636.83
681.408	632.61
681.816	639.16
682.224	647.82
682.632	658.27
683.04	684.33
683.448	707.34
683.856	735.45
684.264	768.3
684.671	796.09
685.079	831.08
685.487	869.59
685.894	924.79
686.302	971.85
686.709	1011.46
687.116	1057.58
687.524	1096.84
687.931	1132.73
688.338	1162.9
688.745	1189.77
689.152	1222.99
689.559	1267.24
689.966	1310.82
690.373	1334.5
690.78	1376.15
691.187	1438.34
691.593	1487.89
692	1531.54
692.407	1592.32
692.813	1670.09
693.22	1734.68
693.626	1800.85
694.032	1854.26
694.439	1933.47
694.845	1997.73
695.251	2077.19
695.657	2149.14
696.063	2251.32
696.469	2331.17
696.875	2406.97
697.281	2450.8
697.687	2504.19
698.093	2548.96
698.498	2630.98
698.904	2696.86
699.31	2792.12
699.715	2863.24
700.12	2962.3
700.526	2987.92
700.931	3065.51
701.337	3124.23
701.742	3165.4
702.147	3257.26
702.552	3295.42
702.957	3365.95
703.362	3392.4
703.767	3427.1
704.172	3471.95
704.577	3428.59
704.981	3482.07
705.386	3503.07
705.791	3500.11
706.195	3582.77
706.6	3596.28
707.004	3681.01
707.408	3650.17
707.813	3682.29
708.217	3673.52
708.621	3678.35
709.025	3783.89
709.43	3789.93
709.834	3856.23
710.237	3932.74
710.641	3919.2
711.045	3948.42
711.449	3947.71
711.853	3980.03
712.256	4025.72
712.66	4068.77
713.064	4149.88
713.467	4195.79
713.87	4313.91
714.274	4364.64
714.677	4481.59
715.08	4653
715.484	4828.32
715.887	5042.69
716.29	5255.09
716.693	5475.1
717.096	5730.61
717.499	5871.94
717.901	5901.51
718.304	5931.09
718.707	5958.98
719.109	5852.6
719.512	5822.53
719.915	5681.25
720.317	5622.26
720.719	5668.77
721.122	5639.29
721.524	5587.5
721.926	5545.47
722.328	5651.08
722.731	5641.67
723.133	5671.42
723.535	5879.97
723.937	5902.46
724.338	5958.43
724.74	6001.52
725.142	5931.59
725.544	5929.71
725.945	5955.93
726.347	5953.83
726.748	5945.85
727.15	5962.86
727.551	5923.12
727.952	5891.25
728.354	5858.33
728.755	5856.76
729.156	5814.67
729.557	5804.77
729.958	5674.12
730.359	5615.97
730.76	5594.49
731.161	5530.47
731.562	5502.35
731.962	5506.68
732.363	5438.22
732.763	5371.69
733.164	5410.46
733.564	5341.1
733.965	5242.4
734.365	5209.06
734.766	5239.46
735.166	5198.66
735.566	5140.11
735.966	5113.61
736.366	5103.99
736.766	5037.82
737.166	5072.44
737.566	5028.89
737.966	4998.93
738.365	5035.97
738.765	5029.2
739.165	4951.12
739.564	4923
739.964	4971.35
740.363	4921.47
740.763	4921
741.162	4909.65
741.561	4876.13
741.96	4828.74
742.36	4853.05
742.759	4860.19
743.158	4900.38
743.557	4916.57
743.955	4958.07
744.354	4909.27
744.753	4969.22
745.152	4924.65
745.55	4983.35
745.949	4976.84
746.348	4977.4
746.746	4992.89
747.144	4952.58
747.543	4929.18
747.941	4978.41
748.339	4904.59
748.737	4897.32
749.136	4889.39
749.534	4960.62
749.932	4929.82
750.33	4954.91
750.727	5015.56
751.125	4991.25
751.523	4974.52
751.921	5020.03
752.318	4985.63
752.716	5047.81
753.113	5062.48
753.511	5089.28
753.908	5087.41
754.305	5068.97
754.703	5133.59
755.1	5195.19
755.497	5256.24
755.894	5456.92
756.291	5644.25
756.688	5987.86
757.085	6449.46
757.482	7093.97
757.878	7800.72
758.275	8439.87
758.672	9323.02
759.068	10034.04
759.465	11057.49
759.861	12376.34
760.258	13906.28
760.654	14702.2
761.05	14581.65
761.447	13909.73
761.843	12954.66
762.239	11960.13
762.635	11509.25
763.031	11079.36
763.427	10461.38
763.822	9807.73
764.218	9163.72
764.614	8326.32
765.01	7763.85
765.405	7400.48
765.801	7128.2
766.196	6778.89
766.592	6582.99
766.987	6255.23
767.382	6031.65
767.778	5938.39
768.173	5804.17
768.568	5729.05
768.963	5596.69
769.358	5614.99
769.753	5569.66
770.148	5483.17
770.542	5480.01
770.937	5449
771.332	5543.76
771.726	5564.43
772.121	5501.17
772.515	5560.72
772.91	5545.57
773.304	5618.7
773.699	5551.12
774.093	5603.77
774.487	5662.28
774.881	5710.96
775.275	5706.81
775.669	5665.48
776.063	5709.11
776.457	5746.35
776.851	5664.53
777.245	5654.3
777.638	5692.55
778.032	5814.83
778.425	5781.36
778.819	5824.62
779.212	5779.62
779.606	5735.69
779.999	5756.57
780.392	5743.13
780.786	5829.61
781.179	5852.99
781.572	5901
781.965	5913.18
782.358	5853.06
782.751	5912.38
783.143	5862.02
783.536	5939.55
783.929	5988.36
784.322	6111.78
784.714	6140.89
785.107	6134.19
785.499	6210.38
785.891	6186.98
786.284	6169.83
786.676	6317.52
787.068	6297.2
787.46	6353.25
787.852	6374.28
788.245	6461.46
788.636	6488.99
789.028	6564.73
789.42	6608.68
789.812	6617.41
790.204	6724.02
790.595	6826.99
790.987	6625.49
791.378	6653.37
791.77	6790.45
792.161	6933.88
792.553	6995.9
792.944	6873.82
793.335	6801.78
793.726	6886.81
794.117	6984.21
794.508	7124.45
794.899	7095
795.29	7240.45
795.681	7297.32
796.072	7149.19
796.463	6956.81
796.853	6968.47
797.244	7143.56
797.634	7179.91
798.025	7170.13
798.415	7183.46
798.806	7281.49
799.196	7370.07
799.586	7427.2
799.976	7393.13
800.366	7640.49
800.756	7895.02
801.146	7852.62
801.536	7884.85
801.926	7968.02
802.316	8002.56
802.706	8081.77
803.095	7951.12
803.485	8064.42
803.874	8108.24
804.264	8382.48
804.653	8354.8
805.043	8512.15
805.432	8632.31
805.821	8636.37
806.21	8663.9
806.599	8794.07
806.988	8843.74
807.377	8959.2
807.766	9102.06
808.155	9409.88
808.544	9130.81
808.933	9149.33
809.321	9127.37
809.71	9445.02
810.098	9618.14
810.487	10105.37
810.875	10614.46
811.264	10638.71
811.652	10948.97
812.04	11102.37
812.428	11275.4
812.816	12093.66
813.204	12537.07
813.592	13126.21
813.98	13485.97
814.368	13381.49
814.756	13896.76
815.144	13814.62
815.531	14317.61
815.919	14242.24
816.306	14570.36
816.694	14238.04
817.081	14293.49
817.469	14664.93
817.856	14661.45
818.243	14941.26
818.63	15362.94
819.017	14908.22
819.404	14981.67
819.791	15380.83
820.178	16036.58
820.565	16300.1
820.952	17283.97
821.339	16762.75
821.725	16953.3
822.112	16168.84
822.498	16135.14
822.885	16276.16
823.271	16177.77
823.657	16614.75
824.044	16629.53
824.43	16708.79
824.816	16672.79
825.202	16217.28
825.588	17297.54
825.974	17316.89
826.36	17861.86
826.746	17890.9
827.132	18258.22
827.517	18241.6
827.903	17401.5
828.289	17437.01
828.674	16606.65
829.06	16496.44
829.445	16915.85
829.83	17298.36
830.216	17806.14
830.601	18196.76
830.986	17768.69
831.371	17634.11
831.756	18217.59
832.141	17761.97
832.526	17753.17
832.911	18058.3
833.295	17933.4
833.68	18426.98
834.065	17757.6
834.449	16782.07
834.834	16701.51
835.218	16688.07
835.603	17039.77
835.987	16812.28
836.371	17692.73
836.755	17580
837.139	17992.63
837.524	18245.16
837.908	18058.8
838.291	18123.22
838.675	18192.72
839.059	18413.67
839.443	18403.02
839.827	18155.71
840.21	18657.32
840.594	18500.82
840.977	18718.69
841.361	18698.8
841.744	19092.52
842.127	18916.68
842.511	19175.57
842.894	19801.83
843.277	20197.37
843.66	20769.5
844.043	20858.22
844.426	20018.42
844.809	19685.55
845.191	19718.59
845.574	19235.6
845.957	18852.64
846.339	18741.78
846.722	18186.78
847.104	18262.14
847.487	18074.23
847.869	18088.8
848.252	18383.48
848.634	18731.8
849.016	19014.75
849.398	19139.06
849.78	20021.96
850.162	20028.12
850.544	20467.63
850.926	21125.91
851.307	21033.47
851.689	21341.6
852.071	21813.2
852.452	22152.06
852.834	22121.99
853.215	22535.84
853.597	22699.19
853.978	23024.01
854.359	23502.91
854.741	22459.47
855.122	22354.72
855.503	22058.06
855.884	22188.18
856.265	22132.47
856.646	22257.46
857.026	21844.12
857.407	21774.2
857.788	21940.21
858.169	22255.53
858.549	21355.66
858.93	22013.4
859.31	22071.37
859.69	22286.8
860.071	21862.47
860.451	21630.16
860.831	20852.16
861.211	22084.27
861.591	22676.09
861.971	22662.11
862.351	22851.83
862.731	23274.16
863.111	23556.92
863.491	23913.49
863.87	24836.98
864.25	25227.54
864.629	24810.27
865.009	25353.73
865.388	26252.22
865.768	28144.08
866.147	28043.7
866.526	26500.76
866.905	26824.99
867.284	28328.35
867.663	26906.13
868.042	25803.98
868.421	25705.9
868.8	26139.85
869.179	26398.19
869.558	24858.04
869.936	22899.42
870.315	23308.34
870.693	23878.97
871.072	25741.54
871.45	24536.15
871.828	24851.55
872.207	26127.34
872.585	25739.49
872.963	26431.48
873.341	25535.8
873.719	25252.62
874.097	24961.84
874.475	25439.76
874.853	26036.45
875.23	24959.78
875.608	26000.51
875.986	28132.33
876.363	26915.53
876.741	27752.05
877.118	27082.71
877.495	28425.08
877.873	28907.64
878.25	30428.12
878.627	29193.33
879.004	29604.76
879.381	29472.75
879.758	28708.97
880.135	26737.66
880.512	28280.94
880.889	27541.46
881.265	27250.69
881.642	27028.53
882.019	27483.08
882.395	26930.22
882.772	28006.24
883.148	26779.48
883.524	26683.03
883.901	26536.22
884.277	26937.76
884.653	26775.51
885.029	27544.82
885.405	30496.92
885.781	30269.97
886.157	29030.76
886.532	29393.2
886.908	29375.09
887.284	32693.19
887.659	33766.37
888.035	34825.88
888.411	35729.15
888.786	36208.91
889.161	37474.51
889.537	36812.69
889.912	37989.55
890.287	37957.61
890.662	38941.15
891.037	38255.92
891.412	35674.69
891.787	35326.52
892.162	34090.53
892.536	34879.82
892.911	33568.33
893.286	32856.68
893.66	31521.37
894.035	32316.9
894.409	35192
894.784	33773.55
895.158	34311.12
895.532	36333.43
895.906	37307.55
896.281	38180.61
896.655	37580.13
897.029	42934.68
897.402	44722.82
897.776	49796.45
898.15	49644.36
898.524	49134.63
898.898	49795.3
899.271	55792.5
899.645	48346.44
900.018	46484.25
900.392	48241.86
900.765	48637.15
901.138	45026.48
901.511	44360.23
901.884	40762.88
902.258	37604.18
902.631	38860.54
903.003	44742.16
903.376	40387.17
903.749	45300.57
904.122	48475.65
904.495	53395.81
904.867	54098.82
905.24	46974.07
905.612	43750.71
905.985	44746.27
906.357	46796.63
906.729	44683.75
907.102	38180.83
907.474	36719.86
907.846	36980.28
908.218	36529.52
908.59	32276.72
908.962	31237.61
909.334	33658.19
909.705	35361.99
910.077	34342.79
910.449	35782.05
910.82	36793.91
911.192	40492.34
911.563	42088.68
911.935	45025.92
912.306	45069.83
912.677	46561.17
913.048	46095.82
913.419	50037.23
913.79	50312.55
914.161	53947.16
914.532	51546.21
914.903	47359.8
915.274	44998.76
915.645	44367.81
916.015	39067.06
916.386	37272.8
916.756	39678.36
917.127	40933.66
917.497	36563.51
917.868	39805.89
918.238	37854.57
918.608	38961.44
918.978	39789.62
919.348	42130.33
919.718	43542.27
920.088	41966.21
920.458	43604.43
920.828	45908.25
921.198	43534.48
921.567	46530.85
921.937	36048.7
922.306	36381.13
922.676	39234.82
923.045	32727.86
923.415	31103.6
923.784	28323.08
924.153	29116.93
924.522	29086.63
924.891	27335.18
925.26	29297.41
925.629	28609.08
925.998	32916.38
926.367	32149.49
926.736	30627.66
927.104	36503.35
927.473	39244.71
927.842	47411.97
928.21	46967.53
928.578	49391.58
928.947	46758.34
929.315	47029.18
929.683	55157.99
930.051	55579.32
930.42	64550.01
930.788	55198.33
931.156	54772.86
931.523	51382.65
931.891	47462.71
932.259	45575.83
932.627	52805.33
932.994	74685.24
933.362	61726.31
933.729	53638.34
934.097	51356.94
934.464	43435.16
934.831	50144.09
935.199	49417.99
935.566	47901.59
935.933	48632.4
936.3	58885.38
936.667	45863.81
937.034	41370.65
937.401	40937.14
937.767	35304.76
938.134	31425.99
938.501	44347.8
938.867	47220.81
939.234	79946.93
939.6	68207.6
939.967	75029.02
940.333	50297.23
940.699	42861.84
941.065	34419.5
941.431	45128.17
941.798	43569.83
942.163	57207.74
942.529	35751.45
942.895	32963.61
943.261	21307.38
943.627	27978.56
943.992	24516.69
944.358	24578.86
944.723	24677.85
945.089	24050.45
945.454	22240.37
945.82	23734.76
946.185	22823.72
946.55	26457.93
946.915	23709.94
947.28	27861.43
947.645	24559.88
948.01	22662.36
948.375	23609.05
948.74	28288.07
949.104	32985.01
949.469	47630.18
949.834	84224.86
950.198	79885.27
950.562	47832
950.927	39856.86
951.291	47914.36
951.655	40779.85
952.02	38326.08
952.384	29005.52
952.748	25235.89
953.112	24616.59
953.476	21409.44
953.839	19797.93
954.203	19604.79
954.567	24549.12
954.931	38683.47
955.294	33103.66
955.658	33285.93
956.021	56600.96
956.385	95927.43
956.748	141694.67
957.111	219770.23
957.474	246837.85
957.837	278030.73
958.2	210205.21
958.563	75623.77
958.926	51121.55
959.289	77590.81
959.652	86714.61
960.015	65049.88
960.377	93415.06
960.74	106647.8
961.102	184184.94
961.465	197589.53
961.827	105755.55
962.189	202959.3
962.552	140772.06
962.914	112862.21
963.276	73185.66
963.638	60517.46
964	59952.5
964.362	40538.34
964.724	39163.07
965.085	27931.59
965.447	22933.33
965.809	26121.14
966.17	26170.88
966.532	28308
966.893	26006.34
967.255	23676.64
967.616	27961.54
967.977	22386.27
968.338	24433.71
968.699	20073.28
969.061	20067.6
969.421	20160.75
969.782	22657.41
970.143	19127.53
970.504	19824.66
970.865	22499.47
971.225	22993.91
971.586	22477.35
971.946	32046.4
972.307	27818.54
972.667	36389.5
973.027	37485.72
973.388	45465.86
973.748	30899.47
974.108	33671.89
974.468	45534.25
974.828	35104.17
975.188	27026.44
975.548	24833.73
975.907	20835.7
976.267	23383.63
976.627	19643.19
976.986	20368.25
977.346	19448.65
977.705	18719.63
978.064	17030.21
978.424	14157.35
978.783	14650.29
979.142	16737.14
979.501	16008.29
979.86	16940.37
980.219	16315.08
980.578	21023.17
980.937	23543.37
981.296	20961.73
981.654	21570.92
982.013	33625.82
982.371	43668.26
982.73	40781.95
983.088	46118.82
983.447	49287.62
983.805	70387
984.163	147199.44
984.521	163465.74
984.879	239737.83
985.237	-390159.22
985.595	375839.99
985.953	93303.84
986.311	53891.7
986.669	31318.35
987.026	27053.41
987.384	36358.5
987.741	37578.44
988.099	26840.65
988.456	21404.57
988.814	20030.01
989.171	17405.9
989.528	17183.2
989.885	18141.21
990.242	14340.73
990.599	17872.31
990.956	14599.74
991.313	10229.93
991.67	8405.98
992.027	8892.39
992.383	7913.36
992.74	6945.05
993.096	7277.36
993.453	7544.44
993.809	7811.8
994.165	10415.33
994.522	9520.13
994.878	10490.25
995.234	13141.56
995.59	12950.74
995.946	12294.48
996.302	14007.65
996.658	16160.34
997.013	17834.06
997.369	21162.95
997.725	27166.8
998.08	17592.27
998.436	27112.83
998.791	37527.74
999.147	37541.92
999.502	40940.33
999.857	29693.79
1000.212	48402.1
1000.567	68887.45
1000.922	39777.88
1001.277	25263.27
1001.632	18728.81
1001.987	24162.71
1002.342	17338.97
1002.696	13836.93
1003.051	11022.47
1003.406	13355.92
1003.76	13325.07
1004.114	13116.58
1004.469	11086.87
1004.823	9166.47
1005.177	9905.99
1005.531	7851.39
1005.885	6971.92
1006.239	7873.81
1006.593	9868.82
1006.947	13200.54
1007.301	9910.44
1007.655	10818.87
1008.008	7940.59
1008.362	8864.71
1008.715	12650.27
1009.069	11478.26
1009.422	17214.32
1009.776	34421.28
1010.129	22818.28
1010.482	19061.67
1010.835	16139.86
1011.188	33634.51
1011.541	31595.76
1011.894	-193434.25
1012.247	569598.03
1012.6	38787.84
1012.952	24495.29
1013.305	12682.69
1013.657	9154.51
1014.01	8657.67
1014.362	7148.93
1014.715	6333.9
1015.067	5500.45
1015.419	5365.6
1015.771	4755.18
1016.123	4233.58
1016.475	4349.1
1016.827	4615.87
1017.179	4948.13
1017.531	4994.38
1017.883	5116.32
1018.234	4933.14
1018.586	6238.78
1018.938	6597.22
1019.289	9098.5
1019.64	10401.79
1019.992	9699.86
1020.343	8879.59
1020.694	7029.51
1021.045	6219.78
1021.396	7101.82
1021.747	7649.87
1022.098	9191.13
1022.449	6656.53
1022.8	6194.08
1023.151	4318.79
1023.501	3836.44
1023.852	4171.44
1024.202	4332.73
1024.553	4765.24
1024.903	4659.59
1025.253	3957.88
1025.604	3549.12
1025.954	4403.65
1026.304	5400.3
1026.654	6325.07
1027.004	9261.53
1027.354	14948.62
1027.703	14044.14
1028.053	18402.09
1028.403	27053.92
1028.753	39151.34
1029.102	53694.28
1029.452	276451.93
1029.801	11954.02
1030.15	7685.32
1030.499	6482.82
897.758	2676.93
901.051	2633.02
904.343	2668.08
907.636	2667.27
910.928	2731.19
914.22	2640.24
917.511	2650.37
920.803	2708.47
924.094	2728.04
927.384	2707.41
930.675	2672.02
933.965	2623.88
937.255	2631.7
940.544	2598.23
943.834	2539.94
947.123	2485.39
950.411	2582.3
953.7	2554.18
956.988	2523.93
960.276	2465.59
963.563	2546.37
966.851	2540.8
970.138	2599.93
973.424	2594.34
976.711	2542.74
979.997	2674.71
983.283	2712.29
986.568	2617.09
989.853	2631.95
993.138	2662.85
996.423	2744.52
999.708	2682.15
1002.992	2748.61
1006.275	2582.54
1009.559	2629.23
1012.842	2744.95
1016.125	2677.88
1019.408	2653.96
1022.69	2741.14
1025.972	2760.71
1029.254	2735.85
1032.536	2668.62
1035.817	2696.06
1039.098	2640.39
1042.379	2785.81
1045.659	2784.34
1048.939	2719.32
1052.219	2741.2
1055.498	2750.51
1058.778	2739.47
1062.057	2721.74
1065.335	2741.24
1068.614	2762.49
1071.892	2743.75
1075.17	2820.29
1078.447	2811.07
1081.724	2801
1085.001	2837.05
1088.278	2809.92
1091.554	2823.22
1094.83	2818.5
1098.106	2849.21
1101.382	2894.46
1104.657	2893.56
1107.932	2890.13
1111.206	2854.69
1114.481	2808.69
1117.755	2811.09
1121.029	2792.52
1124.302	2847.02
1127.575	2799.94
1130.848	2784.27
1134.121	2746.17
1137.393	2695.83
1140.665	2762.87
1143.937	2739
1147.208	2697.4
1150.48	2739.49
1153.75	2726.95
1157.021	2759.07
1160.291	2728.04
1163.561	2775.31
1166.831	2765.06
1170.101	2797.42
1173.37	2768.65
1176.639	2712.52
1179.907	2774.57
1183.176	2780.44
1186.444	2788.69
1189.711	2817.77
1192.979	2827.11
1196.246	2784.78
1199.513	2801.7
1202.78	2799.08
1206.046	2809.83
1209.312	2836.44
1212.578	2863.51
1215.843	2812.12
1219.108	2786.47
1222.373	2809.34
1225.638	2771.32
1228.902	2757.43
1232.166	2720.26
1235.43	2700.64
1238.693	2726.5
1241.956	2720.83
1245.219	2763.47
1248.482	2753.2
1251.744	2748.99
1255.006	2900.41
1258.268	2855.33
1261.529	2799.14
1264.79	2805
1268.051	2908.62
1271.312	2930.13
1274.572	2889.55
1277.832	2879.41
1281.092	2868.18
1284.351	2842.15
1287.61	2818.87
1290.869	2733.79
1294.128	2709.86
1297.386	2801.56
1300.644	2790.81
1303.902	2805.02
1307.159	2656.03
1310.416	2715.29
1313.673	2743.74
1316.93	2726.96
1320.186	2774.26
1323.442	2819.01
1326.697	2803.25
1329.953	2794.74
1333.208	2817.76
1336.463	2797.05
1339.717	2734.69
1342.972	2873.57
1346.226	2847.98
1349.479	2776.88
1352.733	2750.28
1355.986	2769.5
1359.238	2746.63
1362.491	2755.06
1365.743	2756.34
1368.995	2749.5
1372.247	2765.29
1375.498	2791.93
1378.749	2808.34
1382	2760.07
1385.251	2815.52
1388.501	2774.88
1391.751	2760.26
1395	2731.67
1398.25	2762.48
1401.499	2770.68
1404.748	2697.13
1407.996	2685.01
1411.244	2669.27
1414.492	2649.23
1417.74	2628.71
1420.987	2636.27
1424.234	2697.06
1427.481	2677.25
1430.728	2732.59
1433.974	2706.56
1437.22	2723.24
1440.465	2726.07
1443.711	2688.73
1446.956	2725.62
1450.201	2714.6
1453.445	2760.4
1456.689	2741.37
1459.933	2752.25
1463.177	2786.69
1466.42	2758.84
1469.663	2740.01
1472.906	2734.34
1476.148	2810.75
1479.391	2770.44
1482.633	2739.15
1485.874	2750.95
1489.115	2738.77
1492.356	2744.26
1495.597	2718.19
1498.838	2719.82
1502.078	2690.25
1505.318	2639.18
1508.557	2681.51
1511.797	2656.78
1515.036	2730.21
1518.274	2717.54
1521.513	2688.19
1524.751	2711.17
1527.989	2722.03
1531.227	2737.33
1534.464	2735.07
1537.701	2754.93
1540.938	2774.39
1544.174	2726.28
1547.41	2725.07
1550.646	2765.51
1553.882	2804.73
1557.117	2860.05
1560.352	2875
1563.587	2834.84
1566.821	2792.15
1570.055	2827.45
1573.289	2797.99
1576.523	2875.73
1579.756	2885.75
1582.989	2902.74
1586.222	2863.61
1589.454	2901.8
1592.686	2873.39
1595.918	2899.8
1599.15	2887.96
1602.381	2965.55
1605.612	2918.25
1608.843	3019.57
1612.073	2927.75
1615.303	2910.54
1618.533	2906.66
1621.762	2906.28
1624.992	2893.47
1628.221	2881.14
1631.449	2864.96
1634.678	2919.93
1637.906	2872.49
1641.134	2909.28
1644.361	2863.6
1647.588	2854.84
1650.815	2870.74
1654.042	2846.49
1657.269	2877.55
1660.495	2829.94
1663.72	2850.4
1666.946	2814.14
1670.171	2757.46
1673.396	2733.22
1676.621	2724.12
1679.845	2742.03
1683.069	2761.07
1686.293	2805.36
1689.517	2777.16
1692.74	2706.71
1695.963	2734.37
1699.185	2752.75
1702.408	2726.14
1705.63	2769.09
1708.852	2780.35
1712.073	2751.89
1715.294	2737.99
1718.515	2799.45
1721.736	2743.58
1724.956	2736.23
1728.176	2762.83
1731.396	2788.15
1734.616	2773.38
1737.835	2801.71
1741.054	2781.75
1744.272	2773.75
1747.491	2804.94
1750.709	2860.58
1753.927	2764.19
1757.144	2810.95
1760.361	2855.07
1763.578	2847.81
1766.795	2788.65
1770.011	2792.38
1773.227	2834.38
1776.443	2867.71
1779.658	2914.97
1782.874	2858.34
1786.089	2832.95
1789.303	2837.13
1792.518	2841.25
1795.732	2828.82
1798.945	2839.85
1802.159	2886.58
1805.372	2792.78
1808.585	2776.96
1811.797	2779.71
1815.01	2826.34
1818.222	2826.59
1821.434	2800.1
1824.645	2859.38
1827.856	2845.54
1831.067	2880.85
1834.278	2832.9
1837.488	2818.46
1840.698	2969.74
1843.908	2893.24
1847.117	2855.16
1850.326	2739.97
1853.535	2844.69
1856.744	2872.02
1859.952	2783.01
1863.16	2785.24
1866.368	2807.37
1869.575	2912.66
1872.782	2794.26
1875.989	2729.63
1879.196	2815
1882.402	2806.69
1885.608	2845.9
1888.814	2744.65
1892.019	2637.99
1895.224	2689.87
1898.429	2669.99
1901.634	2643.88
1904.838	2621.33
1908.042	2671.66
1911.246	2677.03
1914.449	2605.97
1917.652	2602.71
1920.855	2583.94
1924.058	2636.99
1927.26	2671.47
1930.462	2700.92
1933.664	2725.16
1936.865	2665.58
1940.066	2673.08
1943.267	2618.52
1946.467	2637.4
1949.668	2665.54
1952.868	2732.09
1956.067	2711.18
1959.267	2640.58
1962.466	2668.98
1965.665	2651.9
1968.863	2649.8
1972.061	2662.25
1975.259	2663.94
1978.457	2747.06
1981.654	2702.22
1984.852	2700.96
1988.048	2633.78
1991.245	2638.69
1994.441	2725.37
1997.637	2710.9
2000.833	2693.23
2004.028	2731.34
2007.223	2786.29
2010.418	2760.82
2013.613	2720.45
2016.807	2692.88
2020.001	2700.08
2023.194	2744.56
2026.388	2718.12
2029.581	2665
2032.774	2714.81
2035.966	2720.71
2039.158	2651.39
2042.35	2682.13
2045.542	2607.52
2048.733	2709.8
2051.924	2731.58
2055.115	2762.59
2058.306	2705.53
2061.496	2765.26
2064.686	2830.35
2067.875	2742.31
2071.065	2754.69
2074.254	2783.7
2077.442	2733.08
2080.631	2824.75
2083.819	2713.75
2087.007	2697.29
2090.195	2665.41
2093.382	2702.68
2096.569	2682.86
2099.756	2633.13
2102.942	2659.49
2106.128	2665.74
2109.314	2658.57
2112.5	2621.75
2115.685	2597.33
2118.87	2607.49
2122.055	2669.93
2125.239	2637.46
2128.424	2608.18
2131.608	2712.03
2134.791	2695.88
2137.974	2752.38
2141.157	2741.83
2144.34	2689.99
2147.523	2704.94
2150.705	2719.52
2153.887	2699.8
2157.068	2650.84
2160.25	2651.52
2163.431	2689.75
2166.611	2634.1
2169.792	2650.17
2172.972	2545.3
2176.152	2622.09
2179.331	2656.94
2182.511	2639.35
2185.69	2667.44
2188.868	2662.25
2192.047	2717.38
2195.225	2706.42
2198.403	2658.43
2201.58	2650.63
2204.758	2645.01
2207.935	2725.23
2211.111	2616.33
2214.288	2600.57
2217.464	2640.36
2220.64	2611.93
2223.815	2669.33
2226.991	2587.74
2230.166	2608.82
2233.34	2637.19
2236.515	2664.93
2239.689	2737.31
2242.863	2682.84
2246.036	2734.9
2249.209	2735.72
2252.382	2770.65
2255.555	2756.42
2258.727	2690.59
2261.9	2732.68
2265.071	2725.08
2268.243	2725.62
2271.414	2654.99
2274.585	2616.11
2277.756	2685.01
2280.926	2644.01
2284.096	2682.55
2287.266	2588.1
2290.436	2645.38
2293.605	2672.23
2296.774	2703.99
2299.942	2726.42
2303.111	2743.5
2306.279	2794.04
2309.447	2780.59
2312.614	2751.14
2315.781	2767.98
2318.948	2737.6
2322.115	2776.67
2325.281	2678.16
2328.447	2699.26
2331.613	2672.46
2334.779	2642.38
2337.944	2648.1
2341.109	2645.03
2344.274	2628.38
2347.438	2592.79
2350.602	2616.22
2353.766	2637.35
2356.929	2623.23
2360.092	2666.08
2363.255	2617.28
2366.418	2550.8
2369.58	2665.53
2372.742	2448.97
2375.904	2463.66
2379.066	2439.07
2382.227	2478.99
2385.388	2441.5
2388.548	2362.62
2391.709	2418.64
2394.869	2398.84
2398.029	2498.9
2401.188	2511.54
2404.347	2443.65
2407.506	2585.51
2410.665	2616.84
2413.823	2620.22
2416.981	2577
2420.139	2613.65
2423.296	2662.38
2426.453	2634.56
2429.61	2657.7
2432.767	2591.3
2435.923	2632.51
2439.079	2592.44
2442.235	2644
2445.391	2567.72
2448.546	2602.04
2451.701	2649.44
2454.855	2617.83
2458.009	2675.63
2461.163	2678.04
2464.317	2634.19
2467.471	2668.13
2470.624	2707.3
2473.777	2682.38
2476.929	2693.4
2480.082	2718.84
2483.234	2681.14
2486.385	2636.05
2489.537	2628.39
2492.688	2584.97
2495.839	2606.78
2498.989	2618.83
2502.14	2603.1
2505.29	2583.14
2508.439	2609.03
2511.589	2532.07
2514.738	2547.92
2517.887	2577.3
2521.035	2640.67
2524.183	2623.42
2527.331	2606.72
2530.479	2576
2533.627	2587.49
