Data from N_3_DEC_OH_4N_Splice17_13-34-39-650.txt Node
Date: Sat Mar 14 13:34:39 EDT 2020
User: sa697716
Spectrometer: FLMS03696
Trigger mode: 0
Integration Time (sec): 3.180400E-1
Scans to average: 20
Electric dark correction enabled: true
Nonlinearity correction enabled: true
Boxcar width: 5
XAxis mode: Wavelengths
Number of Pixels in Spectrum: 2048
>>>>>Begin Spectral Data<<<<<
187.83	-412381.3
188.298	2933.15
188.766	1540.22
189.233	1363.22
189.701	1928.41
190.169	2668.96
190.636	986.24
191.104	775.41
191.571	66.82
192.039	-107.5
192.506	-110.23
192.974	444.2
193.441	-742.93
193.908	-164.25
194.375	-86.84
194.842	-34.23
195.31	23.75
195.777	170.73
196.244	480.2
196.711	610.34
197.177	820.05
197.644	1179.26
198.111	2071.53
198.578	2887.85
199.045	2322.01
199.511	3841.46
199.978	4460.55
200.445	3779.55
200.911	4127.72
201.378	4575.38
201.844	4127.75
202.31	7057.15
202.777	7323.73
203.243	4000.49
203.709	3807.61
204.176	4506.13
204.642	3711.29
205.108	3468.28
205.574	2821.1
206.04	2583.31
206.506	2417.95
206.972	2262.69
207.438	2163.68
207.903	2434.25
208.369	2139.06
208.835	2116.56
209.301	2204.47
209.766	2218.26
210.232	2185.57
210.697	2686.89
211.163	3320.96
211.628	5004.43
212.094	4185.7
212.559	5106.86
213.024	3172.78
213.49	3860.08
213.955	3736.73
214.42	3642.03
214.885	3385.51
215.35	3231.15
215.815	3112.62
216.28	3255.03
216.745	2610.12
217.21	2791.76
217.675	2515.05
218.14	2787.39
218.604	3025.41
219.069	3387.97
219.534	3481.74
219.998	3959.59
220.463	4722.63
220.927	5657.6
221.392	5263.57
221.856	5286.22
222.32	6577.11
222.785	8057.44
223.249	10032.79
223.713	11133.02
224.177	11067.17
224.642	14086.52
225.106	17271.59
225.57	18747.52
226.034	13913.62
226.497	21086.5
226.961	18972.73
227.425	22061.45
227.889	24330.74
228.353	24266.06
228.816	49928.47
229.28	47646.76
229.744	40205.21
230.207	24410
230.671	23984.61
231.134	39595.86
231.597	45682.05
232.061	45578.45
232.524	44330.55
232.987	30572.96
233.45	27510.65
233.914	24683.74
234.377	25275.7
234.84	23064.79
235.303	27148.92
235.766	30295.28
236.229	31323.76
236.691	19679.27
237.154	22085.49
237.617	16621.43
238.08	16991.75
238.542	19875.78
239.005	14191.15
239.468	14087.36
239.93	13283.92
240.393	12083.63
240.855	10607.3
241.317	10841.35
241.78	13198.57
242.242	13668.02
242.704	14776.71
243.166	12880.31
243.629	11713.64
244.091	13511.5
244.553	14808.18
245.015	15947.67
245.477	20611.95
245.939	30190.85
246.4	32065.41
246.862	31166.56
247.324	29399.73
247.786	32929.53
248.247	43167.01
248.709	44503.61
249.17	33317.91
249.632	31475.29
250.093	36490.95
250.555	31558.76
251.016	19282.21
251.477	18309.8
251.939	19777.36
252.4	20745.41
252.861	24643.63
253.322	22960.76
253.783	27336.12
254.244	35480.44
254.705	27976.66
255.166	24890.08
255.627	24535.69
256.088	34677.78
256.549	36847.97
257.009	31770.32
257.47	38583.93
257.931	31456.35
258.391	23600.79
258.852	24379.98
259.312	25546.28
259.773	31568.2
260.233	26718.64
260.694	22581.03
261.154	25604.37
261.614	20605.23
262.074	18441.89
262.534	19188.17
262.994	18118.76
263.455	24146.4
263.915	20367.33
264.374	19217.69
264.834	20995.54
265.294	23264.08
265.754	24096.7
266.214	22843.21
266.673	21426.97
267.133	27046.05
267.593	26850.28
268.052	32860.46
268.512	28590.68
268.971	34497.2
269.431	37845.84
269.89	33909.58
270.349	50912.04
270.809	56809.94
271.268	51046.82
271.727	114404.92
272.186	74202.52
272.645	55684.31
273.104	40183.99
273.563	58201.74
274.022	45787.85
274.481	39023.51
274.94	30100.51
275.399	22401.14
275.857	26103.01
276.316	35367.53
276.775	31521.79
277.233	31039.93
277.692	29119.38
278.15	33054.42
278.609	34096.44
279.067	31582.66
279.525	29361.47
279.984	37974.8
280.442	45666.42
280.9	45126.98
281.358	29727.53
281.816	27766.93
282.274	27260.48
282.732	28159.3
283.19	28257.93
283.648	24414.42
284.106	26060.51
284.564	26516.06
285.021	24604.59
285.479	18337.23
285.937	16676.7
286.394	14642.68
286.852	15054.98
287.309	15824.5
287.767	15319.5
288.224	14578.91
288.682	15988.75
289.139	17543.28
289.596	16056.24
290.053	16703.12
290.511	21095.83
290.968	25576.23
291.425	34709.21
291.882	28912.41
292.339	25196.4
292.796	24997.96
293.252	23554.93
293.709	18742.12
294.166	16814.91
294.623	18607.32
295.079	17830.06
295.536	17917.26
295.992	16282.17
296.449	16106.67
296.905	16729.24
297.362	16043.45
297.818	16873.69
298.274	17527.15
298.731	17859.55
299.187	17688.66
299.643	18974.41
300.099	22983.65
300.555	25225.87
301.011	21073.52
301.467	20339.36
301.923	23844.96
302.379	23304.72
302.835	22910.87
303.291	22971.95
303.746	26147.08
304.202	33027.73
304.658	33235.12
305.113	22372.71
305.569	21931.92
306.024	23405.1
306.479	22276.06
306.935	18802.49
307.39	20530.51
307.845	18973.94
308.301	19085.26
308.756	18599
309.211	17918.48
309.666	18356.81
310.121	22816.93
310.576	23205.65
311.031	23033.2
311.486	26337.69
311.94	26334.49
312.395	35256.46
312.85	66309.4
313.305	325749.14
313.759	1689852.98
314.214	122720.38
314.668	97391.1
315.123	81980.44
315.577	29418.85
316.032	26193.66
316.486	32965.77
316.94	26016
317.394	18123.84
317.849	14090.02
318.303	13367.71
318.757	12614.49
319.211	13953.86
319.665	12218.22
320.119	12357.68
320.572	17697.6
321.026	16542.92
321.48	13779.21
321.934	15012.51
322.387	15047
322.841	16260.51
323.295	14643.78
323.748	16861.63
324.202	17088.48
324.655	20534.99
325.108	28719.84
325.562	20286.66
326.015	24110.71
326.468	18202.44
326.921	20391.55
327.374	19027.92
327.827	19835.32
328.28	22425.82
328.733	15028.7
329.186	13234.31
329.639	12606.15
330.092	10628.62
330.545	10144.06
330.997	10246.85
331.45	11228.97
331.903	13173.73
332.355	22685.36
332.808	22037.02
333.26	18203.93
333.713	19823.04
334.165	19983.94
334.617	26694.15
335.069	21556.86
335.522	38988.57
335.974	43152.37
336.426	39385.06
336.878	27260.5
337.33	13833.17
337.782	13503.69
338.234	16916.18
338.686	20202.22
339.137	23935.97
339.589	22564.49
340.041	17712
340.493	15223.68
340.944	15611.76
341.396	16853.91
341.847	14178.07
342.299	16730.44
342.75	20491.36
343.201	17891.5
343.653	20584.8
344.104	25308.58
344.555	19935.44
345.006	31042.97
345.457	23814.78
345.908	18914.6
346.359	17795.31
346.81	14490.77
347.261	15297.63
347.712	15050.04
348.163	16143.9
348.613	16361.98
349.064	15276.43
349.515	13356.89
349.965	13703.87
350.416	16500.07
350.866	18115.21
351.317	20454.76
351.767	33939.5
352.217	42815.48
352.668	35504.46
353.118	32524.65
353.568	31330.85
354.018	24818.79
354.468	26245.77
354.918	18841.68
355.368	16471.62
355.818	23298.79
356.268	67053.87
356.718	280828.87
357.168	69970.94
357.617	35152.73
358.067	39120.03
358.517	36692.61
358.966	43087.03
359.416	48308.08
359.865	52147.4
360.315	62199.54
360.764	29045.38
361.213	16291.56
361.663	15434.61
362.112	19021.39
362.561	30729.64
363.01	23178.92
363.459	19511.55
363.908	21086.15
364.357	17901.28
364.806	30228.55
365.255	20789.16
365.703	19027.68
366.152	19082.59
366.601	15460.62
367.05	12580.78
367.498	11434.85
367.947	11959.94
368.395	12439.07
368.844	11018.46
369.292	13263.21
369.74	9179.72
370.189	14043.29
370.637	16467.18
371.085	14181.16
371.533	17276.79
371.981	16651.65
372.429	15880.9
372.877	16500.92
373.325	13824.69
373.773	14075.77
374.221	12548.9
374.669	15551.3
375.116	13439.97
375.564	13543.48
376.012	15138.95
376.459	12460.52
376.907	14824.87
377.354	17904.71
377.801	16717.49
378.249	19207.27
378.696	24581.19
379.143	29763.2
379.591	31708
380.038	53708.66
380.485	38916.35
380.932	41994.12
381.379	38495.57
381.826	28446.85
382.273	20241.38
382.72	17699.38
383.166	17280.2
383.613	11191.2
384.06	10097.91
384.506	11697.46
384.953	8582.61
385.4	8637.74
385.846	7580.3
386.292	7383.5
386.739	7228.01
387.185	7161.3
387.631	7184.76
388.078	6993.22
388.524	7509.98
388.97	6960.46
389.416	5823.52
389.862	6215.27
390.308	5902.7
390.754	6021.86
391.2	6583.11
391.645	6808.49
392.091	6589.51
392.537	6443.76
392.983	6518.15
393.428	6494.89
393.874	7056
394.319	7231.38
394.765	7055.53
395.21	7500.88
395.655	7312.19
396.101	7138.56
396.546	6737.48
396.991	7148.51
397.436	7007.83
397.881	7182.86
398.326	7274.39
398.771	7353.4
399.216	6888.99
399.661	6639.93
400.106	7067.96
400.551	7715.98
400.995	7373.38
401.44	7747.43
401.885	7691.92
402.329	8194.51
402.774	8259.44
403.218	8357.92
403.663	8466.28
404.107	9132.96
404.551	9659.43
404.995	9319.75
405.44	9478.96
405.884	10134.92
406.328	10286.59
406.772	10714.49
407.216	10189.72
407.66	10324.95
408.104	10346.23
408.547	10161.77
408.991	10269.95
409.435	10287.36
409.879	10478.76
410.322	10658.91
410.766	10602.23
411.209	10404.28
411.653	10346.02
412.096	10461.04
412.54	10800.19
412.983	11013.58
413.426	11293.78
413.869	11570.87
414.312	11592.43
414.756	11455.63
415.199	11180.94
415.642	11083.7
416.085	11304.44
416.527	11421.97
416.97	11804.35
417.413	11336.35
417.856	11374.08
418.298	11379.33
418.741	11388.1
419.184	11451.65
419.626	12016.66
420.069	12084.32
420.511	12215.97
420.953	12036.13
421.396	12027.5
421.838	11842.55
422.28	12217.59
422.722	12380.37
423.164	12745.93
423.606	12702.91
424.048	12885.95
424.49	12378.06
424.932	12483.93
425.374	12470.65
425.816	12791.76
426.258	13014.15
426.699	13029.23
427.141	12605.89
427.582	12613.72
428.024	12427.85
428.465	12386.75
428.907	12188.29
429.348	12225.81
429.789	12362.96
430.231	12199.3
430.672	12482.55
431.113	12385.56
431.554	12523.26
431.995	12691.1
432.436	12631.14
432.877	12702.85
433.318	12704.52
433.759	12853.33
434.2	12999.12
434.64	13008.35
435.081	13199.14
435.522	12682.19
435.962	12424.33
436.403	12320.22
436.843	12672.7
437.284	12587.39
437.724	12400.98
438.164	12602.48
438.604	12423.96
439.045	12013.62
439.485	11583.39
439.925	11472.07
440.365	11313.28
440.805	11262.09
441.245	11165.34
441.685	10794.74
442.125	10762.88
442.564	10854.97
443.004	10594.18
443.444	10584.95
443.883	10623.19
444.323	10633.91
444.762	10753.17
445.202	10943.47
445.641	11137.05
446.081	11167.5
446.52	11266.98
446.959	11177.33
447.398	10936.65
447.837	10865
448.276	10726.57
448.716	10854.99
449.154	10970.01
449.593	10647.19
450.032	10563.69
450.471	10371.04
450.91	10337.49
451.349	10240.52
451.787	10156.59
452.226	10240.32
452.664	10166.34
453.103	10104.51
453.541	10017.47
453.98	9854.92
454.418	9838.84
454.856	9570.53
455.295	9477.96
455.733	9430.92
456.171	9405.93
456.609	9310.86
457.047	9198.53
457.485	9226.44
457.923	9155.45
458.361	8984.3
458.798	8994.95
459.236	8945.18
459.674	9030.28
460.111	9048.3
460.549	8974.3
460.987	8976.88
461.424	8970.36
461.862	8963.38
462.299	8850.07
462.736	8842.09
463.173	8901.34
463.611	8782.98
464.048	8780.6
464.485	8868.68
464.922	8831.16
465.359	8838.42
465.796	8616.43
466.233	8598.61
466.67	8533.16
467.106	8542.95
467.543	8530.92
467.98	8468.93
468.416	8337.04
468.853	8330.13
469.29	8123.11
469.726	8067.21
470.162	7872.63
470.599	7896.73
471.035	7845
471.471	7676.5
471.907	7664.62
472.344	7615
472.78	7599.87
473.216	7673.23
473.652	7537.39
474.088	7484.89
474.523	7392.88
474.959	7411.66
475.395	7287.19
475.831	7170.79
476.266	7146.83
476.702	7062.04
477.138	6904.53
477.573	6813.31
478.008	6703.86
478.444	6637.01
478.879	6591.8
479.314	6539.28
479.75	6447.81
480.185	6403.26
480.62	6377.6
481.055	6331.02
481.49	6279.34
481.925	6278.94
482.36	6265.16
482.795	6344.97
483.229	6430.54
483.664	6468.2
484.099	6400.68
484.534	6399.85
484.968	6370.85
485.403	6311.45
485.837	6236.59
486.271	6157.45
486.706	6097.61
487.14	5997.11
487.574	5851.66
488.009	5754.48
488.443	5665.71
488.877	5667.08
489.311	5644.89
489.745	5661.18
490.179	5665.94
490.613	5703.58
491.046	5712.11
491.48	5716.54
491.914	5680.79
492.348	5685.9
492.781	5681.9
493.215	5665.69
493.648	5659.29
494.082	5674.5
494.515	5649.68
494.948	5674.45
495.382	5695.36
495.815	5694.76
496.248	5701.5
496.681	5769.58
497.114	5826.68
497.547	5861.29
497.98	5907.96
498.413	5895.45
498.846	5917.12
499.279	5937.8
499.711	5930.3
500.144	5902.25
500.577	5924.73
501.009	5959.37
501.442	5972.91
501.874	5924.73
502.306	5900.22
502.739	5892.23
503.171	5964.02
503.603	5942.31
504.036	5958.15
504.468	5944.32
504.9	5968.52
505.332	5964.31
505.764	5936.99
506.196	5932.13
506.627	5970.71
507.059	5996.19
507.491	6012.33
507.923	5927.82
508.354	5956.44
508.786	5959.89
509.217	6003.62
509.649	6028.9
510.08	6078.53
510.512	6104.95
510.943	6125.71
511.374	6125.23
511.805	6169.93
512.237	6212.59
512.668	6330.31
513.099	6411.43
513.53	6478.02
513.961	6501.54
514.391	6581.73
514.822	6655.46
515.253	6752.21
515.684	6793.14
516.114	6855.07
516.545	6874.23
516.975	6915.98
517.406	6918.12
517.836	6853.19
518.267	6812.41
518.697	6829.91
519.127	6785.37
519.558	6758.39
519.988	6714.22
520.418	6702.94
520.848	6722.58
521.278	6702.47
521.708	6571.76
522.138	6572.42
522.567	6649.88
522.997	6700.28
523.427	6706.58
523.857	6715.13
524.286	6703.91
524.716	6715.21
525.145	6740.47
525.575	6740.45
526.004	6760.26
526.433	6824.36
526.863	6787.78
527.292	6707.85
527.721	6699.36
528.15	6702.93
528.579	6686.27
529.008	6710.13
529.437	6778.5
529.866	6805.97
530.295	6844.07
530.724	6858.11
531.152	6934.15
531.581	6957.68
532.01	7003.71
532.438	7014.6
532.867	7048.67
533.295	7097.56
533.723	7100.98
534.152	7073.01
534.58	7055.92
535.008	6983.55
535.436	6977.35
535.865	6995.56
536.293	7041.83
536.721	7088.78
537.149	7166.38
537.576	7159.65
538.004	7198.04
538.432	7222.82
538.86	7211.75
539.287	7238.36
539.715	7286.44
540.143	7302.24
540.57	7293.74
540.998	7287.39
541.425	7201.29
541.852	7138.84
542.28	7147.2
542.707	7102.72
543.134	7062.14
543.561	7059.31
543.988	7044.1
544.415	7057.6
544.842	7050.74
545.269	7033.14
545.696	7051.03
546.123	7122
546.549	7094.65
546.976	7055.81
547.403	7063.66
547.829	7086.25
548.256	7111.87
548.682	7109.46
549.108	7090.64
549.535	7102.83
549.961	7124.89
550.387	7085.68
550.813	7071.09
551.24	7108.39
551.666	7126.62
552.092	7100.67
552.518	7087.12
552.943	7067.58
553.369	7108.88
553.795	7142.04
554.221	7150.86
554.646	7145.62
555.072	7183.07
555.498	7210.11
555.923	7245.82
556.349	7303.66
556.774	7337.68
557.199	7340.77
557.625	7374.4
558.05	7350.47
558.475	7394.87
558.9	7391.43
559.325	7357.73
559.75	7341.27
560.175	7320.2
560.6	7303.89
561.025	7300.98
561.449	7309.13
561.874	7333.04
562.299	7342.61
562.723	7371.73
563.148	7325.64
563.572	7339.53
563.997	7377.1
564.421	7397.46
564.846	7394.66
565.27	7398.37
565.694	7381.37
566.118	7415.7
566.542	7433.26
566.966	7398.03
567.39	7366
567.814	7312.79
568.238	7303.53
568.662	7320.24
569.086	7326.33
569.509	7360.45
569.933	7301.85
570.357	7288.54
570.78	7220.84
571.204	7184.57
571.627	7168.17
572.05	7193.22
572.474	7223.56
572.897	7212.77
573.32	7219.29
573.743	7225.46
574.166	7186.64
574.589	7234.83
575.012	7244.2
575.435	7287.95
575.858	7298.3
576.281	7299.5
576.704	7281.85
577.126	7283.51
577.549	7282.46
577.972	7292.17
578.394	7289.89
578.817	7297.99
579.239	7263.93
579.661	7249.96
580.084	7217.62
580.506	7205.64
580.928	7236.09
581.35	7229.94
581.772	7250.1
582.194	7227.24
582.616	7202.3
583.038	7177.19
583.46	7170.92
583.882	7185.58
584.303	7240.96
584.725	7259.37
585.147	7268.68
585.568	7331.92
585.99	7394.42
586.411	7430.63
586.833	7508.26
587.254	7523.35
587.675	7604.1
588.096	7677.18
588.518	7663.99
588.939	7590.65
589.36	7588.41
589.781	7579.24
590.202	7442.85
590.623	7424.65
591.043	7435.22
591.464	7386.52
591.885	7375.58
592.305	7351.7
592.726	7287.11
593.147	7289.35
593.567	7260.1
593.987	7215.16
594.408	7179.81
594.828	7174.24
595.248	7123.26
595.669	7008.05
596.089	6953.89
596.509	6907.32
596.929	6815.41
597.349	6791.98
597.769	6717.46
598.189	6656.79
598.608	6636.79
599.028	6616.45
599.448	6589.78
599.867	6509.08
600.287	6474.21
600.706	6432.53
601.126	6365.28
601.545	6342.32
601.965	6326.01
602.384	6294.69
602.803	6302.14
603.222	6272.4
603.641	6241.29
604.061	6221.45
604.48	6207.9
604.898	6248.7
605.317	6281.31
605.736	6300.73
606.155	6296.5
606.574	6264.89
606.992	6302.88
607.411	6294.69
607.829	6280.01
608.248	6286.78
608.666	6300.11
609.085	6316.31
609.503	6296.44
609.921	6287.63
610.339	6320.74
610.758	6345.85
611.176	6349.06
611.594	6329.12
612.012	6338.78
612.43	6372.25
612.847	6425.96
613.265	6446.76
613.683	6492.7
614.101	6524.94
614.518	6534.3
614.936	6512.42
615.353	6463.92
615.771	6470.99
616.188	6497.27
616.606	6505.43
617.023	6498.84
617.44	6452.55
617.857	6449.56
618.274	6432.25
618.691	6420.18
619.108	6394.64
619.525	6382.32
619.942	6429.66
620.359	6458.23
620.776	6446.18
621.192	6431.39
621.609	6426.79
622.026	6463.18
622.442	6500.19
622.859	6523.49
623.275	6495.31
623.691	6529.2
624.108	6593.69
624.524	6676.3
624.94	6682
625.356	6736.68
625.772	6814.12
626.188	6884.48
626.604	6901.19
627.02	6883.12
627.436	6874.59
627.852	6911.08
628.268	6974.8
628.683	6934.76
629.099	6899.17
629.514	6886.21
629.93	6918.28
630.345	6953.89
630.761	6946.41
631.176	6979.01
631.591	6954.25
632.007	6939.78
632.422	6956.97
632.837	6921.31
633.252	6923.89
633.667	6893.81
634.082	6868.44
634.497	6824.45
634.911	6739.44
635.326	6750.14
635.741	6689.84
636.155	6679.9
636.57	6718.32
636.984	6752.47
637.399	6793.36
637.813	6839.87
638.228	6873.3
638.642	6944.92
639.056	6934.96
639.47	6993.37
639.884	6995.04
640.298	7010.6
640.712	7050.86
641.126	7034.51
641.54	7043.45
641.954	7082.15
642.368	7061.75
642.781	7056.27
643.195	7003.29
643.609	7059.24
644.022	7075.71
644.436	7102.74
644.849	7082.17
645.262	7060.63
645.676	7126.47
646.089	7137.34
646.502	7072.9
646.915	7084.48
647.328	7029.35
647.741	7056.58
648.154	7012.12
648.567	7012.55
648.98	6956.06
649.393	6992.49
649.805	7004.61
650.218	6987.05
650.631	6903.49
651.043	6896.35
651.456	6879.49
651.868	6911.35
652.28	7052.75
652.693	7151.88
653.105	7197.31
653.517	7246.61
653.929	7230.02
654.341	7260.24
654.753	7172.59
655.165	7238.39
655.577	7244.82
655.989	7247.49
656.401	7235.52
656.813	7012.9
657.224	6934.29
657.636	6821.13
658.047	6774.58
658.459	6721.92
658.87	6744.78
659.282	6737.72
659.693	6638.61
660.104	6583.39
660.515	6537.39
660.926	6574.25
661.338	6613.95
661.749	6620.03
662.159	6586.05
662.57	6610.97
662.981	6620.6
663.392	6600.93
663.803	6671.15
664.213	6698.31
664.624	6708.29
665.035	6772.08
665.445	6697.5
665.855	6661.56
666.266	6613.63
666.676	6624.2
667.086	6570.21
667.497	6577.03
667.907	6540.76
668.317	6477.11
668.727	6426.66
669.137	6444.11
669.547	6424.42
669.956	6453.01
670.366	6470.77
670.776	6481.81
671.186	6513.89
671.595	6530.92
672.005	6559.56
672.414	6534.94
672.824	6503.01
673.233	6560.74
673.642	6561.22
674.052	6563.94
674.461	6550.94
674.87	6576.4
675.279	6528.51
675.688	6532.16
676.097	6514.6
676.506	6464.38
676.915	6570.13
677.323	6573.11
677.732	6534.55
678.141	6510.58
678.549	6408.44
678.958	6386.6
679.366	6359.05
679.775	6387.39
680.183	6412.45
680.592	6432.33
681	6438.54
681.408	6340.44
681.816	6357.14
682.224	6381.31
682.632	6387.35
683.04	6545.78
683.448	6637.21
683.856	6729.72
684.264	6817.81
684.671	6892.05
685.079	6996.01
685.487	7120.1
685.894	7344.31
686.302	7478.39
686.709	7522.99
687.116	7611.6
687.524	7627.67
687.931	7624.58
688.338	7626.25
688.745	7626.72
689.152	7636.59
689.559	7686.88
689.966	7704.87
690.373	7602.69
690.78	7582.79
691.187	7668.57
691.593	7665.05
692	7633.81
692.407	7682.32
692.813	7770.22
693.22	7799.14
693.626	7851.5
694.032	7850.21
694.439	7961.73
694.845	8008.31
695.251	8118.39
695.657	8192.38
696.063	8386.85
696.469	8475.61
696.875	8542.01
697.281	8506.24
697.687	8494.18
698.093	8440.37
698.498	8506.71
698.904	8515.1
699.31	8622.96
699.715	8646.42
700.12	8774.8
700.526	8690.16
700.931	8774.42
701.337	8810.33
701.742	8802.72
702.147	8942.35
702.552	8937.85
702.957	9021.39
703.362	8998.89
703.767	9001.13
704.172	9043.03
704.577	8846.49
704.981	8904.98
705.386	8872.99
705.791	8783.29
706.195	8909.65
706.6	8865.29
707.004	9008.73
707.408	8869.81
707.813	8878.69
708.217	8789.52
708.621	8736.64
709.025	8918.81
709.43	8861.15
709.834	8952.13
710.237	9067.72
710.641	8976.93
711.045	8978.04
711.449	8906.92
711.853	8911.34
712.256	8949.3
712.66	8975.31
713.064	9077.37
713.467	9078.91
713.87	9211.09
714.274	9163.08
714.677	9227.09
715.08	9379.78
715.484	9518.42
715.887	9703
716.29	9871.39
716.693	10030.66
717.096	10239.66
717.499	10265.49
717.901	10153.51
718.304	10127.39
718.707	10167.95
719.109	10029.86
719.512	10045.82
719.915	9869.38
720.317	9834.12
720.719	9964.21
721.122	9957.72
721.524	9900.87
721.926	9832.22
722.328	10006.47
722.731	9931
723.133	9900.72
723.535	10162.88
723.937	10099.72
724.338	10107.65
724.74	10108.64
725.142	9913.44
725.544	9884.89
725.945	9904.59
726.347	9888.83
726.748	9860.93
727.15	9883.66
727.551	9807.86
727.952	9748.2
728.354	9691.07
728.755	9702.8
729.156	9662.26
729.557	9726.45
729.958	9558.88
730.359	9531.94
730.76	9571.28
731.161	9548.83
731.562	9584.55
731.962	9672.64
732.363	9624.18
732.763	9574.14
733.164	9702.21
733.564	9613.04
733.965	9456.05
734.365	9411.78
734.766	9482.68
735.166	9415.83
735.566	9302.05
735.966	9240.02
736.366	9219.2
736.766	9102.66
737.166	9168.37
737.566	9092.1
737.966	9050.45
738.365	9130.26
738.765	9117.07
739.165	8971.21
739.564	8923.12
739.964	9020.5
740.363	8946.56
740.763	8959.55
741.162	8947.15
741.561	8890.94
741.96	8808.07
742.36	8859.62
742.759	8879.22
743.158	8971.55
743.557	9012.03
743.955	9094.33
744.354	9006.77
744.753	9119.42
745.152	9034.96
745.55	9139.47
745.949	9122.82
746.348	9119.11
746.746	9138.54
747.144	9045.93
747.543	8983.78
747.941	9062.37
748.339	8911.12
748.737	8878.56
749.136	8843.35
749.534	8954.35
749.932	8881.38
750.33	8912.55
750.727	9005.25
751.125	8947.38
751.523	8912.88
751.921	8984.08
752.318	8907.67
752.716	9008.31
753.113	9025.08
753.511	9058.54
753.908	9042.33
754.305	8994.53
754.703	9093.18
755.1	9188.07
755.497	9274.67
755.894	9576.9
756.291	9794.26
756.688	10176.24
757.085	10603.73
757.482	11184.89
757.878	11719.95
758.275	12088.54
758.672	12759.99
759.068	13144.04
759.465	13836.26
759.861	14752.5
760.258	15785.5
760.654	16041.28
761.05	15555.33
761.447	14835.39
761.843	14030.7
762.239	13288.23
762.635	13119.58
763.031	12919.71
763.427	12477.75
763.822	12004.68
764.218	11562.18
764.614	10870.08
765.01	10491.8
765.405	10341.14
765.801	10263.08
766.196	10032.98
766.592	9987.28
766.987	9697.26
767.382	9530.53
767.778	9535.06
768.173	9438.98
768.568	9411.64
768.963	9261.89
769.358	9344.17
769.753	9300.52
770.148	9185.5
770.542	9207.04
770.937	9166.43
771.332	9332.04
771.726	9369.88
772.121	9253.96
772.515	9345.89
772.91	9319.08
773.304	9447.78
773.699	9331.03
774.093	9417.07
774.487	9503.37
774.881	9564.59
775.275	9541.92
775.669	9459.9
776.063	9524.16
776.457	9577.98
776.851	9432.22
777.245	9396.93
777.638	9431.34
778.032	9609.02
778.425	9529.38
778.819	9581.78
779.212	9490.08
779.606	9405.56
779.999	9421.69
780.392	9370.33
780.786	9493.65
781.179	9509.33
781.572	9561.58
781.965	9559.54
782.358	9437.51
782.751	9506.08
783.143	9394.07
783.536	9488.16
783.929	9529.28
784.322	9685.73
784.714	9701.93
785.107	9650.48
785.499	9724.99
785.891	9640.7
786.284	9560.68
786.676	9731.74
787.068	9644.37
787.46	9681.04
787.852	9662.64
788.245	9743.5
788.636	9736.96
789.028	9798.99
789.42	9810.76
789.812	9777.41
790.204	9886.77
790.595	10002.92
790.987	9675.59
791.378	9684.83
791.77	9855.5
792.161	10029.46
792.553	10089.17
792.944	9888.53
793.335	9748.68
793.726	9829.71
794.117	9938.57
794.508	10115.54
794.899	10047.43
795.29	10229.78
795.681	10286.74
796.072	10041.26
796.463	9725.01
796.853	9701.38
797.244	9896.6
797.634	9912.57
798.025	9875.05
798.415	9853.57
798.806	9942.16
799.196	10017.98
799.586	10036.95
799.976	9926.24
800.366	10199.94
800.756	10502.22
801.146	10401.17
801.536	10397.32
801.926	10457.33
802.316	10456.35
802.706	10520.48
803.095	10321.04
803.485	10429.11
803.874	10464.4
804.264	10793.44
804.653	10729.93
805.043	10888.72
805.432	10993.77
805.821	10961.35
806.21	10945.66
806.599	11046.49
806.988	11041.44
807.377	11110.36
807.766	11203.75
808.155	11484.42
808.544	11054.94
808.933	10983.45
809.321	10865.46
809.71	11135.27
810.098	11212.18
810.487	11649.59
810.875	12090.7
811.264	11960.28
811.652	12133.39
812.04	12126.4
812.428	12131.91
812.816	12799.96
813.204	13056
813.592	13441.79
813.98	13606.63
814.368	13316.4
814.756	13654.8
815.144	13418.35
815.531	13769.86
815.919	13586.87
816.306	13807.81
816.694	13423.38
817.081	13439.77
817.469	13783.85
817.856	13807.88
818.243	14108.85
818.63	14537.9
819.017	14119.5
819.404	14160.61
819.791	14464.14
820.178	14974.5
820.565	15135.62
820.952	15994.66
821.339	15463.71
821.725	15590.59
822.112	14802.37
822.498	14691.04
822.885	14743.79
823.271	14615.84
823.657	15022.92
824.044	15079.63
824.43	15203.13
824.816	15195.15
825.202	14753.49
825.588	15683.7
825.974	15627.22
826.36	16041.72
826.746	15985.5
827.132	16246.54
827.517	16141.77
827.903	15319.22
828.289	15274.03
828.674	14482.94
829.06	14327.68
829.445	14650.05
829.83	14946.68
830.216	15341.13
830.601	15630.68
830.986	15235.29
831.371	15090.55
831.756	15568.82
832.141	15158.87
832.526	15135.21
832.911	15379.57
833.295	15261.51
833.68	15676.27
834.065	15099.02
834.449	14271.3
834.834	14208.27
835.218	14200.39
835.603	14495.89
835.987	14292.59
836.371	15025.44
836.755	14917.84
837.139	15265.91
837.524	15475.03
837.908	15288.25
838.291	15322.78
838.675	15359.07
839.059	15523.99
839.443	15487.5
839.827	15257.99
840.21	15654.17
840.594	15491.44
840.977	15639.46
841.361	15581.8
841.744	15876.12
842.127	15710.81
842.511	15904.11
842.894	16400.65
843.277	16696.33
843.66	17143.44
844.043	17182.64
844.426	16455.58
844.809	16161.4
845.191	16168.69
845.574	15743.27
845.957	15390.49
846.339	15264.18
846.722	14760.17
847.104	14764.6
847.487	14570.3
847.869	14524.91
848.252	14713.55
848.634	14946.53
849.016	15118.07
849.398	15166.01
849.78	15829.42
850.162	15794.45
850.544	16085.81
850.926	16535.27
851.307	16391.38
851.689	16547
852.071	16845.89
852.452	17045.96
852.834	16972.42
853.215	17243.45
853.597	17324.99
853.978	17529.71
854.359	17855.84
854.741	17043.87
855.122	16977.61
855.503	16764.49
855.884	16888.29
856.265	16849.62
856.646	16942.21
857.026	16628.5
857.407	16570.79
857.788	16690.87
858.169	16893.96
858.549	16202.06
858.93	16677.47
859.31	16684.17
859.69	16828.3
860.071	16478.71
860.451	16281.93
860.831	15665.42
861.211	16550.07
861.591	16944.88
861.971	16883.6
862.351	16988.6
862.731	17223.6
863.111	17361.37
863.491	17558.61
863.87	18164.97
864.25	18367.33
864.629	17996.68
865.009	18324.44
865.388	18914.5
865.768	20214.31
866.147	20085.19
866.526	18938.99
866.905	19147.17
867.284	20206.27
867.663	19177.41
868.042	18376.92
868.421	18307.8
868.8	18605.35
869.179	18796.63
869.558	17702.28
869.936	16310.1
870.315	16583.66
870.693	16978.5
871.072	18291.33
871.45	17409.16
871.828	17622.85
872.207	18511.59
872.585	18219.47
872.963	18693.75
873.341	18032.25
873.719	17800.15
874.097	17564.46
874.475	17889.16
874.853	18280.94
875.23	17515.63
875.608	18240.79
875.986	19713.13
876.363	18839.69
876.741	19411.64
877.118	18917.9
877.495	19823.81
877.873	20117.95
878.25	21147.81
878.627	20259.39
879.004	20519.52
879.381	20381.82
879.758	19826.56
880.135	18427.55
880.512	19456.74
880.889	18896.73
881.265	18662.08
881.642	18467.92
882.019	18769.8
882.395	18374.05
882.772	19078.37
883.148	18221.78
883.524	18129.25
883.901	17993.56
884.277	18239.17
884.653	18095.74
885.029	18592.1
885.405	20585.14
885.781	20416.71
886.157	19545.11
886.532	19745.09
886.908	19711.24
887.284	21896.24
887.659	22587.25
888.035	23270.77
888.411	23843.14
888.786	24134.19
889.161	24951.31
889.537	24445.02
889.912	25175.4
890.287	25106.55
890.662	25711.51
891.037	25185.69
891.412	23423.04
891.787	23114.43
892.162	22223.91
892.536	22663.88
892.911	21726.91
893.286	21165.02
893.66	20200.77
894.035	20614.68
894.409	22323.88
894.784	21326.92
895.158	21571.72
895.532	22733.4
895.906	23249.08
896.281	23678.44
896.655	23198.22
897.029	26391.52
897.402	27392.37
897.776	30406.49
898.15	30211.29
898.524	29809.91
898.898	30121.7
899.271	33657.19
899.645	29121.61
900.018	27924.4
900.392	28955.18
900.765	29187.21
901.138	27041.61
901.511	26653.84
901.884	24531.28
902.258	22683.77
902.631	23510.84
903.003	27120.35
903.376	24515.17
903.749	27513.04
904.122	29506.49
904.495	32511.94
904.867	32911.78
905.24	28539.63
905.612	26520.19
905.985	27039.03
906.357	28193.44
906.729	26825.1
907.102	22844.22
907.474	21916.12
907.846	22005.88
908.218	21637.26
908.59	19080.25
908.962	18419.25
909.334	19817.06
909.705	20819.24
910.077	20206.85
910.449	21006.19
910.82	21576.64
911.192	23716.55
911.563	24614.96
911.935	26330.93
912.306	26372.24
912.677	27213.14
913.048	26922.73
913.419	29154.16
913.79	29247
914.161	31324.12
914.532	29941.85
914.903	27490.52
915.274	26104.22
915.645	25719.01
916.015	22625.51
916.386	21580.18
916.756	22978.74
917.127	23729.79
917.497	21240.16
917.868	23175.91
918.238	22048.61
918.608	22716.18
918.978	23228.33
919.348	24641.89
919.718	25510.78
920.088	24621.49
920.458	25628.27
920.828	27003.28
921.198	25606.07
921.567	27355.28
921.937	21194.8
922.306	21391.79
922.676	23060.57
923.045	19270.64
923.415	18301.24
923.784	16654.8
924.153	17106.36
924.522	17070.92
924.891	16025.73
925.26	17149.81
925.629	16706.03
925.998	19161.35
926.367	18662.35
926.736	17750.79
927.104	21038
927.473	22543.71
927.842	27107.38
928.21	26726.44
928.578	27926.35
928.947	26309.5
929.315	26339.25
929.683	30776.73
930.051	30844.64
930.42	35674.95
930.788	30301.58
931.156	29921.59
931.523	27889.05
931.891	25668.45
932.259	24553.54
932.627	28383.14
932.994	39940.08
933.362	32929.93
933.729	28520.5
934.097	27230.57
934.464	22980.9
934.831	26467.32
935.199	26055.64
935.566	25260.45
935.933	25538.16
936.3	30934.14
936.667	24067.98
937.034	21833.94
937.401	21623.04
937.767	18687.24
938.134	16687.87
938.501	23609.2
938.867	25271.01
939.234	42852.71
939.6	36694.93
939.967	40629.26
940.333	27330.19
940.699	23357.58
941.065	18696.19
941.431	24568.23
941.798	23759.71
942.163	31282.77
942.529	19535.06
942.895	17961.78
943.261	11633.7
943.627	15282.13
943.992	13399.73
944.358	13407.23
944.723	13482.54
945.089	13143.39
945.454	12129.71
945.82	12910.08
946.185	12381.86
946.55	14369.65
946.915	12903.12
947.28	15128.4
947.645	13302.92
948.01	12300.39
948.375	12818.17
948.74	15314.08
949.104	17855.71
949.469	25764.04
949.834	45580.28
950.198	43319.4
950.562	25987.92
950.927	21614.22
951.291	25993.89
951.655	22139.97
952.02	20741.2
952.384	15688.96
952.748	13692.36
953.112	13385.44
953.476	11644.48
953.839	10770.71
954.203	10662.96
954.567	13279.2
954.931	20935.49
955.294	17925.77
955.658	18012.18
956.021	30654.74
956.385	51902.54
956.748	76464.39
957.111	118199.08
957.474	132614.31
957.837	149095.99
958.2	112584.47
958.563	40593.27
958.926	27428.21
959.289	41589.51
959.652	46531.44
960.015	34915.61
960.377	50113.95
960.74	57168.6
961.102	98758.81
961.465	106212.47
961.827	57326.65
962.189	110078.65
962.552	76415.2
962.914	61296.67
963.276	39746.25
963.638	32855.95
964	32510.44
964.362	22057.61
964.724	21327.3
965.085	15247.99
965.447	12505.16
965.809	14188.71
966.17	14191.8
966.532	15348.41
966.893	14122.98
967.255	12890.31
967.616	15230.06
967.977	12233.84
968.338	13357.48
968.699	11030.94
969.061	11048.44
969.421	11142.22
969.782	12531.82
970.143	10652.02
970.504	11091.42
970.865	12606.19
971.225	12931.68
971.586	12653.41
971.946	18011.37
972.307	15653.13
972.667	20425.07
973.027	21000.99
973.388	25433.06
973.748	17286.89
974.108	18783.14
974.468	25318.19
974.828	19565.46
975.188	15033.64
975.548	13820.16
975.907	11634.16
976.267	13042.42
976.627	10974.64
976.986	11368.76
977.346	10849.89
977.705	10444.33
978.064	9510.66
978.424	7924.32
978.783	8166.83
979.142	9321.78
979.501	8930.43
979.86	9444.06
980.219	9085.29
980.578	11723.2
980.937	13136.34
981.296	11730.11
981.654	12069.94
982.013	18772.55
982.371	24407.1
982.73	22878.53
983.088	25957.94
983.447	27762.81
983.805	39795.17
984.163	83397.18
984.521	92469.52
984.879	135969.92
985.237	-221366.62
985.595	214065.13
985.953	53294.06
986.311	30829.86
986.669	17900.24
987.026	15436.83
987.384	20771.91
987.741	21442.69
988.099	15383.46
988.456	12260.37
988.814	11515.33
989.171	10031.35
989.528	9886.67
989.885	10431.36
990.242	8260.69
990.599	10297.55
990.956	8439.71
991.313	5904.1
991.67	4858.69
992.027	5173.24
992.383	4615.91
992.74	4053.52
993.096	4267.3
993.453	4424.11
993.809	4596.05
994.165	6116.92
994.522	5633.56
994.878	6214.78
995.234	7812.91
995.59	7706.79
995.946	7258.77
996.302	8313.19
996.658	9575.03
997.013	10504.61
997.369	12470.88
997.725	16001.01
998.08	10406.38
998.436	15965.24
998.791	22037.26
999.147	22013.88
999.502	24019.69
999.857	17467.32
1000.212	28442.04
1000.567	40630.96
1000.922	23569.29
1001.277	15043.46
1001.632	11176.08
1001.987	14422.91
1002.342	10365.96
1002.696	8316.75
1003.051	6657.11
1003.406	8065.63
1003.76	8025.78
1004.114	7904.71
1004.469	6652.58
1004.823	5481.23
1005.177	5895.49
1005.531	4672.97
1005.885	4152.09
1006.239	4695.33
1006.593	5891.91
1006.947	7909.57
1007.301	5945.89
1007.655	6495.59
1008.008	4795.55
1008.362	5424.42
1008.715	7807.68
1009.069	7085.43
1009.422	10738.15
1009.776	21459.02
1010.129	14254.28
1010.482	11915.39
1010.835	10018.86
1011.188	20850.38
1011.541	19686.78
1011.894	-119771.55
1012.247	351661.01
1012.6	23770.86
1012.952	15108.48
1013.305	7746.12
1013.657	5619.94
1014.01	5329.62
1014.362	4391.82
1014.715	3958.94
1015.067	3472.66
1015.419	3398.83
1015.771	3028.66
1016.123	2705.84
1016.475	2798.79
1016.827	2985.7
1017.179	3234.67
1017.531	3249.07
1017.883	3326.9
1018.234	3256.88
1018.586	4112.6
1018.938	4405.41
1019.289	6117.04
1019.64	6997.56
1019.992	6520.14
1020.343	5991.73
1020.694	4763.53
1021.045	4189.6
1021.396	4788.28
1021.747	5157.42
1022.098	6151.54
1022.449	4476.72
1022.8	4136.05
1023.151	2884.58
1023.501	2580.39
1023.852	2809.29
1024.202	2916.23
1024.553	3206.79
1024.903	3185.7
1025.253	2761.8
1025.604	2487.52
1025.954	3090.3
1026.304	3743.44
1026.654	4386.31
1027.004	6450.19
1027.354	10376.2
1027.703	9833.97
1028.053	12950.45
1028.403	19118.46
1028.753	27249.89
1029.102	37089.32
1029.452	191975.39
1029.801	8338.64
1030.15	5408.85
1030.499	4553.69
897.758	3268.57
901.051	3257.17
904.343	3292.61
907.636	3283.22
910.928	3352.8
914.22	3253.64
917.511	3267.71
920.803	3354.5
924.094	3403.24
927.384	3351.19
930.675	3316.31
933.965	3258.2
937.255	3246.59
940.544	3213.35
943.834	3069.1
947.123	3026.46
950.411	3133.75
953.7	3095.97
956.988	3042.16
960.276	2988.23
963.563	3110.01
966.851	3089.18
970.138	3167.91
973.424	3144.48
976.711	3094.43
979.997	3350.44
983.283	3366.18
986.568	3234.25
989.853	3281.99
993.138	3313.71
996.423	3393.78
999.708	3305.59
1002.992	3423.06
1006.275	3151.34
1009.559	3261.52
1012.842	3400.56
1016.125	3302.7
1019.408	3280.59
1022.69	3408.23
1025.972	3414.73
1029.254	3378.52
1032.536	3272.02
1035.817	3322.1
1039.098	3220.11
1042.379	3490.09
1045.659	3438.97
1048.939	3347.98
1052.219	3390.94
1055.498	3420.6
1058.778	3390.26
1062.057	3381.24
1065.335	3401.39
1068.614	3433.72
1071.892	3392.09
1075.17	3501.71
1078.447	3474.32
1081.724	3459.1
1085.001	3512.47
1088.278	3476.45
1091.554	3500.63
1094.83	3498.14
1098.106	3519.05
1101.382	3585.44
1104.657	3584.54
1107.932	3581.73
1111.206	3523.95
1114.481	3485.87
1117.755	3496.96
1121.029	3458.09
1124.302	3503.86
1127.575	3434.22
1130.848	3411.31
1134.121	3362.21
1137.393	3290.78
1140.665	3374.94
1143.937	3354.02
1147.208	3259.39
1150.48	3282.89
1153.75	3263.85
1157.021	3336.13
1160.291	3292.25
1163.561	3329.88
1166.831	3353.08
1170.101	3389.16
1173.37	3379.26
1176.639	3298.78
1179.907	3374.75
1183.176	3427.48
1186.444	3432.27
1189.711	3465.21
1192.979	3463.23
1196.246	3426.31
1199.513	3448.33
1202.78	3441.34
1206.046	3446.6
1209.312	3481.11
1212.578	3519.11
1215.843	3445.78
1219.108	3426.51
1222.373	3453.33
1225.638	3397.26
1228.902	3372.06
1232.166	3339.88
1235.43	3319.3
1238.693	3332.86
1241.956	3339.37
1245.219	3365.81
1248.482	3372.87
1251.744	3362.74
1255.006	3551.94
1258.268	3513.04
1261.529	3443.3
1264.79	3460.49
1268.051	3586.43
1271.312	3605.58
1274.572	3559.76
1277.832	3549.97
1281.092	3553.13
1284.351	3496.82
1287.61	3467.83
1290.869	3352.61
1294.128	3301
1297.386	3444.97
1300.644	3426.89
1303.902	3435.53
1307.159	3281.18
1310.416	3341.12
1313.673	3362.26
1316.93	3329.47
1320.186	3399.68
1323.442	3457.96
1326.697	3429.84
1329.953	3444.18
1333.208	3452.4
1336.463	3439.35
1339.717	3363.32
1342.972	3453.76
1346.226	3460.93
1349.479	3367.77
1352.733	3322.72
1355.986	3367.07
1359.238	3335.2
1362.491	3335.88
1365.743	3341.81
1368.995	3343.42
1372.247	3359.37
1375.498	3375.18
1378.749	3435.39
1382	3377.43
1385.251	3452.33
1388.501	3427.16
1391.751	3391.03
1395	3370.25
1398.25	3412.83
1401.499	3404.93
1404.748	3312.19
1407.996	3225.26
1411.244	3220.39
1414.492	3195.12
1417.74	3162.85
1420.987	3189
1424.234	3238.11
1427.481	3241.47
1430.728	3297.16
1433.974	3272.02
1437.22	3303.85
1440.465	3308.95
1443.711	3310.83
1446.956	3346.1
1450.201	3355.76
1453.445	3405.88
1456.689	3366.2
1459.933	3384
1463.177	3411.9
1466.42	3381.1
1469.663	3358.01
1472.906	3324.25
1476.148	3472.96
1479.391	3352.87
1482.633	3341.09
1485.874	3338.12
1489.115	3297.38
1492.356	3327.61
1495.597	3296.07
1498.838	3313.79
1502.078	3261.2
1505.318	3178.52
1508.557	3235.2
1511.797	3143.08
1515.036	3322.19
1518.274	3303.44
1521.513	3292.3
1524.751	3326.03
1527.989	3328.44
1531.227	3334.53
1534.464	3295.14
1537.701	3352.77
1540.938	3383.27
1544.174	3341.14
1547.41	3356.42
1550.646	3393.77
1553.882	3415.29
1557.117	3465.78
1560.352	3495.98
1563.587	3444.64
1566.821	3393.23
1570.055	3460.19
1573.289	3415.23
1576.523	3514.7
1579.756	3513.29
1582.989	3528.66
1586.222	3482.68
1589.454	3533.82
1592.686	3498.5
1595.918	3517.17
1599.15	3494.19
1602.381	3608.73
1605.612	3527.64
1608.843	3630.5
1612.073	3530.39
1615.303	3509.02
1618.533	3484.64
1621.762	3504.46
1624.992	3506.69
1628.221	3467.8
1631.449	3454.24
1634.678	3548.87
1637.906	3489.37
1641.134	3542.24
1644.361	3486.36
1647.588	3471.82
1650.815	3480.27
1654.042	3477.51
1657.269	3512.96
1660.495	3461.55
1663.72	3403.06
1666.946	3391.47
1670.171	3290.9
1673.396	3269.91
1676.621	3269.27
1679.845	3322.65
1683.069	3363.1
1686.293	3425.98
1689.517	3376.58
1692.74	3266.68
1695.963	3283.56
1699.185	3386.39
1702.408	3329.58
1705.63	3389.73
1708.852	3393.13
1712.073	3364.15
1715.294	3323.19
1718.515	3349.28
1721.736	3291.7
1724.956	3254.04
1728.176	3291.33
1731.396	3310.62
1734.616	3309.6
1737.835	3315.71
1741.054	3308.92
1744.272	3305.77
1747.491	3318.98
1750.709	3409.27
1753.927	3305.39
1757.144	3367.71
1760.361	3439.86
1763.578	3450.81
1766.795	3376.98
1770.011	3402.24
1773.227	3465.32
1776.443	3494.23
1779.658	3539.79
1782.874	3485.29
1786.089	3449.4
1789.303	3453.87
1792.518	3465.78
1795.732	3455.22
1798.945	3455.09
1802.159	3518.35
1805.372	3366.75
1808.585	3341.1
1811.797	3343.75
1815.01	3428.82
1818.222	3431.93
1821.434	3299.71
1824.645	3413.82
1827.856	3368.65
1831.067	3416.86
1834.278	3341.45
1837.488	3332.47
1840.698	3519.5
1843.908	3414.39
1847.117	3376
1850.326	3193.38
1853.535	3337.77
1856.744	3469.96
1859.952	3341.77
1863.16	3337.58
1866.368	3363.15
1869.575	3521.87
1872.782	3397.9
1875.989	3344.49
1879.196	3477.57
1882.402	3468.61
1885.608	3521.3
1888.814	3377.41
1892.019	3248.2
1895.224	3300.66
1898.429	3302.23
1901.634	3269.42
1904.838	3251.11
1908.042	3292.51
1911.246	3290.26
1914.449	3178.02
1917.652	3196.94
1920.855	3183.57
1924.058	3258.56
1927.26	3285.73
1930.462	3322.46
1933.664	3335.34
1936.865	3266.17
1940.066	3261.07
1943.267	3213.1
1946.467	3238.72
1949.668	3276.5
1952.868	3341.89
1956.067	3299.31
1959.267	3222.77
1962.466	3257.03
1965.665	3248.91
1968.863	3243.14
1972.061	3280.38
1975.259	3285.02
1978.457	3372.18
1981.654	3323.12
1984.852	3320.52
1988.048	3223.06
1991.245	3245.49
1994.441	3328.81
1997.637	3347.96
2000.833	3327.03
2004.028	3374.51
2007.223	3414.95
2010.418	3375.47
2013.613	3347.8
2016.807	3285.12
2020.001	3312.99
2023.194	3390.03
2026.388	3354.79
2029.581	3303.72
2032.774	3334.1
2035.966	3328.36
2039.158	3235.6
2042.35	3274.78
2045.542	3203.4
2048.733	3333.31
2051.924	3395.43
2055.115	3440.61
2058.306	3349.37
2061.496	3416.39
2064.686	3499.88
2067.875	3419.94
2071.065	3456.05
2074.254	3497.15
2077.442	3442.77
2080.631	3547.76
2083.819	3378.76
2087.007	3343.9
2090.195	3296.86
2093.382	3358.08
2096.569	3332.4
2099.756	3271.21
2102.942	3272.58
2106.128	3258.42
2109.314	3254.71
2112.5	3189.13
2115.685	3173.19
2118.87	3188.54
2122.055	3263.77
2125.239	3208.43
2128.424	3159.16
2131.608	3325.34
2134.791	3307.15
2137.974	3392.39
2141.157	3372.67
2144.34	3297.4
2147.523	3318.13
2150.705	3311.63
2153.887	3311.87
2157.068	3230.1
2160.25	3259.14
2163.431	3326.65
2166.611	3232.06
2169.792	3244.33
2172.972	3112.03
2176.152	3233.49
2179.331	3280.38
2182.511	3260.5
2185.69	3294.91
2188.868	3275.99
2192.047	3363.16
2195.225	3322.02
2198.403	3265.37
2201.58	3269.87
2204.758	3271.78
2207.935	3369.94
2211.111	3217.14
2214.288	3194.55
2217.464	3244.48
2220.64	3236.67
2223.815	3303.3
2226.991	3206.51
2230.166	3230.54
2233.34	3243.62
2236.515	3285.87
2239.689	3376.21
2242.863	3306.25
2246.036	3371.01
2249.209	3395.79
2252.382	3447.17
2255.555	3413.22
2258.727	3326.04
2261.9	3379.61
2265.071	3369.19
2268.243	3386.31
2271.414	3291.23
2274.585	3217.89
2277.756	3300.06
2280.926	3254.92
2284.096	3310.18
2287.266	3186.91
2290.436	3253.8
2293.605	3297.93
2296.774	3317.56
2299.942	3362.88
2303.111	3376.18
2306.279	3418.81
2309.447	3411.55
2312.614	3391.28
2315.781	3403.15
2318.948	3360.19
2322.115	3403.74
2325.281	3301.06
2328.447	3339.23
2331.613	3319.42
2334.779	3267.05
2337.944	3280.39
2341.109	3273.65
2344.274	3248.03
2347.438	3207.11
2350.602	3242.1
2353.766	3264.11
2356.929	3243.64
2360.092	3295.22
2363.255	3217.23
2366.418	3105.45
2369.58	3282.71
2372.742	2950.43
2375.904	2990.47
2379.066	2951.05
2382.227	3003.59
2385.388	2961.88
2388.548	2860.86
2391.709	2936.17
2394.869	2901.06
2398.029	3063.5
2401.188	3102.34
2404.347	2994.41
2407.506	3218.12
2410.665	3239.92
2413.823	3272.81
2416.981	3199.25
2420.139	3253.3
2423.296	3311.41
2426.453	3287.09
2429.61	3314.93
2432.767	3198.64
2435.923	3251.17
2439.079	3129.1
2442.235	3221.98
2445.391	3126.21
2448.546	3129.15
2451.701	3203.74
2454.855	3138.42
2458.009	3225.83
2461.163	3246.52
2464.317	3188.35
2467.471	3232.61
2470.624	3270
2473.777	3326.2
2476.929	3312.52
2480.082	3342.48
2483.234	3311.32
2486.385	3178.65
2489.537	3180.93
2492.688	3103.79
2495.839	3123.83
2498.989	3123.26
2502.14	3101.9
2505.29	3068.34
2508.439	3096.88
2511.589	2997.16
2514.738	3030.28
2517.887	3058.8
2521.035	3218.79
2524.183	3216.47
2527.331	3183.53
2530.479	3127.31
2533.627	3152.8
