Data from N_3_DIV_IL_4N_Splice17_13-20-30-770.txt Node
Date: Sat Mar 14 13:20:30 EDT 2020
User: sa697716
Spectrometer: FLMS03696
Trigger mode: 0
Integration Time (sec): 3.180400E-1
Scans to average: 20
Electric dark correction enabled: true
Nonlinearity correction enabled: true
Boxcar width: 5
XAxis mode: Wavelengths
Number of Pixels in Spectrum: 2048
>>>>>Begin Spectral Data<<<<<
187.83	-334005.11
188.298	2314.87
188.766	1277.5
189.233	1203.5
189.701	1692.18
190.169	2309.84
190.636	898.84
191.104	757.8
191.571	153.81
192.039	-56.57
192.506	-57.6
192.974	526.81
193.441	-1183.17
193.908	-454.6
194.375	-47.96
194.842	36.91
195.31	130.46
195.777	198.93
196.244	425.57
196.711	499.3
197.177	584.4
197.644	800.9
198.111	1362.48
198.578	1902.87
199.045	1524.57
199.511	2437.4
199.978	2798.85
200.445	2400.03
200.911	2634.7
201.378	2924.63
201.844	2628.49
202.31	4436.46
202.777	4644.69
203.243	2590.63
203.709	2469.35
204.176	2949.37
204.642	2440.16
205.108	2282.51
205.574	1836.29
206.04	1662.17
206.506	1537.01
206.972	1439.44
207.438	1390.58
207.903	1583.96
208.369	1389.56
208.835	1389
209.301	1430.58
209.766	1448
210.232	1441.18
210.697	1769.06
211.163	2167.4
211.628	3263.47
212.094	2710.05
212.559	3340.93
213.024	2076.93
213.49	2537.46
213.955	2466.04
214.42	2411.72
214.885	2270.02
215.35	2164.08
215.815	2111.47
216.28	2233.08
216.745	1811.11
217.21	1966.22
217.675	1786.93
218.14	1974.5
218.604	2151.29
219.069	2416.36
219.534	2515.89
219.998	2838.32
220.463	3367.74
220.927	4045.91
221.392	3766.45
221.856	3772.58
222.32	4681.22
222.785	5725.5
223.249	7146.71
223.713	7952.54
224.177	7910.75
224.642	10049.34
225.106	12334.83
225.57	13437.77
226.034	10024.4
226.497	15239.64
226.961	13774.16
227.425	15993.97
227.889	17682.39
228.353	17650.02
228.816	36402.27
229.28	34755.03
229.744	29271.27
230.207	17855.01
230.671	17590.55
231.134	28933.98
231.597	33436.38
232.061	33326.48
232.524	32457.31
232.987	22347.22
233.45	20176.02
233.914	18074.86
234.377	18516.85
234.84	16976.64
235.303	19973.07
235.766	22312.1
236.229	23067.16
236.691	14493.6
237.154	16306.69
237.617	12326.85
238.08	12648.23
238.542	14801.64
239.005	10617.8
239.468	10564.44
239.93	9959.15
240.393	9058.76
240.855	7965.54
241.317	8151.59
241.78	9908.85
242.242	10265.32
242.704	11113.12
243.166	9689.18
243.629	8826.39
244.091	10168.53
244.553	11148.93
245.015	11988.52
245.477	15536.59
245.939	22768.68
246.4	24245.03
246.862	23628.95
247.324	22300.61
247.786	24904.9
248.247	32673.44
248.709	33683.85
249.17	25253.57
249.632	23821.26
250.093	27737.75
250.555	23978.59
251.016	14649.24
251.477	13910.32
251.939	15026.17
252.4	15766.16
252.861	18748.26
253.322	17463.02
253.783	20751.21
254.244	26855.44
254.705	21222.95
255.166	18829.64
255.627	18547.41
256.088	26199.08
256.549	27862.47
257.009	24006.64
257.47	29134.04
257.931	23732.29
258.391	17794.99
258.852	18379.89
259.312	19284.52
259.773	23795.91
260.233	20158.96
260.694	17008.3
261.154	19268.03
261.614	15454.61
262.074	13804.73
262.534	14351.07
262.994	13535.52
263.455	18017.93
263.915	15168.21
264.374	14271.72
264.834	15554.09
265.294	17189.42
265.754	17780.02
266.214	16809.09
266.673	15743.6
267.133	19869.74
267.593	19668.68
268.052	24046.94
268.512	20872.81
268.971	25183.68
269.431	27598.38
269.89	24715.67
270.349	37080.53
270.809	41388.81
271.268	37197
271.727	83289.5
272.186	53911.77
272.645	40468.57
273.104	29136.98
273.563	42147.3
274.022	33116.06
274.481	28196.48
274.94	21717.28
275.399	16117.35
275.857	18752.52
276.316	25325.95
276.775	22496.51
277.233	22141.51
277.692	20756.82
278.15	23513.64
278.609	24239.01
279.067	22406.2
279.525	20823.4
279.984	26892.99
280.442	32338.26
280.9	31907.52
281.358	21022.61
281.816	19654.54
282.274	19250.45
282.732	19850.57
283.19	19939.05
283.648	17217.61
284.106	18355.05
284.564	18666.23
285.021	17343.94
285.479	12927.09
285.937	11742.38
286.394	10321.55
286.852	10637.84
287.309	11206.09
287.767	10863.5
288.224	10375.31
288.682	11376.93
289.139	12518.1
289.596	11468.03
290.053	11903.63
290.511	15028.44
290.968	18238.97
291.425	24763.01
291.882	20626.65
292.339	17956.47
292.796	17807.96
293.252	16749.35
293.709	13339.12
294.166	11950.01
294.623	13213.89
295.079	12676.26
295.536	12754.26
295.992	11606.6
296.449	11487.84
296.905	11948.89
297.362	11463.52
297.818	12053.1
298.274	12529.82
298.731	12769.13
299.187	12660.09
299.643	13583.11
300.099	16464.9
300.555	18072.04
301.011	15119.32
301.467	14605.95
301.923	17080.99
302.379	16717.15
302.835	16427.7
303.291	16466.28
303.746	18764.86
304.202	23704.7
304.658	23831.51
305.113	16021.14
305.569	15709.23
306.024	16721.93
306.479	15909.4
306.935	13443.35
307.39	14675.32
307.845	13585.16
308.301	13694.68
308.756	13348.99
309.211	12894.07
309.666	13225.51
310.121	16464.84
310.576	16746.16
311.031	16606.37
311.486	19019.14
311.94	18971.22
312.395	25384.81
312.85	47726.9
313.305	234125.05
313.759	1216897.79
314.214	88088.01
314.668	70015.08
315.123	59005.24
315.577	21166.48
316.032	18883.96
316.486	23693.76
316.94	18797.13
317.394	13136.51
317.849	10232.44
318.303	9706.98
318.757	9151.62
319.211	10136.77
319.665	8866.87
320.119	8984.43
320.572	12886.6
321.026	12076.03
321.48	10068.19
321.934	10977.73
322.387	10994.54
322.841	11894.04
323.295	10719.42
323.748	12346.02
324.202	12529.73
324.655	15076.23
325.108	21119.42
325.562	14956.09
326.015	17781.09
326.468	13425.37
326.921	15022.02
327.374	14020.63
327.827	14616.21
328.28	16528.06
328.733	11093.51
329.186	9765.29
329.639	9316.96
330.092	7850.72
330.545	7487.23
330.997	7563.41
331.45	8309.45
331.903	9737.95
332.355	16759.07
332.808	16261.2
333.26	13444.63
333.713	14622.54
334.165	14751.23
334.617	19690.08
335.069	15883.87
335.522	28707.04
335.974	31832.13
336.426	29027.52
336.878	20101.77
337.33	10214.28
337.782	10009.27
338.234	12594.58
338.686	15054.08
339.137	17845.13
339.589	16833.2
340.041	13255.06
340.493	11404.82
340.944	11661.01
341.396	12591.44
341.847	10631.81
342.299	12576.37
342.75	15369.24
343.201	13336.77
343.653	15364.36
344.104	18907.16
344.555	14865.65
345.006	23046.17
345.457	17679.19
345.908	14058.5
346.359	13235.76
346.81	10789.46
347.261	11350.26
347.712	11182.24
348.163	12025.4
348.613	12208.25
349.064	11399.94
349.515	9991.3
349.965	10270.23
350.416	12335.43
350.866	13539.7
351.317	15277.8
351.767	25271.11
352.217	31961.6
352.668	26532.22
353.118	24312.08
353.568	23354.32
354.018	18522.09
354.468	19582.06
354.918	14015.21
355.368	12283.84
355.818	17364.47
356.268	49981.16
356.718	209881.04
357.168	52243.18
357.617	26198.73
358.067	29165.19
358.517	27357.58
358.966	32084.07
359.416	36035.21
359.865	39002.74
360.315	46450.12
360.764	21733.53
361.213	12211.31
361.663	11507.85
362.112	14184.52
362.561	22876.45
363.01	17251.17
363.459	14521.69
363.908	15652.8
364.357	13307.74
364.806	22514.62
365.255	15464.89
365.703	14167.4
366.152	14144.76
366.601	11491.65
367.05	9350.21
367.498	8524.93
367.947	8905.63
368.395	9269.96
368.844	8219.65
369.292	9854.43
369.74	6812.03
370.189	10452.59
370.637	12237.58
371.085	10579.36
371.533	12883.05
371.981	12381.77
372.429	11803.9
372.877	12254.93
373.325	10241.65
373.773	10417.85
374.221	9273.77
374.669	11483.67
375.116	9911.21
375.564	9959.7
376.012	11101.74
376.459	9145.82
376.907	10906.89
377.354	13115.52
377.801	12257.6
378.249	14092.97
378.696	17968.01
379.143	21736.82
379.591	23134.09
380.038	39137.19
380.485	28314.93
380.932	30545.09
381.379	27919.83
381.826	20565.2
382.273	14624.17
382.72	12740.1
383.166	12404.57
383.613	8060.25
384.06	7253.53
384.506	8370.61
384.953	6124.63
385.4	6143.36
385.846	5368.55
386.292	5205.98
386.739	5083.58
387.185	5001.38
387.631	4997.04
388.078	4837.71
388.524	5148.06
388.97	4750.46
389.416	3962.12
389.862	4202.92
390.308	3970.32
390.754	4024.06
391.2	4353.87
391.645	4434.66
392.091	4267.3
392.537	4123.21
392.983	4117.97
393.428	4076.2
393.874	4353.89
394.319	4381.08
394.765	4152.85
395.21	4261.36
395.655	3987.82
396.101	3737.88
396.546	3382.22
396.991	3391.62
397.436	3138.33
397.881	3032.51
398.326	2852.8
398.771	2707.24
399.216	2356.76
399.661	2122.49
400.106	2125.99
400.551	2187.85
400.995	1966.36
401.44	1946.22
401.885	1832.03
402.329	1859.48
402.774	1784.86
403.218	1743.46
403.663	1677.08
404.107	1726.14
404.551	1746.44
404.995	1597.8
405.44	1535.83
405.884	1559.97
406.328	1513.37
406.772	1508.63
407.216	1378.2
407.66	1331.32
408.104	1256.3
408.547	1177.88
408.991	1143.77
409.435	1100.23
409.879	1089.66
410.322	1079.93
410.766	1046.48
411.209	995.76
411.653	958.75
412.096	941.87
412.54	943.6
412.983	939.19
413.426	946.78
413.869	946.28
414.312	932.52
414.756	900.84
415.199	858.16
415.642	837.29
416.085	842.78
416.527	838.19
416.97	851
417.413	811.56
417.856	807.25
418.298	798.94
418.741	793.01
419.184	790.86
419.626	820.24
420.069	824.23
420.511	830.7
420.953	814.6
421.396	809.39
421.838	789.92
422.28	810.53
422.722	818.12
423.164	830.25
423.606	819.26
424.048	818.09
424.49	783.56
424.932	779.51
425.374	767.29
425.816	778.82
426.258	792.49
426.699	800.17
427.141	787.9
427.582	795.16
428.024	789.39
428.465	781.75
428.907	760.83
429.348	749.53
429.789	750.87
430.231	736.71
430.672	746.69
431.113	730.82
431.554	721.07
431.995	700.63
432.436	678.95
432.877	667.67
433.318	661.13
433.759	660
434.2	660.3
434.64	652.75
435.081	653.22
435.522	619.16
435.962	596.89
436.403	585.66
436.843	593.62
437.284	578.77
437.724	561.26
438.164	558.99
438.604	545.95
439.045	525.44
439.485	504.28
439.925	493.17
440.365	481.26
440.805	473.76
441.245	469.22
441.685	454.02
442.125	451.2
442.564	453.3
443.004	445
443.444	444.42
443.883	447.4
444.323	443.11
444.762	442.65
445.202	447.38
445.641	457.76
446.081	454.04
446.52	457.77
446.959	454.76
447.398	447.55
447.837	443.92
448.276	437.83
448.716	441.19
449.154	445.15
449.593	438.31
450.032	439.1
450.471	431.25
450.91	430.64
451.349	429.99
451.787	428.81
452.226	434
452.664	432.92
453.103	433.36
453.541	431.45
453.98	433.44
454.418	435.22
454.856	428.53
455.295	427.59
455.733	432.15
456.171	435.4
456.609	434.92
457.047	435.93
457.485	444.09
457.923	443.97
458.361	438.8
458.798	439.78
459.236	439.51
459.674	441.57
460.111	443.01
460.549	439.28
460.987	436.18
461.424	434.42
461.862	431.12
462.299	422.83
462.736	423.72
463.173	424.52
463.611	422.08
464.048	420.36
464.485	424.56
464.922	420.21
465.359	416.28
465.796	418.19
466.233	415.92
466.67	413.7
467.106	414.39
467.543	409.29
467.98	403.91
468.416	390.58
468.853	386.62
469.29	375.54
469.726	370.92
470.162	362.42
470.599	351.5
471.035	347.45
471.471	338.05
471.907	334.72
472.344	333.35
472.78	335.84
473.216	340.31
473.652	337.53
474.088	336.19
474.523	336.52
474.959	339.57
475.395	337.68
475.831	337.85
476.266	340.26
476.702	339.43
477.138	336.49
477.573	334.92
478.008	334.37
478.444	336.81
478.879	341.01
479.314	342.79
479.75	342.82
480.185	344.25
480.62	346.72
481.055	348.68
481.49	352.89
481.925	358.42
482.36	366.82
482.795	376.78
483.229	386.45
483.664	394.04
484.099	395.84
484.534	402.44
484.968	406.93
485.403	407.97
485.837	407.32
486.271	406.01
486.706	406.81
487.14	401.55
487.574	395.75
488.009	392.38
488.443	390.37
488.877	395.51
489.311	397.53
489.745	403.48
490.179	408.77
490.613	418.92
491.046	422.96
491.48	426.85
491.914	429.04
492.348	435.02
492.781	440.18
493.215	442.75
493.648	445.02
494.082	450.35
494.515	452.68
494.948	460.47
495.382	465.77
495.815	472.18
496.248	479.43
496.681	490.59
497.114	500.09
497.547	509.94
497.98	523.74
498.413	532.96
498.846	544.16
499.279	553.68
499.711	559.07
500.144	564.67
500.577	577.05
501.009	589.12
501.442	601.85
501.874	607.82
502.306	613.94
502.739	624.65
503.171	640.04
503.603	647.02
504.036	659.14
504.468	669.82
504.9	683.14
505.332	692.77
505.764	700.86
506.196	711.07
506.627	727.54
507.059	743.87
507.491	754.71
507.923	757.89
508.354	775.1
508.786	788.74
509.217	807.85
509.649	826
510.08	846.32
510.512	865.48
510.943	882.13
511.374	897.6
511.805	919.24
512.237	940.37
512.668	972.64
513.099	1000.13
513.53	1027.76
513.961	1049.56
514.391	1079.72
514.822	1112.62
515.253	1147.72
515.684	1174.36
516.114	1204.27
516.545	1227.11
516.975	1253.15
517.406	1273.15
517.836	1279.53
518.267	1290.46
518.697	1311.52
519.127	1319.49
519.558	1329.92
519.988	1336.02
520.418	1348.43
520.848	1366.49
521.278	1376.24
521.708	1407.66
522.138	1421.62
522.567	1452.46
522.997	1477.44
523.427	1492.57
523.857	1510.43
524.286	1521.91
524.716	1537.86
525.145	1557.99
525.575	1569.62
526.004	1584.51
526.433	1568.57
526.863	1570.21
527.292	1562.57
527.721	1568.78
528.15	1576.18
528.579	1578.51
529.008	1588.95
529.437	1611.62
529.866	1624.93
530.295	1641.93
530.724	1655.31
531.152	1681.46
531.581	1696.16
532.01	1713.47
532.438	1722.83
532.867	1737.46
533.295	1755.69
533.723	1762.63
534.152	1761.29
534.58	1761.37
535.008	1747.28
535.436	1749.14
535.865	1756.46
536.293	1769.88
536.721	1784.76
537.149	1808.6
537.576	1810.48
538.004	1821.27
538.432	1829.34
538.86	1827.94
539.287	1833.57
539.715	1847
540.143	1849.41
540.57	1845.69
540.998	1841.97
541.425	1819.18
541.852	1798.86
542.28	1797.73
542.707	1782.39
543.134	1768.92
543.561	1764.37
543.988	1757.95
544.415	1757.75
544.842	1752.9
545.269	1746.34
545.696	1748.56
546.123	1762.43
546.549	1753.6
546.976	1742.09
547.403	1742.87
547.829	1745.27
548.256	1748.13
548.682	1745.82
549.108	1738.55
549.535	1740.06
549.961	1742.83
550.387	1732.37
550.813	1727.5
551.24	1734.09
551.666	1735.99
552.092	1727.68
552.518	1721.68
552.943	1717.43
553.369	1725.89
553.795	1732.02
554.221	1732.28
554.646	1730.02
555.072	1740.13
555.498	1746.66
555.923	1756.88
556.349	1771.32
556.774	1780.08
557.199	1782.17
557.625	1788.76
558.05	1783.58
558.475	1793.03
558.9	1793.01
559.325	1786.02
559.75	1778.86
560.175	1771.92
560.6	1764.67
561.025	1763.23
561.449	1765.02
561.874	1771.53
562.299	1775.75
562.723	1781.68
563.148	1773.09
563.572	1777.2
563.997	1786.97
564.421	1792.92
564.846	1792.97
565.27	1797.74
565.694	1796.25
566.118	1807.15
566.542	1813.02
566.966	1805.65
567.39	1801.74
567.814	1791.57
568.238	1790.1
568.662	1794.91
569.086	1796.82
569.509	1805.15
569.933	1789.53
570.357	1782.04
570.78	1760.49
571.204	1747.81
571.627	1737.38
572.05	1734.63
572.474	1733.63
572.897	1721.9
573.32	1713.85
573.743	1704.45
574.166	1685.86
574.589	1685.99
575.012	1677.85
575.435	1676.74
575.858	1668.23
576.281	1657.91
576.704	1643.66
577.126	1633.82
577.549	1624.01
577.972	1615.33
578.394	1605.47
578.817	1599.94
579.239	1580.33
579.661	1567.36
580.084	1552.94
580.506	1541.17
580.928	1538.34
581.35	1528.21
581.772	1522.64
582.194	1509.85
582.616	1498.24
583.038	1484.38
583.46	1473.03
583.882	1471.92
584.303	1476.46
584.725	1471.75
585.147	1473.44
585.568	1482.75
585.99	1493.57
586.411	1499.72
586.833	1513.15
587.254	1514.18
587.675	1527.76
588.096	1540.07
588.518	1534.57
588.939	1517.29
589.36	1514.73
589.781	1503.02
590.202	1475.38
590.623	1466.38
591.043	1463.3
591.464	1451.5
591.885	1446.48
592.305	1440.31
592.726	1426.74
593.147	1426.08
593.567	1421.5
593.987	1415.33
594.408	1410.73
594.828	1408.74
595.248	1402.48
595.669	1385.36
596.089	1377.21
596.509	1371.83
596.929	1357.92
597.349	1358.55
597.769	1349.5
598.189	1342.54
598.608	1343.23
599.028	1344.87
599.448	1344.11
599.867	1332.46
600.287	1328.11
600.706	1324.5
601.126	1314.25
601.545	1313.39
601.965	1311.01
602.384	1304.99
602.803	1307.86
603.222	1303.16
603.641	1297.62
604.061	1294.14
604.48	1289.16
604.898	1296
605.317	1300.34
605.736	1302.23
606.155	1299.74
606.574	1291.34
606.992	1296.41
607.411	1291.33
607.829	1282.28
608.248	1277.08
608.666	1274.33
609.085	1275.03
609.503	1266.9
609.921	1260.4
610.339	1261.59
610.758	1259.94
611.176	1254.72
611.594	1246.22
612.012	1242.28
612.43	1244.85
612.847	1250.65
613.265	1250.91
613.683	1253.42
614.101	1253.84
614.518	1249.07
614.936	1238.83
615.353	1224.15
615.771	1220.79
616.188	1219.94
616.606	1215.77
617.023	1209.34
617.44	1195.51
617.857	1188.31
618.274	1179.31
618.691	1172.82
619.108	1162.86
619.525	1155.67
619.942	1161.73
620.359	1162.89
620.776	1157.83
621.192	1154.42
621.609	1151.19
622.026	1156.57
622.442	1160.93
622.859	1163.3
623.275	1155.43
623.691	1160.66
624.108	1171.99
624.524	1184.62
624.94	1184.56
625.356	1193.36
625.772	1204.7
626.188	1214.9
626.604	1216.35
627.02	1211.96
627.436	1209.57
627.852	1217.01
628.268	1227.1
628.683	1217.75
629.099	1209.72
629.514	1204.6
629.93	1207.17
630.345	1210.46
630.761	1206.22
631.176	1209.33
631.591	1203.96
632.007	1197.57
632.422	1193.11
632.837	1182.05
633.252	1178.69
633.667	1167.91
634.082	1158.34
634.497	1145.47
634.911	1127.03
635.326	1122.56
635.741	1104.26
636.155	1093.34
636.57	1092.8
636.984	1090.31
637.399	1089.29
637.813	1085.69
638.228	1082.02
638.642	1082.61
639.056	1069.87
639.47	1066.85
639.884	1056.07
640.298	1046.97
640.712	1042.15
641.126	1027.38
641.54	1016.56
641.954	1007.73
642.368	993.34
642.781	983.73
643.195	965.44
643.609	961.67
644.022	951.94
644.436	944.93
644.849	931.15
645.262	916.82
645.676	914.4
646.089	907.18
646.502	892.57
646.915	886.13
647.328	868.12
647.741	862.85
648.154	850.89
648.567	846.69
648.98	833.54
649.393	832.47
649.805	828.36
650.218	820.45
650.631	806.94
651.043	800.3
651.456	794.1
651.868	793.37
652.28	806.48
652.693	813.99
653.105	816.59
653.517	822.14
653.929	819.42
654.341	821.85
654.753	811.85
655.165	814.13
655.577	810.38
655.989	805.49
656.401	795.48
656.813	764.6
657.224	747.41
657.636	722.72
658.047	706.44
658.459	689.43
658.87	678.77
659.282	665.65
659.693	646.7
660.104	631.96
660.515	617.25
660.926	611.98
661.338	604.82
661.749	596.31
662.159	585.64
662.57	578.79
662.981	569.94
663.392	561.81
663.803	560.72
664.213	554.26
664.624	547.26
665.035	544.69
665.445	532.58
665.855	526.36
666.266	517.49
666.676	513.35
667.086	503.62
667.497	501.64
667.907	494.57
668.317	485.38
668.727	483.54
669.137	481.21
669.547	477.8
669.956	477.2
670.366	475.39
670.776	476.13
671.186	476.29
671.595	476.41
672.005	476.08
672.414	474.11
672.824	472.77
673.233	471.96
673.642	472.93
674.052	475.71
674.461	477.41
674.87	480.25
675.279	478.01
675.688	478.17
676.097	480.9
676.506	479.72
676.915	489.01
677.323	491.86
677.732	492.22
678.141	492.97
678.549	485.58
678.958	486.27
679.366	486.84
679.775	491.17
680.183	501.89
680.592	508.32
681	515.59
681.408	515.49
681.816	523.5
682.224	533.14
682.632	545.84
683.04	572.83
683.448	596.01
683.856	624.58
684.264	656.85
684.671	686.56
685.079	722.88
685.487	764.89
685.894	821.17
686.302	870.05
686.709	914.14
687.116	963.97
687.524	1007.81
687.931	1047.58
688.338	1085.44
688.745	1118.99
689.152	1157
689.559	1203.86
689.966	1250.04
690.373	1276.46
690.78	1321.27
691.187	1383.1
691.593	1433.78
692	1476.94
692.407	1537.61
692.813	1610.01
693.22	1668.98
693.626	1728.54
694.032	1775.9
694.439	1847.01
694.845	1902.16
695.251	1971.75
695.657	2034.92
696.063	2124.49
696.469	2190.94
696.875	2252.74
697.281	2286.59
697.687	2328.5
698.093	2362.58
698.498	2432.32
698.904	2484.91
699.31	2566.09
699.715	2621.29
700.12	2701.86
700.526	2717.89
700.931	2781.14
701.337	2825.83
701.742	2854.97
702.147	2931.48
702.552	2958.19
702.957	3010.32
703.362	3026.96
703.767	3050.7
704.172	3085
704.577	3041.4
704.981	3081.06
705.386	3092.47
705.791	3083.67
706.195	3148.38
706.6	3151.24
707.004	3219.42
707.408	3187.2
707.813	3209.63
708.217	3192.56
708.621	3190.84
709.025	3273.32
709.43	3271.57
709.834	3324.58
710.237	3384.69
710.641	3369.89
711.045	3388.73
711.449	3384.04
711.853	3407.68
712.256	3439.57
712.66	3473.82
713.064	3538.13
713.467	3573.49
713.87	3669.6
714.274	3706.78
714.677	3801.25
715.08	3939.62
715.484	4085.82
715.887	4261.63
716.29	4434.25
716.693	4615.08
717.096	4822.87
717.499	4935.72
717.901	4953.24
718.304	4976.43
718.707	4992.67
719.109	4903.43
719.512	4874.69
719.915	4750.68
720.317	4697.22
720.719	4733.42
721.122	4705.7
721.524	4659.11
721.926	4623.44
722.328	4710.14
722.731	4696.11
723.133	4719.71
723.535	4882.97
723.937	4897.69
724.338	4942.6
724.74	4977.91
725.142	4935.79
725.544	4933.24
725.945	4957.9
726.347	4949.36
726.748	4941.93
727.15	4954.03
727.551	4918.47
727.952	4891.16
728.354	4862.32
728.755	4860.91
729.156	4820.57
729.557	4794.25
729.958	4682.9
730.359	4629.8
730.76	4612.89
731.161	4558.74
731.562	4536.44
731.962	4538.84
732.363	4483.46
732.763	4428.89
733.164	4458.2
733.564	4401.08
733.965	4315.88
734.365	4287.95
734.766	4313.06
735.166	4276.89
735.566	4226.97
735.966	4204.46
736.366	4198.82
736.766	4145.9
737.166	4171.15
737.566	4133.63
737.966	4108.98
738.365	4142.17
738.765	4137.64
739.165	4070.73
739.564	4047.27
739.964	4089.58
740.363	4046.5
740.763	4044.45
741.162	4034.27
741.561	4007.01
741.96	3968.4
742.36	3984.26
742.759	3987.58
743.158	4017.92
743.557	4030.77
743.955	4066.53
744.354	4023.85
744.753	4073.71
745.152	4037.9
745.55	4083.67
745.949	4077.42
746.348	4078.12
746.746	4091.52
747.144	4058.97
747.543	4038.34
747.941	4080.43
748.339	4018.1
748.737	4011.18
749.136	4004.41
749.534	4059.97
749.932	4036.12
750.33	4055.08
750.727	4102.61
751.125	4084.81
751.523	4068.75
751.921	4108.04
752.318	4077.79
752.716	4129.98
753.113	4141.79
753.511	4160.54
753.908	4159.68
754.305	4144.37
754.703	4195
755.1	4248.41
755.497	4296.93
755.894	4460.99
756.291	4610.65
756.688	4891.67
757.085	5264.23
757.482	5790.51
757.878	6366.93
758.275	6887.11
758.672	7602.41
759.068	8186.5
759.465	9007.77
759.861	10073.06
760.258	11308.65
760.654	11953.72
761.05	11857.47
761.447	11314.98
761.843	10531.2
762.239	9724.4
762.635	9356.86
763.031	9009.19
763.427	8509.98
763.822	7985.67
764.218	7469.23
764.614	6792.12
765.01	6339.68
765.405	6045.03
765.801	5823.86
766.196	5542.31
766.592	5385.27
766.987	5119.17
767.382	4935.71
767.778	4860.8
768.173	4751.12
768.568	4689.78
768.963	4583.37
769.358	4598.3
769.753	4560.5
770.148	4488.75
770.542	4486.7
770.937	4460.34
771.332	4536.92
771.726	4555.21
772.121	4502.96
772.515	4549.5
772.91	4535.39
773.304	4596.16
773.699	4539.09
774.093	4583.49
774.487	4633.26
774.881	4673.15
775.275	4669.39
775.669	4633.74
776.063	4668.76
776.457	4697.06
776.851	4632.4
777.245	4627.34
777.638	4652.97
778.032	4752.26
778.425	4722.16
778.819	4753.4
779.212	4715.52
779.606	4681.15
779.999	4697.36
780.392	4685.41
780.786	4755.33
781.179	4772.28
781.572	4806.76
781.965	4821.25
782.358	4769.56
782.751	4816.41
783.143	4776.25
783.536	4838.09
783.929	4873.74
784.322	4970.79
784.714	4993.05
785.107	4989.53
785.499	5053.34
785.891	5034.8
786.284	5018.61
786.676	5141.54
787.068	5127.39
787.46	5171.43
787.852	5189.83
788.245	5262.72
788.636	5288.79
789.028	5351.74
789.42	5387.07
789.812	5392.48
790.204	5475.51
790.595	5560.48
790.987	5391.76
791.378	5407.62
791.77	5518.33
792.161	5634.05
792.553	5685.2
792.944	5589.11
793.335	5527.96
793.726	5586.91
794.117	5668.41
794.508	5786.75
794.899	5761.6
795.29	5886.09
795.681	5937.36
796.072	5820.36
796.463	5670.66
796.853	5679.83
797.244	5819.08
797.634	5852.06
798.025	5854.26
798.415	5862.12
798.806	5939.34
799.196	6012.81
799.586	6056.81
799.976	6028.55
800.366	6222.82
800.756	6420.62
801.146	6384.2
801.536	6410.15
801.926	6472.47
802.316	6497.88
802.706	6562.81
803.095	6461.42
803.485	6548.92
803.874	6580.85
804.264	6803.93
804.653	6787.03
805.043	6910.46
805.432	7005.62
805.821	7010.68
806.21	7029.16
806.599	7130.57
806.988	7166.75
807.377	7256.13
807.766	7365.12
808.155	7610.8
808.544	7381.4
808.933	7392.14
809.321	7377.33
809.71	7629.49
810.098	7759.89
810.487	8154.06
810.875	8562.36
811.264	8578.87
811.652	8827.58
812.04	8958.75
812.428	9101.77
812.816	9755.64
813.204	10113.1
813.592	10583.93
813.98	10873.67
814.368	10793.3
814.756	11208.05
815.144	11142.85
815.531	11551.06
815.919	11484.93
816.306	11744.8
816.694	11478.6
817.081	11529.72
817.469	11825.43
817.856	11825.95
818.243	12058.04
818.63	12397.62
819.017	12035.79
819.404	12085.91
819.791	12402.78
820.178	12928.14
820.565	13137.44
820.952	13928.36
821.339	13501.92
821.725	13663.24
822.112	13028
822.498	12994.87
822.885	13104.31
823.271	13019.32
823.657	13378.94
824.044	13386.02
824.43	13447.65
824.816	13430.96
825.202	13060.58
825.588	13931.42
825.974	13943.13
826.36	14377.75
826.746	14402.24
827.132	14704.29
827.517	14687.99
827.903	14018.59
828.289	14065.07
828.674	13404.8
829.06	13312.36
829.445	13651.12
829.83	13957.4
830.216	14368.47
830.601	14692.99
830.986	14347.59
831.371	14229.32
831.756	14713.11
832.141	14349.5
832.526	14339.8
832.911	14584.59
833.295	14475.18
833.68	14877.23
834.065	14345.8
834.449	13561.51
834.834	13495.28
835.218	13488.87
835.603	13783.7
835.987	13597.09
836.371	14299.17
836.755	14196.91
837.139	14532.71
837.524	14742.62
837.908	14587.16
838.291	14633.9
838.675	14686.93
839.059	14858.59
839.443	14844.77
839.827	14639.95
840.21	15046.02
840.594	14918.27
840.977	15101.18
841.361	15078.16
841.744	15394.44
842.127	15261.45
842.511	15466.19
842.894	15966.92
843.277	16286.54
843.66	16741.3
844.043	16811.37
844.426	16121.87
844.809	15857.56
845.191	15883.16
845.574	15490.7
845.957	15177.58
846.339	15084.92
846.722	14636.73
847.104	14687.76
847.487	14533.82
847.869	14540.5
848.252	14771.2
848.634	15048.02
849.016	15268.61
849.398	15365.9
849.78	16075.31
850.162	16085.43
850.544	16424.65
850.926	16949.73
851.307	16880.86
851.689	17115.23
852.071	17498.98
852.452	17781.81
852.834	17759.13
853.215	18096.66
853.597	18220.46
853.978	18479.84
854.359	18857.7
854.741	18022.75
855.122	17940.28
855.503	17696.27
855.884	17808.45
856.265	17759.77
856.646	17854.78
857.026	17528.67
857.407	17466.36
857.788	17606.64
858.169	17840.66
858.549	17118.44
858.93	17654.89
859.31	17704.57
859.69	17885.11
860.071	17545.58
860.451	17366.95
860.831	16738.91
861.211	17721.21
861.591	18187.27
861.971	18173.28
862.351	18336.99
862.731	18671.73
863.111	18887.1
863.491	19166.19
863.87	19908.79
864.25	20207.37
864.629	19866.82
865.009	20301.78
865.388	21021.66
865.768	22541.13
866.147	22447.72
866.526	21217.5
866.905	21469.14
867.284	22680.07
867.663	21535.41
868.042	20636.7
868.421	20566.64
868.8	20904.28
869.179	21112.18
869.558	19878.83
869.936	18318.37
870.315	18645.01
870.693	19103.26
871.072	20609.07
871.45	19631.81
871.828	19881.6
872.207	20907.94
872.585	20604.93
872.963	21184.02
873.341	20463.39
873.719	20231.38
874.097	19991.97
874.475	20367.35
874.853	20828.33
875.23	19961.25
875.608	20789.73
875.986	22486.84
876.363	21505.26
876.741	22155.49
877.118	21582.71
877.495	22623
877.873	22995.41
878.25	24193.71
878.627	23213.21
879.004	23534.96
879.381	23424.02
879.758	22808.29
880.135	21246.68
880.512	22477.61
880.889	21869.28
881.265	21633.51
881.642	21466.52
882.019	21826.9
882.395	21388.91
882.772	22235.4
883.148	21270.61
883.524	21182.01
883.901	21057.73
884.277	21362.76
884.653	21200.49
885.029	21817.24
885.405	24161.56
885.781	23963.79
886.157	22974.86
886.532	23244.03
886.908	23221.32
887.284	25818.45
887.659	26645.29
888.035	27471.27
888.411	28166.78
888.786	28544.52
889.161	29529.39
889.537	28974.94
889.912	29886.7
890.287	29843.19
890.662	30596.8
891.037	30031.91
891.412	27990.96
891.787	27693.56
892.162	26721.93
892.536	27344.57
892.911	26308.3
893.286	25747.53
893.66	24698.35
894.035	25329.79
894.409	27574.18
894.784	26462.7
895.158	26895.89
895.532	28484.32
895.906	29266.36
896.281	29937.01
896.655	29448.46
897.029	33657.74
897.402	35033.73
897.776	39019.65
898.15	38901.81
898.524	38505.02
898.898	39018.47
899.271	43686.52
899.645	37838.06
900.018	36340.49
900.392	37684.69
900.765	37987.47
901.138	35155.16
901.511	34638.95
901.884	31798.6
902.258	29315.7
902.631	30277.16
903.003	34829.76
903.376	31432.34
903.749	35249.49
904.122	37755.51
904.495	41594.53
904.867	42143.6
905.24	36589.99
905.612	34056.77
905.985	34842.34
906.357	36430.98
906.729	34778.88
907.102	29710.17
907.474	28582.18
907.846	28766.92
908.218	28376.77
908.59	25088.75
908.962	24262.73
909.334	26141.97
909.705	27478.22
910.077	26668.03
910.449	27775.39
910.82	28563.74
911.192	31457.82
911.563	32692.01
911.935	34978.01
912.306	35023.38
912.677	36175.51
913.048	35837.38
913.419	38869.1
913.79	39079.12
914.161	41934.12
914.532	40092.3
914.903	36837.74
915.274	34987.5
915.645	34484.93
916.015	30352.37
916.386	28952.66
916.756	30797.72
917.127	31759.76
917.497	28384.71
917.868	30877.88
918.238	29330.91
918.608	30159.83
918.978	30772.51
919.348	32571.72
919.718	33642.2
920.088	32423.65
920.458	33703.67
920.828	35479.92
921.198	33658.62
921.567	35937.24
921.937	27845.05
922.306	28109.71
922.676	30313.55
923.045	25307.35
923.415	24056.25
923.784	21923.45
924.153	22547.83
924.522	22524.34
924.891	21175.39
925.26	22670.7
925.629	22139.55
925.998	25465.68
926.367	24871.89
926.736	23707.68
927.104	28230.66
927.473	30341.88
927.842	36634.68
928.21	36279.48
928.578	38121.79
928.947	36041.17
929.315	36248.88
929.683	42480.07
930.051	42813
930.42	49703.25
930.788	42445.8
931.156	42132.42
931.523	39522.37
931.891	36507.41
932.259	35047.3
932.627	40606.59
932.994	57426.74
933.362	47447.56
933.729	41245.4
934.097	39488.14
934.464	33394.04
934.831	38500.7
935.199	37938.38
935.566	36758.75
935.933	37205.65
936.3	45055.71
936.667	35064.89
937.034	31653.11
937.401	31312.62
937.767	26999.39
938.134	24001.71
938.501	33839.09
938.867	36096.68
939.234	61019.08
939.6	52084.83
939.967	57471.45
940.333	38502.02
940.699	32809.83
941.065	26338.92
941.431	34540.87
941.798	33369.33
942.163	43882.9
942.529	27438.91
942.895	25273.33
943.261	16333.86
943.627	21436.01
943.992	18774.99
944.358	18802.83
944.723	18877.32
945.089	18414.28
945.454	17000.69
945.82	18144.71
946.185	17420.01
946.55	20191.53
946.915	18110.92
947.28	21292.77
947.645	18754.59
948.01	17306.03
948.375	18040.64
948.74	21601.39
949.104	25165.65
949.469	36368.94
949.834	64204.81
950.198	60885.67
950.562	36502.67
950.927	30430.43
951.291	36592.46
951.655	31127.47
952.02	29215.24
952.384	22091.5
952.748	19267.36
953.112	18811.11
953.476	16355.65
953.839	15139.79
954.203	15006.68
954.567	18761.36
954.931	29534.6
955.294	25302.36
955.658	25463.24
956.021	43331.03
956.385	73505.74
956.748	108291.47
957.111	167893.16
957.474	188690.88
957.837	212432.95
958.2	160594.84
958.563	57777.77
958.926	39019.28
959.289	59203.59
959.652	66148.81
960.015	49679.1
960.377	71289.87
960.74	81435.55
961.102	140461.05
961.465	150757.01
961.827	80871.8
962.189	155275.73
962.552	107540.17
962.914	86336.94
963.276	55929.5
963.638	46220.05
964	45695.29
964.362	30899.31
964.724	29855.74
965.085	21302.51
965.447	17468.19
965.809	19881.68
966.17	19898.69
966.532	21567.29
966.893	19777.67
967.255	18009.42
967.616	21247.18
967.977	17034.87
968.338	18613.65
968.699	15307.28
969.061	15296.19
969.421	15384.65
969.782	17264.37
970.143	14579.53
970.504	15109.68
970.865	17187.22
971.225	17595.71
971.586	17232.26
971.946	24525.8
972.307	21261.36
972.667	27775.68
973.027	28604.97
973.388	34683.27
973.748	23565.85
974.108	25689.89
974.468	34672.02
974.828	26750.3
975.188	20567.28
975.548	18877.55
975.907	15879.94
976.267	17833.33
976.627	14988.07
976.986	15547.68
977.346	14832.04
977.705	14268.65
978.064	12985.95
978.424	10810.84
978.783	11154.73
979.142	12720.6
979.501	12170.9
979.86	12867.7
980.219	12377.3
980.578	15959.99
980.937	17854.04
981.296	15914
981.654	16392.38
982.013	25477.82
982.371	33077.94
982.73	30907.88
983.088	35032.72
983.447	37481.05
983.805	53516.64
984.163	111997.81
984.521	124286.56
984.879	182292.36
985.237	-296488.35
985.595	286061.92
985.953	71056.43
986.311	41063.19
986.669	23858.42
987.026	20570.48
987.384	27636.81
987.741	28632.43
988.099	20476.41
988.456	16315.95
988.814	15319.08
989.171	13313.18
989.528	13114.24
989.885	13832.2
990.242	10952.51
990.599	13626.6
990.956	11143.08
991.313	7776.99
991.67	6376.89
992.027	6771.7
992.383	6019.8
992.74	5265.33
993.096	5528.5
993.453	5727.64
993.809	5952.62
994.165	7928.77
994.522	7297.51
994.878	8043.96
995.234	10120.24
995.59	9966.29
995.946	9397.27
996.302	10737.54
996.658	12427.03
997.013	13688.13
997.369	16273.98
997.725	20854.64
998.08	13504.9
998.436	20731.79
998.791	28608.84
999.147	28559
999.502	31138.75
999.857	22675.82
1000.212	36948.2
1000.567	52590.27
1000.922	30317.52
1001.277	19262.04
1001.632	14309.83
1001.987	18452.44
1002.342	13266.05
1002.696	10615.43
1003.051	8469.77
1003.406	10280.04
1003.76	10217.89
1004.114	10075.17
1004.469	8476.9
1004.823	7011.25
1005.177	7544.41
1005.531	5971.85
1005.885	5318.83
1006.239	5997.45
1006.593	7533.23
1006.947	10099.18
1007.301	7576.61
1007.655	8267.79
1008.008	6061.49
1008.362	6815.96
1008.715	9773.34
1009.069	8895.59
1009.422	13425.47
1009.776	26831.82
1010.129	17777.47
1010.482	14815.11
1010.835	12486.83
1011.188	25978.32
1011.541	24509.98
1011.894	-149983.02
1012.247	440913.77
1012.6	29974.23
1012.952	18912.31
1013.305	9680.5
1013.657	7004.12
1014.01	6639.78
1014.362	5491.61
1014.715	4920.9
1015.067	4298.44
1015.419	4203.14
1015.771	3721.85
1016.123	3311.32
1016.475	3394.67
1016.827	3622.57
1017.179	3916.96
1017.531	3926.18
1017.883	4034.63
1018.234	3914.01
1018.586	4910.83
1018.938	5227.47
1019.289	7215.29
1019.64	8248.99
1019.992	7703.07
1020.343	7044.74
1020.694	5574.15
1021.045	4908.87
1021.396	5611.15
1021.747	5995.99
1022.098	7151.74
1022.449	5187.91
1022.8	4787.68
1023.151	3323.37
1023.501	2959.22
1023.852	3209.23
1024.202	3337.63
1024.553	3652.29
1024.903	3579.18
1025.253	3074.06
1025.604	2765.19
1025.954	3442.37
1026.304	4196.74
1026.654	4888.22
1027.004	7162.22
1027.354	11551.93
1027.703	10890.07
1028.053	14345.9
1028.403	21245.55
1028.753	30801
1029.102	41889.18
1029.452	215737.19
1029.801	9311.52
1030.15	6022.63
1030.499	5114.37
897.758	2861.67
901.051	2829.28
904.343	2862.37
907.636	2859.25
910.928	2925.34
914.22	2833.93
917.511	2843.9
920.803	2914.08
924.094	2940.35
927.384	2907.79
930.675	2873.16
933.965	2822.97
937.255	2825.2
940.544	2795.37
943.834	2709.58
947.123	2657.67
950.411	2754.58
953.7	2723.25
956.988	2684.23
960.276	2628.66
963.563	2721.77
966.851	2711.25
970.138	2774.18
973.424	2761.88
976.711	2709.82
979.997	2878.9
983.283	2906.7
986.568	2800.19
989.853	2828.97
993.138	2853.99
996.423	2935.39
999.708	2865.32
1002.992	2946.42
1006.275	2751.08
1009.559	2815.52
1012.842	2936.81
1016.125	2863.34
1019.408	2841.77
1022.69	2939.84
1025.972	2953.98
1029.254	2928.37
1032.536	2848.54
1035.817	2881.1
1039.098	2808.52
1042.379	2993.65
1045.659	2976.95
1048.939	2902.09
1052.219	2924.33
1055.498	2945.01
1058.778	2925.78
1062.057	2911.31
1065.335	2931.4
1068.614	2954.5
1071.892	2929.57
1075.17	3016.54
1078.447	2996.9
1081.724	2986.08
1085.001	3030.07
1088.278	3002.17
1091.554	3017.44
1094.83	3015.44
1098.106	3042.06
1101.382	3090.69
1104.657	3091.88
1107.932	3088.96
1111.206	3046.45
1114.481	3004.35
1117.755	3010.63
1121.029	2982.92
1124.302	3033.96
1127.575	2977.89
1130.848	2962.52
1134.121	2916.7
1137.393	2863.17
1140.665	2932.18
1143.937	2903.08
1147.208	2870.91
1150.48	2904.14
1153.75	2887.26
1157.021	2930.51
1160.291	2895.45
1163.561	2939.57
1166.831	2937.96
1170.101	2972.47
1173.37	2952.05
1176.639	2890.11
1179.907	2959.05
1183.176	2954.37
1186.444	2965.74
1189.711	2994.54
1192.979	2999
1196.246	2961.95
1199.513	2977.24
1202.78	2973.04
1206.046	2983.13
1209.312	3008.56
1212.578	3037.97
1215.843	2978.69
1219.108	2959.17
1222.373	2981.41
1225.638	2939.54
1228.902	2924.23
1232.166	2892.11
1235.43	2875.68
1238.693	2895.04
1241.956	2894.9
1245.219	2932.26
1248.482	2928.79
1251.744	2923.97
1255.006	3082.93
1258.268	3043.46
1261.529	2982.74
1264.79	2990.3
1268.051	3095.34
1271.312	3116.09
1274.572	3075.66
1277.832	3064.08
1281.092	3055.59
1284.351	3019.6
1287.61	2995.54
1290.869	2903.89
1294.128	2868.16
1297.386	2979.24
1300.644	2966.48
1303.902	2977
1307.159	2829.27
1310.416	2885.61
1313.673	2908.41
1316.93	2892.15
1320.186	2943.52
1323.442	2990.66
1326.697	2973.37
1329.953	2974.14
1333.208	2986.23
1336.463	2971.23
1339.717	2900.98
1342.972	3051.38
1346.226	3032.18
1349.479	2957.45
1352.733	2921.62
1355.986	2953.4
1359.238	2928.45
1362.491	2930.48
1365.743	2934.97
1368.995	2934.1
1372.247	2946.56
1375.498	2973.42
1378.749	2975.91
1382	2933.32
1385.251	2993.84
1388.501	2960.95
1391.751	2938.87
1395	2912.87
1398.25	2948.08
1401.499	2949.22
1404.748	2867.47
1407.996	2863.54
1411.244	2847.66
1414.492	2824.26
1417.74	2801.52
1420.987	2817.29
1424.234	2870.01
1427.481	2857.85
1430.728	2915.53
1433.974	2889.99
1437.22	2911.83
1440.465	2916.47
1443.711	2865.11
1446.956	2905.57
1450.201	2898.75
1453.445	2943.32
1456.689	2916.82
1459.933	2933.18
1463.177	2960.49
1466.42	2932.31
1469.663	2911.44
1472.906	2894.44
1476.148	2990.47
1479.391	2928.35
1482.633	2905.31
1485.874	2911.08
1489.115	2889.83
1492.356	2900.29
1495.597	2874.13
1498.838	2881.5
1502.078	2845.05
1505.318	2783.74
1508.557	2832.95
1511.797	2787.96
1515.036	2887.45
1518.274	2874.61
1521.513	2855.61
1524.751	2880.68
1527.989	2891.93
1531.227	2900.98
1534.464	2884.07
1537.701	2916.78
1540.938	2938.39
1544.174	2894.23
1547.41	2895.59
1550.646	2936.61
1553.882	2965.88
1557.117	3018.96
1560.352	3037.65
1563.587	2991.08
1566.821	2947.04
1570.055	2990.62
1573.289	2956.87
1576.523	3040.59
1579.756	3042.69
1582.989	3062.24
1586.222	3021.08
1589.454	3065.01
1592.686	3030.7
1595.918	3052.38
1599.15	3037.58
1602.381	3129.18
1605.612	3073.24
1608.843	3170.56
1612.073	3077.59
1615.303	3058.21
1618.533	3046.82
1621.762	3050.51
1624.992	3045.18
1628.221	3025.73
1631.449	3011.95
1634.678	3079.54
1637.906	3026.51
1641.134	3072.56
1644.361	3023.14
1647.588	3013.53
1650.815	3027.56
1654.042	3012.76
1657.269	3046.1
1660.495	2987.38
1663.72	2988.51
1666.946	2954.34
1670.171	2884.06
1673.396	2861.26
1676.621	2851.61
1679.845	2883.77
1683.069	2907.62
1686.293	2960.44
1689.517	2919.57
1692.74	2836.46
1695.963	2871.86
1699.185	2908.26
1702.408	2881.47
1705.63	2929.84
1708.852	2938.5
1712.073	2912
1715.294	2886.21
1718.515	2955.8
1721.736	2893.51
1724.956	2897.36
1728.176	2927.42
1731.396	2946.08
1734.616	2939.13
1737.835	2962.34
1741.054	2942.79
1744.272	2937.22
1747.491	2963.16
1750.709	3029.82
1753.927	2915.59
1757.144	2969.84
1760.361	3004.7
1763.578	3004.68
1766.795	2941.51
1770.011	2951.21
1773.227	3001.15
1776.443	3034.62
1779.658	3079.41
1782.874	3024.55
1786.089	2995.45
1789.303	3000.49
1792.518	3007.41
1795.732	2997.13
1798.945	3002.7
1802.159	3056.89
1805.372	2943.74
1808.585	2923.89
1811.797	2924.4
1815.01	2986.17
1818.222	2984.43
1821.434	2929.84
1824.645	3000.48
1827.856	2976.18
1831.067	3009.47
1834.278	2979.68
1837.488	2963.04
1840.698	3125.92
1843.908	3039.98
1847.117	3002.79
1850.326	2864.44
1853.535	2987.64
1856.744	3043.05
1859.952	2950.76
1863.16	2948.21
1866.368	2976.77
1869.575	3076.68
1872.782	2963.2
1875.989	2901.85
1879.196	3005.61
1882.402	2999.38
1885.608	3044.23
1888.814	2927.73
1892.019	2817.79
1895.224	2866.89
1898.429	2858.93
1901.634	2834.08
1904.838	2813.68
1908.042	2858.23
1911.246	2865.5
1914.449	2779.78
1917.652	2784.49
1920.855	2767.34
1924.058	2828.69
1927.26	2862.71
1930.462	2893.66
1933.664	2911.89
1936.865	2845.55
1940.066	2846.65
1943.267	2797.3
1946.467	2815.23
1949.668	2846.65
1952.868	2914.23
1956.067	2885.47
1959.267	2810.63
1962.466	2839.24
1965.665	2828.08
1968.863	2827.18
1972.061	2847.06
1975.259	2847.88
1978.457	2931.29
1981.654	2886.61
1984.852	2886.88
1988.048	2808.04
1991.245	2817.3
1994.441	2902.97
1997.637	2903.54
2000.833	2883.91
2004.028	2922.65
2007.223	2974.87
2010.418	2949.35
2013.613	2913.07
2016.807	2873.63
2020.001	2886.09
2023.194	2939.17
2026.388	2915.27
2029.581	2859.67
2032.774	2900.96
2035.966	2901.94
2039.158	2827.56
2042.35	2858.25
2045.542	2785.85
2048.733	2896.44
2051.924	2931.7
2055.115	2963.7
2058.306	2898.11
2061.496	2956.41
2064.686	3030.08
2067.875	2943.81
2071.065	2964.03
2074.254	2996.71
2077.442	2947.56
2080.631	3040
2083.819	2911.85
2087.007	2889.1
2090.195	2855.73
2093.382	2899.17
2096.569	2877.9
2099.756	2827.53
2102.942	2843.82
2106.128	2847.08
2109.314	2839.82
2112.5	2791.56
2115.685	2774.99
2118.87	2784.46
2122.055	2852.52
2125.239	2812.5
2128.424	2778.6
2131.608	2903.81
2134.791	2878.78
2137.974	2948.98
2141.157	2930.13
2144.34	2872.78
2147.523	2897.32
2150.705	2901.8
2153.887	2886.99
2157.068	2826.47
2160.25	2837.17
2163.431	2882.69
2166.611	2816.9
2169.792	2834.05
2172.972	2718.03
2176.152	2811.22
2179.331	2849.15
2182.511	2823.16
2185.69	2855.2
2188.868	2846.2
2192.047	2912.44
2195.225	2890.58
2198.403	2840.27
2201.58	2835.57
2204.758	2835.27
2207.935	2919.81
2211.111	2798.21
2214.288	2779.51
2217.464	2823.09
2220.64	2800.67
2223.815	2859.21
2226.991	2776.07
2230.166	2795.78
2233.34	2820.75
2236.515	2850.29
2239.689	2929.7
2242.863	2872.37
2246.036	2927.32
2249.209	2937.31
2252.382	2978.84
2255.555	2956.08
2258.727	2886.46
2261.9	2930.54
2265.071	2924.84
2268.243	2931.77
2271.414	2853.87
2274.585	2803.67
2277.756	2875.79
2280.926	2833.11
2284.096	2877.76
2287.266	2773.11
2290.436	2836.84
2293.605	2870.83
2296.774	2896.2
2299.942	2927.77
2303.111	2941.97
2306.279	2989.19
2309.447	2974.96
2312.614	2951.54
2315.781	2969.22
2318.948	2934.6
2322.115	2975.71
2325.281	2878.24
2328.447	2903.93
2331.613	2882.32
2334.779	2843.57
2337.944	2852.58
2341.109	2848.72
2344.274	2831.34
2347.438	2793.87
2350.602	2819
2353.766	2840.67
2356.929	2823.87
2360.092	2869.08
2363.255	2811.35
2366.418	2730.16
2369.58	2863.67
2372.742	2610.27
2375.904	2633.96
2379.066	2604.44
2382.227	2648.95
2385.388	2613.8
2388.548	2523.6
2391.709	2586
2394.869	2560.69
2398.029	2679.47
2401.188	2701.09
2404.347	2622.18
2407.506	2791.42
2410.665	2813.73
2413.823	2830.9
2416.981	2774.62
2420.139	2813.1
2423.296	2868.96
2426.453	2843.15
2429.61	2865.71
2432.767	2784.31
2435.923	2821.33
2439.079	2765.47
2442.235	2823.09
2445.391	2746.08
2448.546	2764.25
2451.701	2821.6
2454.855	2779.59
2458.009	2846.87
2461.163	2854.85
2464.317	2809.08
2467.471	2844.84
2470.624	2888.29
2473.777	2880.09
2476.929	2890.66
2480.082	2912.93
2483.234	2875.73
2486.385	2820.53
2489.537	2810.44
2492.688	2758.32
2495.839	2773.76
2498.989	2781.78
2502.14	2765.77
2505.29	2740.13
2508.439	2766.93
2511.589	2682.34
2514.738	2704.99
2517.887	2738.12
2521.035	2814.34
2524.183	2808.31
2527.331	2785.01
2530.479	2751.96
2533.627	2765.62
