Data from N_3_DEC_ON_6N_Splice17_13-37-26-302.txt Node
Date: Sat Mar 14 13:37:26 EDT 2020
User: sa697716
Spectrometer: FLMS03696
Trigger mode: 0
Integration Time (sec): 3.180400E-1
Scans to average: 20
Electric dark correction enabled: true
Nonlinearity correction enabled: true
Boxcar width: 5
XAxis mode: Wavelengths
Number of Pixels in Spectrum: 2048
>>>>>Begin Spectral Data<<<<<
187.83	-464205.91
188.298	3259.25
188.766	1724.99
189.233	1591.79
189.701	2228.42
190.169	3167.75
190.636	1207.73
191.104	1003.83
191.571	150.79
192.039	-88.91
192.506	-31.74
192.974	790.27
193.441	-1229.31
193.908	-467.72
194.375	-109.55
194.842	3.89
195.31	122.69
195.777	195.84
196.244	455.81
196.711	518.85
197.177	658.21
197.644	937.11
198.111	1641.59
198.578	2239.05
199.045	1808.87
199.511	2930.91
199.978	3391.31
200.445	2907.86
200.911	3204.11
201.378	3574.9
201.844	3233.94
202.31	5510.04
202.777	5703.49
203.243	3148.98
203.709	3013.8
204.176	3560.57
204.642	2946.49
205.108	2745.81
205.574	2226.4
206.04	2019.52
206.506	1902.39
206.972	1794.24
207.438	1726.73
207.903	1963.11
208.369	1724.56
208.835	1711.91
209.301	1793.85
209.766	1820.04
210.232	1801.35
210.697	2210.99
211.163	2728.8
211.628	4081.71
212.094	3400.49
212.559	4188.38
213.024	2591
213.49	3150.62
213.955	3090.73
214.42	2976.26
214.885	2751.95
215.35	2635.7
215.815	2546.36
216.28	2688.4
216.745	2170.5
217.21	2336.2
217.675	2092.96
218.14	2336.16
218.604	2548.14
219.069	2852.91
219.534	2993.46
219.998	3427.53
220.463	4087.85
220.927	4932.64
221.392	4601.68
221.856	4620.87
222.32	5753.7
222.785	7083.35
223.249	8869.33
223.713	9895.26
224.177	9867.45
224.642	12552.07
225.106	15376.92
225.57	16770.1
226.034	12512.43
226.497	19039.27
226.961	17200.41
227.425	20000.83
227.889	22127.32
228.353	22085.91
228.816	45441.67
229.28	43426.06
229.744	36630.78
230.207	22273.25
230.671	21898.18
231.134	36106.89
231.597	41635.55
232.061	41530.6
232.524	40473.28
232.987	27866
233.45	25086.25
233.914	22525.17
234.377	23047.78
234.84	21037.66
235.303	24799
235.766	27623.45
236.229	28484.94
236.691	17893.44
237.154	20090.21
237.617	15117.17
238.08	15485.22
238.542	18083.86
239.005	12945.11
239.468	12837.63
239.93	12124.39
240.393	11030.87
240.855	9693.54
241.317	9932.16
241.78	12073.97
242.242	12499.76
242.704	13526.32
243.166	11773.44
243.629	10742.76
244.091	12356.06
244.553	13570.27
245.015	14593.91
245.477	18848.33
245.939	27645.89
246.4	29333.84
246.862	28524.63
247.324	26899.76
247.786	30078.28
248.247	39468.42
248.709	40592.34
249.17	30377.55
249.632	28654.69
250.093	33302.7
250.555	28809.05
251.016	17597.4
251.477	16719.26
251.939	18075.79
252.4	18969.97
252.861	22538.51
253.322	20985.66
253.783	25000.76
254.244	32452.58
254.705	25582.72
255.166	22704.7
255.627	22363.99
256.088	31598.07
256.549	33588.87
257.009	28912.9
257.47	35112.63
257.931	28632.18
258.391	21460.61
258.852	22131.54
259.312	23197.13
259.773	28679.72
260.233	24299.14
260.694	20528.16
261.154	23262.51
261.614	18723.5
262.074	16756.77
262.534	17420.06
262.994	16445.83
263.455	21928.73
263.915	18502.99
264.374	17448.64
264.834	19059.95
265.294	21114.47
265.754	21891.75
266.214	20712.7
266.673	19407.88
267.133	24508.68
267.593	24328.57
268.052	29792.89
268.512	25919.44
268.971	31313.24
269.431	34344.19
269.89	30768.1
270.349	46130.89
270.809	51490.5
271.268	46383.09
271.727	103929.53
272.186	67341.1
272.645	50547.96
273.104	36462.3
273.563	52846.94
274.022	41556.12
274.481	35443.88
274.94	27334.18
275.399	20336
275.857	23694.68
276.316	32062.98
276.775	28575.4
277.233	28197.57
277.692	26439.75
278.15	29957.91
278.609	30889.63
279.067	28615.63
279.525	26593.77
279.984	34402.58
280.442	41355.73
280.9	40830.55
281.358	26897.32
281.816	25098.95
282.274	24593.51
282.732	25388.13
283.19	25528.17
283.648	22038.41
284.106	23493.29
284.564	23902.9
285.021	22178.22
285.479	16537.22
285.937	15038.03
286.394	13200.86
286.852	13603.26
287.309	14308.28
287.767	13866.15
288.224	13178.47
288.682	14456.89
289.139	15869.8
289.596	14526.31
290.053	15114.13
290.511	19099.69
290.968	23188.29
291.425	31479.32
291.882	26257.34
292.339	22886.52
292.796	22692.02
293.252	21390.89
293.709	17027.43
294.166	15277.44
294.623	16901.6
295.079	16214.02
295.536	16319.09
295.992	14829.19
296.449	14689.13
296.905	15255.53
297.362	14659.3
297.818	15437.45
298.274	16054.98
298.731	16366.61
299.187	16197.85
299.643	17411.61
300.099	21054.8
300.555	23088.97
301.011	19294.77
301.467	18633.22
301.923	21791.28
302.379	21254.19
302.835	20882.29
303.291	20916.18
303.746	23783.57
304.202	30126.74
304.658	30277.68
305.113	20383.17
305.569	20009.63
306.024	21324.49
306.479	20253.46
306.935	17092.12
307.39	18640.95
307.845	17236.51
308.301	17373.37
308.756	16949.15
309.211	16306.62
309.666	16682.93
310.121	20761.74
310.576	21058.76
311.031	20931.01
311.486	23991.35
311.94	24020.87
312.395	32172.66
312.85	60501.34
313.305	296701.33
313.759	1538919.22
314.214	111658.99
314.668	88773.14
315.123	74790.26
315.577	26874.14
316.032	23910.37
316.486	30048.55
316.94	23723.54
317.394	16565.28
317.849	12882.2
318.303	12206.97
318.757	11533.02
319.211	12783.48
319.665	11183.42
320.119	11304.03
320.572	16202.01
321.026	15169.49
321.48	12625.55
321.934	13776.57
322.387	13823.17
322.841	14947.45
323.295	13487.11
323.748	15501.68
324.202	15698.82
324.655	18859.53
325.108	26413.51
325.562	18659.28
326.015	22191.15
326.468	16784.99
326.921	18794.35
327.374	17485.82
327.827	18215.76
328.28	20607.92
328.733	13852.99
329.186	12199.83
329.639	11637.93
330.092	9787.97
330.545	9329.16
330.997	9409.62
331.45	10285.43
331.903	12041.49
332.355	20769.17
332.808	20190.49
333.26	16645.61
333.713	18079.77
334.165	18168.79
334.617	24276.17
335.069	19594.68
335.522	35446.96
335.974	39266.47
336.426	35832.75
336.878	24812.53
337.33	12583.09
337.782	12287.53
338.234	15445.51
338.686	18441.74
339.137	21924.64
339.589	20631.23
340.041	16232.48
340.493	13962.01
340.944	14306.04
341.396	15449.87
341.847	13032.87
342.299	15406.63
342.75	18880.81
343.201	16457.74
343.653	18931.61
344.104	23270.59
344.555	18360.98
345.006	28535.89
345.457	21955.08
345.908	17462.42
346.359	16433
346.81	13395.2
347.261	14103.79
347.712	13865.27
348.163	14891.31
348.613	15116.7
349.064	14129.34
349.515	12377.64
349.965	12709.42
350.416	15292.24
350.866	16790.41
351.317	19008.8
351.767	31488.32
352.217	39826.65
352.668	33065.26
353.118	30286.36
353.568	29210.16
354.018	23084.29
354.468	24365.13
354.918	17489.6
355.368	15298.1
355.818	21612.75
356.268	62117.71
356.718	260299.85
357.168	64926.84
357.617	32565.13
358.067	36284.02
358.517	34027.45
358.966	40082.95
359.416	44990.27
359.865	48651.58
360.315	57906.73
360.764	27056.52
361.213	15230.71
361.663	14444.93
362.112	17858.81
362.561	28949.32
363.01	21894.8
363.459	18470.07
363.908	19988.89
364.357	17034.28
364.806	28866.8
365.255	19914.32
365.703	18320.75
366.152	18393.12
366.601	14963.71
367.05	12180.08
367.498	11089.71
367.947	11617.57
368.395	12125.87
368.844	10801.93
369.292	13067.22
369.74	9092.08
370.189	14008.24
370.637	16525.98
371.085	14323.35
371.533	17585.8
371.981	17057.29
372.429	16445.72
372.877	17281.79
373.325	14579.85
373.773	15009.79
374.221	13511.65
374.669	16929.91
375.116	14781.59
375.564	15047.96
376.012	17053.97
376.459	14220.35
376.907	17219.98
377.354	21063.98
377.801	19921.89
378.249	23227.27
378.696	30010.29
379.143	36801.83
379.591	39807.09
380.038	68327.52
380.485	50208.04
380.932	54961.62
381.379	51042.97
381.826	38165.74
382.273	27604.69
382.72	24504.12
383.166	24282.35
383.613	16022.49
384.06	14700.54
384.506	17280.5
384.953	12904.69
385.4	13186.28
385.846	11736.38
386.292	11629.64
386.739	11564.75
387.185	11587.9
387.631	11746.34
388.078	11551.89
388.524	12528.79
388.97	11720.17
389.416	9907.34
389.862	10650.55
390.308	10221.63
390.754	10492.77
391.2	11511.49
391.645	11907.14
392.091	11485.37
392.537	11211.36
392.983	11343.35
393.428	11239.58
393.874	12162.39
394.319	12300.34
394.765	11774.71
395.21	12216.33
395.655	11554.4
396.101	10906.76
396.546	9904.87
396.991	10080.68
397.436	9431.17
397.881	9177.07
398.326	8757.21
398.771	8317.35
399.216	7317.08
399.661	6623.54
400.106	6621.44
400.551	6803.57
400.995	6125.56
401.44	6080.42
401.885	5736.08
402.329	5808.59
402.774	5584.27
403.218	5404.48
403.663	5219
404.107	5373.03
404.551	5417.69
404.995	4980.29
405.44	4809.57
405.884	4891.18
406.328	4746.64
406.772	4737.89
407.216	4318.66
407.66	4178.27
408.104	3982.28
408.547	3732.64
408.991	3614.62
409.435	3482.08
409.879	3429.12
410.322	3383.18
410.766	3264.05
411.209	3095.97
411.653	2968.25
412.096	2906.49
412.54	2905.29
412.983	2885.74
413.426	2891.11
413.869	2888.51
414.312	2832.57
414.756	2729.9
415.199	2606
415.642	2529.98
416.085	2535.79
416.527	2519.36
416.97	2563.44
417.413	2434.66
417.856	2411.7
418.298	2389.89
418.741	2376.73
419.184	2375.77
419.626	2481.77
420.069	2483.19
420.511	2492.77
420.953	2436.35
421.396	2412.63
421.838	2349.07
422.28	2402.86
422.722	2411.41
423.164	2444.05
423.606	2400.05
424.048	2393.07
424.49	2265.82
424.932	2253.22
425.374	2224.95
425.816	2265.07
426.258	2307.81
426.699	2332.01
427.141	2293.43
427.582	2326.06
428.024	2312.58
428.465	2299.66
428.907	2237.78
429.348	2209.38
429.789	2199.81
430.231	2148.02
430.672	2171.57
431.113	2113.85
431.554	2078
431.995	2018.85
432.436	1940.95
432.877	1891.88
433.318	1851.96
433.759	1841.74
434.2	1838.31
434.64	1817.97
435.081	1819.24
435.522	1720.61
435.962	1655.45
436.403	1616.91
436.843	1642.52
437.284	1606.48
437.724	1565.71
438.164	1572.61
438.604	1541.28
439.045	1484.08
439.485	1424.52
439.925	1397.23
440.365	1366.67
440.805	1351.98
441.245	1337.72
441.685	1288.55
442.125	1284.08
442.564	1296.24
443.004	1269.24
443.444	1268.62
443.883	1275.12
444.323	1271.94
444.762	1279.41
445.202	1300.09
445.641	1326.92
446.081	1324.32
446.52	1339.53
446.959	1329.65
447.398	1297.59
447.837	1286.34
448.276	1268.34
448.716	1281.46
449.154	1296.55
449.593	1268.45
450.032	1267.95
450.471	1250.16
450.91	1252.84
451.349	1251.37
451.787	1249.14
452.226	1271.75
452.664	1274.76
453.103	1278.74
453.541	1281.67
453.98	1280.02
454.418	1292.92
454.856	1272.49
455.295	1271.07
455.733	1283.27
456.171	1295.09
456.609	1296.11
457.047	1298.11
457.485	1315.61
457.923	1318.9
458.361	1303.68
458.798	1309.74
459.236	1303.93
459.674	1314.22
460.111	1319.25
460.549	1306.48
460.987	1300.91
461.424	1297.91
461.862	1290.45
462.299	1270.97
462.736	1267.34
463.173	1269.37
463.611	1251.72
464.048	1248.75
464.485	1256.65
464.922	1245.4
465.359	1236.21
465.796	1212.59
466.233	1201.8
466.67	1186.65
467.106	1182.74
467.543	1171.1
467.98	1156.63
468.416	1127.18
468.853	1119.06
469.29	1086.08
469.726	1076.16
470.162	1049.74
470.599	1041.31
471.035	1034.53
471.471	1012.56
471.907	1008.86
472.344	1004.9
472.78	1006.73
473.216	1022.51
473.652	1012.55
474.088	1014.44
474.523	1012.23
474.959	1024.18
475.395	1018.08
475.831	1013.31
476.266	1021.66
476.702	1020.98
477.138	1012.33
477.573	1011.72
478.008	1010.17
478.444	1016.92
478.879	1026.85
479.314	1033.27
479.75	1034.81
480.185	1041.67
480.62	1053.3
481.055	1060.48
481.49	1070.4
481.925	1087.81
482.36	1108.05
482.795	1140.97
483.229	1173.34
483.664	1200.21
484.099	1206.62
484.534	1227.8
484.968	1240.93
485.403	1246.91
485.837	1248.47
486.271	1247.96
486.706	1250.96
487.14	1239.1
487.574	1220.82
488.009	1211.43
488.443	1201.93
488.877	1214.96
489.311	1219.84
489.745	1235.8
490.179	1247.26
490.613	1270.67
491.046	1281.82
491.48	1292.71
491.914	1295.59
492.348	1306.76
492.781	1316.14
493.215	1320.59
493.648	1325.18
494.082	1336.08
494.515	1337.8
494.948	1354.36
495.382	1365.16
495.815	1374.88
496.248	1385.98
496.681	1412.13
497.114	1435.38
497.547	1454.59
497.98	1478.81
498.413	1488.47
498.846	1506.7
499.279	1523.04
499.711	1529.9
500.144	1533.11
500.577	1551.04
501.009	1570.15
501.442	1585.85
501.874	1583.91
502.306	1585.11
502.739	1594.88
503.171	1619.91
503.603	1621.38
504.036	1634.04
504.468	1640.76
504.9	1655.72
505.332	1663.4
505.764	1663.57
506.196	1669.32
506.627	1688.34
507.059	1704.06
507.491	1713.66
507.923	1701.82
508.354	1719.55
508.786	1727.94
509.217	1748.94
509.649	1765.59
510.08	1786.33
510.512	1804.48
510.943	1817.86
511.374	1826.09
511.805	1849.03
512.237	1870.06
512.668	1910.84
513.099	1942.71
513.53	1976.2
513.961	1993.98
514.391	2029.98
514.822	2069.47
515.253	2111.91
515.684	2137.11
516.114	2166.34
516.545	2182.91
516.975	2204.89
517.406	2216.47
517.836	2204.61
518.267	2198.01
518.697	2211.55
519.127	2203.68
519.558	2198.29
519.988	2188.15
520.418	2189.69
520.848	2201.1
521.278	2199.44
521.708	2208.98
522.138	2214.97
522.567	2246.42
522.997	2270.85
523.427	2280.05
523.857	2291.29
524.286	2294.06
524.716	2304.79
525.145	2320.43
525.575	2325.71
526.004	2336.03
526.433	2317.79
526.863	2308.25
527.292	2285.44
527.721	2283.49
528.15	2283.54
528.579	2276.43
529.008	2283.94
529.437	2307.49
529.866	2319.29
530.295	2336.95
530.724	2348.13
531.152	2378.66
531.581	2392.47
532.01	2411.8
532.438	2418.04
532.867	2432.36
533.295	2452.64
533.723	2456.69
534.152	2450.36
534.58	2446.68
535.008	2421.77
535.436	2420.78
535.865	2426.92
536.293	2443.18
536.721	2460.42
537.149	2491.58
537.576	2492.94
538.004	2507.85
538.432	2515.76
538.86	2510.8
539.287	2516.2
539.715	2533.26
540.143	2534.96
540.57	2528.8
540.998	2522.25
541.425	2490.38
541.852	2460.51
542.28	2457.03
542.707	2433.89
543.134	2415.14
543.561	2408.9
543.988	2399.66
544.415	2397.45
544.842	2389.3
545.269	2379.4
545.696	2381.09
546.123	2398.56
546.549	2384.51
546.976	2367.49
547.403	2368.36
547.829	2370.85
548.256	2373.39
548.682	2368.41
549.108	2358.39
549.535	2359.99
549.961	2362.9
550.387	2347.71
550.813	2340.82
551.24	2350.4
551.666	2352.93
552.092	2340.38
552.518	2333.3
552.943	2329.1
553.369	2340.78
553.795	2350.66
554.221	2353.39
554.646	2352.2
555.072	2368.33
555.498	2378.42
555.923	2393.64
556.349	2416.02
556.774	2431.06
557.199	2437.3
557.625	2447.42
558.05	2443.95
558.475	2463.51
558.9	2466.26
559.325	2460.49
559.75	2456.5
560.175	2453.38
560.6	2450.45
561.025	2454.87
561.449	2462.8
561.874	2476.56
562.299	2488.41
562.723	2505.86
563.148	2497.33
563.572	2510.29
563.997	2530.64
564.421	2544.79
564.846	2552.95
565.27	2565.72
565.694	2569.65
566.118	2593.37
566.542	2610.08
566.966	2607.97
567.39	2608.6
567.814	2601.69
568.238	2608.9
568.662	2624.89
569.086	2637.88
569.509	2656.01
569.933	2642.56
570.357	2640.79
570.78	2618.27
571.204	2609.1
571.627	2603.65
572.05	2609.11
572.474	2617.54
572.897	2607.43
573.32	2604.77
573.743	2599.56
574.166	2581.26
574.589	2591.09
575.012	2589.06
575.435	2596.97
575.858	2592.43
576.281	2585.55
576.704	2571.28
577.126	2560.76
577.549	2552.74
577.972	2546.02
578.394	2537.02
578.817	2533.68
579.239	2512.37
579.661	2498.73
580.084	2482.31
580.506	2468.79
580.928	2469.21
581.35	2458.6
581.772	2459.27
582.194	2445.01
582.616	2431.07
583.038	2415.14
583.46	2404.33
583.882	2404.44
584.303	2415.98
584.725	2415.01
585.147	2421.43
585.568	2443.58
585.99	2469.16
586.411	2485.66
586.833	2514.3
587.254	2520.55
587.675	2549.16
588.096	2575.45
588.518	2570.55
588.939	2547.13
589.36	2546.37
589.781	2536.84
590.202	2493.28
590.623	2482.5
591.043	2481.65
591.464	2462.96
591.885	2460.48
592.305	2453.66
592.726	2434.47
593.147	2440.28
593.567	2435.8
593.987	2427.89
594.408	2421.72
594.828	2421.18
595.248	2412.85
595.669	2384.1
596.089	2374.89
596.509	2367.5
596.929	2347.34
597.349	2349.8
597.769	2335.39
598.189	2327.89
598.608	2331.28
599.028	2336.84
599.448	2340.2
599.867	2321.15
600.287	2316.25
600.706	2313.35
601.126	2299.15
601.545	2299.74
601.965	2299.52
602.384	2293.55
602.803	2301.48
603.222	2297.18
603.641	2290.01
604.061	2286.31
604.48	2283.91
604.898	2302.98
605.317	2315.5
605.736	2325.41
606.155	2325.77
606.574	2316.52
606.992	2330.26
607.411	2326.35
607.829	2317.2
608.248	2317.07
608.666	2320.13
609.085	2324.5
609.503	2314.48
609.921	2308.7
610.339	2315.94
610.758	2321.39
611.176	2319.03
611.594	2308.9
612.012	2308.99
612.43	2320.47
612.847	2338.51
613.265	2346.05
613.683	2360.62
614.101	2369.92
614.518	2370.1
614.936	2359.94
615.353	2338.93
615.771	2339.5
616.188	2347.8
616.606	2346.65
617.023	2340.66
617.44	2319.73
617.857	2313.58
618.274	2303.31
618.691	2297.12
619.108	2285.16
619.525	2277.97
619.942	2294.78
620.359	2303.72
620.776	2296.67
621.192	2292.41
621.609	2290.6
622.026	2305.98
622.442	2317.73
622.859	2327.05
623.275	2314.98
623.691	2327.12
624.108	2349.71
624.524	2378.31
624.94	2378.95
625.356	2399.79
625.772	2425.66
626.188	2449.38
626.604	2452.91
627.02	2448.41
627.436	2444.26
627.852	2458.58
628.268	2481.28
628.683	2467.31
629.099	2451.41
629.514	2445.68
629.93	2454.28
630.345	2465.8
630.761	2461.03
631.176	2468.43
631.591	2456.86
632.007	2447.88
632.422	2447.77
632.837	2429.9
633.252	2426.78
633.667	2410.08
634.082	2395.58
634.497	2373.8
634.911	2338.55
635.326	2333.81
635.741	2304.5
636.155	2291.58
636.57	2297.49
636.984	2299.33
637.399	2306.76
637.813	2310.87
638.228	2314.42
638.642	2328.06
639.056	2314.36
639.47	2320.66
639.884	2311.44
640.298	2306.61
640.712	2309.23
641.126	2291.4
641.54	2281.91
641.954	2280.02
642.368	2262.03
642.781	2250.94
643.195	2222.13
643.609	2228.52
644.022	2222.89
644.436	2220.06
644.849	2200.82
645.262	2182.85
645.676	2192.98
646.089	2187.56
646.502	2159.89
646.915	2153.78
647.328	2123.79
647.741	2123.01
648.154	2100.23
648.567	2096.47
648.98	2072.46
649.393	2076.33
649.805	2071.73
650.218	2059.02
650.631	2029.29
651.043	2019.12
651.456	2008.94
651.868	2015.45
652.28	2052.99
652.693	2083.77
653.105	2101.49
653.517	2125.27
653.929	2129.55
654.341	2144.74
654.753	2121.65
655.165	2139.46
655.577	2137.01
655.989	2131.41
656.401	2119.88
656.813	2048.85
657.224	2011.76
657.636	1957.03
658.047	1921.92
658.459	1886.38
658.87	1872.25
659.282	1851.81
659.693	1810.76
660.104	1783.28
660.515	1758.59
660.926	1754.44
661.338	1751.34
661.749	1739.41
662.159	1720.89
662.57	1713.87
662.981	1703.06
663.392	1686.43
663.803	1693.93
664.213	1687.53
664.624	1678.27
665.035	1683.32
665.445	1655.35
665.855	1635.91
666.266	1616.43
666.676	1608.02
667.086	1586.28
667.497	1581.37
667.907	1566.27
668.317	1545.02
668.727	1532.57
669.137	1530.92
669.547	1521.28
669.956	1522.28
670.366	1521.88
670.776	1521.66
671.186	1525.38
671.595	1527.11
672.005	1529.28
672.414	1522.08
672.824	1514.21
673.233	1520.99
673.642	1520.04
674.052	1522.65
674.461	1520.33
674.87	1525.3
675.279	1514.83
675.688	1515.45
676.097	1514.02
676.506	1505.96
676.915	1531.93
677.323	1534.21
677.732	1528.96
678.141	1527.27
678.549	1505.22
678.958	1503.03
679.366	1503.05
679.775	1514.9
680.183	1535.78
680.592	1550.86
681	1565.33
681.408	1556.1
681.816	1578.08
682.224	1602.02
682.632	1628.18
683.04	1695.96
683.448	1754.28
683.856	1823.08
684.264	1902.13
684.671	1976.37
685.079	2065.46
685.487	2161.46
685.894	2292.63
686.302	2394.67
686.709	2476.28
687.116	2571.08
687.524	2641.62
687.931	2699.24
688.338	2740.69
688.745	2769.19
689.152	2799.78
689.559	2850.41
689.966	2893.95
690.373	2891.29
690.78	2926.73
691.187	3001.01
691.593	3040.17
692	3064.8
692.407	3121.46
692.813	3197.38
693.22	3245.67
693.626	3298.49
694.032	3321.97
694.439	3389.55
694.845	3429.2
695.251	3491.47
695.657	3537.32
696.063	3634.71
696.469	3692.02
696.875	3739.81
697.281	3743.84
697.687	3757.84
698.093	3760.66
698.498	3818.38
698.904	3850.59
699.31	3926.22
699.715	3964.64
700.12	4041.49
700.526	4019.43
700.931	4067.92
701.337	4090.44
701.742	4092.45
702.147	4163.01
702.552	4161.55
702.957	4197.24
703.362	4184.83
703.767	4182.62
704.172	4194.58
704.577	4102.23
704.981	4126.3
705.386	4113.37
705.791	4073.53
706.195	4131.24
706.6	4110.92
707.004	4177.3
707.408	4113.8
707.813	4119.17
708.217	4077.79
708.621	4054.49
709.025	4141.32
709.43	4117.16
709.834	4157.11
710.237	4212.52
710.641	4172.35
711.045	4173.77
711.449	4144.62
711.853	4156.18
712.256	4180.54
712.66	4200.68
713.064	4260.14
713.467	4286.01
713.87	4384.59
714.274	4417.82
714.677	4514.93
715.08	4667.78
715.484	4827.02
715.887	5023.12
716.29	5210.73
716.693	5404.16
717.096	5634.22
717.499	5750.06
717.901	5751.66
718.304	5762
718.707	5765.78
719.109	5640.01
719.512	5587.02
719.915	5432.45
720.317	5353.79
720.719	5381.44
721.122	5338.31
721.524	5270.49
721.926	5217.14
722.328	5305.5
722.731	5281.3
723.133	5294.48
723.535	5473.9
723.937	5484.31
724.338	5522.63
724.74	5552.51
725.142	5504.79
725.544	5492.48
725.945	5516.12
726.347	5500.64
726.748	5484.35
727.15	5489.06
727.551	5446.79
727.952	5409.76
728.354	5372.78
728.755	5364.73
729.156	5316.29
729.557	5270.1
729.958	5143.83
730.359	5078.36
730.76	5056.01
731.161	4989.14
731.562	4957.27
731.962	4951.53
732.363	4887.13
732.763	4819.39
733.164	4847.71
733.564	4778.15
733.965	4682.75
734.365	4648.35
734.766	4668.52
735.166	4624.59
735.566	4571.83
735.966	4546.59
736.366	4540.23
736.766	4475.75
737.166	4500.23
737.566	4458.45
737.966	4428.63
738.365	4462.53
738.765	4454.86
739.165	4382.24
739.564	4357.82
739.964	4397.4
740.363	4350.28
740.763	4341.84
741.162	4333.31
741.561	4303.57
741.96	4259.39
742.36	4279.41
742.759	4280.64
743.158	4310.54
743.557	4321.84
743.955	4354.6
744.354	4308.97
744.753	4359.79
745.152	4322.68
745.55	4369.14
745.949	4362.85
746.348	4359.35
746.746	4369.27
747.144	4335.27
747.543	4312.87
747.941	4358.04
748.339	4294.2
748.737	4287.39
749.136	4278.34
749.534	4335.81
749.932	4307.94
750.33	4328.05
750.727	4382.66
751.125	4363.18
751.523	4347.58
751.921	4390.43
752.318	4358.74
752.716	4411.29
753.113	4423.32
753.511	4446.62
753.908	4447.03
754.305	4434.21
754.703	4489.05
755.1	4542.78
755.497	4596.58
755.894	4770.28
756.291	4932.3
756.688	5235.16
757.085	5638.4
757.482	6203.55
757.878	6823.41
758.275	7381.11
758.672	8148.48
759.068	8779.57
759.465	9674.31
759.861	10826.83
760.258	12159.53
760.654	12846.66
761.05	12740.51
761.447	12152.44
761.843	11313.34
762.239	10447.21
762.635	10057.97
763.031	9679.88
763.427	9134.38
763.822	8564.53
764.218	8001.22
764.614	7271.77
765.01	6782.68
765.405	6466.08
765.801	6227.26
766.196	5920.01
766.592	5747.15
766.987	5458.24
767.382	5261.6
767.778	5178.59
768.173	5057.88
768.568	4990.87
768.963	4874.29
769.358	4891.66
769.753	4848.48
770.148	4771.18
770.542	4769.73
770.937	4738.66
771.332	4821.61
771.726	4839.65
772.121	4785.69
772.515	4834.13
772.91	4820.74
773.304	4886.87
773.699	4826.75
774.093	4876.97
774.487	4929.16
774.881	4968.04
775.275	4966.94
775.669	4929.65
776.063	4969.14
776.457	5001.29
776.851	4936.87
777.245	4931.87
777.638	4962.45
778.032	5067.56
778.425	5033.37
778.819	5074.08
779.212	5039.46
779.606	5005.19
779.999	5023.7
780.392	5011.28
780.786	5082.26
781.179	5100.94
781.572	5140.86
781.965	5153.62
782.358	5099.65
782.751	5152.56
783.143	5106.3
783.536	5171.76
783.929	5207.99
784.322	5314.21
784.714	5339.33
785.107	5339.63
785.499	5404.08
785.891	5383.35
786.284	5367.42
786.676	5500.28
787.068	5481.79
787.46	5528.85
787.852	5547.92
788.245	5627.36
788.636	5653.43
789.028	5721.07
789.42	5756.63
789.812	5768.44
790.204	5856.32
790.595	5951.08
790.987	5772.76
791.378	5796.9
791.77	5916.36
792.161	6041.89
792.553	6094.77
792.944	5991.28
793.335	5927.45
793.726	5996.97
794.117	6082.07
794.508	6212.4
794.899	6182.87
795.29	6311.96
795.681	6364.22
796.072	6238.35
796.463	6078.75
796.853	6092.52
797.244	6240.82
797.634	6273.43
798.025	6272.34
798.415	6278.1
798.806	6361.22
799.196	6439.28
799.586	6490.04
799.976	6458.11
800.366	6673.41
800.756	6886.02
801.146	6848.82
801.536	6878.2
801.926	6948.25
802.316	6976.55
802.706	7047.12
803.095	6932.79
803.485	7028.83
803.874	7063.06
804.264	7302.76
804.653	7277.51
805.043	7409.8
805.432	7511.22
805.821	7513.17
806.21	7533.08
806.599	7642.19
806.988	7689.96
807.377	7791.01
807.766	7912.37
808.155	8176.17
808.544	7932.11
808.933	7946.51
809.321	7931.8
809.71	8206.52
810.098	8352.64
810.487	8780.85
810.875	9224.04
811.264	9241.02
811.652	9513.72
812.04	9647.8
812.428	9806.04
812.816	10516.63
813.204	10911.06
813.592	11420.39
813.98	11733.46
814.368	11656.97
814.756	12101.37
815.144	12031.73
815.531	12473.08
815.919	12402.3
816.306	12685.27
816.694	12397.7
817.081	12446.85
817.469	12764.92
817.856	12762.95
818.243	13018.08
818.63	13371.12
819.017	12979.43
819.404	13039.42
819.791	13392.97
820.178	13966.18
820.565	14205.16
820.952	15081.92
821.339	14626.13
821.725	14798.58
822.112	14122.73
822.498	14084.81
822.885	14219.15
823.271	14135.42
823.657	14519.32
824.044	14519.88
824.43	14587.29
824.816	14564.5
825.202	14156.19
825.588	15101.47
825.974	15116.53
826.36	15589.67
826.746	15619.6
827.132	15940.56
827.517	15914.63
827.903	15191.51
828.289	15234.68
828.674	14512.66
829.06	14406.41
829.445	14764.06
829.83	15093.28
830.216	15531.3
830.601	15868.06
830.986	15489.61
831.371	15361.79
831.756	15880.5
832.141	15474.72
832.526	15464.53
832.911	15720.37
833.295	15619.82
833.68	16056.86
834.065	15477.41
834.449	14624.89
834.834	14553.36
835.218	14542.48
835.603	14855.16
835.987	14658
836.371	15433.19
836.755	15329.62
837.139	15695.1
837.524	15909.25
837.908	15742.17
838.291	15800.87
838.675	15860.81
839.059	16045.69
839.443	16026.12
839.827	15807.86
840.21	16237.33
840.594	16092.39
840.977	16274.22
841.361	16256.05
841.744	16592.31
842.127	16439.47
842.511	16659.97
842.894	17208.02
843.277	17556.75
843.66	18051.55
844.043	18126.18
844.426	17393.55
844.809	17107.71
845.191	17143.84
845.574	16715.21
845.957	16377.45
846.339	16274.51
846.722	15782.82
847.104	15839.67
847.487	15674.62
847.869	15681.74
848.252	15930.1
848.634	16215.46
849.016	16451.85
849.398	16554.36
849.78	17331.39
850.162	17343.58
850.544	17716.57
850.926	18302.6
851.307	18220.81
851.689	18477.02
852.071	18898
852.452	19201.09
852.834	19193.66
853.215	19561.38
853.597	19705.6
853.978	19986.68
854.359	20397.92
854.741	19498.5
855.122	19402.17
855.503	19141.19
855.884	19272.83
856.265	19218.69
856.646	19318.15
857.026	18956.44
857.407	18891.32
857.788	19041.21
858.169	19296.55
858.549	18526.41
858.93	19105.09
859.31	19149.61
859.69	19350.77
860.071	18985.24
860.451	18795.45
860.831	18121.78
861.211	19189.46
861.591	19695.46
861.971	19675.55
862.351	19848.29
862.731	20197.68
863.111	20434.73
863.491	20748.22
863.87	21548.63
864.25	21861.15
864.629	21486.73
865.009	21969.35
865.388	22757.29
865.768	24400.66
866.147	24299.7
866.526	22962.66
866.905	23238.16
867.284	24541
867.663	23291.16
868.042	22323.08
868.421	22250.44
868.8	22617.78
869.179	22829.23
869.558	21503.12
869.936	19810.42
870.315	20162.34
870.693	20653.43
871.072	22279.11
871.45	21228.72
871.828	21516.29
872.207	22623.46
872.585	22286.66
872.963	22885.86
873.341	22097.9
873.719	21818.93
874.097	21560.95
874.475	21980.12
874.853	22478.36
875.23	21537.31
875.608	22445.8
875.986	24268.41
876.363	23203.56
876.741	23901.99
877.118	23322.74
877.495	24464.31
877.873	24887.3
878.25	26183.46
878.627	25103.01
879.004	25455.67
879.381	25332.66
879.758	24663.77
880.135	22966.64
880.512	24275.29
880.889	23634.04
881.265	23381.37
881.642	23186.35
882.019	23573.5
882.395	23092.65
882.772	24011.1
883.148	22960.71
883.524	22872.02
883.901	22727.73
884.277	23061.11
884.653	22917.27
885.029	23576.09
885.405	26113.18
885.781	25912.75
886.157	24840.43
886.532	25137.58
886.908	25119.98
887.284	27923.5
887.659	28816.43
888.035	29696.43
888.411	30443.99
888.786	30828.2
889.161	31881.18
889.537	31278.42
889.912	32268.35
890.287	32233.47
890.662	33064.61
891.037	32457.29
891.412	30263.13
891.787	29957.55
892.162	28902.71
892.536	29575.64
892.911	28479.77
893.286	27873.52
893.66	26738.82
894.035	27414.99
894.409	29843.28
894.784	28642.43
895.158	29109.16
895.532	30836.01
895.906	31676.19
896.281	32428.93
896.655	31909.38
897.029	36443.28
897.402	37952.63
897.776	42236.25
898.15	42089.24
898.524	41643.48
898.898	42191.01
899.271	47245.96
899.645	40924.78
900.018	39305.22
900.392	40757.45
900.765	41085.91
901.138	38022.79
901.511	37447.22
901.884	34392.57
902.258	31727.19
902.631	32792.25
903.003	37736.94
903.376	34046.83
903.749	38167.86
904.122	40869.04
904.495	44997.71
904.867	45541.56
905.24	39534.49
905.612	36820.33
905.985	37665.45
906.357	39394.17
906.729	37593.31
907.102	32111.29
907.474	30876.59
907.846	31083.52
908.218	30661.39
908.59	27126.36
908.962	26250.9
909.334	28295.58
909.705	29731.45
910.077	28857.91
910.449	30030.22
910.82	30873.95
911.192	33980.68
911.563	35332.49
911.935	37807.72
912.306	37887.23
912.677	39103.05
913.048	38723.61
913.419	42018.05
913.79	42232.02
914.161	45305.18
914.532	43318.16
914.903	39804.57
915.274	37833.98
915.645	37278.59
916.015	32817.22
916.386	31297.65
916.756	33322.07
917.127	34375.52
917.497	30703.32
917.868	33431.43
918.238	31756.09
918.608	32683.07
918.978	33371.94
919.348	35331.64
919.718	36511.85
920.088	35196.21
920.458	36570.97
920.828	38493.91
921.198	36502.64
921.567	39000.38
921.937	30223.46
922.306	30527.22
922.676	32933.69
923.045	27500.44
923.415	26127.66
923.784	23784.71
924.153	24449.8
924.522	24429.13
924.891	22955.85
925.26	24606.99
925.629	24010.14
925.998	27596.83
926.367	26945.17
926.736	25649
927.104	30520.35
927.473	32804.29
927.842	39657.35
928.21	39277.93
928.578	41295.11
928.947	39056.5
929.315	39307.63
929.683	46169.69
930.051	46523.36
930.42	54022.87
930.788	46170.77
931.156	45851.3
931.523	42978.31
931.891	39706.11
932.259	38112.51
932.627	44155.11
932.994	62482.01
933.362	51621.29
933.729	44813.84
934.097	42910.99
934.464	36301.97
934.831	41875.08
935.199	41277.88
935.566	40037.89
935.933	40499.74
936.3	49089.67
936.667	38208.1
937.034	34497.5
937.401	34120.82
937.767	29440.14
938.134	26205.97
938.501	37007.62
938.867	39489.21
939.234	66789.51
939.6	57012.05
939.967	63011.84
940.333	42182.92
940.699	35971.31
941.065	28856
941.431	37879.27
941.798	36569.83
942.163	48098.53
942.529	30033.35
942.895	27623.37
943.261	17872.68
943.627	23478.78
943.992	20569.09
944.358	20625.75
944.723	20700.75
945.089	20177.21
945.454	18658.53
945.82	19919.43
946.185	19145.73
946.55	22214
946.915	19956.24
947.28	23426.05
947.645	20602.51
948.01	19014.03
948.375	19853.85
948.74	23788.07
949.104	27742.44
949.469	40017.12
949.834	70650.7
950.198	66954.28
950.562	40112.67
950.927	33395.21
951.291	40138.34
951.655	34168.79
952.02	32080.05
952.384	24223.8
952.748	21110.66
953.112	20600.59
953.476	17913.61
953.839	16572.3
954.203	16392.13
954.567	20476.43
954.931	32244.55
955.294	27601.21
955.658	27757.26
956.021	47194.25
956.385	79992.44
956.748	117962.73
957.111	182908.28
957.474	205311.77
957.837	230975.13
958.2	174702.31
958.563	62854.87
958.926	42518.68
959.289	64455.09
959.652	72050.8
960.015	54111.08
960.377	77692.26
960.74	88645.31
961.102	152863.45
961.465	164183.55
961.827	88158.69
962.189	169199.95
962.552	117318.52
962.914	94070.62
963.276	61087.34
963.638	50478.55
964	49896.86
964.362	33726.21
964.724	32591.69
965.085	23276.36
965.447	19086.58
965.809	21710.64
966.17	21709.91
966.532	23487.67
966.893	21538.14
967.255	19579.55
967.616	23105.55
967.977	18508.85
968.338	20191.3
968.699	16578.55
969.061	16563.03
969.421	16671.8
969.782	18695.71
970.143	15817.15
970.504	16397.77
970.865	18647.92
971.225	19059.49
971.586	18641.71
971.946	26565.38
972.307	23046.03
972.667	30138.62
973.027	31037.37
973.388	37606.44
973.748	25585.52
974.108	27870.47
974.468	37614.26
974.828	29002.06
975.188	22326.38
975.548	20511.06
975.907	17226.17
976.267	19333.67
976.627	16248.58
976.986	16842.44
977.346	16048.94
977.705	15448.17
978.064	14051.04
978.424	11717.21
978.783	12099.97
979.142	13813.99
979.501	13221.41
979.86	13969.27
980.219	13461.88
980.578	17361.55
980.937	19421.86
981.296	17301.35
981.654	17783.32
982.013	27653.43
982.371	35905.08
982.73	33516.4
983.088	37949.44
983.447	40570.01
983.805	58111.61
984.163	121356.01
984.521	134583.83
984.879	197197.54
985.237	-321401.33
985.595	310707.35
985.953	77290.52
986.311	44571.36
986.669	25913.79
987.026	22402.6
987.384	30110.36
987.741	31099.18
988.099	22263.02
988.456	17778.47
988.814	16684.87
989.171	14472.9
989.528	14246.69
989.885	15032.66
990.242	11910.34
990.599	14837.75
990.956	12114.89
991.313	8478.37
991.67	6969.58
992.027	7407.8
992.383	6578.09
992.74	5771.36
993.096	6061.63
993.453	6286.17
993.809	6527.8
994.165	8678.84
994.522	7973.14
994.878	8789.77
995.234	11012.36
995.59	10836.46
995.946	10234.64
996.302	11675.15
996.658	13482.78
997.013	14861.47
997.369	17672.42
997.725	22637.51
998.08	14699.19
998.436	22638.6
998.791	31298.23
999.147	31257.47
999.502	34156.03
999.857	24818.12
1000.212	40456.58
1000.567	57601.69
1000.922	33182.09
1001.277	21052.97
1001.632	15598.68
1001.987	20088.81
1002.342	14373.18
1002.696	11463.73
1003.051	9165.52
1003.406	11096.66
1003.76	11048.99
1004.114	10863.15
1004.469	9135.87
1004.823	7581.66
1005.177	8184.5
1005.531	6487.63
1005.885	5772.24
1006.239	6523.38
1006.593	8214.19
1006.947	10993.85
1007.301	8237.68
1007.655	8970.01
1008.008	6598.88
1008.362	7441.76
1008.715	10616.77
1009.069	9608.07
1009.422	14514.66
1009.776	29099.98
1010.129	19322.69
1010.482	16103.6
1010.835	13585.39
1011.188	28247.11
1011.541	26581.1
1011.894	-162461.71
1012.247	475693.76
1012.6	32389.22
1012.952	20538.32
1013.305	10537.04
1013.657	7581.91
1014.01	7169.93
1014.362	5913.77
1014.715	5274.55
1015.067	4618.69
1015.419	4526.51
1015.771	4021.17
1016.123	3584.7
1016.475	3681.23
1016.827	3914.3
1017.179	4208.82
1017.531	4238.05
1017.883	4324.73
1018.234	4189.8
1018.586	5286.16
1018.938	5621.7
1019.289	7760.36
1019.64	8871.54
1019.992	8273.98
1020.343	7580.81
1020.694	6007.59
1021.045	5323.39
1021.396	6081.73
1021.747	6548.51
1022.098	7846.9
1022.449	5694.4
1022.8	5258.19
1023.151	3669.88
1023.501	3255.56
1023.852	3522.58
1024.202	3654.86
1024.553	3998.54
1024.903	3926.88
1025.253	3390.41
1025.604	3064.73
1025.954	3805.26
1026.304	4635.23
1026.654	5410.49
1027.004	7945.82
1027.354	12887.42
1027.703	12232.22
1028.053	16067.12
1028.403	23539.55
1028.753	33897.09
1029.102	45504.97
1029.452	231161.68
1029.801	9908.63
1030.15	6380.42
1030.499	5383.75
897.758	3283.94
901.051	3265.14
904.343	3300.9
907.636	3295.03
910.928	3364.93
914.22	3267.06
917.511	3280.6
920.803	3366.36
924.094	3412.33
927.384	3363.91
930.675	3328.28
933.965	3268.03
937.255	3263.22
940.544	3229.48
943.834	3080.65
947.123	3038.37
950.411	3143.66
953.7	3104.77
956.988	3051.24
960.276	2998.96
963.563	3119.99
966.851	3099.07
970.138	3176.73
973.424	3151.48
976.711	3102.7
979.997	3357.89
983.283	3375.01
986.568	3244.17
989.853	3290.97
993.138	3323.99
996.423	3406
999.708	3321.09
1002.992	3437.6
1006.275	3164.53
1009.559	3273.38
1012.842	3413.22
1016.125	3318.07
1019.408	3294
1022.69	3421.61
1025.972	3426.39
1029.254	3392.64
1032.536	3284.38
1035.817	3327.79
1039.098	3231.36
1042.379	3499.54
1045.659	3449.45
1048.939	3358.86
1052.219	3398.12
1055.498	3427.39
1058.778	3396.97
1062.057	3388.06
1065.335	3408.02
1068.614	3442.75
1071.892	3405.38
1075.17	3506.82
1078.447	3484.88
1081.724	3469.91
1085.001	3521.59
1088.278	3486.66
1091.554	3511.56
1094.83	3509.54
1098.106	3532.39
1101.382	3594.7
1104.657	3594.15
1107.932	3591.71
1111.206	3536.31
1114.481	3492.84
1117.755	3504.29
1121.029	3465.48
1124.302	3515.28
1127.575	3442.55
1130.848	3418.87
1134.121	3370.57
1137.393	3303.04
1140.665	3382.53
1143.937	3363.63
1147.208	3268.36
1150.48	3294.18
1153.75	3274.09
1157.021	3343.97
1160.291	3296.69
1163.561	3339.75
1166.831	3361.56
1170.101	3396.63
1173.37	3384.75
1176.639	3306.92
1179.907	3380.64
1183.176	3432.5
1186.444	3437.99
1189.711	3471.36
1192.979	3472.42
1196.246	3433.3
1199.513	3454.28
1202.78	3446.88
1206.046	3454.76
1209.312	3488.9
1212.578	3523.8
1215.843	3451.1
1219.108	3434.23
1222.373	3460.89
1225.638	3405.1
1228.902	3380.69
1232.166	3350.72
1235.43	3327.55
1238.693	3343.5
1241.956	3346.56
1245.219	3378.76
1248.482	3383.38
1251.744	3372.83
1255.006	3562.37
1258.268	3523.4
1261.529	3452.39
1264.79	3464.92
1268.051	3594.22
1271.312	3612.45
1274.572	3565.68
1277.832	3559.53
1281.092	3557.11
1284.351	3504.71
1287.61	3475.4
1290.869	3359.26
1294.128	3309.28
1297.386	3451.56
1300.644	3437.97
1303.902	3444.19
1307.159	3289.36
1310.416	3350.59
1313.673	3366.26
1316.93	3338.8
1320.186	3409.57
1323.442	3468.18
1326.697	3441.56
1329.953	3455.06
1333.208	3462.36
1336.463	3448.15
1339.717	3373.28
1342.972	3464.97
1346.226	3470.56
1349.479	3380.42
1352.733	3333.82
1355.986	3376.18
1359.238	3342.84
1362.491	3346.21
1365.743	3351.21
1368.995	3354.88
1372.247	3368.27
1375.498	3385.66
1378.749	3448.87
1382	3386.32
1385.251	3466.19
1388.501	3435.07
1391.751	3401.81
1395	3383.54
1398.25	3422.67
1401.499	3413.92
1404.748	3323.79
1407.996	3237.69
1411.244	3231.53
1414.492	3205.94
1417.74	3178.87
1420.987	3197.93
1424.234	3253.73
1427.481	3254.54
1430.728	3309.99
1433.974	3283.22
1437.22	3318.6
1440.465	3320.91
1443.711	3325.66
1446.956	3360.96
1450.201	3368.54
1453.445	3415.98
1456.689	3380.38
1459.933	3399
1463.177	3425.19
1466.42	3392.67
1469.663	3374.59
1472.906	3340.7
1476.148	3488.17
1479.391	3365.14
1482.633	3352.72
1485.874	3353.72
1489.115	3316.95
1492.356	3342.31
1495.597	3310.91
1498.838	3326.99
1502.078	3274.65
1505.318	3189.71
1508.557	3244.88
1511.797	3156.71
1515.036	3340.24
1518.274	3320.52
1521.513	3301.85
1524.751	3336.51
1527.989	3342.32
1531.227	3345.53
1534.464	3312.45
1537.701	3366.63
1540.938	3397.57
1544.174	3354.99
1547.41	3367.82
1550.646	3402.4
1553.882	3426.87
1557.117	3480.22
1560.352	3505.75
1563.587	3458.27
1566.821	3406.37
1570.055	3466.74
1573.289	3426.21
1576.523	3524.2
1579.756	3526.78
1582.989	3540.53
1586.222	3495.87
1589.454	3549.1
1592.686	3512.82
1595.918	3532.61
1599.15	3507.62
1602.381	3621.74
1605.612	3546.13
1608.843	3650.25
1612.073	3547.63
1615.303	3526.2
1618.533	3504.33
1621.762	3520.49
1624.992	3519.9
1628.221	3485.44
1631.449	3471.46
1634.678	3561.68
1637.906	3503.62
1641.134	3559.26
1644.361	3501.76
1647.588	3486.28
1650.815	3491.98
1654.042	3490.11
1657.269	3527.2
1660.495	3474.32
1663.72	3413.05
1666.946	3398.89
1670.171	3300.47
1673.396	3278.64
1676.621	3276.5
1679.845	3326.63
1683.069	3369.82
1686.293	3431.62
1689.517	3380
1692.74	3272
1695.963	3290.87
1699.185	3396.58
1702.408	3343.44
1705.63	3402.11
1708.852	3404.69
1712.073	3377.2
1715.294	3339.31
1718.515	3363.45
1721.736	3306.91
1724.956	3268.76
1728.176	3305.28
1731.396	3321.6
1734.616	3319.52
1737.835	3326.33
1741.054	3319.89
1744.272	3317.73
1747.491	3326.46
1750.709	3419.67
1753.927	3317.44
1757.144	3376.86
1760.361	3452.32
1763.578	3463.01
1766.795	3391.44
1770.011	3412.43
1773.227	3478.18
1776.443	3507.56
1779.658	3552.26
1782.874	3498.42
1786.089	3458.66
1789.303	3464.29
1792.518	3477.93
1795.732	3465.83
1798.945	3467
1802.159	3532.74
1805.372	3386.15
1808.585	3354.22
1811.797	3358.87
1815.01	3443.63
1818.222	3448.29
1821.434	3314.95
1824.645	3429.63
1827.856	3386.11
1831.067	3436.25
1834.278	3356.64
1837.488	3344.85
1840.698	3534.39
1843.908	3432.57
1847.117	3391.09
1850.326	3211.71
1853.535	3355.83
1856.744	3489.99
1859.952	3360.62
1863.16	3359.55
1866.368	3383.39
1869.575	3545.39
1872.782	3418.35
1875.989	3359.08
1879.196	3491.46
1882.402	3484.69
1885.608	3535.7
1888.814	3389.96
1892.019	3261.01
1895.224	3313.53
1898.429	3310.86
1901.634	3278.95
1904.838	3263.14
1908.042	3303.82
1911.246	3303.43
1914.449	3191.7
1917.652	3208.87
1920.855	3195.18
1924.058	3276.17
1927.26	3305.23
1930.462	3340.29
1933.664	3354.87
1936.865	3283.09
1940.066	3279.3
1943.267	3227.32
1946.467	3257.4
1949.668	3295.54
1952.868	3360
1956.067	3317.92
1959.267	3234.92
1962.466	3269.4
1965.665	3259
1968.863	3253.88
1972.061	3290.28
1975.259	3293.07
1978.457	3384.38
1981.654	3328.86
1984.852	3330.21
1988.048	3235.87
1991.245	3257.68
1994.441	3345.25
1997.637	3360.42
2000.833	3345.23
2004.028	3391.85
2007.223	3433.55
2010.418	3396.61
2013.613	3365.7
2016.807	3306.67
2020.001	3329.23
2023.194	3406.76
2026.388	3370.21
2029.581	3317.95
2032.774	3350.31
2035.966	3344.06
2039.158	3253.71
2042.35	3294.05
2045.542	3216.48
2048.733	3351.34
2051.924	3411.99
2055.115	3458.35
2058.306	3365.83
2061.496	3436.16
2064.686	3517.55
2067.875	3438.43
2071.065	3469.94
2074.254	3507.94
2077.442	3455.99
2080.631	3561.13
2083.819	3391.94
2087.007	3360.5
2090.195	3310.28
2093.382	3371.27
2096.569	3344.13
2099.756	3284.42
2102.942	3284.09
2106.128	3276.92
2109.314	3274.37
2112.5	3207.1
2115.685	3191.2
2118.87	3206.22
2122.055	3278.4
2125.239	3225.34
2128.424	3179.48
2131.608	3342.74
2134.791	3323.25
2137.974	3410.86
2141.157	3387.01
2144.34	3312.67
2147.523	3330.75
2150.705	3325.97
2153.887	3322.08
2157.068	3240.7
2160.25	3270.54
2163.431	3332.06
2166.611	3246.35
2169.792	3255.66
2172.972	3121.62
2176.152	3244.93
2179.331	3292.25
2182.511	3273.13
2185.69	3310.24
2188.868	3296.98
2192.047	3381.58
2195.225	3338.87
2198.403	3286.08
2201.58	3285.96
2204.758	3287.16
2207.935	3387.15
2211.111	3233.11
2214.288	3209.06
2217.464	3261.53
2220.64	3249.54
2223.815	3314.4
2226.991	3219.99
2230.166	3245.32
2233.34	3258.55
2236.515	3296.15
2239.689	3393.06
2242.863	3324.61
2246.036	3389.03
2249.209	3414.19
2252.382	3465.65
2255.555	3431.65
2258.727	3344.78
2261.9	3397.14
2265.071	3389.66
2268.243	3400.87
2271.414	3311.64
2274.585	3237.35
2277.756	3320.04
2280.926	3272.19
2284.096	3326.69
2287.266	3202.43
2290.436	3272.45
2293.605	3315.83
2296.774	3336.37
2299.942	3381.86
2303.111	3399.73
2306.279	3443.3
2309.447	3433.64
2312.614	3410.27
2315.781	3424.91
2318.948	3379.73
2322.115	3424.32
2325.281	3321.62
2328.447	3357.54
2331.613	3338.02
2334.779	3283.07
2337.944	3296.47
2341.109	3287.44
2344.274	3263.42
2347.438	3222.51
2350.602	3258.93
2353.766	3282.26
2356.929	3261.52
2360.092	3307.91
2363.255	3234
2366.418	3122.56
2369.58	3298.32
2372.742	2964.12
2375.904	3003.34
2379.066	2962.95
2382.227	3013.95
2385.388	2970.74
2388.548	2867.76
2391.709	2945.35
2394.869	2913.86
2398.029	3070.55
2401.188	3107.06
2404.347	3004.21
2407.506	3229.62
2410.665	3254.27
2413.823	3283.66
2416.981	3210.89
2420.139	3263.2
2423.296	3326.69
2426.453	3298.14
2429.61	3329.24
2432.767	3215.53
2435.923	3272.97
2439.079	3143.28
2442.235	3236.44
2445.391	3138.17
2448.546	3145.42
2451.701	3221.77
2454.855	3158.82
2458.009	3241.78
2461.163	3263.37
2464.317	3202.29
2467.471	3247.25
2470.624	3282.4
2473.777	3337.87
2476.929	3328.48
2480.082	3359.84
2483.234	3328.78
2486.385	3191.75
2489.537	3192.47
2492.688	3120.18
2495.839	3136.3
2498.989	3139.17
2502.14	3118.21
2505.29	3086.05
2508.439	3120.24
2511.589	3017.43
2514.738	3045.34
2517.887	3074.67
2521.035	3238.25
2524.183	3232.82
2527.331	3197.88
2530.479	3147.17
2533.627	3168
