Data from N_3_HIR_WI_4N_Splice17_13-12-03-251.txt Node
Date: Sat Mar 14 13:12:03 EDT 2020
User: sa697716
Spectrometer: FLMS03696
Trigger mode: 0
Integration Time (sec): 3.180400E-1
Scans to average: 20
Electric dark correction enabled: true
Nonlinearity correction enabled: true
Boxcar width: 5
XAxis mode: Wavelengths
Number of Pixels in Spectrum: 2048
>>>>>Begin Spectral Data<<<<<
187.83	-272145.05
188.298	2052.26
188.766	1132.84
189.233	986.75
189.701	1315.38
190.169	1790.8
190.636	631.65
191.104	480.11
191.571	32.54
192.039	-92.82
192.506	-51.64
192.974	642.14
193.441	-1096.99
193.908	-416.66
194.375	-137.84
194.842	-61.25
195.31	-7.35
195.777	137.64
196.244	394.09
196.711	473.59
197.177	603.51
197.644	860.29
198.111	1494.67
198.578	2092.31
199.045	1683.38
199.511	2749.1
199.978	3170.63
200.445	2675.22
200.911	2940.36
201.378	3273.66
201.844	2978.13
202.31	5086.08
202.777	5316.08
203.243	2946.36
203.709	2826.51
204.176	3375.54
204.642	2802.46
205.108	2620.77
205.574	2146.64
206.04	1963.04
206.506	1829.87
206.972	1737
207.438	1689.72
207.903	1922.89
208.369	1700.16
208.835	1694.64
209.301	1772.62
209.766	1809.9
210.232	1797.22
210.697	2240.94
211.163	2781.68
211.628	4232.31
212.094	3578.64
212.559	4416.3
213.024	2780.36
213.49	3411.74
213.955	3339.41
214.42	3279.92
214.885	3060.45
215.35	2962.16
215.815	2890.55
216.28	3093.56
216.745	2561.7
217.21	2808.71
217.675	2630.78
218.14	3020.27
218.604	3462.37
219.069	4056.58
219.534	4359.2
219.998	5188.89
220.463	6378.64
220.927	7999.41
221.392	7649.63
221.856	7823.83
222.32	9989.17
222.785	12426.66
223.249	15739.87
223.713	17634.61
224.177	17700.6
224.642	22831.69
225.106	28211.95
225.57	31019.38
226.034	23054.16
226.497	35089.54
226.961	31721.71
227.425	36931.24
227.889	41010.3
228.353	41040.32
228.816	84843.1
229.28	81048.09
229.744	68251.03
230.207	41322.68
230.671	40589.36
231.134	67150.4
231.597	77382.84
232.061	77313.13
232.524	75464.93
232.987	51968.79
233.45	46722.98
233.914	41831.31
234.377	42939.34
234.84	39271.49
235.303	46381.16
235.766	51748.58
236.229	53445.06
236.691	33683.5
237.154	37858.51
237.617	28424.68
238.08	29088.3
238.542	34040.86
239.005	24328.9
239.468	24099.92
239.93	22702.74
240.393	20611.4
240.855	18071.66
241.317	18524.51
241.78	22530.72
242.242	23261.78
242.704	25102.24
243.166	21839.89
243.629	19810.22
244.091	22832.21
244.553	25018.93
245.015	26863.51
245.477	34745.61
245.939	50895.75
246.4	53915.35
246.862	52317.44
247.324	49300.51
247.786	55155.83
248.247	72363.02
248.709	74742.63
249.17	55839.18
249.632	52531.68
250.093	60866.23
250.555	52478.79
251.016	31961.07
251.477	30284.21
251.939	32671.79
252.4	34231.87
252.861	40650.4
253.322	37695.76
253.783	44805.34
254.244	58087.18
254.705	45787.4
255.166	40668.63
255.627	40035.53
256.088	56449.17
256.549	59969.13
257.009	51597.72
257.47	62576.03
257.931	50926.37
258.391	38164.95
258.852	39335.9
259.312	41216.69
259.773	50930.28
260.233	42993.92
260.694	36228
261.154	41080.09
261.614	32933.31
262.074	29457.19
262.534	30579.25
262.994	28795.06
263.455	38339.25
263.915	32265.27
264.374	30363.24
264.834	33116.91
265.294	36714.88
265.754	38012.57
266.214	35950.8
266.673	33660.86
267.133	42454.66
267.593	42098.86
268.052	51503.21
268.512	44762.01
268.971	53879.08
269.431	59005.94
269.89	52778.95
270.349	79048.46
270.809	88097.23
271.268	79183.01
271.727	177397.11
272.186	114734.2
272.645	85966.9
273.104	61951.38
273.563	89584.4
274.022	70436.81
274.481	59870.55
274.94	46055.81
275.399	34212.86
275.857	39753.53
276.316	53676.61
276.775	47695.16
277.233	46879.17
277.692	43813.66
278.15	49506.19
278.609	50867.01
279.067	47017.27
279.525	43604.72
279.984	56265.84
280.442	67461.17
280.9	66440.7
281.358	43636.55
281.816	40621.41
282.274	39746.32
282.732	41029.16
283.19	41180.02
283.648	35518.67
284.106	37817.31
284.564	38439.19
285.021	35595.67
285.479	26524.26
285.937	24127.32
286.394	21158.83
286.852	21783.58
287.309	22890.79
287.767	22097.65
288.224	21005.95
288.682	23035.7
289.139	25249.43
289.596	23087.49
290.053	23983.65
290.511	30237.77
290.968	36612.82
291.425	49666.23
291.882	41272.81
292.339	35888.39
292.796	35581.05
293.252	33511.57
293.709	26568.73
294.166	23785.72
294.623	26257.7
295.079	25169.38
295.536	25238.68
295.992	22892.65
296.449	22620.45
296.905	23489.86
297.362	22502
297.818	23663.48
298.274	24501.17
298.731	24979.84
299.187	24690.34
299.643	26476.64
300.099	32005.99
300.555	35096.32
301.011	29332.08
301.467	28199.69
301.923	32993.27
302.379	32160.71
302.835	31545.63
303.291	31555.08
303.746	35850.76
304.202	45281.91
304.658	45448.34
305.113	30563.37
305.569	29918.09
306.024	31817.88
306.479	30298.14
306.935	25496.21
307.39	27838.62
307.845	25684.09
308.301	25836.21
308.756	25144.63
309.211	24188.58
309.666	24761.29
310.121	30669.11
310.576	31089.92
311.031	30848.56
311.486	35312.87
311.94	35242.9
312.395	47091.83
312.85	88411.54
313.305	433524.7
313.759	2242534.53
314.214	162460.24
314.668	128606.15
315.123	108084.8
315.577	38759.35
316.032	34426.96
316.486	43084.79
316.94	33989.57
317.394	23631.44
317.849	18356.7
318.303	17390.82
318.757	16397.76
319.211	18096.77
319.665	15825.4
320.119	15988.18
320.572	22918.91
321.026	21377.2
321.48	17778.73
321.934	19387.38
322.387	19423.05
322.841	20960.22
323.295	18817.01
323.748	21657.01
324.202	21959.92
324.655	26367.35
325.108	36867.17
325.562	26004.36
326.015	30868.29
326.468	23299.44
326.921	25976.76
327.374	24190.08
327.827	25148.6
328.28	28411.46
328.733	19027.45
329.186	16709.72
329.639	15899.05
330.092	13380.79
330.545	12721.58
330.997	12839.84
331.45	14025.53
331.903	16455.94
332.355	28319.62
332.808	27535.61
333.26	22712.56
333.713	24648.95
334.165	24836.36
334.617	33128.3
335.069	26754.72
335.522	48294.3
335.974	53375.27
336.426	48686.82
336.878	33670.71
337.33	17047.13
337.782	16610.77
338.234	20791.82
338.686	24805.77
339.137	29351.28
339.589	27648.71
340.041	21642.23
340.493	18603.18
340.944	19051.65
341.396	20513.7
341.847	17228.91
342.299	20292.49
342.75	24782.2
343.201	21648.12
343.653	24918
344.104	30576.52
344.555	24011.57
345.006	37370.68
345.457	28586.29
345.908	22712.18
346.359	21398.16
346.81	17432.14
347.261	18365.22
347.712	18041.77
348.163	19310.27
348.613	19535.6
349.064	18251.99
349.515	15988.07
349.965	16377.3
350.416	19744.02
350.866	21635.91
351.317	24395.82
351.767	40321.98
352.217	50938.51
352.668	42326.72
353.118	38795.26
353.568	37358.98
354.018	29456.59
354.468	31022.24
354.918	22228.81
355.368	19423.4
355.818	27400.55
356.268	78871.57
356.718	330233.7
357.168	82185.57
357.617	41142.48
358.067	45693.97
358.517	42749.82
358.966	50186.3
359.416	56145.51
359.865	60653.16
360.315	72182.28
360.764	33695.51
361.213	18822.07
361.663	17790.17
362.112	21922.13
362.561	35452.8
363.01	26710.69
363.459	22466.57
363.908	24272.51
364.357	20608.38
364.806	34818.76
365.255	23895.14
365.703	21873.41
366.152	21920.04
366.601	17767.97
367.05	14416.06
367.498	13081.81
367.947	13668.79
368.395	14190.17
368.844	12570.43
369.292	15126.48
369.74	10431.91
370.189	15969.8
370.637	18712.23
371.085	16133.98
371.533	19610.16
371.981	18879.23
372.429	17954.11
372.877	18648.87
373.325	15598.82
373.773	15862.03
374.221	14145.97
374.669	17502.15
375.116	15108.09
375.564	15199.76
376.012	16955.21
376.459	14000.49
376.907	16726.9
377.354	20188.47
377.801	18827.22
378.249	21663.1
378.696	27640.15
379.143	33418.43
379.591	35597.29
380.038	60254.55
380.485	43570.86
380.932	47090.09
381.379	42937.32
381.826	31498.35
382.273	22368.03
382.72	19548.91
383.166	19058.02
383.613	12363.53
384.06	11144.88
384.506	12910.76
384.953	9466.92
385.4	9504.14
385.846	8319.39
386.292	8106.52
386.739	7953.04
387.185	7891.07
387.631	7890.68
388.078	7652.14
388.524	8194.28
388.97	7581.26
389.416	6312.22
389.862	6705.01
390.308	6352.82
390.754	6445.04
391.2	7000.55
391.645	7152.11
392.091	6835.31
392.537	6604.77
392.983	6605.32
393.428	6491.73
393.874	6938.91
394.319	6972.59
394.765	6617.31
395.21	6805.43
395.655	6379.03
396.101	5973.8
396.546	5398.76
396.991	5437.71
397.436	5045.33
397.881	4870.36
398.326	4608.01
398.771	4358.25
399.216	3800.11
399.661	3418.47
400.106	3403.14
400.551	3486.64
400.995	3118.89
401.44	3076.73
401.885	2885.6
402.329	2911.2
402.774	2780.8
403.218	2681.94
403.663	2579.48
404.107	2649.59
404.551	2662.47
404.995	2434.98
405.44	2335.45
405.884	2367.49
406.328	2285
406.772	2272.29
407.216	2066.27
407.66	1991.06
408.104	1890.28
408.547	1764.12
408.991	1705.3
409.435	1638.53
409.879	1612.22
410.322	1589.62
410.766	1531.94
411.209	1456.25
411.653	1395.43
412.096	1364.41
412.54	1366.83
412.983	1355.09
413.426	1360.53
413.869	1356.13
414.312	1329.28
414.756	1279.24
415.199	1216.39
415.642	1179.02
416.085	1179.15
416.527	1170.91
416.97	1187.9
417.413	1125.09
417.856	1113.4
418.298	1098.56
418.741	1088.68
419.184	1082.57
419.626	1126.42
420.069	1127.34
420.511	1134.04
420.953	1107.51
421.396	1095.38
421.838	1065.19
422.28	1089.46
422.722	1093
423.164	1106.6
423.606	1087.58
424.048	1086.2
424.49	1033.44
424.932	1025.67
425.374	1011.03
425.816	1028.49
426.258	1048.17
426.699	1059.23
427.141	1045.07
427.582	1058.35
428.024	1051.12
428.465	1042.95
428.907	1017.61
429.348	1001.65
429.789	1003.6
430.231	982.83
430.672	992.88
431.113	966.6
431.554	950.8
431.995	923.81
432.436	892.58
432.877	873.86
433.318	860.12
433.759	853.91
434.2	855.67
434.64	845.09
435.081	844.66
435.522	802.75
435.962	772.22
436.403	757.88
436.843	767.32
437.284	749.94
437.724	730.52
438.164	729.13
438.604	713.43
439.045	686.83
439.485	660.32
439.925	647.19
440.365	630.19
440.805	623.38
441.245	615.52
441.685	593.06
442.125	588.46
442.564	591.45
443.004	580.41
443.444	581.08
443.883	581.34
444.323	576.46
444.762	576.96
445.202	583.76
445.641	595.38
446.081	591.32
446.52	596.41
446.959	592.94
447.398	579.97
447.837	574.47
448.276	563.1
448.716	569.06
449.154	573.39
449.593	561.17
450.032	561.22
450.471	551.89
450.91	551.61
451.349	551.33
451.787	547.65
452.226	555.54
452.664	555.58
453.103	557.71
453.541	557.73
453.98	559.04
454.418	562.76
454.856	555.19
455.295	554.09
455.733	560.02
456.171	562.56
456.609	562.26
457.047	560.08
457.485	568.04
457.923	568.09
458.361	559.69
458.798	560.41
459.236	557.6
459.674	559.58
460.111	562.12
460.549	556.78
460.987	554.84
461.424	553.63
461.862	552.01
462.299	542.72
462.736	542.34
463.173	543.84
463.611	539.55
464.048	539.5
464.485	543.89
464.922	537.96
465.359	533.89
465.796	530.98
466.233	527.62
466.67	523.45
467.106	523.04
467.543	517.54
467.98	510.25
468.416	496.17
468.853	491.34
469.29	476.11
469.726	470.79
470.162	458.56
470.599	450.05
471.035	445.89
471.471	434.78
471.907	431.13
472.344	427.14
472.78	429.17
473.216	434.31
473.652	429.59
474.088	429.18
474.523	428.17
474.959	432.39
475.395	428.12
475.831	425.5
476.266	427.23
476.702	426.47
477.138	423.45
477.573	422.09
478.008	420.82
478.444	422.89
478.879	427.13
479.314	430.07
479.75	430.26
480.185	431.82
480.62	435.61
481.055	438.71
481.49	442.53
481.925	449.45
482.36	457.91
482.795	470.13
483.229	483.24
483.664	492.97
484.099	494.5
484.534	502.36
484.968	508.01
485.403	509.67
485.837	509.16
486.271	507.5
486.706	508.14
487.14	501.91
487.574	494.61
488.009	490.54
488.443	486.81
488.877	493.02
489.311	494.25
489.745	500.37
490.179	506.34
490.613	517.32
491.046	522.96
491.48	527.41
491.914	530.18
492.348	534.36
492.781	538.3
493.215	540.85
493.648	541.97
494.082	548.27
494.515	550.07
494.948	557.87
495.382	562.7
495.815	568.33
496.248	575.43
496.681	586.84
497.114	598.23
497.547	608.82
497.98	622.02
498.413	630.15
498.846	640.15
499.279	650.53
499.711	655.58
500.144	659.85
500.577	671.37
501.009	682.21
501.442	693.38
501.874	698.14
502.306	702.38
502.739	712.9
503.171	728.36
503.603	734.98
504.036	745.87
504.468	755.5
504.9	769.44
505.332	779.85
505.764	788.03
506.196	798.05
506.627	814.82
507.059	830.99
507.491	841.9
507.923	844
508.354	861.56
508.786	874.85
509.217	894.52
509.649	911.54
510.08	931.49
510.512	949.97
510.943	967.71
511.374	981.61
511.805	1004.32
512.237	1026.21
512.668	1060.32
513.099	1090.24
513.53	1119.29
513.961	1142.62
514.391	1175.59
514.822	1211.17
515.253	1249.14
515.684	1276.72
516.114	1308.52
516.545	1331.76
516.975	1359.99
517.406	1379.76
517.836	1385.1
518.267	1394.65
518.697	1413.99
519.127	1421.45
519.558	1430.98
519.988	1436.82
520.418	1449.26
520.848	1468.89
521.278	1479.34
521.708	1501.08
522.138	1517.18
522.567	1548.94
522.997	1576.13
523.427	1593.6
523.857	1612.29
524.286	1623.54
524.716	1640.26
525.145	1659.89
525.575	1671.66
526.004	1688.84
526.433	1681.39
526.863	1682.1
527.292	1673.37
527.721	1679.63
528.15	1686.71
528.579	1689.05
529.008	1701.27
529.437	1725.79
529.866	1740.89
530.295	1758.43
530.724	1770.89
531.152	1799.67
531.581	1814.3
532.01	1832.32
532.438	1841.72
532.867	1856.06
533.295	1874.28
533.723	1880.87
534.152	1878.11
534.58	1878.55
535.008	1863.41
535.436	1865.26
535.865	1872.1
536.293	1885.74
536.721	1902.71
537.149	1928.13
537.576	1931.06
538.004	1943.56
538.432	1951.2
538.86	1949.12
539.287	1956.34
539.715	1970.04
540.143	1972.37
540.57	1968.34
540.998	1965.32
541.425	1940.82
541.852	1919.96
542.28	1918.6
542.707	1902.98
543.134	1888.6
543.561	1884.22
543.988	1875.42
544.415	1874.8
544.842	1870.55
545.269	1863.94
545.696	1865.67
546.123	1878.87
546.549	1868.38
546.976	1856
547.403	1855.87
547.829	1859.16
548.256	1862.22
548.682	1860.04
549.108	1852.9
549.535	1852.16
549.961	1854.71
550.387	1841.91
550.813	1836.69
551.24	1843.62
551.666	1845.45
552.092	1836.29
552.518	1829.6
552.943	1824.35
553.369	1832.11
553.795	1839.21
554.221	1842.23
554.646	1839.16
555.072	1851.64
555.498	1857.7
555.923	1866.81
556.349	1882.51
556.774	1892.19
557.199	1894.45
557.625	1902.32
558.05	1896.73
558.475	1908.04
558.9	1905.27
559.325	1897.53
559.75	1889.84
560.175	1884.12
560.6	1879.61
561.025	1876.66
561.449	1876.9
561.874	1881.64
562.299	1885.95
562.723	1893.6
563.148	1882.83
563.572	1887.94
563.997	1898.46
564.421	1904.67
564.846	1904.4
565.27	1906.99
565.694	1904.54
566.118	1916.52
566.542	1923.78
566.966	1914.59
567.39	1908.51
567.814	1896.84
568.238	1894.28
568.662	1898.97
569.086	1900.67
569.509	1907.05
569.933	1889.99
570.357	1881.25
570.78	1858.01
571.204	1844.12
571.627	1832.9
572.05	1830.97
572.474	1831.09
572.897	1817.77
573.32	1808.1
573.743	1798.21
574.166	1778.87
574.589	1778.77
575.012	1770.92
575.435	1768.61
575.858	1759.35
576.281	1748.28
576.704	1730.29
577.126	1715.48
577.549	1704.85
577.972	1694.78
578.394	1683.5
578.817	1676.15
579.239	1656.85
579.661	1642.83
580.084	1628.11
580.506	1614.03
580.928	1609.44
581.35	1599.43
581.772	1595.86
582.194	1582.23
582.616	1568.9
583.038	1554.49
583.46	1543.96
583.882	1539.91
584.303	1544.8
584.725	1539.41
585.147	1541.61
585.568	1551.76
585.99	1563.7
586.411	1569.62
586.833	1583.86
587.254	1585.35
587.675	1598.61
588.096	1610.57
588.518	1605.17
588.939	1587.47
589.36	1586.04
589.781	1575.12
590.202	1547
590.623	1537.78
591.043	1535.58
591.464	1524.46
591.885	1520.31
592.305	1514.57
592.726	1500.12
593.147	1501.76
593.567	1496.17
593.987	1487.64
594.408	1482.03
594.828	1479.7
595.248	1474.06
595.669	1453.1
596.089	1444.33
596.509	1438.15
596.929	1424.94
597.349	1426.51
597.769	1416.27
598.189	1410.14
598.608	1411.04
599.028	1413.06
599.448	1411.79
599.867	1398.63
600.287	1394.94
600.706	1390.78
601.126	1381.16
601.545	1379.17
601.965	1377.51
602.384	1370.55
602.803	1372.14
603.222	1367.13
603.641	1359.29
604.061	1355.27
604.48	1351
604.898	1358.7
605.317	1362.4
605.736	1363.56
606.155	1360.23
606.574	1350.31
606.992	1355.69
607.411	1350.36
607.829	1341.57
608.248	1338.03
608.666	1335.45
609.085	1333.83
609.503	1324.95
609.921	1319.06
610.339	1319.8
610.758	1318.2
611.176	1312.69
611.594	1303.22
612.012	1299.3
612.43	1301.67
612.847	1306.72
613.265	1307.12
613.683	1310.24
614.101	1310.87
614.518	1305.82
614.936	1296.63
615.353	1281.4
615.771	1277.28
616.188	1276.24
616.606	1272.46
617.023	1265.35
617.44	1251.93
617.857	1243.85
618.274	1235.5
618.691	1229.03
619.108	1219.33
619.525	1211.54
619.942	1216.83
620.359	1218.44
620.776	1212.73
621.192	1207.83
621.609	1203.7
622.026	1209.18
622.442	1214.08
622.859	1216.3
623.275	1208.31
623.691	1212.55
624.108	1223.34
624.524	1236.39
624.94	1235.25
625.356	1245.02
625.772	1256.91
626.188	1269.21
626.604	1269.82
627.02	1264.94
627.436	1262.83
627.852	1268.92
628.268	1280.15
628.683	1271.45
629.099	1263.38
629.514	1259.55
629.93	1262.25
630.345	1265.8
630.761	1260.86
631.176	1263.77
631.591	1258.64
632.007	1251.81
632.422	1248.64
632.837	1236.27
633.252	1232.06
633.667	1220.25
634.082	1210.59
634.497	1197.33
634.911	1178.18
635.326	1173.82
635.741	1155.41
636.155	1143.66
636.57	1142.91
636.984	1141.56
637.399	1141.71
637.813	1139.49
638.228	1138.06
638.642	1139.25
639.056	1127.9
639.47	1126.04
639.884	1115.19
640.298	1107.53
640.712	1105.02
641.126	1091.49
641.54	1080.43
641.954	1072.29
642.368	1058.84
642.781	1048.34
643.195	1029.96
643.609	1026.79
644.022	1018.31
644.436	1011.51
644.849	997.69
645.262	983.41
645.676	981.66
646.089	975.27
646.502	960.32
646.915	953.3
647.328	935.95
647.741	931.7
648.154	918.54
648.567	914.94
648.98	902.23
649.393	900.9
649.805	896.82
650.218	888.51
650.631	873
651.043	866.77
651.456	859.49
651.868	858.06
652.28	870.9
652.693	883.03
653.105	885.47
653.517	890.87
653.929	889.46
654.341	893.41
654.753	882.44
655.165	887.68
655.577	883.09
655.989	877.36
656.401	868.58
656.813	837.47
657.224	817.07
657.636	790.98
658.047	775.71
658.459	757.67
658.87	746.27
659.282	733.15
659.693	712.47
660.104	698.54
660.515	684.48
660.926	679.73
661.338	673.97
661.749	665.02
662.159	655.57
662.57	648.29
662.981	642.51
663.392	633.91
663.803	634.38
664.213	629.48
664.624	622.26
665.035	621.52
665.445	609.63
665.855	602.4
666.266	594.86
666.676	590.2
667.086	581.27
667.497	577.46
667.907	570.88
668.317	562.59
668.727	560.41
669.137	559.93
669.547	558.21
669.956	558.87
670.366	559.83
670.776	560.28
671.186	562.85
671.595	565.24
672.005	567.65
672.414	568.51
672.824	566.88
673.233	567.41
673.642	568.76
674.052	570.81
674.461	573.16
674.87	575.74
675.279	574.87
675.688	575.27
676.097	577.49
676.506	576.46
676.915	586.1
677.323	588.8
677.732	588.87
678.141	589.43
678.549	582.26
678.958	582.4
679.366	582.94
679.775	586.42
680.183	597.85
680.592	603.3
681	609.6
681.408	608.14
681.816	616.58
682.224	626.06
682.632	637.93
683.04	664.4
683.448	687.11
683.856	716.22
684.264	749.94
684.671	780.11
685.079	817.96
685.487	860.11
685.894	916.71
686.302	966.5
686.709	1009.82
687.116	1059.36
687.524	1103.57
687.931	1144.12
688.338	1178.39
688.745	1209.88
689.152	1244.59
689.559	1290.43
689.966	1333.98
690.373	1359.57
690.78	1402.88
691.187	1466.56
691.593	1516.67
692	1560.04
692.407	1621.06
692.813	1697.37
693.22	1758.55
693.626	1822.02
694.032	1873.58
694.439	1949.37
694.845	2008.9
695.251	2084.52
695.657	2151.57
696.063	2251.06
696.469	2324.87
696.875	2395.43
697.281	2434.54
697.687	2482.27
698.093	2521.36
698.498	2594.79
698.904	2652.69
699.31	2740.75
699.715	2801.02
700.12	2891.37
700.526	2908.28
700.931	2978.66
701.337	3029.04
701.742	3061.22
702.147	3144.59
702.552	3176.32
702.957	3238.1
703.362	3259.84
703.767	3290.04
704.172	3331.26
704.577	3286.37
704.981	3332.49
705.386	3348.61
705.791	3339.7
706.195	3415.75
706.6	3425.12
707.004	3504.92
707.408	3473.71
707.813	3502.79
708.217	3489.79
708.621	3493.34
709.025	3589.15
709.43	3591.83
709.834	3651.87
710.237	3723.16
710.641	3708.27
711.045	3729.5
711.449	3723.67
711.853	3753.24
712.256	3792.34
712.66	3830.9
713.064	3903.84
713.467	3944.24
713.87	4055.48
714.274	4100.54
714.677	4207.84
715.08	4368.38
715.484	4536.53
715.887	4736.14
716.29	4931.55
716.693	5137.26
717.096	5374.91
717.499	5505.01
717.901	5530.77
718.304	5554.42
718.707	5576.94
719.109	5475.76
719.512	5441.82
719.915	5306.17
720.317	5251.29
720.719	5295.8
721.122	5267
721.524	5217.12
721.926	5176
722.328	5273.13
722.731	5266.31
723.133	5294.66
723.535	5485.29
723.937	5505.27
724.338	5556.75
724.74	5597.56
725.142	5543.49
725.544	5542.6
725.945	5566.8
726.347	5562.58
726.748	5556.34
727.15	5567.47
727.551	5528.99
727.952	5501.36
728.354	5472.05
728.755	5471.08
729.156	5426.56
729.557	5403.5
729.958	5280.18
730.359	5224.03
730.76	5205.2
731.161	5143.88
731.562	5120.02
731.962	5124.19
732.363	5059.42
732.763	4999
733.164	5033.81
733.564	4968.22
733.965	4874.45
734.365	4841.48
734.766	4872.36
735.166	4832.34
735.566	4780.43
735.966	4755.19
736.366	4749.86
736.766	4691.2
737.166	4720.28
737.566	4678.86
737.966	4652.52
738.365	4692.41
738.765	4687.34
739.165	4610.02
739.564	4586.23
739.964	4630
740.363	4583.35
740.763	4580.07
741.162	4567.96
741.561	4535.36
741.96	4492.98
742.36	4513.22
742.759	4517.1
743.158	4553.64
743.557	4568.82
743.955	4607.64
744.354	4562.38
744.753	4620.02
745.152	4578.88
745.55	4632.4
745.949	4625.95
746.348	4627.78
746.746	4644.68
747.144	4604.78
747.543	4584.26
747.941	4631.73
748.339	4563
748.737	4557.89
749.136	4547.86
749.534	4612.12
749.932	4583.17
750.33	4607.61
750.727	4659.62
751.125	4636.7
751.523	4621.93
751.921	4666.21
752.318	4633.74
752.716	4691.57
753.113	4704.11
753.511	4730.38
753.908	4729.84
754.305	4713.99
754.703	4773.98
755.1	4832.43
755.497	4888.82
755.894	5071.16
756.291	5240.85
756.688	5561.15
757.085	5985.97
757.482	6581.97
757.878	7234.02
758.275	7823.32
758.672	8640.5
759.068	9300.72
759.465	10246.7
759.861	11469.27
760.258	12892.93
760.654	13624.67
761.05	13518.72
761.447	12892.72
761.843	12001.25
762.239	11082.89
762.635	10669.69
763.031	10268.91
763.427	9693.96
763.822	9092.14
764.218	8499.26
764.614	7718.98
765.01	7202.92
765.405	6864.52
765.801	6615.84
766.196	6293.78
766.592	6113.16
766.987	5806.3
767.382	5595.45
767.778	5511.03
768.173	5385.75
768.568	5313.5
768.963	5196.41
769.358	5212.83
769.753	5169.3
770.148	5085.84
770.542	5083.87
770.937	5052.56
771.332	5142.67
771.726	5162.77
772.121	5101.31
772.515	5150.73
772.91	5137.09
773.304	5204.07
773.699	5140.71
774.093	5189.95
774.487	5244.26
774.881	5286.24
775.275	5283.16
775.669	5238.76
776.063	5284.2
776.457	5318.69
776.851	5247.5
777.245	5238.5
777.638	5271.36
778.032	5381.48
778.425	5348.35
778.819	5388.94
779.212	5348.15
779.606	5307.65
779.999	5329.83
780.392	5314.64
780.786	5395.22
781.179	5415
781.572	5456.08
781.965	5469.55
782.358	5414.38
782.751	5469.21
783.143	5422.86
783.536	5494.54
783.929	5536.36
784.322	5649.12
784.714	5676.98
785.107	5671.27
785.499	5742.61
785.891	5720.2
786.284	5701.53
786.676	5837
787.068	5814.55
787.46	5864.04
787.852	5883.33
788.245	5967.43
788.636	5995.2
789.028	6060.61
789.42	6100.8
789.812	6110.48
790.204	6208.55
790.595	6305.46
790.987	6114.79
791.378	6141.5
791.77	6271.18
792.161	6401.44
792.553	6454.94
792.944	6347.7
793.335	6279.98
793.726	6349.41
794.117	6436.97
794.508	6567.71
794.899	6536.61
795.29	6676.34
795.681	6732.74
796.072	6592.43
796.463	6419.85
796.853	6433.37
797.244	6586.62
797.634	6624.45
798.025	6626.57
798.415	6640.3
798.806	6729.65
799.196	6814.62
799.586	6868.43
799.976	6833.91
800.366	7062.85
800.756	7296.96
801.146	7257.42
801.536	7289.8
801.926	7361.29
802.316	7389.55
802.706	7461.28
803.095	7339.5
803.485	7440.27
803.874	7479.18
804.264	7731.84
804.653	7708.6
805.043	7850.43
805.432	7959.09
805.821	7960.19
806.21	7984.33
806.599	8098.49
806.988	8146.56
807.377	8257.04
807.766	8385.62
808.155	8662.75
808.544	8400.22
808.933	8412.35
809.321	8392.14
809.71	8681.14
810.098	8834.58
810.487	9283.1
810.875	9751.37
811.264	9768.37
811.652	10051.23
812.04	10191.18
812.428	10353.87
812.816	11107.86
813.204	11516.13
813.592	12057.71
813.98	12384.4
814.368	12296.28
814.756	12764.04
815.144	12682.29
815.531	13141.23
815.919	13063.51
816.306	13365.44
816.694	13060.71
817.081	13113.77
817.469	13453.52
817.856	13448.66
818.243	13708.78
818.63	14099.36
819.017	13691.86
819.404	13766.32
819.791	14136.23
820.178	14750.98
820.565	14999.64
820.952	15923.29
821.339	15439.43
821.725	15628.23
822.112	14903.61
822.498	14868.96
822.885	14989.22
823.271	14895.69
823.657	15303.86
824.044	15320.06
824.43	15385.22
824.816	15348.89
825.202	14916.98
825.588	15917.96
825.974	15926.22
826.36	16430.71
826.746	16470.03
827.132	16817.35
827.517	16798.33
827.903	16025.36
828.289	16056.67
828.674	15288.59
829.06	15196.2
829.445	15579.6
829.83	15919.3
830.216	16383.92
830.601	16735.9
830.986	16332.2
831.371	16203.02
831.756	16740.48
832.141	16314.55
832.526	16302.87
832.911	16575.41
833.295	16445.64
833.68	16897.61
834.065	16293.22
834.449	15405.28
834.834	15326.69
835.218	15322.33
835.603	15645.24
835.987	15431.07
836.371	16246.28
836.755	16144.97
837.139	16534.2
837.524	16770.28
837.908	16594.16
838.291	16651.29
838.675	16710.33
839.059	16917.76
839.443	16900.27
839.827	16676.59
840.21	17144.23
840.594	16993.38
840.977	17189.8
841.361	17165.69
841.744	17522.49
842.127	17367.66
842.511	17608.51
842.894	18182.5
843.277	18548.63
843.66	19072.64
844.043	19146.18
844.426	18372.32
844.809	18075.05
845.191	18113.05
845.574	17665.75
845.957	17319.69
846.339	17215.29
846.722	16701.85
847.104	16766.98
847.487	16597.5
847.869	16605.28
848.252	16875.56
848.634	17186.24
849.016	17431.96
849.398	17544.53
849.78	18366.46
850.162	18367.75
850.544	18773.83
850.926	19383.89
851.307	19307.96
851.689	19579.96
852.071	20018.03
852.452	20334.88
852.834	20320.58
853.215	20713.75
853.597	20861.92
853.978	21146.65
854.359	21595.28
854.741	20638.44
855.122	20531.34
855.503	20243.37
855.884	20369.01
856.265	20313.22
856.646	20427.1
857.026	20042.95
857.407	19975.36
857.788	20126.71
858.169	20402.4
858.549	19578.2
858.93	20182.41
859.31	20236.7
859.69	20437.27
860.071	20044.71
860.451	19832.85
860.831	19105.79
861.211	20233.44
861.591	20759.45
861.971	20735.56
862.351	20926.48
862.731	21292.67
863.111	21538.95
863.491	21855.2
863.87	22718.38
864.25	23059.79
864.629	22675.23
865.009	23179.01
865.388	24003.32
865.768	25728.03
866.147	25633.39
866.526	24223.52
866.905	24522.68
867.284	25897.03
867.663	24585.83
868.042	23550.9
868.421	23474.67
868.8	23861.28
869.179	24098.83
869.558	22683.65
869.936	20904.23
870.315	21264.47
870.693	21772.24
871.072	23470.19
871.45	22359.15
871.828	22647.31
872.207	23805.18
872.585	23447.65
872.963	24085.92
873.341	23255.13
873.719	22977.33
874.097	22706.05
874.475	23143.5
874.853	23682.69
875.23	22698.09
875.608	23647.71
875.986	25588.33
876.363	24477.52
876.741	25221.43
877.118	24589.46
877.495	25797.1
877.873	26229.84
878.25	27603.57
878.627	26479.29
879.004	26836.85
879.381	26714.55
879.758	26016.03
880.135	24215.25
880.512	25598.66
880.889	24915.06
881.265	24655.07
881.642	24448.59
882.019	24868
882.395	24347.8
882.772	25306.93
883.148	24209.04
883.524	24121.75
883.901	23981.17
884.277	24345.35
884.653	24201.37
885.029	24899.03
885.405	27564.48
885.781	27339.99
886.157	26214.66
886.532	26546.5
886.908	26534.93
887.284	29506.44
887.659	30459.86
888.035	31394.11
888.411	32174.96
888.786	32575.97
889.161	33698.54
889.537	33084.37
889.912	34144.18
890.287	34098.46
890.662	34956.59
891.037	34308.59
891.412	31987.24
891.787	31654.82
892.162	30543.24
892.536	31259.32
892.911	30080.77
893.286	29436.12
893.66	28231.14
894.035	28937.37
894.409	31513.44
894.784	30243.3
895.158	30747.96
895.532	32547.25
895.906	33420.08
896.281	34194.9
896.655	33654.07
897.029	38467.9
897.402	40060.71
897.776	44609.93
898.15	44454.98
898.524	43962.49
898.898	44564.31
899.271	49890.12
899.645	43203.89
900.018	41502.61
900.392	43056.44
900.765	43395.45
901.138	40146.32
901.511	39537.87
901.884	36300.6
902.258	33505.1
902.631	34625.29
903.003	39831.65
903.376	35936.02
903.749	40326.87
904.122	43163.94
904.495	47507.58
904.867	48093.07
905.24	41749.21
905.612	38860.65
905.985	39731.41
906.357	41536.73
906.729	39627.47
907.102	33861.64
907.474	32569.63
907.846	32765.5
908.218	32346.35
908.59	28593.57
908.962	27656.45
909.334	29774.28
909.705	31297.07
910.077	30386.84
910.449	31625.17
910.82	32532.94
911.192	35805.41
911.563	37212.9
911.935	39837.85
912.306	39879.29
912.677	41180.97
913.048	40791.88
913.419	44292.02
913.79	44534.01
914.161	47753.99
914.532	45647.04
914.903	41931.93
915.274	39812.39
915.645	39247.66
916.015	34545.2
916.386	32938.52
916.756	35071.03
917.127	36184.01
917.497	32311.8
917.868	35170.42
918.238	33425.04
918.608	34381.46
918.978	35107.57
919.348	37186.67
919.718	38395.83
920.088	36991.85
920.458	38458.46
920.828	40468.06
921.198	38351.57
921.567	40990.52
921.937	31755.64
922.306	32056.2
922.676	34568.54
923.045	28841.28
923.415	27390.59
923.784	24954.27
924.153	25659.47
924.522	25620.91
924.891	24075.42
925.26	25797.44
925.629	25183.3
925.998	28941.18
926.367	28272.63
926.736	26936.45
927.104	32080.74
927.473	34508.78
927.842	41692.63
928.21	41308.43
928.578	43427.91
928.947	41091.32
929.315	41343.51
929.683	48497.72
930.051	48884.79
930.42	56769.65
930.788	48539
931.156	48221.13
931.523	45160.78
931.891	41712.68
932.259	40057.85
932.627	46409.97
932.994	65699.4
933.362	54285.92
933.729	47152.24
934.097	45120.3
934.464	38149.38
934.831	44000.4
935.199	43324.57
935.566	42049.34
935.933	42559.7
936.3	51505.87
936.667	40110.62
937.034	36155.78
937.401	35748.87
937.767	30850.55
938.134	27474.77
938.501	38747.03
938.867	41275.16
939.234	69764.91
939.6	59517.26
939.967	65692.42
940.333	43983.11
940.699	37451.41
941.065	30075.39
941.431	39500.42
941.798	38079.06
942.163	50016.68
942.529	31271.15
942.895	28832.48
943.261	18647.23
943.627	24488.68
943.992	21444.13
944.358	21485.59
944.723	21575.08
945.089	21029.53
945.454	19412.83
945.82	20732.69
946.185	19909.05
946.55	23086.82
946.915	20696.77
947.28	24281.57
947.645	21357.68
948.01	19719.02
948.375	20592.33
948.74	24696.69
949.104	28808.75
949.469	41651.07
949.834	73599.01
950.198	69813.3
950.562	41838.53
950.927	34878.27
951.291	42000.21
951.655	35764.77
952.02	33558.65
952.384	25343.85
952.748	22063.19
953.112	21498.16
953.476	18677.65
953.839	17272.66
954.203	17092.1
954.567	21370.43
954.931	33688.04
955.294	28809.18
955.658	28997.64
956.021	49326.8
956.385	83706.46
956.748	123528.32
957.111	191745.32
957.474	215274.19
957.837	242433.78
958.2	183525.33
958.563	65998.2
958.926	44509.56
959.289	67556.21
959.652	75332.38
960.015	56564.66
960.377	81057.74
960.74	92485.6
961.102	159619.6
961.465	171202.38
961.827	91621.56
962.189	175775.3
962.552	121902.12
962.914	97840.82
963.276	63491.47
963.638	52501.35
964	51939.8
964.362	35135.27
964.724	33956.72
965.085	24206.19
965.447	19864.55
965.809	22645.91
966.17	22664.41
966.532	24530.08
966.893	22510.82
967.255	20486.3
967.616	24229.15
967.977	19406.95
968.338	21200.93
968.699	17420.67
969.061	17412.2
969.421	17523.02
969.782	19673.58
970.143	16623.83
970.504	17215.15
970.865	19563.76
971.225	19991.6
971.586	19543.23
971.946	27845.72
972.307	24176.06
972.667	31582.94
973.027	32533.62
973.388	39421.13
973.748	26796.92
974.108	29159.43
974.468	39433.66
974.828	30409.5
975.188	23418
975.548	21508.24
975.907	18069.1
976.267	20268.09
976.627	17044.37
976.986	17671.58
977.346	16869.9
977.705	16249.6
978.064	14797.46
978.424	12319.06
978.783	12730.26
979.142	14527.45
979.501	13898.05
979.86	14688.06
980.219	14161.74
980.578	18242.59
980.937	20429.43
981.296	18220.12
981.654	18724.18
982.013	29131.44
982.371	37771.25
982.73	35297.1
983.088	39970.03
983.447	42710.02
983.805	61024.46
984.163	127189.57
984.521	141171.38
984.879	207046.91
985.237	-335944.58
985.595	323945.29
985.953	80674.85
986.311	46612.82
986.669	27066.63
987.026	23344.15
987.384	31361.27
987.741	32451.4
988.099	23263.22
988.456	18539.64
988.814	17358.71
989.171	15124.25
989.528	14915.26
989.885	15727.78
990.242	12475.98
990.599	15530.06
990.956	12714.63
991.313	8895.61
991.67	7303.28
992.027	7731.07
992.383	6883.24
992.74	6034.8
993.096	6330.42
993.453	6556.94
993.809	6796.42
994.165	9033.5
994.522	8289.17
994.878	9130.05
995.234	11450.78
995.59	11276.24
995.946	10672.19
996.302	12159.34
996.658	14056.24
997.013	15459.93
997.369	18398.87
997.725	23595.3
998.08	15310.57
998.436	23584.97
998.791	32558.66
999.147	32549.35
999.502	35574.9
999.857	25841.97
1000.212	42110.14
1000.567	59913.49
1000.922	34674.49
1001.277	22002.46
1001.632	16317.36
1001.987	20994.96
1002.342	15055.18
1002.696	12035.4
1003.051	9592.71
1003.406	11614.11
1003.76	11556.2
1004.114	11434.82
1004.469	9625.88
1004.823	7956.91
1005.177	8596.2
1005.531	6803.33
1005.885	6025.13
1006.239	6814.46
1006.593	8548.62
1006.947	11449.09
1007.301	8590.53
1007.655	9399.69
1008.008	6883.15
1008.362	7739.17
1008.715	11058.26
1009.069	10041.99
1009.422	15129.67
1009.776	30431.18
1010.129	20186.24
1010.482	16867.66
1010.835	14251.22
1011.188	29687.27
1011.541	27916.35
1011.894	-170153.96
1012.247	501510.64
1012.6	33993.76
1012.952	21459.51
1013.305	11068.59
1013.657	7973.8
1014.01	7510.64
1014.362	6184.12
1014.715	5498.38
1015.067	4782.67
1015.419	4683.8
1015.771	4161.79
1016.123	3693.06
1016.475	3806.76
1016.827	4048.53
1017.179	4345.47
1017.531	4392.54
1017.883	4518.71
1018.234	4373.95
1018.586	5530.88
1018.938	5864.8
1019.289	8084.24
1019.64	9269.39
1019.992	8621.98
1020.343	7869.24
1020.694	6231.56
1021.045	5525.9
1021.396	6291.94
1021.747	6735.01
1022.098	8076.11
1022.449	5840.8
1022.8	5413.52
1023.151	3762.79
1023.501	3329.91
1023.852	3613.62
1024.202	3768.38
1024.553	4119.43
1024.903	4033.95
1025.253	3455.99
1025.604	3114.18
1025.954	3857.45
1026.304	4692.05
1026.654	5462.53
1027.004	8006.23
1027.354	12977.77
1027.703	12308.28
1028.053	16158.77
1028.403	23849.85
1028.753	34316.52
1029.102	46842.49
1029.452	241520.35
1029.801	10496.12
1030.15	6831.71
1030.499	5819.78
897.758	2757.09
901.051	2715.9
904.343	2749.62
907.636	2750.67
910.928	2815.94
914.22	2725.13
917.511	2734.45
920.803	2798.52
924.094	2821.32
927.384	2797.83
930.675	2761.87
933.965	2711.91
937.255	2718.15
940.544	2687.75
943.834	2615.18
947.123	2562.22
950.411	2657.69
953.7	2629.74
956.988	2598.08
960.276	2538.42
963.563	2623.9
966.851	2618.92
970.138	2679.94
973.424	2672.95
976.711	2620.39
979.997	2766.65
983.283	2797.47
986.568	2698.96
989.853	2720.59
993.138	2747.35
996.423	2830.61
999.708	2765.02
1002.992	2835.53
1006.275	2655.99
1009.559	2708.93
1012.842	2828.35
1016.125	2759.26
1019.408	2738.47
1022.69	2832.34
1025.972	2846.62
1029.254	2821.12
1032.536	2747.94
1035.817	2776.83
1039.098	2715.51
1042.379	2879.96
1045.659	2872.43
1048.939	2799.71
1052.219	2825.74
1055.498	2840.2
1058.778	2821.07
1062.057	2807.83
1065.335	2826.57
1068.614	2849.36
1071.892	2829.78
1075.17	2907.46
1078.447	2892.62
1081.724	2881.8
1085.001	2925.41
1088.278	2893.9
1091.554	2907.26
1094.83	2904.99
1098.106	2933.16
1101.382	2983
1104.657	2980.07
1107.932	2976.19
1111.206	2942.38
1114.481	2897.79
1117.755	2900.41
1121.029	2875.05
1124.302	2930.67
1127.575	2880.51
1130.848	2866.93
1134.121	2824
1137.393	2771.4
1140.665	2840.42
1143.937	2813.01
1147.208	2772.47
1150.48	2811.29
1153.75	2799.32
1157.021	2834.86
1160.291	2802.37
1163.561	2847.27
1166.831	2840.49
1170.101	2874.84
1173.37	2847.5
1176.639	2789.85
1179.907	2855.84
1183.176	2856.73
1186.444	2864.87
1189.711	2895
1192.979	2904.84
1196.246	2861.9
1199.513	2878.58
1202.78	2874.31
1206.046	2883.45
1209.312	2912.61
1212.578	2940.21
1215.843	2885.01
1219.108	2860.43
1222.373	2883.42
1225.638	2844.36
1228.902	2829.62
1232.166	2795.48
1235.43	2776.98
1238.693	2801.76
1241.956	2799.18
1245.219	2835.6
1248.482	2829.3
1251.744	2822.75
1255.006	2981.82
1258.268	2939.01
1261.529	2879.05
1264.79	2886.43
1268.051	2991.13
1271.312	3012.06
1274.572	2972.22
1277.832	2962.09
1281.092	2954.18
1284.351	2924.31
1287.61	2901.64
1290.869	2812.63
1294.128	2783.83
1297.386	2882.67
1300.644	2869.79
1303.902	2881.8
1307.159	2733.14
1310.416	2788.99
1313.673	2814.1
1316.93	2799.01
1320.186	2845.46
1323.442	2893.77
1326.697	2877.27
1329.953	2871.6
1333.208	2890.16
1336.463	2872.36
1339.717	2808.11
1342.972	2951.38
1346.226	2928.87
1349.479	2857.17
1352.733	2823.99
1355.986	2851.35
1359.238	2825.08
1362.491	2829.65
1365.743	2834.33
1368.995	2828.38
1372.247	2843.67
1375.498	2869.96
1378.749	2881.71
1382	2833.22
1385.251	2891.01
1388.501	2855.17
1391.751	2836.29
1395	2808.6
1398.25	2841.09
1401.499	2846.8
1404.748	2771.78
1407.996	2762.61
1411.244	2746.05
1414.492	2723.71
1417.74	2706.69
1420.987	2715.56
1424.234	2771.9
1427.481	2754.14
1430.728	2815.53
1433.974	2789.04
1437.22	2805.58
1440.465	2806.58
1443.711	2762.2
1446.956	2803.28
1450.201	2792.45
1453.445	2837.88
1456.689	2814.97
1459.933	2827.98
1463.177	2864.17
1466.42	2832.45
1469.663	2812.8
1472.906	2803.8
1476.148	2891.71
1479.391	2841.29
1482.633	2810.34
1485.874	2823.17
1489.115	2804.7
1492.356	2813.9
1495.597	2788.14
1498.838	2789.97
1502.078	2755.9
1505.318	2702.19
1508.557	2746.81
1511.797	2713.46
1515.036	2795.39
1518.274	2788.12
1521.513	2759.25
1524.751	2782.32
1527.989	2793.55
1531.227	2808.07
1534.464	2796.46
1537.701	2824.02
1540.938	2842.91
1544.174	2795.64
1547.41	2794.92
1550.646	2838.57
1553.882	2868.17
1557.117	2925.89
1560.352	2941.35
1563.587	2900.9
1566.821	2855.93
1570.055	2895.63
1573.289	2861.07
1576.523	2942.36
1579.756	2948.11
1582.989	2969.41
1586.222	2927.63
1589.454	2970.9
1592.686	2939.28
1595.918	2965.76
1599.15	2948.68
1602.381	3032.49
1605.612	2982.19
1608.843	3084.02
1612.073	2993.4
1615.303	2977.32
1618.533	2965.1
1621.762	2968.2
1624.992	2954.57
1628.221	2939.29
1631.449	2921.95
1634.678	2984.36
1637.906	2932.52
1641.134	2973.49
1644.361	2926.92
1647.588	2915.26
1650.815	2929.47
1654.042	2912.41
1657.269	2942.28
1660.495	2890.51
1663.72	2902.57
1666.946	2867.74
1670.171	2804.32
1673.396	2782.52
1676.621	2772.71
1679.845	2794.31
1683.069	2818.14
1686.293	2865.76
1689.517	2831.95
1692.74	2757.44
1695.963	2790.07
1699.185	2816.25
1702.408	2790.12
1705.63	2836.52
1708.852	2845.72
1712.073	2817.15
1715.294	2800.34
1718.515	2863.08
1721.736	2806.05
1724.956	2801.26
1728.176	2828.97
1731.396	2850.9
1734.616	2839.11
1737.835	2865.7
1741.054	2845.94
1744.272	2837.44
1747.491	2870.1
1750.709	2928.41
1753.927	2824.12
1757.144	2875.02
1760.361	2916.59
1763.578	2910.63
1766.795	2849.5
1770.011	2860.95
1773.227	2902.71
1776.443	2934.5
1779.658	2984.92
1782.874	2924.7
1786.089	2900.96
1789.303	2904.17
1792.518	2908.84
1795.732	2896.34
1798.945	2905.82
1802.159	2958.06
1805.372	2849.23
1808.585	2835.72
1811.797	2838.5
1815.01	2891.13
1818.222	2890.54
1821.434	2851.2
1824.645	2914.39
1827.856	2893.15
1831.067	2931.61
1834.278	2890.62
1837.488	2875.26
1840.698	3031.27
1843.908	2950.09
1847.117	2914.53
1850.326	2786.28
1853.535	2902.25
1856.744	2939.55
1859.952	2850.8
1863.16	2853.42
1866.368	2877.45
1869.575	2981.19
1872.782	2858.96
1875.989	2800.66
1879.196	2893.76
1882.402	2884.41
1885.608	2929.1
1888.814	2822.09
1892.019	2712
1895.224	2764.73
1898.429	2747.75
1901.634	2722.47
1904.838	2700.86
1908.042	2754.87
1911.246	2757.4
1914.449	2682.13
1917.652	2681.96
1920.855	2663.22
1924.058	2718.21
1927.26	2756.87
1930.462	2785.79
1933.664	2810.07
1936.865	2743.18
1940.066	2748.28
1943.267	2694.98
1946.467	2714.07
1949.668	2743.07
1952.868	2810.08
1956.067	2786.32
1959.267	2713
1962.466	2741.38
1965.665	2726.73
1968.863	2722.37
1972.061	2741.14
1975.259	2743.47
1978.457	2821.34
1981.654	2780.23
1984.852	2779.29
1988.048	2708.03
1991.245	2713.4
1994.441	2799.31
1997.637	2790.33
2000.833	2770.79
2004.028	2811.33
2007.223	2865.77
2010.418	2841.88
2013.613	2805.44
2016.807	2769
2020.001	2779.16
2023.194	2826.96
2026.388	2802.38
2029.581	2750.96
2032.774	2795.8
2035.966	2803.12
2039.158	2730.87
2042.35	2759.57
2045.542	2684.63
2048.733	2788.97
2051.924	2817.51
2055.115	2849.9
2058.306	2789.11
2061.496	2849.22
2064.686	2917.29
2067.875	2830.47
2071.065	2846.87
2074.254	2877.68
2077.442	2829.6
2080.631	2922.27
2083.819	2806.32
2087.007	2788.38
2090.195	2751.97
2093.382	2792.32
2096.569	2770.87
2099.756	2718.45
2102.942	2742.48
2106.128	2746.12
2109.314	2737.33
2112.5	2694.35
2115.685	2670.97
2118.87	2684.06
2122.055	2747.18
2125.239	2713.89
2128.424	2682.47
2131.608	2793.99
2134.791	2773.22
2137.974	2835.27
2141.157	2821.23
2144.34	2767.54
2147.523	2786.02
2150.705	2798.99
2153.887	2779.14
2157.068	2725.48
2160.25	2730.53
2163.431	2772.11
2166.611	2714.71
2169.792	2733.92
2172.972	2621.61
2176.152	2703.67
2179.331	2741.23
2182.511	2722.63
2185.69	2752.3
2188.868	2744.08
2192.047	2805.53
2195.225	2791.1
2198.403	2738.33
2201.58	2730.91
2204.758	2727.47
2207.935	2815.79
2211.111	2698.53
2214.288	2681.87
2217.464	2721.31
2220.64	2694.34
2223.815	2752.43
2226.991	2670.4
2230.166	2690.94
2233.34	2721.75
2236.515	2750.57
2239.689	2825.74
2242.863	2768.03
2246.036	2824.12
2249.209	2825.9
2252.382	2865.92
2255.555	2848.86
2258.727	2781.61
2261.9	2825.3
2265.071	2817.27
2268.243	2819.39
2271.414	2744.86
2274.585	2701.62
2277.756	2767.77
2280.926	2727.16
2284.096	2771.23
2287.266	2669.82
2290.436	2731.55
2293.605	2761.06
2296.774	2788.97
2299.942	2816.47
2303.111	2827.97
2306.279	2878.12
2309.447	2864.32
2312.614	2843.28
2315.781	2861.04
2318.948	2828.02
2322.115	2868.58
2325.281	2767.55
2328.447	2790.24
2331.613	2765.11
2334.779	2730.93
2337.944	2743.14
2341.109	2738.57
2344.274	2720.45
2347.438	2683.61
2350.602	2707.62
2353.766	2726.83
2356.929	2712.18
2360.092	2753.87
2363.255	2704.48
2366.418	2629.23
2369.58	2752.95
2372.742	2518.83
2375.904	2539.11
2379.066	2513.83
2382.227	2552.54
2385.388	2513.64
2388.548	2435.07
2391.709	2494.02
2394.869	2473.5
2398.029	2579.98
2401.188	2600.24
2404.347	2526.53
2407.506	2681.92
2410.665	2708.31
2413.823	2716.73
2416.981	2669.68
2420.139	2706.89
2423.296	2758.47
2426.453	2730.97
2429.61	2751.94
2432.767	2678.64
2435.923	2713.7
2439.079	2675.52
2442.235	2727.2
2445.391	2650.48
2448.546	2679.22
2451.701	2730.66
2454.855	2697.28
2458.009	2756.6
2461.163	2760.44
2464.317	2720.63
2467.471	2755.6
2470.624	2797.36
2473.777	2770.85
2476.929	2784.87
2480.082	2812.57
2483.234	2773.43
2486.385	2730.77
2489.537	2720.99
2492.688	2674.96
2495.839	2694.42
2498.989	2703.17
2502.14	2687.93
2505.29	2667.3
2508.439	2694.78
2511.589	2612.95
2514.738	2628.39
2517.887	2661.09
2521.035	2721.01
2524.183	2709.72
2527.331	2690.64
2530.479	2659.34
2533.627	2673.42
