Data from N_3_DIV_PA_2N_Splice17_13-16-51-140.txt Node
Date: Sat Mar 14 13:16:51 EDT 2020
User: sa697716
Spectrometer: FLMS03696
Trigger mode: 0
Integration Time (sec): 3.180400E-1
Scans to average: 20
Electric dark correction enabled: true
Nonlinearity correction enabled: true
Boxcar width: 5
XAxis mode: Wavelengths
Number of Pixels in Spectrum: 2048
>>>>>Begin Spectral Data<<<<<
187.83	-339876.76
188.298	2704.14
188.766	1502.97
189.233	1356.38
189.701	1886.79
190.169	2544.61
190.636	962.65
191.104	762.78
191.571	157.7
192.039	-34.51
192.506	47.16
192.974	727.34
193.441	-753.37
193.908	18.81
194.375	65.72
194.842	130.24
195.31	224.34
195.777	205.1
196.244	338.72
196.711	229.05
197.177	191.01
197.644	185.74
198.111	283.8
198.578	337.26
199.045	233.36
199.511	282.44
199.978	215.37
200.445	224.54
200.911	218.32
201.378	151.36
201.844	183.84
202.31	285.28
202.777	311.76
203.243	188.99
203.709	186.42
204.176	229.67
204.642	222.19
205.108	236.97
205.574	154.24
206.04	106.17
206.506	104.36
206.972	58.63
207.438	66.46
207.903	64.87
208.369	79.76
208.835	92.41
209.301	101.27
209.766	80.56
210.232	88.69
210.697	103.94
211.163	98.35
211.628	116.38
212.094	159.18
212.559	279.18
213.024	194.35
213.49	254.55
213.955	232.95
214.42	176.6
214.885	185.39
215.35	214.8
215.815	343.2
216.28	417.14
216.745	358.75
217.21	429.07
217.675	375.17
218.14	465.28
218.604	526.43
219.069	650.61
219.534	764.64
219.998	907.6
220.463	1126.48
220.927	1333.02
221.392	1281.59
221.856	1351.18
222.32	1684.08
222.785	2157.58
223.249	2736.8
223.713	3094.19
224.177	3135.46
224.642	4014.34
225.106	4985.88
225.57	5468.13
226.034	4166.9
226.497	6479.09
226.961	5965.81
227.425	7068.48
227.889	7842.41
228.353	7922.02
228.816	16495.48
229.28	15940.95
229.744	13601.25
230.207	8399.89
230.671	8328.1
231.134	13741.73
231.597	15955.09
232.061	15891.92
232.524	15523.15
232.987	10797.71
233.45	9782.52
233.914	8804.07
234.377	8995.54
234.84	8252.32
235.303	9732.55
235.766	10921.34
236.229	11311.21
236.691	7108.93
237.154	8008.13
237.617	6072.23
238.08	6214.48
238.542	7281.81
239.005	5235.91
239.468	5227.3
239.93	4928.04
240.393	4491.35
240.855	3952.86
241.317	4050.8
241.78	4924.01
242.242	5123.3
242.704	5560.77
243.166	4862.62
243.629	4456.67
244.091	5162.31
244.553	5701.67
245.015	6182.51
245.477	8009.53
245.939	11767.49
246.4	12531.34
246.862	12221.1
247.324	11578.64
247.786	12977.63
248.247	17068.38
248.709	17590.26
249.17	13181.46
249.632	12518.01
250.093	14584.13
250.555	12659.59
251.016	7781.12
251.477	7439.78
251.939	8084.01
252.4	8500.48
252.861	10112.31
253.322	9451.76
253.783	11267.67
254.244	14652.35
254.705	11532.94
255.166	10247.36
255.627	10147.03
256.088	14363.22
256.549	15255.44
257.009	13141.53
257.47	15946.7
257.931	13014.86
258.391	9766.1
258.852	10096.19
259.312	10597.49
259.773	13131.3
260.233	11179.02
260.694	9438.62
261.154	10702.01
261.614	8668.25
262.074	7788.22
262.534	8137.66
262.994	7714.93
263.455	10322.9
263.915	8752.27
264.374	8271.94
264.834	9044.48
265.294	10014.57
265.754	10407.72
266.214	9879.51
266.673	9259.66
267.133	11702.25
267.593	11613.57
268.052	14244.92
268.512	12412.89
268.971	15037.35
269.431	16521.43
269.89	14837.51
270.349	22310.66
270.809	24996.85
271.268	22518.72
271.727	50532.91
272.186	32751.89
272.645	24619.21
273.104	17756.43
273.563	25707.9
274.022	20166.93
274.481	17229.54
274.94	13313.2
275.399	9920.84
275.857	11569.13
276.316	15683
276.775	14012.44
277.233	13888.02
277.692	13082.47
278.15	14877.14
278.609	15398.94
279.067	14288.04
279.525	13326.67
279.984	17216.9
280.442	20711.18
280.9	20480.08
281.358	13525.18
281.816	12637.06
282.274	12358.13
282.732	12744.9
283.19	12778.8
283.648	11025.03
284.106	11748.2
284.564	11941
285.021	11096.11
285.479	8279.24
285.937	7504.34
286.394	6600.88
286.852	6796.14
287.309	7164.24
287.767	6979.39
288.224	6679.85
288.682	7344.81
289.139	8116.46
289.596	7482.23
290.053	7819.61
290.511	9927.55
290.968	12127.5
291.425	16574.51
291.882	13938.3
292.339	12225.62
292.796	12137.16
293.252	11483.52
293.709	9204.76
294.166	8277.53
294.623	9175.03
295.079	8818.69
295.536	8892.98
295.992	8103.75
296.449	8003.39
296.905	8329.27
297.362	8018.95
297.818	8469.58
298.274	8817.34
298.731	8957.29
299.187	8867.51
299.643	9505.06
300.099	11514.36
300.555	12610.55
301.011	10545.93
301.467	10236.7
301.923	11901.06
302.379	11597
302.835	11387.47
303.291	11394.37
303.746	12978.97
304.202	16376.58
304.658	16460.66
305.113	11084.23
305.569	10880.27
306.024	11570.88
306.479	10948.6
306.935	9284.79
307.39	10126.46
307.845	9334.02
308.301	9384.49
308.756	9126.97
309.211	8816.73
309.666	9013.03
310.121	11193.14
310.576	11337.84
311.031	11225.07
311.486	12812.32
311.94	12745.74
312.395	17071.52
312.85	32052.81
313.305	156815.02
313.759	816438.85
314.214	59069.66
314.668	46834.37
315.123	39418.04
315.577	14176.05
316.032	12642.16
316.486	15850.86
316.94	12546.13
317.394	8734.96
317.849	6793.18
318.303	6436.26
318.757	6081.13
319.211	6727.8
319.665	5905.75
320.119	5982.24
320.572	8567.11
321.026	8018.35
321.48	6700.44
321.934	7277.18
322.387	7283.01
322.841	7891.98
323.295	7159.52
323.748	8214.74
324.202	8369
324.655	10050.14
325.108	14080.66
325.562	9968.61
326.015	11827.98
326.468	8929.25
326.921	10000.38
327.374	9358.49
327.827	9760.72
328.28	11021.18
328.733	7404.58
329.186	6505.32
329.639	6197.58
330.092	5213.12
330.545	4971.96
330.997	5027.84
331.45	5499.84
331.903	6466.01
332.355	11066.79
332.808	10697.37
333.26	8794.3
333.713	9536.22
334.165	9563.46
334.617	12720.9
335.069	10221.28
335.522	18367.05
335.974	20274.92
336.426	18440.61
336.878	12687.85
337.33	6449.66
337.782	6283.89
338.234	7897.4
338.686	9444.86
339.137	11164.45
339.589	10526.2
340.041	8276.78
340.493	7129.3
340.944	7315.59
341.396	7921.64
341.847	6708.03
342.299	7952.52
342.75	9799.85
343.201	8556.29
343.653	9833.28
344.104	12152.61
344.555	9621.09
345.006	14932.15
345.457	11545.91
345.908	9205.4
346.359	8717.56
346.81	7134.36
347.261	7519.5
347.712	7401.57
348.163	7951.9
348.613	8122.49
349.064	7597.78
349.515	6645.27
349.965	6848.98
350.416	8238.98
350.866	9047.13
351.317	10202.85
351.767	16896.74
352.217	21324.48
352.668	17745.9
353.118	16282.5
353.568	15655.92
354.018	12414.7
354.468	13176.48
354.918	9471.78
355.368	8280.77
355.818	11700.27
356.268	33569.47
356.718	140797.8
357.168	35049.42
357.617	17531.9
358.067	19457.44
358.517	18221.26
358.966	21410.08
359.416	23999.39
359.865	25925.73
360.315	30760.96
360.764	14351.88
361.213	8056.9
361.663	7603.99
362.112	9400.86
362.561	15201.28
363.01	11516.97
363.459	9689.6
363.908	10471.91
364.357	8925.94
364.806	15091.17
365.255	10428.41
365.703	9609.84
366.152	9653.31
366.601	7831.24
367.05	6378.47
367.498	5794.55
367.947	6032.29
368.395	6259.46
368.844	5545.71
369.292	6639.47
369.74	4615.23
370.189	7021.44
370.637	8186.1
371.085	7055.02
371.533	8585.35
371.981	8265.24
372.429	7945.15
372.877	8279.58
373.325	6929.88
373.773	7049.33
374.221	6282.7
374.669	7731.72
375.116	6689.12
375.564	6783.41
376.012	7596.08
376.459	6264.46
376.907	7447.6
377.354	8914.2
377.801	8328.37
378.249	9607.66
378.696	12250.72
379.143	14767.75
379.591	15765.78
380.038	26745.05
380.485	19225.1
380.932	20697.94
381.379	19001.99
381.826	14104.88
382.273	10011.16
382.72	8703.22
383.166	8494.77
383.613	5504.35
384.06	4947.69
384.506	5702.09
384.953	4171.36
385.4	4179.17
385.846	3645.84
386.292	3526.87
386.739	3417.95
387.185	3367.77
387.631	3364.31
388.078	3255.93
388.524	3472.76
388.97	3215.44
389.416	2681.24
389.862	2852.05
390.308	2704.7
390.754	2737
391.2	2944.77
391.645	2991.63
392.091	2882.58
392.537	2774.98
392.983	2754.66
393.428	2720.95
393.874	2896.18
394.319	2901.49
394.765	2749.02
395.21	2802.29
395.655	2614.07
396.101	2445.13
396.546	2199.82
396.991	2191.57
397.436	2023.24
397.881	1946.94
398.326	1819.6
398.771	1717.2
399.216	1485.49
399.661	1322.19
400.106	1317.99
400.551	1343.63
400.995	1205.15
401.44	1195.65
401.885	1120.6
402.329	1130.01
402.774	1080.52
403.218	1054.35
403.663	1007.39
404.107	1036.45
404.551	1045.65
404.995	949.71
405.44	912.28
405.884	915.79
406.328	871.3
406.772	862.89
407.216	783.89
407.66	754.75
408.104	703.54
408.547	657.33
408.991	631.95
409.435	604.68
409.879	597.86
410.322	589.8
410.766	569.78
411.209	546.52
411.653	521.09
412.096	511.92
412.54	507.14
412.983	504.69
413.426	507.53
413.869	504.56
414.312	495.5
414.756	473.75
415.199	448.06
415.642	436.21
416.085	434.18
416.527	430.49
416.97	433.94
417.413	413.59
417.856	406.05
418.298	398.23
418.741	391.48
419.184	386.07
419.626	397.48
420.069	395.4
420.511	395.59
420.953	388.17
421.396	383.26
421.838	370.72
422.28	378.57
422.722	382.19
423.164	385.85
423.606	381.37
424.048	379.44
424.49	363.5
424.932	360.83
425.374	353.64
425.816	358.11
426.258	364.4
426.699	368.7
427.141	366.22
427.582	368.31
428.024	364.77
428.465	358.77
428.907	348.58
429.348	340.49
429.789	342.33
430.231	338.6
430.672	342.79
431.113	334.17
431.554	329.42
431.995	314.02
432.436	305.95
432.877	303.32
433.318	300.73
433.759	297.19
434.2	296.88
434.64	291.35
435.081	290.57
435.522	272.98
435.962	261.83
436.403	255.81
436.843	257.52
437.284	247.64
437.724	235.5
438.164	230.85
438.604	226.93
439.045	218.65
439.485	211.94
439.925	204.65
440.365	198.92
440.805	195.02
441.245	192.45
441.685	185.83
442.125	183.15
442.564	183.14
443.004	178.92
443.444	176.39
443.883	177.22
444.323	171.89
444.762	166.67
445.202	166.6
445.641	170.68
446.081	165.05
446.52	165.94
446.959	164.49
447.398	160.66
447.837	159.02
448.276	154.23
448.716	153.66
449.154	151.71
449.593	151.63
450.032	151.99
450.471	146.26
450.91	145.31
451.349	145.63
451.787	144.28
452.226	145.03
452.664	144.27
453.103	144.69
453.541	143.32
453.98	147.73
454.418	147.31
454.856	145.92
455.295	145.96
455.733	148.94
456.171	147.72
456.609	147.5
457.047	148.12
457.485	152.87
457.923	155.19
458.361	152.76
458.798	151.74
459.236	151.09
459.674	149.98
460.111	151.47
460.549	149.94
460.987	149.16
461.424	148.64
461.862	147.69
462.299	144.79
462.736	145.18
463.173	145.92
463.611	147.22
464.048	148.69
464.485	150.72
464.922	148.24
465.359	146.14
465.796	154.05
466.233	154.29
466.67	155.34
467.106	155.92
467.543	150.94
467.98	147.62
468.416	140.06
468.853	137
469.29	131.32
469.726	129.42
470.162	126.69
470.599	116.2
471.035	113.09
471.471	109.06
471.907	105.41
472.344	105.6
472.78	107.93
473.216	108.47
473.652	106.87
474.088	106.4
474.523	106.39
474.959	107.16
475.395	106.67
475.831	107.35
476.266	107.56
476.702	106.71
477.138	105.9
477.573	104.37
478.008	105.24
478.444	106.97
478.879	110.34
479.314	111.51
479.75	111.47
480.185	111.4
480.62	110.91
481.055	110.54
481.49	112.99
481.925	114.75
482.36	119.03
482.795	121.64
483.229	123.71
483.664	124.94
484.099	124.29
484.534	126.26
484.968	128.62
485.403	129.13
485.837	128.88
486.271	127.46
486.706	126.55
487.14	123.04
487.574	120.71
488.009	119.49
488.443	117.45
488.877	119.48
489.311	118.77
489.745	118.89
490.179	120.13
490.613	123.96
491.046	123.84
491.48	124.11
491.914	124.41
492.348	124.55
492.781	125.13
493.215	124.25
493.648	122.1
494.082	121.91
494.515	121.99
494.948	122.85
495.382	120.9
495.815	121.3
496.248	121.68
496.681	121.95
497.114	122.05
497.547	122.36
497.98	125.26
498.413	127.08
498.846	127.77
499.279	126.28
499.711	124.05
500.144	122.11
500.577	123.57
501.009	123.11
501.442	123.47
501.874	122.41
502.306	120.09
502.739	122.09
503.171	121.58
503.603	120.57
504.036	120.04
504.468	119.26
504.9	118.91
505.332	116.34
505.764	115.51
506.196	113.87
506.627	114.07
507.059	114.11
507.491	108.91
507.923	106.8
508.354	107.23
508.786	106.54
509.217	106.62
509.649	106.92
510.08	106.94
510.512	107.21
510.943	106.45
511.374	105.48
511.805	105.15
512.237	104.49
512.668	104.15
513.099	102.86
513.53	102.97
513.961	102.98
514.391	103.29
514.822	105.87
515.253	106.77
515.684	107.72
516.114	107.72
516.545	108.51
516.975	109.09
517.406	108.55
517.836	106.78
518.267	105.83
518.697	106.28
519.127	105.08
519.558	101.73
519.988	99.53
520.418	97.45
520.848	96.07
521.278	93.9
521.708	122.52
522.138	123.12
522.567	123.02
522.997	122.8
523.427	121
523.857	120.64
524.286	120.08
524.716	120.36
525.145	121.58
525.575	122.41
526.004	121.82
526.433	91.43
526.863	89.44
527.292	90.01
527.721	90.94
528.15	90.96
528.579	90.32
529.008	90.78
529.437	90.26
529.866	89.09
530.295	88.08
530.724	89.91
531.152	91.23
531.581	92.35
532.01	92.14
532.438	90.72
532.867	90.4
533.295	91.3
533.723	90.61
534.152	90.57
534.58	91.17
535.008	90.87
535.436	90.67
535.865	90.18
536.293	89.04
536.721	88.65
537.149	90.38
537.576	92.27
538.004	92.53
538.432	92.45
538.86	92.48
539.287	91.98
539.715	92.88
540.143	91.3
540.57	90.83
540.998	90.54
541.425	91.38
541.852	89.86
542.28	88.12
542.707	86.97
543.134	86.68
543.561	86.71
543.988	86.88
544.415	86.25
544.842	86.11
545.269	86.53
545.696	87.91
546.123	87.69
546.549	87.04
546.976	86.69
547.403	86.39
547.829	85.73
548.256	85.02
548.682	84.61
549.108	85.87
549.535	85.78
549.961	85.04
550.387	83.82
550.813	84.63
551.24	84.85
551.666	84.26
552.092	83.79
552.518	83.56
552.943	84.2
553.369	84.02
553.795	83.33
554.221	83.82
554.646	84.04
555.072	86.27
555.498	84.61
555.923	84.65
556.349	85.78
556.774	86.39
557.199	86.32
557.625	85.41
558.05	86.4
558.475	86.93
558.9	86.69
559.325	86.76
559.75	86.43
560.175	86.52
560.6	86.5
561.025	85.57
561.449	85.75
561.874	85.97
562.299	87.59
562.723	86.79
563.148	86.36
563.572	86.8
563.997	87.81
564.421	86.54
564.846	86.39
565.27	86.95
565.694	87.96
566.118	89.31
566.542	92.18
566.966	92.07
567.39	93.17
567.814	93.56
568.238	94.45
568.662	94.28
569.086	96.16
569.509	96.75
569.933	98.32
570.357	97.98
570.78	97.06
571.204	98.13
571.627	98.38
572.05	99.12
572.474	100.64
572.897	100.68
573.32	102.56
573.743	101.59
574.166	102.72
574.589	101.75
575.012	102.54
575.435	102.94
575.858	101.25
576.281	101.24
576.704	99.85
577.126	98.25
577.549	97.44
577.972	96.06
578.394	96.26
578.817	98.76
579.239	97.99
579.661	98.09
580.084	99.43
580.506	99.79
580.928	99.05
581.35	99.05
581.772	99.04
582.194	98.72
582.616	97.92
583.038	96.53
583.46	93.33
583.882	93.8
584.303	93.18
584.725	91.87
585.147	97.24
585.568	99.02
585.99	101.31
586.411	103.53
586.833	106.17
587.254	107.47
587.675	108.72
588.096	110.4
588.518	110.73
588.939	111.07
589.36	111.11
589.781	103.24
590.202	105.2
590.623	103.86
591.043	102.31
591.464	100.47
591.885	100.66
592.305	100.85
592.726	99.55
593.147	99.46
593.567	99.41
593.987	99.59
594.408	99.81
594.828	95.51
595.248	96.34
595.669	96.52
596.089	96.67
596.509	95.72
596.929	94.72
597.349	95.46
597.769	95.05
598.189	94.33
598.608	94.08
599.028	95.05
599.448	94.85
599.867	93.66
600.287	92.39
600.706	93.05
601.126	93.23
601.545	94.63
601.965	94.69
602.384	94.56
602.803	94.65
603.222	95.6
603.641	94.9
604.061	96.47
604.48	96.21
604.898	97.57
605.317	97.37
605.736	97.01
606.155	97.58
606.574	97.2
606.992	98.22
607.411	98.26
607.829	96.67
608.248	96.75
608.666	95.77
609.085	96.91
609.503	96.91
609.921	98.23
610.339	99.79
610.758	98.49
611.176	97.7
611.594	97.87
612.012	98.58
612.43	100.45
612.847	101.37
613.265	103.63
613.683	103.79
614.101	104.27
614.518	102.82
614.936	102.32
615.353	102.65
615.771	103.69
616.188	103.96
616.606	104
617.023	104.02
617.44	103.8
617.857	101.55
618.274	100.78
618.691	101.16
619.108	101.29
619.525	100.45
619.942	102.06
620.359	103.11
620.776	102.54
621.192	103.56
621.609	104.07
622.026	105.43
622.442	107.08
622.859	107.29
623.275	106.35
623.691	106.44
624.108	108.5
624.524	109.27
624.94	109.04
625.356	109.8
625.772	109.93
626.188	109.77
626.604	109.69
627.02	109.17
627.436	110.79
627.852	113.58
628.268	115.42
628.683	114.2
629.099	113.36
629.514	112.39
629.93	113.3
630.345	114.2
630.761	113.81
631.176	114.5
631.591	116.69
632.007	115.71
632.422	113.56
632.837	111.69
633.252	112.93
633.667	112.6
634.082	112.69
634.497	112.28
634.911	113.15
635.326	113.23
635.741	112.37
636.155	110.28
636.57	112.39
636.984	112.9
637.399	116
637.813	115.91
638.228	116.27
638.642	117.57
639.056	117.41
639.47	116.47
639.884	117.22
640.298	117.46
640.712	119.78
641.126	118.95
641.54	118.68
641.954	116.64
642.368	116.29
642.781	119.62
643.195	118.41
643.609	119.91
644.022	119.86
644.436	119.76
644.849	118.29
645.262	116.19
645.676	115.69
646.089	117.21
646.502	118.89
646.915	119.25
647.328	117.34
647.741	118.5
648.154	118.28
648.567	122.11
648.98	122.29
649.393	123.53
649.805	124.88
650.218	125.21
650.631	124.74
651.043	123.7
651.456	124.18
651.868	123.48
652.28	125.29
652.693	126.03
653.105	125.15
653.517	126.09
653.929	126.39
654.341	127.59
654.753	128.12
655.165	128.85
655.577	130.18
655.989	130.12
656.401	128.46
656.813	127.28
657.224	126.52
657.636	122.45
658.047	122.77
658.459	121.6
658.87	119.59
659.282	117.53
659.693	117.19
660.104	115.99
660.515	115.25
660.926	116.41
661.338	115.96
661.749	115.17
662.159	116.52
662.57	115.57
662.981	116.96
663.392	117.6
663.803	119.91
664.213	119.7
664.624	119.88
665.035	120.76
665.445	119.42
665.855	120.59
666.266	122.22
666.676	122.41
667.086	121.3
667.497	121.93
667.907	121.78
668.317	120.91
668.727	124.17
669.137	124.27
669.547	125.06
669.956	125.71
670.366	125.35
670.776	125.74
671.186	125.27
671.595	127.74
672.005	128.18
672.414	129.64
672.824	130.01
673.233	126.92
673.642	127.58
674.052	128.33
674.461	130.08
674.87	130.03
675.279	130.16
675.688	129.65
676.097	129.54
676.506	128.55
676.915	130.08
677.323	130.21
677.732	129.55
678.141	128.8
678.549	125.31
678.958	123.54
679.366	122.43
679.775	120.2
680.183	124.87
680.592	123.9
681	123.25
681.408	120.93
681.816	120.27
682.224	120.39
682.632	122.81
683.04	126.23
683.448	128.26
683.856	131.86
684.264	135.34
684.671	133.71
685.079	136.34
685.487	139.26
685.894	143.06
686.302	144.59
686.709	145.31
687.116	144.73
687.524	146.23
687.931	146.96
688.338	145.37
688.745	142.74
689.152	140.82
689.559	140.58
689.966	141.82
690.373	139.08
690.78	139.22
691.187	138.99
691.593	139.06
692	135.4
692.407	134.99
692.813	138.23
693.22	138.74
693.626	136.84
694.032	136.21
694.439	135.07
694.845	132.84
695.251	131.73
695.657	132.53
696.063	131.15
696.469	130.07
696.875	129.19
697.281	125.21
697.687	123.43
698.093	123.16
698.498	123.04
698.904	121.44
699.31	123.02
699.715	126.73
700.12	127.31
700.526	126.35
700.931	127.19
701.337	127.33
701.742	127.07
702.147	126.85
702.552	126.65
702.957	125.84
703.362	124.79
703.767	122.97
704.172	118.59
704.577	114.83
704.981	113.24
705.386	113.65
705.791	111.66
706.195	109.9
706.6	110.18
707.004	109.55
707.408	106.07
707.813	107.4
708.217	107.43
708.621	106.67
709.025	109.05
709.43	111.29
709.834	111.38
710.237	112.34
710.641	112.59
711.045	112.52
711.449	113.09
711.853	119.67
712.256	117.61
712.66	117.7
713.064	119.04
713.467	120.02
713.87	122.14
714.274	123.01
714.677	126.31
715.08	130.35
715.484	134.81
715.887	143.51
716.29	141.57
716.693	149.08
717.096	154.17
717.499	156.97
717.901	155.62
718.304	153.92
718.707	153.91
719.109	148.47
719.512	145.2
719.915	144.02
720.317	138.75
720.719	138.45
721.122	134.81
721.524	134.9
721.926	140.68
722.328	143.26
722.731	141.51
723.133	141.23
723.535	146.12
723.937	147.31
724.338	146.64
724.74	149.54
725.142	218.75
725.544	224.03
725.945	241.28
726.347	234.8
726.748	234.43
727.15	236.15
727.551	239.93
727.952	236.5
728.354	232.4
728.755	230.74
729.156	225.4
729.557	156.25
729.958	146.8
730.359	127.5
730.76	126.25
731.161	124.11
731.562	121.93
731.962	115.54
732.363	114.75
732.763	114.44
733.164	111.51
733.564	110.57
733.965	109.56
734.365	110.31
734.766	111.05
735.166	109.71
735.566	109.06
735.966	108.84
736.366	109.47
736.766	108.19
737.166	107.29
737.566	108.58
737.966	107.99
738.365	108.83
738.765	109.5
739.165	107.17
739.564	106.5
739.964	105.59
740.363	103.6
740.763	103.19
741.162	104.77
741.561	104.8
741.96	103.7
742.36	103.06
742.759	102.92
743.158	101.03
743.557	100.73
743.955	100.51
744.354	99.74
744.753	99.89
745.152	100.53
745.55	98.66
745.949	97.83
746.348	97.62
746.746	96.79
747.144	98.61
747.543	99.06
747.941	99.83
748.339	98.86
748.737	100.32
749.136	101.84
749.534	100.31
749.932	102.88
750.33	103.62
750.727	102.9
751.125	104.3
751.523	101.2
751.921	107.5
752.318	107.85
752.716	111.43
753.113	111.13
753.511	110.8
753.908	113.71
754.305	118.66
754.703	120.74
755.1	124.86
755.497	126.13
755.894	130.37
756.291	129.82
756.688	137.66
757.085	144.58
757.482	158.45
757.878	176.88
758.275	190.53
758.672	196.52
759.068	208.77
759.465	226.2
759.861	248.46
760.258	273.55
760.654	286.34
761.05	287.43
761.447	273.35
761.843	256
762.239	236.25
762.635	222.02
763.031	213.04
763.427	204.47
763.822	191.66
764.218	180.59
764.614	167.06
765.01	155.11
765.405	145.62
765.801	143.06
766.196	134.48
766.592	128.23
766.987	123.24
767.382	119.17
767.778	116.8
768.173	114.77
768.568	112.77
768.963	110.87
769.358	112.18
769.753	112.43
770.148	110.14
770.542	110.19
770.937	110.55
771.332	112.58
771.726	112.26
772.121	115.6
772.515	116.97
772.91	117.97
773.304	119.1
773.699	117.61
774.093	117.83
774.487	119.45
774.881	119.57
775.275	119.86
775.669	119.12
776.063	119.08
776.457	116.93
776.851	116.01
777.245	116
777.638	116.2
778.032	118.02
778.425	118.78
778.819	124
779.212	126.59
779.606	128.45
779.999	128.81
780.392	133.37
780.786	132.74
781.179	133.01
781.572	134.24
781.965	135.54
782.358	135.42
782.751	135.1
783.143	128.58
783.536	129.09
783.929	125.66
784.322	127.06
784.714	123.77
785.107	124.95
785.499	128.63
785.891	130.25
786.284	129.25
786.676	130.49
787.068	134.01
787.46	136.79
787.852	135.08
788.245	138
788.636	138.74
789.028	142.82
789.42	146.41
789.812	145.73
790.204	146.39
790.595	151.72
790.987	148.36
791.378	148.25
791.77	149.71
792.161	152.76
792.553	152.7
792.944	148.75
793.335	144.53
793.726	144.82
794.117	147.97
794.508	148.55
794.899	143.67
795.29	145.67
795.681	145.35
796.072	141.38
796.463	165.69
796.853	171.88
797.244	177.45
797.634	180.22
798.025	178.44
798.415	174.4
798.806	179.5
799.196	185.31
799.586	192.08
799.976	191.19
800.366	195.89
800.756	168.32
801.146	162.04
801.536	162.37
801.926	161.37
802.316	164.01
802.706	166.35
803.095	164.79
803.485	163.95
803.874	159.39
804.264	164.48
804.653	166.69
805.043	177.29
805.432	184.84
805.821	189.9
806.21	194.25
806.599	196.26
806.988	198.53
807.377	194.58
807.766	198.19
808.155	204.38
808.544	196.86
808.933	195.5
809.321	195.5
809.71	195.67
810.098	194.37
810.487	198.46
810.875	205.95
811.264	205.59
811.652	229.86
812.04	231.87
812.428	237.95
812.816	251.06
813.204	263.04
813.592	267.3
813.98	273.02
814.368	279.15
814.756	293.88
815.144	294.26
815.531	311.26
815.919	291.41
816.306	301.61
816.694	292.67
817.081	299.79
817.469	309.67
817.856	305.69
818.243	311.6
818.63	311.69
819.017	305.75
819.404	309.66
819.791	310.39
820.178	318.1
820.565	326.37
820.952	358.32
821.339	347.46
821.725	348.25
822.112	342.06
822.498	342.56
822.885	345.87
823.271	338.93
823.657	338.59
824.044	343.93
824.43	351.24
824.816	358.99
825.202	346.98
825.588	367.43
825.974	374.2
826.36	385.09
826.746	385.82
827.132	391.6
827.517	399.32
827.903	386.34
828.289	393.29
828.674	373.52
829.06	357.88
829.445	360.14
829.83	366.51
830.216	370.18
830.601	382.02
830.986	383.51
831.371	384.43
831.756	398.54
832.141	401.38
832.526	397.41
832.911	406.13
833.295	405.04
833.68	417.18
834.065	406.05
834.449	385.51
834.834	384.13
835.218	379.48
835.603	387.2
835.987	373.94
836.371	386.35
836.755	382.2
837.139	387.77
837.524	388.21
837.908	378.25
838.291	382.63
838.675	379.14
839.059	379.37
839.443	377.28
839.827	370.45
840.21	378.98
840.594	378.53
840.977	382.12
841.361	382.9
841.744	389.96
842.127	390.22
842.511	391.24
842.894	403.96
843.277	410.48
843.66	417.57
844.043	423.07
844.426	411.74
844.809	394.77
845.191	397.01
845.574	386.66
845.957	382.34
846.339	385.1
846.722	376.97
847.104	380.18
847.487	372.23
847.869	376.61
848.252	382.65
848.634	390.63
849.016	395.19
849.398	392.51
849.78	410.37
850.162	411.8
850.544	416.5
850.926	420.45
851.307	416.7
851.689	429.35
852.071	432.21
852.452	435.85
852.834	430.83
853.215	451.37
853.597	459.75
853.978	476.61
854.359	487.95
854.741	466.41
855.122	465.73
855.503	460.24
855.884	460.04
856.265	465.66
856.646	458.95
857.026	455.37
857.407	446.06
857.788	445.48
858.169	437.18
858.549	432.03
858.93	445.84
859.31	448.86
859.69	462.33
860.071	452.91
860.451	446.27
860.831	436.64
861.211	452
861.591	459.23
861.971	456.67
862.351	464.02
862.731	456.82
863.111	464.98
863.491	481.71
863.87	492.65
864.25	499.32
864.629	500.2
865.009	510.02
865.388	537.63
865.768	576.76
866.147	581.82
866.526	550.14
866.905	561.32
867.284	582.61
867.663	542.01
868.042	514.35
868.421	514.49
868.8	507.95
869.179	519.28
869.558	487.3
869.936	456.03
870.315	457.2
870.693	479.06
871.072	508.86
871.45	483.39
871.828	493.68
872.207	526.9
872.585	518.56
872.963	535.08
873.341	527.47
873.719	531.24
874.097	519.91
874.475	531.48
874.853	533.78
875.23	520.28
875.608	547.54
875.986	592.39
876.363	565.76
876.741	600.28
877.118	598.92
877.495	621.61
877.873	621.41
878.25	651.97
878.627	625.67
879.004	631.7
879.381	620.54
879.758	610.3
880.135	565.43
880.512	596.89
880.889	556.56
881.265	536.71
881.642	522.18
882.019	529.8
882.395	534.31
882.772	567.04
883.148	547.52
883.524	552.41
883.901	550.32
884.277	555.1
884.653	547.39
885.029	576.41
885.405	656.56
885.781	653.62
886.157	624.1
886.532	619.5
886.908	607.8
887.284	669.57
887.659	690.21
888.035	706.43
888.411	723.53
888.786	735.34
889.161	756.45
889.537	724.09
889.912	747.25
890.287	748.46
890.662	764.09
891.037	747.13
891.412	700.98
891.787	684.39
892.162	663.06
892.536	682.13
892.911	662.33
893.286	642.2
893.66	623.45
894.035	644.51
894.409	693.24
894.784	676.47
895.158	688.59
895.532	731.99
895.906	759.44
896.281	771.56
896.655	767.5
897.029	867.69
897.402	910.99
897.776	1001.5
898.15	993.37
898.524	991.37
898.898	991.73
899.271	1128.67
899.645	976.15
900.018	931.48
900.392	964.28
900.765	951.73
901.138	883.77
901.511	857.12
901.884	799.99
902.258	740.51
902.631	780.96
903.003	895.59
903.376	798.06
903.749	894.47
904.122	958.98
904.495	1042.75
904.867	1054.95
905.24	915.19
905.612	853.8
905.985	851.53
906.357	883.49
906.729	834.98
907.102	719.78
907.474	691.21
907.846	694.83
908.218	685.23
908.59	635.12
908.962	621.91
909.334	669.3
909.705	719.14
910.077	704.24
910.449	730.52
910.82	759.57
911.192	840.04
911.563	879.31
911.935	924.35
912.306	914.27
912.677	921.27
913.048	927.42
913.419	1010.2
913.79	983.72
914.161	1054.02
914.532	1035.75
914.903	936.62
915.274	869.42
915.645	852.84
916.015	755.19
916.386	730.3
916.756	776.77
917.127	780.59
917.497	699.36
917.868	773.73
918.238	729.27
918.608	725.39
918.978	743.3
919.348	784.75
919.718	816.27
920.088	793.37
920.458	832.66
920.828	858.7
921.198	825.68
921.567	873.5
921.937	677.81
922.306	677.58
922.676	731.15
923.045	637.3
923.415	621.82
923.784	565.87
924.153	595.55
924.522	598.46
924.891	573.3
925.26	607.42
925.629	597.27
925.998	683.41
926.367	683.07
926.736	682.57
927.104	775.8
927.473	817.66
927.842	956.15
928.21	917.8
928.578	928.97
928.947	874.09
929.315	896.47
929.683	1058.01
930.051	1064.91
930.42	1242.52
930.788	1045.08
931.156	1050.46
931.523	1029.4
931.891	982.87
932.259	958.02
932.627	1148.35
932.994	1647.49
933.362	1388.22
933.729	1216.21
934.097	1162.83
934.464	984.87
934.831	1084.72
935.199	1053.88
935.566	1009.68
935.933	973.3
936.3	1188.92
936.667	900.78
937.034	917.25
937.401	877.67
937.767	764.32
938.134	686.91
938.501	956.43
938.867	1060.02
939.234	1745.92
939.6	1428.77
939.967	1666.47
940.333	1099.35
940.699	926.51
941.065	617
941.431	841.11
941.798	844.74
942.163	1143
942.529	694.6
942.895	623.85
943.261	426.33
943.627	567.44
943.992	508.34
944.358	511.28
944.723	563.32
945.089	534.19
945.454	491.85
945.82	502.18
946.185	459.98
946.55	548.38
946.915	489.44
947.28	577.03
947.645	513.05
948.01	489.53
948.375	539.17
948.74	595.96
949.104	699.95
949.469	887.26
949.834	1496.64
950.198	1641.63
950.562	1011.02
950.927	862.55
951.291	999.71
951.655	843.13
952.02	737.95
952.384	552.06
952.748	531.93
953.112	586.07
953.476	541.58
953.839	502.51
954.203	480.66
954.567	574.85
954.931	846.02
955.294	775.22
955.658	774.19
956.021	1343.58
956.385	2110.94
956.748	3000.22
957.111	4118.83
957.474	4506.63
957.837	4846.8
958.2	3426.74
958.563	1262.5
958.926	891.43
959.289	1240.5
959.652	1415.11
960.015	1098.42
960.377	1609.84
960.74	1829.93
961.102	2912.8
961.465	3429.44
961.827	2495.06
962.189	4832.96
962.552	3421.77
962.914	2742.07
963.276	1811.31
963.638	1509.32
964	1437.15
964.362	1010.58
964.724	929.05
965.085	698.81
965.447	565.32
965.809	509.04
966.17	479.85
966.532	501.68
966.893	474.38
967.255	433.58
967.616	477.97
967.977	389.37
968.338	421.09
968.699	384.18
969.061	389.19
969.421	407.59
969.782	456.03
970.143	425.49
970.504	491.57
970.865	573.21
971.225	601.41
971.586	602.42
971.946	827.58
972.307	710.67
972.667	850.72
973.027	866.6
973.388	982.31
973.748	686.27
974.108	746.4
974.468	866.96
974.828	737.26
975.188	545.52
975.548	506.8
975.907	432.93
976.267	459.09
976.627	426.07
976.986	433.69
977.346	396.63
977.705	385.83
978.064	341.3
978.424	296.65
978.783	246.11
979.142	290.64
979.501	288.58
979.86	330.55
980.219	322.94
980.578	367.39
980.937	400.23
981.296	378.35
981.654	365.13
982.013	493.28
982.371	683.12
982.73	709.2
983.088	784.89
983.447	856.82
983.805	1245.95
984.163	2615.66
984.521	2941.45
984.879	4172.03
985.237	-7147.07
985.595	7678.28
985.953	1946.39
986.311	1031.22
986.669	575.2
987.026	472.36
987.384	522.57
987.741	455.79
988.099	428.72
988.456	354.51
988.814	364.52
989.171	294.97
989.528	217.65
989.885	229.12
990.242	208.87
990.599	232.78
990.956	202.81
991.313	153.08
991.67	138.69
992.027	196.57
992.383	186.61
992.74	170.01
993.096	190.07
993.453	220.52
993.809	228.22
994.165	299.5
994.522	366.32
994.878	401.65
995.234	522.85
995.59	501.93
995.946	368.05
996.302	413.05
996.658	447.97
997.013	482.73
997.369	602.19
997.725	813.88
998.08	496.01
998.436	447.16
998.791	608.86
999.147	625.57
999.502	638.74
999.857	439.79
1000.212	693.32
1000.567	1085.56
1000.922	632.02
1001.277	351.68
1001.632	232.32
1001.987	285
1002.342	231.6
1002.696	192.74
1003.051	173.54
1003.406	245.16
1003.76	207.42
1004.114	214.79
1004.469	182.03
1004.823	134.86
1005.177	114.79
1005.531	97.06
1005.885	111.76
1006.239	152.74
1006.593	191.32
1006.947	232.05
1007.301	155.74
1007.655	171.86
1008.008	136.99
1008.362	161.48
1008.715	235.87
1009.069	216.33
1009.422	438.85
1009.776	805.29
1010.129	488.9
1010.482	398.71
1010.835	272.99
1011.188	518.87
1011.541	487.81
1011.894	-2136.83
1012.247	5831.85
1012.6	347.43
1012.952	370.23
1013.305	74.74
1013.657	71.67
1014.01	77.5
1014.362	53.5
1014.715	131.15
1015.067	138.9
1015.419	152.1
1015.771	157.7
1016.123	146.83
1016.475	166.86
1016.827	164.63
1017.179	210.11
1017.531	193.28
1017.883	182.82
1018.234	251.57
1018.586	295.02
1018.938	373.4
1019.289	496.72
1019.64	522.16
1019.992	466.57
1020.343	409.43
1020.694	371.57
1021.045	332.46
1021.396	369.19
1021.747	449.02
1022.098	412.56
1022.449	280.47
1022.8	214.4
1023.151	182.44
1023.501	201.94
1023.852	208.63
1024.202	251.33
1024.553	242.77
1024.903	284.27
1025.253	287.38
1025.604	263.55
1025.954	311.92
1026.304	341.81
1026.654	404.87
1027.004	549.33
1027.354	666.19
1027.703	706.01
1028.053	733.47
1028.403	1186.23
1028.753	993.53
1029.102	498.37
1029.452	-1612.84
1029.801	-106.29
1030.15	-58.77
1030.499	-128.49
897.758	2776.62
901.051	2733.12
904.343	2768.03
907.636	2764.77
910.928	2832.07
914.22	2736.87
917.511	2744.9
920.803	2808
924.094	2831.49
927.384	2803.36
930.675	2767.23
933.965	2716.86
937.255	2722.8
940.544	2690.02
943.834	2619.35
947.123	2563.18
950.411	2663.37
953.7	2632.45
956.988	2597.73
960.276	2534.88
963.563	2621.51
966.851	2613.41
970.138	2674.1
973.424	2663.72
976.711	2613.5
979.997	2756.64
983.283	2786.64
986.568	2684.12
989.853	2707.84
993.138	2731.4
996.423	2814.71
999.708	2743.98
1002.992	2814.54
1006.275	2638.24
1009.559	2689.81
1012.842	2804.34
1016.125	2735.26
1019.408	2714.88
1022.69	2805.91
1025.972	2817.8
1029.254	2790.36
1032.536	2715.53
1035.817	2746.7
1039.098	2681.17
1042.379	2837.86
1045.659	2830.86
1048.939	2761.35
1052.219	2779.32
1055.498	2794.42
1058.778	2774.02
1062.057	2761.13
1065.335	2781.78
1068.614	2803.34
1071.892	2779.02
1075.17	2858.65
1078.447	2840.21
1081.724	2829.65
1085.001	2867.83
1088.278	2842.07
1091.554	2851.69
1094.83	2850.12
1098.106	2872.72
1101.382	2920.76
1104.657	2916.27
1107.932	2912.16
1111.206	2874.12
1114.481	2835.53
1117.755	2835.23
1121.029	2806.9
1124.302	2858.05
1127.575	2808.07
1130.848	2793.11
1134.121	2751.51
1137.393	2697.23
1140.665	2765.85
1143.937	2738.46
1147.208	2702.91
1150.48	2734.12
1153.75	2721.45
1157.021	2759.44
1160.291	2725.55
1163.561	2767.34
1166.831	2762.17
1170.101	2791.98
1173.37	2771.19
1176.639	2712.67
1179.907	2777.07
1183.176	2775.95
1186.444	2786.57
1189.711	2812.12
1192.979	2821.08
1196.246	2783.68
1199.513	2798.18
1202.78	2794.45
1206.046	2804.11
1209.312	2827.77
1212.578	2854.42
1215.843	2798.51
1219.108	2778.19
1222.373	2800.94
1225.638	2764.34
1228.902	2748.55
1232.166	2719.19
1235.43	2703.72
1238.693	2723.14
1241.956	2725.37
1245.219	2762.05
1248.482	2756.79
1251.744	2753.99
1255.006	2905.45
1258.268	2863.03
1261.529	2807.31
1264.79	2815.37
1268.051	2909.51
1271.312	2929.02
1274.572	2889.27
1277.832	2876.95
1281.092	2869.31
1284.351	2837.28
1287.61	2813.82
1290.869	2727.19
1294.128	2696.59
1297.386	2794.93
1300.644	2780.95
1303.902	2796.23
1307.159	2655.44
1310.416	2712.38
1313.673	2735.47
1316.93	2718.02
1320.186	2768.53
1323.442	2811.91
1326.697	2796.98
1329.953	2796.01
1333.208	2813.3
1336.463	2799.39
1339.717	2736.5
1342.972	2879.1
1346.226	2858.33
1349.479	2790.67
1352.733	2761.26
1355.986	2791.56
1359.238	2772.19
1362.491	2774.59
1365.743	2780.56
1368.995	2778.74
1372.247	2797.68
1375.498	2824.26
1378.749	2832.82
1382	2794.22
1385.251	2850.4
1388.501	2819.63
1391.751	2800.24
1395	2776.44
1398.25	2813.26
1401.499	2818.71
1404.748	2746.28
1407.996	2735.06
1411.244	2719.81
1414.492	2701.26
1417.74	2681.06
1420.987	2694.29
1424.234	2748.41
1427.481	2733.47
1430.728	2791.02
1433.974	2763.94
1437.22	2785.37
1440.465	2784.16
1443.711	2742.36
1446.956	2779.92
1450.201	2768.57
1453.445	2813.61
1456.689	2788.44
1459.933	2800.44
1463.177	2828.59
1466.42	2801.41
1469.663	2778.71
1472.906	2764.82
1476.148	2847.26
1479.391	2802.24
1482.633	2772.58
1485.874	2780.9
1489.115	2760.45
1492.356	2764.96
1495.597	2741.29
1498.838	2743.17
1502.078	2707.06
1505.318	2653.99
1508.557	2697.23
1511.797	2665
1515.036	2736.2
1518.274	2725.98
1521.513	2700.06
1524.751	2720.23
1527.989	2728.96
1531.227	2737.67
1534.464	2721.7
1537.701	2746.84
1540.938	2765.75
1544.174	2717.86
1547.41	2715.44
1550.646	2756.74
1553.882	2781.95
1557.117	2831.58
1560.352	2845.51
1563.587	2802.93
1566.821	2759.07
1570.055	2799.29
1573.289	2765.38
1576.523	2840.78
1579.756	2841.31
1582.989	2860.72
1586.222	2817.3
1589.454	2860.99
1592.686	2827.66
1595.918	2852.2
1599.15	2835.79
1602.381	2918.97
1605.612	2866.58
1608.843	2955.64
1612.073	2869.2
1615.303	2852.99
1618.533	2837.43
1621.762	2843.98
1624.992	2834.6
1628.221	2817
1631.449	2801.93
1634.678	2863.22
1637.906	2814.22
1641.134	2853.65
1644.361	2809.12
1647.588	2800.07
1650.815	2815.14
1654.042	2802.89
1657.269	2829.11
1660.495	2773.23
1663.72	2803.87
1666.946	2770.02
1670.171	2710.66
1673.396	2685.47
1676.621	2679.75
1679.845	2704.59
1683.069	2727.48
1686.293	2772.83
1689.517	2737.41
1692.74	2665.63
1695.963	2698.3
1699.185	2705.09
1702.408	2679.75
1705.63	2724.33
1708.852	2735.2
1712.073	2707.15
1715.294	2689.06
1718.515	2753.16
1721.736	2696.97
1724.956	2700.29
1728.176	2728.75
1731.396	2751.24
1734.616	2743.38
1737.835	2771.16
1741.054	2750.45
1744.272	2745.07
1747.491	2775.83
1750.709	2836.08
1753.927	2733.2
1757.144	2786.62
1760.361	2820.01
1763.578	2818.8
1766.795	2759.64
1770.011	2773.81
1773.227	2815.42
1776.443	2853.07
1779.658	2897.98
1782.874	2840.93
1786.089	2817.26
1789.303	2821.49
1792.518	2829.36
1795.732	2819.73
1798.945	2825.67
1802.159	2877.19
1805.372	2770.44
1808.585	2756.06
1811.797	2757.92
1815.01	2812.65
1818.222	2812.81
1821.434	2786
1824.645	2848.48
1827.856	2826.85
1831.067	2862.77
1834.278	2830.52
1837.488	2815.68
1840.698	2970
1843.908	2893.74
1847.117	2855.08
1850.326	2732.09
1853.535	2849.03
1856.744	2882.96
1859.952	2797.86
1863.16	2800.93
1866.368	2831.25
1869.575	2934.1
1872.782	2827.52
1875.989	2774.51
1879.196	2867.09
1882.402	2867.48
1885.608	2916.15
1888.814	2813.47
1892.019	2707.47
1895.224	2764.66
1898.429	2752.84
1901.634	2730.6
1904.838	2710.81
1908.042	2761.39
1911.246	2769.15
1914.449	2696.68
1917.652	2699.9
1920.855	2679.72
1924.058	2735.98
1927.26	2772.83
1930.462	2800.93
1933.664	2825.63
1936.865	2759.8
1940.066	2765.63
1943.267	2712.41
1946.467	2728.74
1949.668	2757.15
1952.868	2823.46
1956.067	2799.77
1959.267	2725.96
1962.466	2754.28
1965.665	2739.03
1968.863	2734.62
1972.061	2753.22
1975.259	2754.25
1978.457	2835.35
1981.654	2790.15
1984.852	2791.21
1988.048	2717.75
1991.245	2721.86
1994.441	2807.02
1997.637	2796.69
2000.833	2779.42
2004.028	2820.02
2007.223	2872.01
2010.418	2845.37
2013.613	2807.15
2016.807	2773.67
2020.001	2783.95
2023.194	2829.78
2026.388	2806.8
2029.581	2753.76
2032.774	2799.59
2035.966	2801.35
2039.158	2727.9
2042.35	2757.57
2045.542	2681.97
2048.733	2785.04
2051.924	2815.55
2055.115	2843.04
2058.306	2783.22
2061.496	2843.29
2064.686	2910.49
2067.875	2825.14
2071.065	2843.9
2074.254	2874.33
2077.442	2824.51
2080.631	2920.15
2083.819	2803.8
2087.007	2780.62
2090.195	2751.44
2093.382	2788.68
2096.569	2766.61
2099.756	2717.53
2102.942	2740.4
2106.128	2744.59
2109.314	2732.71
2112.5	2690.13
2115.685	2669.08
2118.87	2679.46
2122.055	2746.54
2125.239	2708.01
2128.424	2679.78
2131.608	2793.72
2134.791	2771.89
2137.974	2833.27
2141.157	2816.73
2144.34	2766.92
2147.523	2788.01
2150.705	2797.18
2153.887	2777.88
2157.068	2722.51
2160.25	2731.87
2163.431	2772.39
2166.611	2712.7
2169.792	2728.9
2172.972	2619.86
2176.152	2705.34
2179.331	2741.8
2182.511	2719.09
2185.69	2750.52
2188.868	2744.85
2192.047	2806.46
2195.225	2788.86
2198.403	2742.06
2201.58	2732.07
2204.758	2730.44
2207.935	2816.72
2211.111	2697.95
2214.288	2682.76
2217.464	2724.81
2220.64	2698.62
2223.815	2756.79
2226.991	2676.52
2230.166	2695.13
2233.34	2718.99
2236.515	2753.34
2239.689	2828.95
2242.863	2770.48
2246.036	2828.65
2249.209	2832.14
2252.382	2868.54
2255.555	2854.35
2258.727	2787.08
2261.9	2827.31
2265.071	2822.28
2268.243	2829.27
2271.414	2753.33
2274.585	2709.29
2277.756	2778.57
2280.926	2736.48
2284.096	2777.49
2287.266	2679.9
2290.436	2737.72
2293.605	2768.83
2296.774	2799.06
2299.942	2825.85
2303.111	2838.87
2306.279	2890.25
2309.447	2875.56
2312.614	2851.4
2315.781	2869.19
2318.948	2840.85
2322.115	2881.48
2325.281	2781.2
2328.447	2803.47
2331.613	2780.01
2334.779	2746.68
2337.944	2755.93
2341.109	2751.07
2344.274	2736.46
2347.438	2699.31
2350.602	2727.13
2353.766	2743.08
2356.929	2728.25
2360.092	2772.76
2363.255	2722.77
2366.418	2647.5
2369.58	2773.14
2372.742	2536.97
2375.904	2557.07
2379.066	2530.22
2382.227	2569.56
2385.388	2530.13
2388.548	2451.85
2391.709	2509.29
2394.869	2487.16
2398.029	2595.04
2401.188	2614.83
2404.347	2539.97
2407.506	2698.54
2410.665	2723.39
2413.823	2733.5
2416.981	2686.58
2420.139	2720.99
2423.296	2772.4
2426.453	2748.28
2429.61	2772.66
2432.767	2696.77
2435.923	2732.97
2439.079	2691.21
2442.235	2743.03
2445.391	2669.66
2448.546	2695.47
2451.701	2749.58
2454.855	2716.05
2458.009	2776.19
2461.163	2782
2464.317	2734.91
2467.471	2771.91
2470.624	2813.7
2473.777	2788.58
2476.929	2803.01
2480.082	2827.76
2483.234	2792.23
2486.385	2745.3
2489.537	2737.58
2492.688	2691.43
2495.839	2706.5
2498.989	2718.87
2502.14	2702.88
2505.29	2683.03
2508.439	2711.79
2511.589	2628.53
2514.738	2643.19
2517.887	2675.76
2521.035	2741.81
2524.183	2727.6
2527.331	2708.6
2530.479	2678.89
2533.627	2691.6
