Data from N_3_DIV_WI_4N_Splice17_12-57-47-461.txt Node
Date: Sat Mar 14 12:57:47 EDT 2020
User: sa697716
Spectrometer: FLMS03696
Trigger mode: 0
Integration Time (sec): 3.180400E-1
Scans to average: 20
Electric dark correction enabled: true
Nonlinearity correction enabled: true
Boxcar width: 5
XAxis mode: Wavelengths
Number of Pixels in Spectrum: 2048
>>>>>Begin Spectral Data<<<<<
187.83	-282423.36
188.298	2072.4
188.766	1122.14
189.233	1000.04
189.701	1471.21
190.169	2041.41
190.636	764.87
191.104	613.16
191.571	67.92
192.039	-77.14
192.506	-110.29
192.974	418.73
193.441	-788.33
193.908	-326.07
194.375	-80.22
194.842	25.06
195.31	139.25
195.777	189.48
196.244	353.42
196.711	252.76
197.177	246.02
197.644	272.08
198.111	457.82
198.578	637.89
199.045	484.74
199.511	696.73
199.978	759.01
200.445	670.34
200.911	702.91
201.378	727.23
201.844	692.67
202.31	1179.65
202.777	1258.76
203.243	720.48
203.709	699.06
204.176	855.1
204.642	755.37
205.108	731.6
205.574	570.87
206.04	507.8
206.506	487.46
206.972	439.89
207.438	434.27
207.903	491
208.369	438.44
208.835	427.94
209.301	463.13
209.766	442.78
210.232	434.93
210.697	548.26
211.163	668.4
211.628	957.1
212.094	859.42
212.559	1170.71
213.024	748.82
213.49	933
213.955	930
214.42	888.51
214.885	873.9
215.35	859.25
215.815	905.9
216.28	1009.14
216.745	848.52
217.21	970.71
217.675	882.16
218.14	1045.34
218.604	1220.04
219.069	1485.65
219.534	1670.22
219.998	2019.3
220.463	2543.63
220.927	3183.11
221.392	3077.4
221.856	3195.33
222.32	4068.73
222.785	5139.72
223.249	6544.62
223.713	7420.42
224.177	7511.62
224.642	9663.98
225.106	11969.29
225.57	13174.64
226.034	9927.75
226.497	15209.12
226.961	13881.12
227.425	16314.36
227.889	18206.76
228.353	18352.91
228.816	38073.78
229.28	36588.1
229.744	31107.55
230.207	19060.45
230.671	18871.71
231.134	31292.92
231.597	36375.06
232.061	36537.33
232.524	35832.66
232.987	24839.86
233.45	22480.79
233.914	20258.42
234.377	20860.01
234.84	19211.65
235.303	22744.32
235.766	25530.49
236.229	26555.06
236.691	16778.98
237.154	18947.36
237.617	14344.01
238.08	14751.25
238.542	17373.95
239.005	12505.91
239.468	12478.5
239.93	11802.4
240.393	10794.01
240.855	9516.52
241.317	9781.16
241.78	11931.5
242.242	12391.46
242.704	13440.79
243.166	11766.37
243.629	10738.01
244.091	12415.33
244.553	13674.42
245.015	14772.27
245.477	19200.87
245.939	28265.57
246.4	30191.88
246.862	29555.51
247.324	28032.94
247.786	31542.2
248.247	41568.92
248.709	43113.3
249.17	32411.77
249.632	30763.99
250.093	35898.41
250.555	31137.42
251.016	19113.05
251.477	18193.46
251.939	19716.09
252.4	20771.66
252.861	24767.68
253.322	23147.85
253.783	27681.74
254.244	36031.63
254.705	28453.39
255.166	25366.91
255.627	25053.12
256.088	35419.06
256.549	37762.71
257.009	32628.91
257.47	39714.57
257.931	32456.68
258.391	24378.15
258.852	25160.18
259.312	26457.4
259.773	32789.81
260.233	27805.37
260.694	23544.81
261.154	26812.98
261.614	21586.08
262.074	19368.01
262.534	20169.95
262.994	19078.4
263.455	25470.29
263.915	21534.39
264.374	20362.19
264.834	22297.78
265.294	24738.77
265.754	25673.33
266.214	24348.09
266.673	22850.13
267.133	28913.42
267.593	28765.3
268.052	35244.35
268.512	30688
268.971	37040.52
269.431	40667.72
269.89	36436.13
270.349	54724.25
270.809	61114.37
271.268	55033.31
271.727	123680.23
272.186	80070.16
272.645	60066.1
273.104	43352.35
273.563	62879.71
274.022	49509.8
274.481	42137.72
274.94	32487.8
275.399	24185.54
275.857	28203.26
276.316	38155.37
276.775	33957.39
277.233	33511.2
277.692	31405.36
278.15	35596.72
278.609	36650.23
279.067	33944.67
279.525	31547.07
279.984	40803.59
280.442	49005.64
280.9	48310.4
281.358	31763.12
281.816	29601.72
282.274	28977.66
282.732	29977.4
283.19	30108.5
283.648	26006.4
284.106	27728.15
284.564	28239.11
285.021	26176.67
285.479	19524.64
285.937	17756.35
286.394	15614.35
286.852	16117.2
287.309	16965.81
287.767	16406.46
288.224	15627.95
288.682	17197.28
289.139	18933.03
289.596	17372.33
290.053	18166.55
290.511	23048.39
290.968	28084.01
291.425	38289.26
291.882	31988.17
292.339	27978.64
292.796	27863.35
293.252	26377.61
293.709	21015.74
294.166	18889.49
294.623	20940.9
295.079	20096.27
295.536	20225.35
295.992	18388.67
296.449	18207.6
296.905	18933.09
297.362	18198.91
297.818	19154.27
298.274	19911.84
298.731	20295.24
299.187	20108.55
299.643	21606.75
300.099	26213.95
300.555	28771.82
301.011	24060.03
301.467	23213.05
301.923	27216.25
302.379	26584.5
302.835	26139.13
303.291	26161.94
303.746	29820.59
304.202	37692.02
304.658	37876.6
305.113	25448.56
305.569	24921.33
306.024	26574.33
306.479	25304.9
306.935	21327.68
307.39	23244.61
307.845	21466.92
308.301	21623.88
308.756	21080.32
309.211	20307.13
309.666	20799.53
310.121	25833.88
310.576	26266.1
311.031	26118.92
311.486	29885.68
311.94	29847.6
312.395	39998.98
312.85	75239.41
313.305	369238.52
313.759	1909846.02
314.214	138560.03
314.668	109783.81
315.123	92429.25
315.577	33131.79
316.032	29480.69
316.486	37041.65
316.94	29301.95
317.394	20403.84
317.849	15877.26
318.303	15066.61
318.757	14245.9
319.211	15777.46
319.665	13861.56
320.119	14031.17
320.572	20162.76
321.026	18853.7
321.48	15709.75
321.934	17151.68
322.387	17223.92
322.841	18638.55
323.295	16776.1
323.748	19353.13
324.202	19661.43
324.655	23613.66
325.108	33076.23
325.562	23407.87
326.015	27862.37
326.468	21072.24
326.921	23584.83
327.374	22010.88
327.827	22939.52
328.28	25937.93
328.733	17386.34
329.186	15286.71
329.639	14575.14
330.092	12283.02
330.545	11690.01
330.997	11777.54
331.45	12858.77
331.903	15056.05
332.355	25872.8
332.808	25112.6
333.26	20754.16
333.713	22524.55
334.165	22675.38
334.617	30257.56
335.069	24433.38
335.522	44157.28
335.974	48874.13
336.426	44717.95
336.878	31006.3
337.33	15732.69
337.782	15373.4
338.234	19266.9
338.686	23078.11
339.137	27332.65
339.589	25753.16
340.041	20197.47
340.493	17378.28
340.944	17851.93
341.396	19252.32
341.847	16229.21
342.299	19197.57
342.75	23480.62
343.201	20586.44
343.653	23642.39
344.104	29154.95
344.555	22994.81
345.006	35877.42
345.457	27534.54
345.908	21885.71
346.359	20615.39
346.81	16810.45
347.261	17733.42
347.712	17485.19
348.163	18755.14
348.613	19046.41
349.064	17805.57
349.515	15587
349.965	15991.08
350.416	19251.37
350.866	21167.23
351.317	23932.47
351.767	39608.65
352.217	50049.02
352.668	41532.48
353.118	37990.25
353.568	36659.36
354.018	28914.5
354.468	30525.2
354.918	21902.76
355.368	19200.56
355.818	27114.17
356.268	78125.38
356.718	327465.85
357.168	81531.15
357.617	40904.87
358.067	45543.82
358.517	42609.85
358.966	49994.04
359.416	56149.66
359.865	60718.08
360.315	72220.12
360.764	33723.39
361.213	18910.47
361.663	17906.81
362.112	22097.86
362.561	35685.79
363.01	26901.28
363.459	22688.89
363.908	24608.63
364.357	20863.08
364.806	35279.42
365.255	24279.34
365.703	22258.24
366.152	22298.12
366.601	18072.96
367.05	14672.45
367.498	13352.22
367.947	13953.76
368.395	14523.76
368.844	12831.75
369.292	15512.03
369.74	10704.29
370.189	16391.87
370.637	19194.6
371.085	16522.75
371.533	20092.49
371.981	19368.85
372.429	18467.15
372.877	19200.31
373.325	16002.03
373.773	16323.96
374.221	14505.5
374.669	18007.55
375.116	15560.56
375.564	15658.53
376.012	17510.06
376.459	14447.86
376.907	17265.9
377.354	20838.61
377.801	19435.75
378.249	22348.19
378.696	28512.02
379.143	34422.77
379.591	36647.34
380.038	61906.27
380.485	44789.63
380.932	48291.9
381.379	44143.07
381.826	32415.12
382.273	22985.68
382.72	20089.78
383.166	19579.5
383.613	12689.86
384.06	11453.78
384.506	13250.99
384.953	9727.52
385.4	9762.72
385.846	8548.1
386.292	8306.18
386.739	8108.61
387.185	8016.13
387.631	8013.62
388.078	7766.8
388.524	8292.75
388.97	7635.13
389.416	6344.31
389.862	6726.93
390.308	6360.71
390.754	6437.92
391.2	6977.56
391.645	7119.27
392.091	6790.95
392.537	6528.33
392.983	6522.01
393.428	6409.34
393.874	6854.34
394.319	6862.49
394.765	6499.71
395.21	6672.73
395.655	6243.38
396.101	5832.06
396.546	5264.15
396.991	5292.99
397.436	4916.89
397.881	4734.44
398.326	4470.72
398.771	4223.61
399.216	3686.63
399.661	3306.33
400.106	3287.28
400.551	3356.1
400.995	3009.44
401.44	2975.95
401.885	2796.46
402.329	2821.76
402.774	2709.16
403.218	2622.74
403.663	2522.27
404.107	2584.66
404.551	2599.58
404.995	2381.14
405.44	2295.75
405.884	2327.71
406.328	2246.72
406.772	2237.23
407.216	2033.16
407.66	1958.18
408.104	1853.6
408.547	1731.36
408.991	1673.65
409.435	1613.31
409.879	1594.24
410.322	1571.43
410.766	1515.85
411.209	1441.65
411.653	1382.14
412.096	1356.65
412.54	1356.06
412.983	1346.29
413.426	1349.86
413.869	1349.99
414.312	1321.41
414.756	1267.62
415.199	1206.87
415.642	1169.4
416.085	1167.03
416.527	1157.19
416.97	1170.08
417.413	1109.43
417.856	1097.09
418.298	1086.06
418.741	1077.62
419.184	1076.03
419.626	1121.09
420.069	1121.9
420.511	1128.22
420.953	1104.88
421.396	1096.46
421.838	1069.99
422.28	1093.1
422.722	1098.41
423.164	1110.11
423.606	1089.96
424.048	1084.27
424.49	1027.39
424.932	1020.28
425.374	1004.13
425.816	1019
426.258	1037.76
426.699	1047.67
427.141	1033.8
427.582	1048.05
428.024	1044.02
428.465	1033.43
428.907	1005
429.348	990.95
429.789	988.04
430.231	965.99
430.672	979.38
431.113	951.54
431.554	931.93
431.995	902.9
432.436	866.74
432.877	843.69
433.318	830.08
433.759	824.22
434.2	820.13
434.64	807.78
435.081	806.39
435.522	759.51
435.962	727.62
436.403	713.04
436.843	721.11
437.284	704.22
437.724	684.06
438.164	682.53
438.604	667.1
439.045	642.42
439.485	617.06
439.925	603.13
440.365	586.32
440.805	578.8
441.245	568.38
441.685	546.54
442.125	540.02
442.564	540.78
443.004	527.44
443.444	524.58
443.883	523.07
444.323	515.68
444.762	512.41
445.202	516.9
445.641	525.58
446.081	520.3
446.52	522.59
446.959	517.62
447.398	504.6
447.837	495.72
448.276	485.08
448.716	488.26
449.154	491.91
449.593	481.92
450.032	480.12
450.471	467.72
450.91	467.66
451.349	465.86
451.787	462.28
452.226	468.91
452.664	468.43
453.103	468.78
453.541	468.57
453.98	469.7
454.418	472.14
454.856	465.74
455.295	466.11
455.733	470.36
456.171	473.57
456.609	472.82
457.047	471.85
457.485	482
457.923	482.78
458.361	475.99
458.798	475.25
459.236	474.16
459.674	477.58
460.111	479.24
460.549	473.34
460.987	470.43
461.424	469.5
461.862	467.59
462.299	457.51
462.736	457.4
463.173	458.36
463.611	455.06
464.048	453.4
464.485	456.11
464.922	451.02
465.359	448.48
465.796	447.57
466.233	444.46
466.67	440.68
467.106	440.46
467.543	435.1
467.98	428.76
468.416	417.14
468.853	414
469.29	400.99
469.726	398.07
470.162	387.3
470.599	377.87
471.035	374.4
471.471	364.96
471.907	361.66
472.344	360.01
472.78	361.87
473.216	364.73
473.652	360.33
474.088	359.05
474.523	358.18
474.959	362.62
475.395	360.19
475.831	359.41
476.266	361.81
476.702	362.01
477.138	358.11
477.573	356.73
478.008	356.54
478.444	358.72
478.879	363.66
479.314	364.79
479.75	364.23
480.185	365.57
480.62	367.78
481.055	370.04
481.49	372.85
481.925	378.89
482.36	386.76
482.795	397.6
483.229	407.66
483.664	415.84
484.099	417.88
484.534	424.83
484.968	429.64
485.403	431.31
485.837	430.13
486.271	428.78
486.706	428.46
487.14	422.84
487.574	415.8
488.009	412.29
488.443	408.26
488.877	412.94
489.311	413.54
489.745	417.18
490.179	421.17
490.613	429.34
491.046	432.31
491.48	435.38
491.914	435.05
492.348	437.87
492.781	439.85
493.215	439.87
493.648	439.16
494.082	441.44
494.515	441.27
494.948	444.99
495.382	445.85
495.815	447.17
496.248	449.89
496.681	456.89
497.114	462.15
497.547	467.56
497.98	475.51
498.413	479.09
498.846	483.84
499.279	488.08
499.711	488.29
500.144	488.66
500.577	494.42
501.009	498.71
501.442	503.51
501.874	503.38
502.306	502.33
502.739	506.63
503.171	512.62
503.603	512.81
504.036	515.71
504.468	517.7
504.9	522.29
505.332	523.89
505.764	523.82
506.196	524.71
506.627	530.32
507.059	535.23
507.491	534.13
507.923	529.92
508.354	535.7
508.786	539.36
509.217	545.3
509.649	550.03
510.08	555.95
510.512	562.64
510.943	567.58
511.374	569.45
511.805	576.4
512.237	583.15
512.668	595.36
513.099	604.81
513.53	613.74
513.961	619.94
514.391	631.39
514.822	645.5
515.253	659.08
515.684	666.89
516.114	676.2
516.545	681.46
516.975	689.04
517.406	692.69
517.836	689.32
518.267	688.21
518.697	693.29
519.127	691.32
519.558	688.91
519.988	685.17
520.418	685.41
520.848	689.35
521.278	689.26
521.708	711.35
522.138	714.76
522.567	725.02
522.997	732.61
523.427	735.26
523.857	738.48
524.286	739.83
524.716	743.72
525.145	750.05
525.575	752.72
526.004	756.66
526.433	732.31
526.863	728.81
527.292	722.65
527.721	723.64
528.15	723.9
528.579	723
529.008	725.69
529.437	732.5
529.866	735.68
530.295	740.25
530.724	744
531.152	753.44
531.581	759.35
532.01	764.74
532.438	765.63
532.867	769.48
533.295	775.28
533.723	776.75
534.152	775.24
534.58	774.01
535.008	767.51
535.436	767.89
535.865	770.3
536.293	773.82
536.721	779.4
537.149	789.79
537.576	791.08
538.004	796.09
538.432	797.52
538.86	796.92
539.287	798.75
539.715	803.62
540.143	802.74
540.57	801.46
540.998	799.59
541.425	790.66
541.852	780.84
542.28	779.87
542.707	772.86
543.134	767.87
543.561	765.24
543.988	762.18
544.415	761.36
544.842	758.29
545.269	755.13
545.696	756.33
546.123	761.27
546.549	757.25
546.976	751.77
547.403	750.36
547.829	749.81
548.256	749.99
548.682	748.04
549.108	745.7
549.535	745.97
549.961	746.54
550.387	740.65
550.813	738.71
551.24	741.88
551.666	741.91
552.092	739.14
552.518	737.46
552.943	736.1
553.369	739.74
553.795	741.75
554.221	742.79
554.646	742.05
555.072	748.43
555.498	749.19
555.923	752.28
556.349	759.72
556.774	763.72
557.199	764.82
557.625	767.37
558.05	766.17
558.475	771.05
558.9	772.04
559.325	770.39
559.75	768.3
560.175	767.42
560.6	766.47
561.025	766.51
561.449	769.04
561.874	772.1
562.299	776.01
562.723	779.5
563.148	776.75
563.572	779.28
563.997	784.65
564.421	787.78
564.846	789.75
565.27	793.68
565.694	794.61
566.118	800.39
566.542	806.78
566.966	806.25
567.39	806.55
567.814	804.48
568.238	806.45
568.662	809.78
569.086	813.14
569.509	818.45
569.933	814.16
570.357	811.96
570.78	804.72
571.204	801.73
571.627	798.46
572.05	801.05
572.474	802.99
572.897	799.93
573.32	799.23
573.743	796.34
574.166	790.86
574.589	791.43
575.012	790.4
575.435	792.44
575.858	789.67
576.281	786.42
576.704	779.53
577.126	775.14
577.549	771.76
577.972	768.58
578.394	766.66
578.817	766.41
579.239	759.62
579.661	755.89
580.084	750.03
580.506	745.59
580.928	745.11
581.35	741.77
581.772	741.14
582.194	735.77
582.616	731.87
583.038	724.95
583.46	719.36
583.882	719.62
584.303	722.39
584.725	720.76
585.147	725.1
585.568	731.27
585.99	738.71
586.411	742.56
586.833	751
587.254	752.3
587.675	759.77
588.096	766.4
588.518	764.57
588.939	757.28
589.36	757.78
589.781	750.12
590.202	739.44
590.623	735.87
591.043	735.52
591.464	730.06
591.885	729.62
592.305	727.59
592.726	722.46
593.147	724.5
593.567	722.79
593.987	718.7
594.408	716.46
594.828	713.55
595.248	711.33
595.669	703.19
596.089	700.56
596.509	696.64
596.929	691.01
597.349	691.24
597.769	685.94
598.189	683.4
598.608	684.93
599.028	686.93
599.448	687.66
599.867	681.41
600.287	680.23
600.706	679.66
601.126	676.6
601.545	677.56
601.965	677.72
602.384	675.76
602.803	677.51
603.222	676.37
603.641	673.31
604.061	673.11
604.48	672.16
604.898	676.49
605.317	678.12
605.736	679.57
606.155	678.87
606.574	675.45
606.992	679.41
607.411	677.9
607.829	679.5
608.248	679.8
608.666	678.82
609.085	679.39
609.503	676.75
609.921	676.44
610.339	678.27
610.758	678.66
611.176	677.56
611.594	674.45
612.012	674.34
612.43	671.78
612.847	675.95
613.265	678.75
613.683	682.53
614.101	684.32
614.518	683.24
614.936	679.85
615.353	675.09
615.771	674.66
616.188	675.67
616.606	675.38
617.023	673.92
617.44	667.45
617.857	663.32
618.274	660.02
618.691	658.45
619.108	654.05
619.525	652.11
619.942	655.18
620.359	657.15
620.776	655.89
621.192	655.08
621.609	655.07
622.026	659.79
622.442	664.36
622.859	665.78
623.275	661.75
623.691	664.94
624.108	671.19
624.524	679.19
624.94	679.76
625.356	683.79
625.772	690.5
626.188	696.11
626.604	696.89
627.02	694.5
627.436	694.65
627.852	700.12
628.268	707.1
628.683	701.56
629.099	696.63
629.514	693.4
629.93	696.86
630.345	698.88
630.761	697.26
631.176	698.19
631.591	697.03
632.007	693.87
632.422	691.15
632.837	684.76
633.252	685.44
633.667	680.23
634.082	676.81
634.497	670.3
634.911	662.08
635.326	660.64
635.741	653.73
636.155	648.14
636.57	650.57
636.984	652.06
637.399	655.44
637.813	656.53
638.228	658.2
638.642	661.72
639.056	658.38
639.47	659.6
639.884	657.37
640.298	654.89
640.712	655.84
641.126	651.51
641.54	647.33
641.954	644.32
642.368	639.15
642.781	638.61
643.195	630.68
643.609	632.28
644.022	630.61
644.436	629.04
644.849	624.66
645.262	619.94
645.676	621.18
646.089	621.15
646.502	616.76
646.915	615.02
647.328	605.6
647.741	605.7
648.154	598.9
648.567	599.68
648.98	593.44
649.393	594.21
649.805	593.64
650.218	589.83
650.631	582.77
651.043	579.88
651.456	578.36
651.868	579.2
652.28	590.14
652.693	598.91
653.105	602.13
653.517	609.27
653.929	611.69
654.341	616.36
654.753	611.28
655.165	616.21
655.577	614.98
655.989	611.98
656.401	607.61
656.813	587.87
657.224	577.93
657.636	561.79
658.047	553.86
658.459	543.15
658.87	538.26
659.282	532.11
659.693	521.7
660.104	514.88
660.515	507.14
660.926	509.43
661.338	508.16
661.749	505.49
662.159	502.16
662.57	499.05
662.981	497.22
663.392	493.33
663.803	496.64
664.213	495.18
664.624	492.68
665.035	496.24
665.445	485.98
665.855	482.96
666.266	478.65
666.676	477.2
667.086	471.3
667.497	471.41
667.907	468.85
668.317	462.64
668.727	461.87
669.137	461.06
669.547	458.85
669.956	460.26
670.366	461.09
670.776	461.49
671.186	463.26
671.595	465.37
672.005	465.98
672.414	465.61
672.824	464.89
673.233	464.79
673.642	467.06
674.052	468.42
674.461	470.03
674.87	471.59
675.279	469.64
675.688	469.18
676.097	469.45
676.506	466.6
676.915	472.98
677.323	473.27
677.732	470.79
678.141	468.76
678.549	462.05
678.958	459.55
679.366	458.03
679.775	458.9
680.183	465.8
680.592	467.74
681	470.52
681.408	466.41
681.816	470.36
682.224	474.74
682.632	480.59
683.04	496.72
683.448	510.68
683.856	527.52
684.264	548.37
684.671	563.73
685.079	584.99
685.487	607.56
685.894	638.04
686.302	663.16
686.709	684.77
687.116	707.66
687.524	725.33
687.931	739.09
688.338	748.59
688.745	752.86
689.152	761.01
689.559	773.88
689.966	787.92
690.373	789.76
690.78	798.92
691.187	818.62
691.593	831.06
692	838.53
692.407	855.55
692.813	882.01
693.22	898.67
693.626	913.49
694.032	925.09
694.439	946.22
694.845	959.1
695.251	981.11
695.657	996.88
696.063	1024.4
696.469	1043.73
696.875	1059.71
697.281	1059.73
697.687	1067.8
698.093	1072.84
698.498	1091.44
698.904	1102.5
699.31	1128.41
699.715	1143.05
700.12	1168.3
700.526	1166.57
700.931	1183.01
701.337	1193.33
701.742	1198.1
702.147	1220.68
702.552	1224.06
702.957	1238.53
703.362	1236.21
703.767	1238.72
704.172	1243.99
704.577	1218.15
704.981	1226.61
705.386	1226.45
705.791	1217.24
706.195	1236.45
706.6	1232.62
707.004	1252.66
707.408	1232.84
707.813	1238.8
708.217	1228.13
708.621	1223.31
709.025	1252.54
709.43	1249.82
709.834	1264.23
710.237	1281.42
710.641	1271.26
711.045	1274.47
711.449	1268.93
711.853	1278.47
712.256	1286.16
712.66	1292.56
713.064	1312.69
713.467	1321.7
713.87	1352.83
714.274	1363.14
714.677	1394.27
715.08	1442.39
715.484	1492.29
715.887	1555.16
716.29	1610.1
716.693	1672.63
717.096	1746.78
717.499	1784.35
717.901	1787.58
718.304	1791.79
718.707	1794.18
719.109	1759.06
719.512	1744.69
719.915	1700.42
720.317	1676.17
720.719	1685.45
721.122	1673.39
721.524	1653.47
721.926	1640.1
722.328	1668.12
722.731	1663.27
723.133	1669.87
723.535	1726.09
723.937	1728.26
724.338	1740.24
724.74	1753.38
725.142	1784.72
725.544	1784.43
725.945	1803.2
726.347	1796.58
726.748	1792.89
727.15	1795.14
727.551	1784.28
727.952	1771.99
728.354	1761.16
728.755	1756.51
729.156	1738.03
729.557	1680.43
729.958	1638.39
730.359	1607.2
730.76	1598.86
731.161	1579.03
731.562	1567.92
731.962	1564.62
732.363	1545.62
732.763	1526.03
733.164	1536.3
733.564	1515.77
733.965	1487.32
734.365	1475.69
734.766	1483.2
735.166	1471.42
735.566	1457.09
735.966	1449.33
736.366	1447.59
736.766	1427.52
737.166	1435.16
737.566	1421.98
737.966	1413.56
738.365	1424.4
738.765	1423.69
739.165	1401.29
739.564	1391.47
739.964	1400.38
740.363	1383.81
740.763	1381.12
741.162	1379.39
741.561	1369.31
741.96	1355.23
742.36	1360.44
742.759	1362.11
743.158	1370.76
743.557	1373.67
743.955	1384.49
744.354	1369.05
744.753	1385.39
745.152	1374.69
745.55	1387.38
745.949	1385.76
746.348	1387.39
746.746	1391.12
747.144	1380.48
747.543	1372.67
747.941	1385.96
748.339	1367.22
748.737	1367.45
749.136	1366.26
749.534	1382.22
749.932	1376.64
750.33	1382.32
750.727	1395.9
751.125	1390.86
751.523	1384.87
751.921	1401.76
752.318	1392.68
752.716	1410.1
753.113	1412.87
753.511	1418.77
753.908	1420
754.305	1418.7
754.703	1437.01
755.1	1454.35
755.497	1468.91
755.894	1521.79
756.291	1569.9
756.688	1664.54
757.085	1788.42
757.482	1966.75
757.878	2164.64
758.275	2342.15
758.672	2572.46
759.068	2766.62
759.465	3047.73
759.861	3409.77
760.258	3833.01
760.654	4048.47
761.05	4019.68
761.447	3838.87
761.843	3574.42
762.239	3298.16
762.635	3169.33
763.031	3053.05
763.427	2884.54
763.822	2705.33
764.218	2529.45
764.614	2297.79
765.01	2144.07
765.405	2040.12
765.801	1966.72
766.196	1871.49
766.592	1818.5
766.987	1730.3
767.382	1669.72
767.778	1644.76
768.173	1606.83
768.568	1586.63
768.963	1552.89
769.358	1557.55
769.753	1547.92
770.148	1523.43
770.542	1522.68
770.937	1512.8
771.332	1540.33
771.726	1543.57
772.121	1530.04
772.515	1546.73
772.91	1541.13
773.304	1560.85
773.699	1543.72
774.093	1558.5
774.487	1574.21
774.881	1587.28
775.275	1587.97
775.669	1573.44
776.063	1588.76
776.457	1594.44
776.851	1571.1
777.245	1568.85
777.638	1578.48
778.032	1610.33
778.425	1601.23
778.819	1617.43
779.212	1606.09
779.606	1594.63
779.999	1600.89
780.392	1597.18
780.786	1618.66
781.179	1626.84
781.572	1641.73
781.965	1646.74
782.358	1631.47
782.751	1646.13
783.143	1628.33
783.536	1649.46
783.929	1659.07
784.322	1692.65
784.714	1700.66
785.107	1702.77
785.499	1723.47
785.891	1717.76
786.284	1710.49
786.676	1750.27
787.068	1746.04
787.46	1760.55
787.852	1763.14
788.245	1789.17
788.636	1795.11
789.028	1817.55
789.42	1829.86
789.812	1831.91
790.204	1860.83
790.595	1893.04
790.987	1836.36
791.378	1843.54
791.77	1880.14
792.161	1918.76
792.553	1934.63
792.944	1900.67
793.335	1877.54
793.726	1898.09
794.117	1927.81
794.508	1962.12
794.899	1946.98
795.29	1983.62
795.681	2000.24
796.072	1961.16
796.463	1930.26
796.853	1934.72
797.244	1983.75
797.634	1992.69
798.025	1989.32
798.415	1986.76
798.806	2015.73
799.196	2045.42
799.586	2065.13
799.976	2052.94
800.366	2116.79
800.756	2162.82
801.146	2150.44
801.536	2159.59
801.926	2180.24
802.316	2189.01
802.706	2213.41
803.095	2178.34
803.485	2202.49
803.874	2212.48
804.264	2285.17
804.653	2278.01
805.043	2322.82
805.432	2354.76
805.821	2356.49
806.21	2363.35
806.599	2397.9
806.988	2411.29
807.377	2437.49
807.766	2478.41
808.155	2561.71
808.544	2486.51
808.933	2492.44
809.321	2485.92
809.71	2565.03
810.098	2609.65
810.487	2740.59
810.875	2877.35
811.264	2878.11
811.652	2974.26
812.04	3011.97
812.428	3056.9
812.816	3270.98
813.204	3389.14
813.592	3539.96
813.98	3640.4
814.368	3613.86
814.756	3754.39
815.144	3728.96
815.531	3865.62
815.919	3826.53
816.306	3915.35
816.694	3827.53
817.081	3845.7
817.469	3945.49
817.856	3942.77
818.243	4017.28
818.63	4123.61
819.017	4001.81
819.404	4018.02
819.791	4124.9
820.178	4301.94
820.565	4377.63
820.952	4652.03
821.339	4513.14
821.725	4565.63
822.112	4359.84
822.498	4350.3
822.885	4388.5
823.271	4360.48
823.657	4480.24
824.044	4485.76
824.43	4503.32
824.816	4499.94
825.202	4369.5
825.588	4657.65
825.974	4665.17
826.36	4807.77
826.746	4815.86
827.132	4916.48
827.517	4910.24
827.903	4687.78
828.289	4701.26
828.674	4484.77
829.06	4445.62
829.445	4553.84
829.83	4651.7
830.216	4781.15
830.601	4889.92
830.986	4781.47
831.371	4739.7
831.756	4899.3
832.141	4781.57
832.526	4779.01
832.911	4857.13
833.295	4823.98
833.68	4956.52
834.065	4781.29
834.449	4521.1
834.834	4502.26
835.218	4493.41
835.603	4593.94
835.987	4528.66
836.371	4758.07
836.755	4724.82
837.139	4833.36
837.524	4899.7
837.908	4849.12
838.291	4866.2
838.675	4882.94
839.059	4939.28
839.443	4931.65
839.827	4861.96
840.21	4997.3
840.594	4960.75
840.977	5019.19
841.361	5015.73
841.744	5114.06
842.127	5069.63
842.511	5139.32
842.894	5303.02
843.277	5407.31
843.66	5562.79
844.043	5590.1
844.426	5365.77
844.809	5268.15
845.191	5277.1
845.574	5144.43
845.957	5045.37
846.339	5014.45
846.722	4860.48
847.104	4877.13
847.487	4819.92
847.869	4825.82
848.252	4900.09
848.634	4990.24
849.016	5065.98
849.398	5097.73
849.78	5335.48
850.162	5337.34
850.544	5450.75
850.926	5627.91
851.307	5606.73
851.689	5692.72
852.071	5815.28
852.452	5910.2
852.834	5902.18
853.215	6018.81
853.597	6059.81
853.978	6147.88
854.359	6274.78
854.741	5998.37
855.122	5975.29
855.503	5890.94
855.884	5931.9
856.265	5907.92
856.646	5930.53
857.026	5825.74
857.407	5805.13
857.788	5851.07
858.169	5924.35
858.549	5698.29
858.93	5871.55
859.31	5883.44
859.69	5950.41
860.071	5835.16
860.451	5788.17
860.831	5580.69
861.211	5902.33
861.591	6054.52
861.971	6046.93
862.351	6102.98
862.731	6198.18
863.111	6270.35
863.491	6366.43
863.87	6606.07
864.25	6695.55
864.629	6579.58
865.009	6725
865.388	6962.49
865.768	7453.96
866.147	7424.95
866.526	7012.64
866.905	7101.11
867.284	7490.4
867.663	7109.96
868.042	6824.51
868.421	6801.64
868.8	6912.25
869.179	6984.68
869.558	6578.38
869.936	6066.19
870.315	6176.38
870.693	6333.32
871.072	6827.43
871.45	6509.87
871.828	6601.02
872.207	6935.5
872.585	6841.74
872.963	7015.88
873.341	6788.09
873.719	6713.77
874.097	6638.78
874.475	6759.9
874.853	6906.53
875.23	6620.81
875.608	6904.36
875.986	7461.55
876.363	7128.24
876.741	7350.23
877.118	7189.73
877.495	7530.83
877.873	7652.42
878.25	8048.7
878.627	7709.33
879.004	7817.74
879.381	7774.84
879.758	7575.67
880.135	7048.59
880.512	7453.89
880.889	7242.83
881.265	7153.35
881.642	7082.88
882.019	7196.72
882.395	7056.11
882.772	7347.99
883.148	7033.14
883.524	7011.44
883.901	6965.34
884.277	7067.2
884.653	7025.95
885.029	7240.16
885.405	8030.99
885.781	7971.29
886.157	7643.14
886.532	7729.38
886.908	7717.86
887.284	8573.38
887.659	8848.29
888.035	9123.25
888.411	9349.18
888.786	9474.08
889.161	9798.04
889.537	9598.82
889.912	9903.99
890.287	9899.24
890.662	10148.53
891.037	9970.67
891.412	9302.19
891.787	9206.67
892.162	8882.78
892.536	9090.04
892.911	8744.47
893.286	8547.46
893.66	8209.01
894.035	8418.56
894.409	9153.25
894.784	8788.8
895.158	8927.28
895.532	9459.34
895.906	9714.06
896.281	9945.68
896.655	9797.37
897.029	11193.23
897.402	11658.76
897.776	12960.86
898.15	12921.21
898.524	12793.35
898.898	12961.68
899.271	14524.92
899.645	12583.48
900.018	12094.38
900.392	12533.21
900.765	12631.62
901.138	11691.34
901.511	11515.55
901.884	10592.27
902.258	9776.1
902.631	10111.96
903.003	11636.79
903.376	10496.55
903.749	11759.48
904.122	12593.64
904.495	13857.99
904.867	14025.21
905.24	12178.45
905.612	11331.93
905.985	11568.18
906.357	12087.64
906.729	11542.68
907.102	9865.19
907.474	9485.48
907.846	9556.11
908.218	9432.11
908.59	8360.45
908.962	8088.44
909.334	8716.02
909.705	9180.1
910.077	8918.58
910.449	9284.04
910.82	9534.39
911.192	10498.64
911.563	10923.44
911.935	11678.13
912.306	11683.58
912.677	12032.14
913.048	11934.17
913.419	12942.8
913.79	12982.72
914.161	13922.04
914.532	13334.94
914.903	12242.14
915.274	11612.25
915.645	11452.84
916.015	10075.31
916.386	9606.3
916.756	10243.53
917.127	10548.7
917.497	9422.67
917.868	10271.02
918.238	9764.56
918.608	10027.22
918.978	10254.35
919.348	10873.13
919.718	11210.87
920.088	10808.38
920.458	11242.29
920.828	11813.28
921.198	11215.9
921.567	11992.59
921.937	9286.09
922.306	9364.12
922.676	10100.33
923.045	8439.56
923.415	8021.38
923.784	7312.12
924.153	7537.18
924.522	7527.33
924.891	7080.48
925.26	7574.46
925.629	7391.29
925.998	8480.31
926.367	8292.16
926.736	7919.14
927.104	9414.96
927.473	10112.25
927.842	12208.94
928.21	12064.53
928.578	12651.32
928.947	11959.89
929.315	12059.04
929.683	14159.98
930.051	14305.93
930.42	16608.27
930.788	14168.25
931.156	14054.53
931.523	13205.97
931.891	12209.61
932.259	11735.56
932.627	13629.5
932.994	19290.98
933.362	15949.05
933.729	13841.78
934.097	13240.93
934.464	11190.67
934.831	12889.87
935.199	12695.58
935.566	12285.81
935.933	12514.9
936.3	15139.85
936.667	11765.28
937.034	10705.98
937.401	10557.01
937.767	9114.63
938.134	8110.88
938.501	11439.68
938.867	12199.89
939.234	20639.04
939.6	17591.59
939.967	19168.63
940.333	12852.56
940.699	10929.72
941.065	8646.34
941.431	11344.64
941.798	10991.11
942.163	14472.04
942.529	9040.24
942.895	8334.44
943.261	5398.44
943.627	7071.31
943.992	6207.81
944.358	6197.31
944.723	6273.05
945.089	6115.41
945.454	5645.02
945.82	5985.67
946.185	5733.07
946.55	6637.55
946.915	5932.36
947.28	6947.14
947.645	6123.93
948.01	5676.23
948.375	5932.44
948.74	7048.45
949.104	8222.97
949.469	11839.74
949.834	20889.81
950.198	19932.2
950.562	11968.56
950.927	10014.58
951.291	12051.08
951.655	10278.09
952.02	9605.44
952.384	7280.11
952.748	6369.83
953.112	6266.66
953.476	5463.57
953.839	5055.17
954.203	5006.99
954.567	6253.89
954.931	9812.38
955.294	8446.19
955.658	8496.28
956.021	14475.49
956.385	24503.63
956.748	36235.2
957.111	55754.04
957.474	62670.54
957.837	70571.1
958.2	53211.86
958.563	19161.03
958.926	12983.22
959.289	19636.7
959.652	21909.61
960.015	16428.63
960.377	23525.14
960.74	26791.68
961.102	46214.05
961.465	49755.31
961.827	27114.74
962.189	52064.73
962.552	36220.78
962.914	29052.41
963.276	18824.35
963.638	15613.76
964	15480.92
964.362	10514.1
964.724	10156.82
965.085	7271.5
965.447	5966.44
965.809	6699.68
966.17	6692.59
966.532	7229.02
966.893	6629.99
967.255	6036.77
967.616	7106.41
967.977	5692
968.338	6203.23
968.699	5129.77
969.061	5108.38
969.421	5148.61
969.782	5765.15
970.143	4883.97
970.504	5099.34
970.865	5814.54
971.225	5982.68
971.586	5860.21
971.946	8326.8
972.307	7212.86
972.667	9355.57
973.027	9662.1
973.388	11668.69
973.748	7969.91
974.108	8694.56
974.468	11651.93
974.828	9063.1
975.188	6921.06
975.548	6346.59
975.907	5358.69
976.267	6015.02
976.627	5088.65
976.986	5262.51
977.346	5021.72
977.705	4831.2
978.064	4393.67
978.424	3659.17
978.783	3722.93
979.142	4258.6
979.501	4091.45
979.86	4320.77
980.219	4149.32
980.578	5315.68
980.937	5951.68
981.296	5309.07
981.654	5452.65
982.013	8484.84
982.371	11080.03
982.73	10387.1
983.088	11756.14
983.447	12560.24
983.805	17944.05
984.163	37547.68
984.521	41561.72
984.879	60698.99
985.237	-98350.6
985.595	94942.74
985.953	23455.07
986.311	13390.3
986.669	7783.55
987.026	6724.27
987.384	8967.46
987.741	9206.28
988.099	6641.69
988.456	5323.56
988.814	5039.81
989.171	4402.76
989.528	4323.43
989.885	4559.69
990.242	3639.95
990.599	4513.72
990.956	3691.51
991.313	2606.12
991.67	2159.76
992.027	2324.16
992.383	2064.91
992.74	1814.52
993.096	1913.12
993.453	1993.35
993.809	2066.79
994.165	2749.67
994.522	2590.82
994.878	2846.31
995.234	3557.28
995.59	3501.13
995.946	3259.23
996.302	3743.51
996.658	4273.31
997.013	4652.39
997.369	5546.68
997.725	7136.65
998.08	4624.32
998.436	6892.17
998.791	9563.01
999.147	9591.19
999.502	10498.45
999.857	7579.68
1000.212	12258.68
1000.567	17578.1
1000.922	10219.67
1001.277	6471.32
1001.632	4768.25
1001.987	6121.88
1002.342	4415.72
1002.696	3539.26
1003.051	2842.91
1003.406	3439.53
1003.76	3416.46
1004.114	3364.15
1004.469	2860.93
1004.823	2365.75
1005.177	2524.98
1005.531	2019.12
1005.885	1799.59
1006.239	2044.38
1006.593	2573.67
1006.947	3451.15
1007.301	2574.85
1007.655	2804.08
1008.008	2059.48
1008.362	2311.06
1008.715	3290.23
1009.069	2964.33
1009.422	4536.52
1009.776	9089.33
1010.129	5967.83
1010.482	4905.04
1010.835	4035.74
1011.188	8352.62
1011.541	7825.24
1011.894	-48037.38
1012.247	139676.82
1012.6	9478.27
1012.952	6182.5
1013.305	3096.06
1013.657	2256.89
1014.01	2138.66
1014.362	1764.29
1014.715	1634.3
1015.067	1456.07
1015.419	1442.47
1015.771	1285.61
1016.123	1163.79
1016.475	1204.59
1016.827	1265.46
1017.179	1384.58
1017.531	1386.88
1017.883	1412.33
1018.234	1415.19
1018.586	1772.43
1018.938	1901.26
1019.289	2635.2
1019.64	2957.01
1019.992	2700.83
1020.343	2438.7
1020.694	1969.36
1021.045	1738.53
1021.396	1952.01
1021.747	2152.34
1022.098	2497.7
1022.449	1800.03
1022.8	1648.18
1023.151	1156.53
1023.501	1051.78
1023.852	1136.3
1024.202	1212.69
1024.553	1283.35
1024.903	1274.74
1025.253	1120.89
1025.604	1018.68
1025.954	1256.28
1026.304	1487.95
1026.654	1734.44
1027.004	2500.59
1027.354	3962.3
1027.703	3848.92
1028.053	4934.05
1028.403	7394.75
1028.753	10141.52
1029.102	13236.65
1029.452	63679.62
1029.801	2711.5
1030.15	1768.83
1030.499	1424.82
897.758	2647.15
901.051	2598.59
904.343	2633.63
907.636	2636.73
910.928	2700.58
914.22	2608.78
917.511	2616.84
920.803	2675.74
924.094	2693.28
927.384	2674.61
930.675	2636.02
933.965	2590.04
937.255	2602.47
940.544	2568.38
943.834	2511.85
947.123	2454.49
950.411	2552.59
953.7	2522.94
956.988	2495.1
960.276	2433.8
963.563	2508.56
966.851	2506.25
970.138	2561.48
973.424	2556.28
976.711	2505.32
979.997	2628.08
983.283	2664.55
986.568	2568.81
989.853	2582.95
993.138	2607.15
996.423	2691.21
999.708	2629.08
1002.992	2689.83
1006.275	2534.5
1009.559	2571.36
1012.842	2684.61
1016.125	2616.22
1019.408	2594.73
1022.69	2678.6
1025.972	2696.94
1029.254	2671.66
1032.536	2603.72
1035.817	2632.01
1039.098	2575.22
1042.379	2706.92
1045.659	2708.57
1048.939	2644.11
1052.219	2662.14
1055.498	2670.98
1058.778	2656.59
1062.057	2638.76
1065.335	2658.98
1068.614	2675.42
1071.892	2655.38
1075.17	2729.32
1078.447	2720.01
1081.724	2711.92
1085.001	2744.66
1088.278	2718.17
1091.554	2728.23
1094.83	2722.48
1098.106	2751.05
1101.382	2793.17
1104.657	2792.33
1107.932	2789.33
1111.206	2754.22
1114.481	2710.45
1117.755	2710.07
1121.029	2688.94
1124.302	2742.25
1127.575	2696.93
1130.848	2684.05
1134.121	2646.24
1137.393	2596.55
1140.665	2661.85
1143.937	2635.93
1147.208	2597.2
1150.48	2634.14
1153.75	2623.73
1157.021	2654.6
1160.291	2624.23
1163.561	2665.89
1166.831	2656.18
1170.101	2685.49
1173.37	2660.47
1176.639	2606.49
1179.907	2663.01
1183.176	2668.69
1186.444	2675.19
1189.711	2701.37
1192.979	2712.33
1196.246	2671.24
1199.513	2687.36
1202.78	2688.52
1206.046	2697.72
1209.312	2720.27
1212.578	2744.58
1215.843	2699.29
1219.108	2673.75
1222.373	2699.95
1225.638	2665.31
1228.902	2649.06
1232.166	2615.23
1235.43	2602.48
1238.693	2622.28
1241.956	2619.59
1245.219	2663.03
1248.482	2654.08
1251.744	2650.66
1255.006	2797.12
1258.268	2748.5
1261.529	2693.13
1264.79	2699.06
1268.051	2799.65
1271.312	2813.33
1274.572	2775.88
1277.832	2762.76
1281.092	2750.85
1284.351	2725.59
1287.61	2703.02
1290.869	2621.03
1294.128	2600.05
1297.386	2686.08
1300.644	2676.24
1303.902	2689.08
1307.159	2550.35
1310.416	2606.62
1313.673	2634
1316.93	2619.04
1320.186	2664.76
1323.442	2706.91
1326.697	2693.94
1329.953	2688.21
1333.208	2712.87
1336.463	2695.43
1339.717	2636.94
1342.972	2772.84
1346.226	2748.11
1349.479	2682.46
1352.733	2656.63
1355.986	2681.83
1359.238	2657.84
1362.491	2666.69
1365.743	2669.81
1368.995	2662.53
1372.247	2676.83
1375.498	2701.24
1378.749	2716.04
1382	2677.97
1385.251	2731.22
1388.501	2691.8
1391.751	2676.42
1395	2655.39
1398.25	2684.55
1401.499	2694.47
1404.748	2627.12
1407.996	2617.6
1411.244	2605.93
1414.492	2589.31
1417.74	2565.51
1420.987	2577.15
1424.234	2638.29
1427.481	2615.99
1430.728	2672.23
1433.974	2648.58
1437.22	2663.11
1440.465	2664.03
1443.711	2631.18
1446.956	2664.24
1450.201	2649.34
1453.445	2696.37
1456.689	2673.91
1459.933	2685.78
1463.177	2716.56
1466.42	2687.8
1469.663	2667.85
1472.906	2661.67
1476.148	2730.04
1479.391	2699.69
1482.633	2666.18
1485.874	2676.98
1489.115	2662.13
1492.356	2665.85
1495.597	2638.33
1498.838	2637.47
1502.078	2606.68
1505.318	2557.65
1508.557	2596.77
1511.797	2574.51
1515.036	2633.4
1518.274	2622.32
1521.513	2593.92
1524.751	2612.68
1527.989	2621.63
1531.227	2634.77
1534.464	2630.85
1537.701	2646.93
1540.938	2663.71
1544.174	2616.97
1547.41	2614.05
1550.646	2649.63
1553.882	2685
1557.117	2733.54
1560.352	2748.78
1563.587	2707.83
1566.821	2668.11
1570.055	2700.33
1573.289	2669.71
1576.523	2743.57
1579.756	2747.85
1582.989	2765.51
1586.222	2724.68
1589.454	2763.5
1592.686	2736.01
1595.918	2757.38
1599.15	2744.14
1602.381	2816.57
1605.612	2770.56
1608.843	2865.98
1612.073	2780.11
1615.303	2764.99
1618.533	2755.62
1621.762	2762.32
1624.992	2744.45
1628.221	2730.05
1631.449	2716.5
1634.678	2773.44
1637.906	2726.51
1641.134	2765.7
1644.361	2720.59
1647.588	2709.04
1650.815	2726.8
1654.042	2705.68
1657.269	2731.76
1660.495	2687.71
1663.72	2712.38
1666.946	2678.35
1670.171	2621.55
1673.396	2601.17
1676.621	2586.29
1679.845	2607.76
1683.069	2627.64
1686.293	2667.55
1689.517	2641.09
1692.74	2573.23
1695.963	2602.83
1699.185	2615.12
1702.408	2594.61
1705.63	2633.04
1708.852	2642.07
1712.073	2619.63
1715.294	2605.3
1718.515	2664.92
1721.736	2615.51
1724.956	2610.41
1728.176	2637.73
1731.396	2659.9
1734.616	2646.4
1737.835	2671.52
1741.054	2655.77
1744.272	2650.37
1747.491	2682.49
1750.709	2734.34
1753.927	2644.32
1757.144	2687.19
1760.361	2730.38
1763.578	2719.55
1766.795	2664.32
1770.011	2677.08
1773.227	2716.18
1776.443	2750.6
1779.658	2794.76
1782.874	2739.43
1786.089	2718.23
1789.303	2721.62
1792.518	2726.15
1795.732	2713.21
1798.945	2727.54
1802.159	2773.83
1805.372	2678.79
1808.585	2665.91
1811.797	2666.22
1815.01	2716.19
1818.222	2718.35
1821.434	2704.14
1824.645	2758.71
1827.856	2749.63
1831.067	2785.6
1834.278	2741.13
1837.488	2728.17
1840.698	2875.77
1843.908	2801.88
1847.117	2767.85
1850.326	2656.75
1853.535	2756.98
1856.744	2775.12
1859.952	2695.17
1863.16	2698.2
1866.368	2723.86
1869.575	2830.4
1872.782	2717.03
1875.989	2659.39
1879.196	2744.96
1882.402	2741.51
1885.608	2784.83
1888.814	2692.64
1892.019	2591.23
1895.224	2645.82
1898.429	2624.66
1901.634	2603.36
1904.838	2583.49
1908.042	2639.37
1911.246	2643.38
1914.449	2575.66
1917.652	2573.07
1920.855	2554.83
1924.058	2602.88
1927.26	2640.58
1930.462	2667.89
1933.664	2696.5
1936.865	2636.65
1940.066	2645.26
1943.267	2587.28
1946.467	2606.29
1949.668	2635.82
1952.868	2702.89
1956.067	2680.6
1959.267	2612.72
1962.466	2640.61
1965.665	2625.62
1968.863	2621.92
1972.061	2634.55
1975.259	2631.38
1978.457	2712.54
1981.654	2670.25
1984.852	2667.58
1988.048	2601.46
1991.245	2605.54
1994.441	2692.27
1997.637	2673.65
2000.833	2654.43
2004.028	2692.46
2007.223	2747.9
2010.418	2726.38
2013.613	2685.15
2016.807	2656.25
2020.001	2665.4
2023.194	2705.84
2026.388	2679.78
2029.581	2627.43
2032.774	2679.58
2035.966	2682.48
2039.158	2616.02
2042.35	2641.85
2045.542	2566.56
2048.733	2666.68
2051.924	2685.8
2055.115	2712.76
2058.306	2658.58
2061.496	2717.35
2064.686	2778.23
2067.875	2691.04
2071.065	2707.87
2074.254	2731.98
2077.442	2683.39
2080.631	2775.51
2083.819	2670.05
2087.007	2655.06
2090.195	2623.5
2093.382	2655.41
2096.569	2636.4
2099.756	2590.83
2102.942	2616.82
2106.128	2624.41
2109.314	2616.21
2112.5	2579.9
2115.685	2552.73
2118.87	2563.13
2122.055	2627.13
2125.239	2597.13
2128.424	2570.59
2131.608	2671.1
2134.791	2650.71
2137.974	2707.88
2141.157	2690.43
2144.34	2644.4
2147.523	2658.73
2150.705	2674.31
2153.887	2653.61
2157.068	2604.43
2160.25	2602.17
2163.431	2641.48
2166.611	2588.1
2169.792	2605.72
2172.972	2499.99
2176.152	2578.62
2179.331	2613.28
2182.511	2597.61
2185.69	2626.31
2188.868	2620.71
2192.047	2675.75
2195.225	2669.48
2198.403	2620.37
2201.58	2611.71
2204.758	2605.95
2207.935	2689.68
2211.111	2579.57
2214.288	2564.39
2217.464	2603.56
2220.64	2573.06
2223.815	2630.68
2226.991	2550.9
2230.166	2570.86
2233.34	2601.66
2236.515	2629.27
2239.689	2703.56
2242.863	2644.69
2246.036	2700.73
2249.209	2701.52
2252.382	2734.19
2255.555	2723.66
2258.727	2660.56
2261.9	2700.86
2265.071	2692.07
2268.243	2693.22
2271.414	2624.81
2274.585	2587.65
2277.756	2659.65
2280.926	2614.98
2284.096	2652.71
2287.266	2562.99
2290.436	2619.78
2293.605	2646.2
2296.774	2678.77
2299.942	2698.98
2303.111	2715.66
2306.279	2765.32
2309.447	2750.38
2312.614	2723.85
2315.781	2743.44
2318.948	2716.28
2322.115	2753.12
2325.281	2652.61
2328.447	2674.39
2331.613	2647.52
2334.779	2621.74
2337.944	2624.02
2341.109	2622.55
2344.274	2608.04
2347.438	2569.77
2350.602	2595.42
2353.766	2611.1
2356.929	2597.73
2360.092	2639.6
2363.255	2592.38
2366.418	2528.31
2369.58	2641.76
2372.742	2432.75
2375.904	2445.94
2379.066	2422.58
2382.227	2460.76
2385.388	2421.61
2388.548	2348.97
2391.709	2404.21
2394.869	2388.22
2398.029	2482.97
2401.188	2492.09
2404.347	2425.83
2407.506	2567.63
2410.665	2595.88
2413.823	2599.76
2416.981	2559.04
2420.139	2589.04
2423.296	2638.56
2426.453	2611.69
2429.61	2630.29
2432.767	2567.25
2435.923	2610.9
2439.079	2571.01
2442.235	2618.53
2445.391	2544.85
2448.546	2576.29
2451.701	2622.38
2454.855	2600.31
2458.009	2650.91
2461.163	2650.6
2464.317	2613.52
2467.471	2645.04
2470.624	2682.04
2473.777	2654.9
2476.929	2668.72
2480.082	2696.39
2483.234	2660.56
2486.385	2614.79
2489.537	2605.44
2492.688	2566.57
2495.839	2587.69
2498.989	2600.04
2502.14	2586.67
2505.29	2568.79
2508.439	2596.22
2511.589	2519.33
2514.738	2527.85
2517.887	2557.31
2521.035	2626.45
2524.183	2606.15
2527.331	2588.85
2530.479	2561.18
2533.627	2570.75
