Data from N_3_DEC_OH_4N_Splice17_13-35-00-010.txt Node
Date: Sat Mar 14 13:35:00 EDT 2020
User: sa697716
Spectrometer: FLMS03696
Trigger mode: 0
Integration Time (sec): 3.180400E-1
Scans to average: 20
Electric dark correction enabled: true
Nonlinearity correction enabled: true
Boxcar width: 5
XAxis mode: Wavelengths
Number of Pixels in Spectrum: 2048
>>>>>Begin Spectral Data<<<<<
187.83	-378999.26
188.298	2768.7
188.766	1448.03
189.233	1313.56
189.701	1906.24
190.169	2639.99
190.636	1011.89
191.104	844.57
191.571	111.85
192.039	-135.37
192.506	-148.88
192.974	471.28
193.441	-778.86
193.908	-252.58
194.375	-32.32
194.842	35.64
195.31	156.15
195.777	186.02
196.244	455.52
196.711	518.2
197.177	639.33
197.644	923.15
198.111	1640.04
198.578	2333.49
199.045	1868.46
199.511	3058.59
199.978	3587.24
200.445	3063.09
200.911	3410.54
201.378	3800.87
201.844	3441.93
202.31	5878.18
202.777	6151.43
203.243	3397.73
203.709	3203.55
204.176	3810.44
204.642	3117.92
205.108	2921.68
205.574	2378.35
206.04	2180.13
206.506	2043.76
206.972	1930.2
207.438	1875.49
207.903	2125.1
208.369	1873.77
208.835	1885.74
209.301	1984.34
209.766	2042.91
210.232	2027.31
210.697	2503.83
211.163	3055.36
211.628	4599.16
212.094	3886.45
212.559	4751.01
213.024	2962.78
213.49	3629.06
213.955	3529.94
214.42	3461.92
214.885	3211.43
215.35	3082.06
215.815	2992.11
216.28	3206.25
216.745	2636.7
217.21	2860.56
217.675	2647.48
218.14	3004.23
218.604	3374.49
219.069	3909.82
219.534	4154.48
219.998	4890.42
220.463	5960.09
220.927	7376.05
221.392	6978.2
221.856	7105.18
222.32	9030.93
222.785	11218.29
223.249	14169.91
223.713	15862.98
224.177	15891.57
224.642	20411.49
225.106	25176.44
225.57	27620.23
226.034	20574.6
226.497	31376.51
226.961	28388.01
227.425	33013.46
227.889	36620.69
228.353	36666.66
228.816	75733.77
229.28	72489.58
229.744	61138.1
230.207	37127.45
230.671	36491.19
231.134	60394.03
231.597	69637.59
232.061	69626.24
232.524	67867.34
232.987	46729.7
233.45	42052.97
233.914	37741.71
234.377	38690.32
234.84	35450.02
235.303	41820.23
235.766	46764.07
236.229	48357.31
236.691	30448.89
237.154	34198.36
237.617	25757.54
238.08	26414.96
238.542	30922.34
239.005	22096.69
239.468	21912.86
239.93	20624.24
240.393	18749.1
240.855	16437.77
241.317	16831.83
241.78	20501.31
242.242	21205.71
242.704	22901.8
243.166	19924.88
243.629	18105.18
244.091	20862.93
244.553	22867.71
245.015	24603.34
245.477	31857.36
245.939	46685.26
246.4	49517.6
246.862	48125.79
247.324	45397.74
247.786	50853.61
248.247	66744.5
248.709	68912.75
249.17	51586.93
249.632	48616.66
250.093	56371.47
250.555	48666.33
251.016	29727.51
251.477	28228.53
251.939	30503.25
252.4	32002.8
252.861	38049.48
253.322	35395.35
253.783	42165.19
254.244	54748.82
254.705	43230.37
255.166	38497.68
255.627	37902.44
256.088	53486.8
256.549	56887.07
257.009	48958.14
257.47	59444.3
257.931	48482.79
258.391	36385.84
258.852	37529.82
259.312	39365.05
259.773	48668.23
260.233	41124.98
260.694	34758.05
261.154	39449.3
261.614	31665.01
262.074	28357.07
262.534	29486.83
262.994	27827.41
263.455	37083.66
263.915	31269.73
264.374	29469.4
264.834	32197.66
265.294	35696.14
265.754	36971
266.214	35051.43
266.673	32888.46
267.133	41561.39
267.593	41267.82
268.052	50510.99
268.512	43951.46
268.971	53031.1
269.431	58198.26
269.89	52153.17
270.349	78318.67
270.809	87442.15
271.268	78639.13
271.727	176364.3
272.186	114335.13
272.645	85775.8
273.104	61889.19
273.563	89692.72
274.022	70604.06
274.481	60138.5
274.94	46319.73
275.399	34427.16
275.857	40101.3
276.316	54233.21
276.775	48274.54
277.233	47537.82
277.692	44561.88
278.15	50408.65
278.609	51852.24
279.067	47988.52
279.525	44576.58
279.984	57630.6
280.442	69284.27
280.9	68323.52
281.358	44939.12
281.816	41910.86
282.274	41061.18
282.732	42413.18
283.19	42649.44
283.648	36860.96
284.106	39269.82
284.564	39943.6
285.021	37038.82
285.479	27623.09
285.937	25124.94
286.394	22056.26
286.852	22703.99
287.309	23842.99
287.767	23048.51
288.224	21905.42
288.682	24029.23
289.139	26418.25
289.596	24151.49
290.053	25132.8
290.511	31700.95
290.968	38417.71
291.425	52170.16
291.882	43440.97
292.339	37837.66
292.796	37531.81
293.252	35417.38
293.709	28146.11
294.166	25204.44
294.623	27900.47
295.079	26784.84
295.536	26929.91
295.992	24477.7
296.449	24230
296.905	25187.57
297.362	24145.68
297.818	25406.66
298.274	26348.32
298.731	26829.91
299.187	26564.24
299.643	28512.46
300.099	34467.9
300.555	37814.69
301.011	31592.37
301.467	30427.67
301.923	35611.7
302.379	34784.16
302.835	34142.37
303.291	34187.6
303.746	38909.28
304.202	49168.81
304.658	49358.24
305.113	33195.88
305.569	32504.37
306.024	34672.85
306.479	33013.77
306.935	27821.25
307.39	30383.64
307.845	28080.91
308.301	28262.36
308.756	27552.83
309.211	26511.2
309.666	27156.42
310.121	33724.99
310.576	34232.16
311.031	33974.93
311.486	38916.99
311.94	38927.01
312.395	52119.4
312.85	98072.6
313.305	481099.56
313.759	2492228.14
314.214	180801.93
314.668	143442.02
315.123	120556.78
315.577	43252.5
316.032	38452.63
316.486	48159.95
316.94	38029.52
317.394	26434.34
317.849	20515.05
318.303	19458.52
318.757	18327.04
319.211	20242.01
319.665	17715.6
320.119	17933.63
320.572	25722.74
321.026	24026.48
321.48	19990.91
321.934	21768.53
322.387	21790.88
322.841	23526.87
323.295	21135.33
323.748	24364.41
324.202	24707.01
324.655	29661.96
325.108	41440.97
325.562	29243.31
326.015	34762.89
326.468	26275.72
326.921	29373.05
327.374	27414.27
327.827	28554.8
328.28	32351.85
328.733	21681.28
329.186	19068.36
329.639	18162.88
330.092	15292.78
330.545	14551.52
330.997	14665.57
331.45	16044.23
331.903	18821.18
332.355	32408.76
332.808	31455.12
333.26	25925.14
333.713	28116.45
334.165	28339.2
334.617	37847.39
335.069	30592.62
335.522	55428.58
335.974	61445.92
336.426	56166.31
336.878	38838.99
337.33	19681.63
337.782	19234.38
338.234	24100.42
338.686	28897.37
339.137	34217.6
339.589	32236.04
340.041	25260.67
340.493	21700.19
340.944	22236.24
341.396	23938.56
341.847	20172.88
342.299	23803.33
342.75	29063.4
343.201	25410.82
343.653	29179.01
344.104	35902.53
344.555	28261.1
345.006	43991.11
345.457	33688.6
345.908	26744.01
346.359	25142.28
346.81	20469.41
347.261	21585.45
347.712	21268.55
348.163	22803.65
348.613	23123.17
349.064	21579.13
349.515	18886.14
349.965	19396.79
350.416	23376.74
350.866	25641.72
351.317	29029.75
351.767	48042.46
352.217	60716.94
352.668	50380.4
353.118	46136.25
353.568	44441.17
354.018	35123.08
354.468	37055.13
354.918	26570.68
355.368	23229.4
355.818	32895.73
356.268	94689.1
356.718	396284.58
357.168	98630.38
357.617	49513.48
358.067	55140.11
358.517	51653.57
358.966	60658.18
359.416	68007.76
359.865	73460.89
360.315	87459.34
360.764	40743.61
361.213	22806.31
361.663	21615.1
362.112	26671.8
362.561	43077.09
363.01	32481.35
363.459	27371.86
363.908	29606.18
364.357	25144.81
364.806	42460.97
365.255	29157.39
365.703	26745.88
366.152	26768.57
366.601	21687.46
367.05	17614.96
367.498	16009.84
367.947	16695.76
368.395	17336.75
368.844	15327.46
369.292	18475.24
369.74	12782.85
370.189	19584.31
370.637	22882.72
371.085	19733.31
371.533	24018.24
371.981	23123.98
372.429	21999.8
372.877	22913.54
373.325	19157.14
373.773	19534.8
374.221	17363.82
374.669	21496.3
375.116	18594.37
375.564	18741.9
376.012	20928.5
376.459	17261.88
376.907	20602.09
377.354	24899.38
377.801	23223
378.249	26689.6
378.696	34081.08
379.143	41259.83
379.591	43909
380.038	74255.66
380.485	53584.81
380.932	57801.2
381.379	52665.34
381.826	38726.42
382.273	27526.68
382.72	24047.38
383.166	23430.59
383.613	15170.31
384.06	13665.36
384.506	15832.37
384.953	11602.52
385.4	11679.32
385.846	10212.18
386.292	9965.11
386.739	9760.52
387.185	9636.02
387.631	9626.11
388.078	9338.62
388.524	9980.99
388.97	9209.68
389.416	7666.82
389.862	8152.45
390.308	7723.88
390.754	7851.12
391.2	8523.46
391.645	8716.62
392.091	8338.09
392.537	8058.56
392.983	8065.58
393.428	7940.23
393.874	8513.93
394.319	8548.91
394.765	8099.71
395.21	8334.86
395.655	7819.83
396.101	7325.37
396.546	6617.63
396.991	6691.6
397.436	6208.34
397.881	6005.58
398.326	5693.23
398.771	5387.54
399.216	4709.35
399.661	4248.37
400.106	4233.7
400.551	4341.92
400.995	3893.54
401.44	3851.13
401.885	3615.24
402.329	3661.02
402.774	3508.38
403.218	3394.23
403.663	3270.63
404.107	3366.17
404.551	3388.56
404.995	3101.9
405.44	2983.45
405.884	3031.17
406.328	2934.75
406.772	2924.28
407.216	2656.74
407.66	2563.6
408.104	2433.09
408.547	2275.36
408.991	2199.06
409.435	2116
409.879	2089.48
410.322	2062.61
410.766	1989.28
411.209	1888.78
411.653	1811.11
412.096	1776.01
412.54	1775.5
412.983	1762.35
413.426	1766.03
413.869	1764.75
414.312	1730.51
414.756	1665.05
415.199	1586.46
415.642	1539.47
416.085	1538.78
416.527	1524.24
416.97	1548.07
417.413	1468.97
417.856	1453.27
418.298	1437.36
418.741	1423.76
419.184	1419.1
419.626	1476.61
420.069	1475.88
420.511	1483.25
420.953	1451.72
421.396	1439.89
421.838	1400.33
422.28	1430.69
422.722	1436.6
423.164	1455.97
423.606	1431.75
424.048	1424.99
424.49	1355.33
424.932	1346.05
425.374	1326.99
425.816	1347.67
426.258	1372.46
426.699	1385.29
427.141	1365.43
427.582	1383.68
428.024	1375.02
428.465	1364.82
428.907	1331.75
429.348	1310.38
429.789	1308.3
430.231	1278.64
430.672	1296.5
431.113	1263.51
431.554	1246.17
431.995	1213.18
432.436	1172.82
432.877	1145.88
433.318	1128.28
433.759	1123.41
434.2	1125.8
434.64	1114.75
435.081	1118.29
435.522	1058.52
435.962	1022.41
436.403	999.9
436.843	1013.51
437.284	990.42
437.724	964.64
438.164	964.99
438.604	944.19
439.045	908.25
439.485	873.69
439.925	855.05
440.365	834.48
440.805	823.19
441.245	814.54
441.685	785.83
442.125	778.67
442.564	785.04
443.004	768.8
443.444	769.05
443.883	772.33
444.323	766.22
444.762	768.8
445.202	781.27
445.641	797.76
446.081	794.7
446.52	802.68
446.959	799.25
447.398	783.24
447.837	776.13
448.276	763.19
448.716	771.46
449.154	781.22
449.593	764.14
450.032	762.5
450.471	749.48
450.91	751.1
451.349	751.95
451.787	749.01
452.226	760.86
452.664	762.53
453.103	765.75
453.541	767.2
453.98	769.11
454.418	776.78
454.856	766.56
455.295	766.03
455.733	774.65
456.171	779.6
456.609	781.37
457.047	781.39
457.485	794.02
457.923	796.78
458.361	786.57
458.798	787.04
459.236	785.04
459.674	789.63
460.111	793.49
460.549	785.38
460.987	782.41
461.424	780.22
461.862	776.84
462.299	764.36
462.736	764.23
463.173	765.69
463.611	757.95
464.048	756.03
464.485	762.76
464.922	754.9
465.359	749.16
465.796	741.79
466.233	736.35
466.67	729.9
467.106	728.64
467.543	720.63
467.98	712.34
468.416	693.85
468.853	688.89
469.29	667.92
469.726	661.72
470.162	645.86
470.599	635.69
471.035	630.92
471.471	616.49
471.907	613.34
472.344	610.33
472.78	612.44
473.216	621.17
473.652	613.79
474.088	614.04
474.523	613.77
474.959	620.67
475.395	617.21
475.831	615.4
476.266	618.9
476.702	617.38
477.138	611.23
477.573	610.1
478.008	610.06
478.444	615.83
478.879	623.46
479.314	627.32
479.75	627.72
480.185	631.2
480.62	636.43
481.055	641.66
481.49	648.58
481.925	659.15
482.36	672.84
482.795	692.34
483.229	711.75
483.664	726.9
484.099	730.45
484.534	743.53
484.968	752.62
485.403	756.46
485.837	757.61
486.271	758
486.706	759.56
487.14	752.26
487.574	741.45
488.009	735
488.443	729.96
488.877	739.89
489.311	743.78
489.745	754.13
490.179	763.95
490.613	779.22
491.046	786.8
491.48	795.21
491.914	798.07
492.348	806.86
492.781	814.93
493.215	820.3
493.648	824.33
494.082	834.12
494.515	837.64
494.948	849.83
495.382	859.91
495.815	869.77
496.248	881.01
496.681	901.74
497.114	920
497.547	937.73
497.98	958.95
498.413	971.5
498.846	988.64
499.279	1004.61
499.711	1014.35
500.144	1021.14
500.577	1039.01
501.009	1057.64
501.442	1074.95
501.874	1080.93
502.306	1087.97
502.739	1102.33
503.171	1126.85
503.603	1135.51
504.036	1152.31
504.468	1164.7
504.9	1184.8
505.332	1197.93
505.764	1208.19
506.196	1221.18
506.627	1244.14
507.059	1266.07
507.491	1282.01
507.923	1282.21
508.354	1305.87
508.786	1323.97
509.217	1350.86
509.649	1374.03
510.08	1403.01
510.512	1427.73
510.943	1450.05
511.374	1467.96
511.805	1495.94
512.237	1522.81
512.668	1568
513.099	1604.28
513.53	1641.22
513.961	1668.79
514.391	1710.63
514.822	1754.35
515.253	1801.07
515.684	1834.28
516.114	1872.09
516.545	1900.54
516.975	1934.41
517.406	1955.37
517.836	1956.53
518.267	1962.57
518.697	1984.35
519.127	1987.95
519.558	1993.79
519.988	1996.94
520.418	2008.16
520.848	2029.08
521.278	2035.31
521.708	2055.28
522.138	2070.48
522.567	2109.97
522.997	2140.38
523.427	2157.53
523.857	2176.11
524.286	2186.3
524.716	2202.49
525.145	2223.53
525.575	2235.09
526.004	2253.12
526.433	2239.96
526.863	2236.24
527.292	2220.67
527.721	2225.1
528.15	2230.82
528.579	2229.3
529.008	2241.44
529.437	2270.31
529.866	2286.92
530.295	2307.19
530.724	2320.54
531.152	2354.06
531.581	2370.68
532.01	2390.7
532.438	2400.84
532.867	2417.41
533.295	2440.33
533.723	2447.29
534.152	2441.1
534.58	2438.79
535.008	2415.66
535.436	2416.59
535.865	2424.96
536.293	2443.31
536.721	2463.06
537.149	2494.28
537.576	2496.68
538.004	2512.3
538.432	2521.01
538.86	2517.04
539.287	2524.73
539.715	2541.87
540.143	2544.08
540.57	2538.42
540.998	2531.49
541.425	2500.21
541.852	2471.16
542.28	2468.21
542.707	2444.23
543.134	2425.75
543.561	2420.93
543.988	2411.15
544.415	2410.59
544.842	2403.25
545.269	2393.67
545.696	2396.13
546.123	2413.22
546.549	2400.86
546.976	2383.17
547.403	2383.34
547.829	2385.9
548.256	2389.07
548.682	2384.09
549.108	2373.37
549.535	2373.01
549.961	2376.34
550.387	2359.71
550.813	2351.49
551.24	2359
551.666	2362.46
552.092	2351.93
552.518	2345.07
552.943	2337.32
553.369	2348.41
553.795	2356.77
554.221	2358.91
554.646	2356.01
555.072	2372.78
555.498	2383.53
555.923	2398.83
556.349	2421.44
556.774	2435.36
557.199	2438.39
557.625	2449.85
558.05	2444.38
558.475	2461.25
558.9	2463.93
559.325	2456.25
559.75	2450.14
560.175	2441.74
560.6	2434.58
561.025	2433.37
561.449	2436.12
561.874	2446.51
562.299	2455.34
562.723	2467.51
563.148	2457.48
563.572	2465.6
563.997	2481.73
564.421	2491.43
564.846	2496.84
565.27	2505.14
565.694	2505.06
566.118	2525.42
566.542	2539.75
566.966	2533.91
567.39	2531.79
567.814	2520.57
568.238	2522.59
568.662	2531.94
569.086	2539.57
569.509	2552.96
569.933	2536
570.357	2529.86
570.78	2503.24
571.204	2487.9
571.627	2476.1
572.05	2475.33
572.474	2478.47
572.897	2463.96
573.32	2457.54
573.743	2446.41
574.166	2424.17
574.589	2427.43
575.012	2420.99
575.435	2423.81
575.858	2414.79
576.281	2402.05
576.704	2384.35
577.126	2370.48
577.549	2359.57
577.972	2349.77
578.394	2337.91
578.817	2329.5
579.239	2305.97
579.661	2288.92
580.084	2268.58
580.506	2252.21
580.928	2249.52
581.35	2235.9
581.772	2230.69
582.194	2214.07
582.616	2197.52
583.038	2179.97
583.46	2168.86
583.882	2165.78
584.303	2173.11
584.725	2168.18
585.147	2172.51
585.568	2189.66
585.99	2209.78
586.411	2223.13
586.833	2246.86
587.254	2250.25
587.675	2272.6
588.096	2291.65
588.518	2286.37
588.939	2263.46
589.36	2261.58
589.781	2247.57
590.202	2206.08
590.623	2194.3
591.043	2191.35
591.464	2173.79
591.885	2169.48
592.305	2160.7
592.726	2140.98
593.147	2142.84
593.567	2135.67
593.987	2126.24
594.408	2118.92
594.828	2119.15
595.248	2110.99
595.669	2084.26
596.089	2074.8
596.509	2065.11
596.929	2046.66
597.349	2048.77
597.769	2034.31
598.189	2027.03
598.608	2028.81
599.028	2033.51
599.448	2034.73
599.867	2017.24
600.287	2012.2
600.706	2005.98
601.126	1993.08
601.545	1991.83
601.965	1991.65
602.384	1985.89
602.803	1990.57
603.222	1984.34
603.641	1975.04
604.061	1968.98
604.48	1963.93
604.898	1976.63
605.317	1985.15
605.736	1989.68
606.155	1987.4
606.574	1974.62
606.992	1983.99
607.411	1978.39
607.829	1969.13
608.248	1966.57
608.666	1966.02
609.085	1966.91
609.503	1956.69
609.921	1949.72
610.339	1955.16
610.758	1956.54
611.176	1951.21
611.594	1939.29
612.012	1936.09
612.43	1942.58
612.847	1953.35
613.265	1955.31
613.683	1963.68
614.101	1967.2
614.518	1962.63
614.936	1949.31
615.353	1928.08
615.771	1925.16
616.188	1927.09
616.606	1923.35
617.023	1914.21
617.44	1894.72
617.857	1886.01
618.274	1875.22
618.691	1866.16
619.108	1853.6
619.525	1845.06
619.942	1856.47
620.359	1860.72
620.776	1854.07
621.192	1848.78
621.609	1845.71
622.026	1856.78
622.442	1865.93
622.859	1870.31
623.275	1860.64
623.691	1868.63
624.108	1886.51
624.524	1907.13
624.94	1907.3
625.356	1921.68
625.772	1941.24
626.188	1958.52
626.604	1960.78
627.02	1954.31
627.436	1952.05
627.852	1962.55
628.268	1980.74
628.683	1966.32
629.099	1953.47
629.514	1947.15
629.93	1952.32
630.345	1957.66
630.761	1952.02
631.176	1953.76
631.591	1944.84
632.007	1933.31
632.422	1928.79
632.837	1909.65
633.252	1904.59
633.667	1888.41
634.082	1874.1
634.497	1853.67
634.911	1824.53
635.326	1817.89
635.741	1794.41
636.155	1778.24
636.57	1779.12
636.984	1777.01
637.399	1780.06
637.813	1779.28
638.228	1777.21
638.642	1781.1
639.056	1765.01
639.47	1762.62
639.884	1747.62
640.298	1735.77
640.712	1732.41
641.126	1711.91
641.54	1697.03
641.954	1686.51
642.368	1665.9
642.781	1650.91
643.195	1622.51
643.609	1619.2
644.022	1607.36
644.436	1598.45
644.849	1578.3
645.262	1558.08
645.676	1557.42
646.089	1548.51
646.502	1523.54
646.915	1513.02
647.328	1485.59
647.741	1480.32
648.154	1460.17
648.567	1454.35
648.98	1434.55
649.393	1432.6
649.805	1425.44
650.218	1414.85
650.631	1390.28
651.043	1380.55
651.456	1370.71
651.868	1370.43
652.28	1392.47
652.693	1410.25
653.105	1417.03
653.517	1430.03
653.929	1428.49
654.341	1435.53
654.753	1416.5
655.165	1424.93
655.577	1419.87
655.989	1411.65
656.401	1399.49
656.813	1348.35
657.224	1318.57
657.636	1279.23
658.047	1251.85
658.459	1223.56
658.87	1208.28
659.282	1188.89
659.693	1157.51
660.104	1134.35
660.515	1111.61
660.926	1104.17
661.338	1095.76
661.749	1082.75
662.159	1066.64
662.57	1055.29
662.981	1043.77
663.392	1028.76
663.803	1028.97
664.213	1019.41
664.624	1007.75
665.035	1006.62
665.445	985.35
665.855	971.19
666.266	956.05
666.676	946.4
667.086	930.01
667.497	924.72
667.907	912.71
668.317	896.41
668.727	888.83
669.137	885.08
669.547	878.36
669.956	877.71
670.366	876.08
670.776	874.82
671.186	876.23
671.595	877.97
672.005	878.34
672.414	876.59
672.824	873.45
673.233	875.49
673.642	876.42
674.052	878.5
674.461	878.81
674.87	882.43
675.279	878.84
675.688	879.4
676.097	880.19
676.506	876.38
676.915	890.19
677.323	892.85
677.732	891.27
678.141	892.02
678.549	881.82
678.958	882.81
679.366	884.59
679.775	893.04
680.183	908.23
680.592	918.13
681	930.35
681.408	928.38
681.816	943.81
682.224	961.19
682.632	982.56
683.04	1026.26
683.448	1065.5
683.856	1115.02
684.264	1170.52
684.671	1225.13
685.079	1290
685.487	1360.46
685.894	1455.72
686.302	1537.63
686.709	1610.49
687.116	1689.76
687.524	1758.41
687.931	1819.64
688.338	1871.23
688.745	1916.22
689.152	1966.29
689.559	2030.59
689.966	2092.26
690.373	2122.25
690.78	2178.28
691.187	2263.12
691.593	2325.13
692	2376.65
692.407	2455.26
692.813	2550.16
693.22	2621.94
693.626	2695.91
694.032	2750.55
694.439	2839.38
694.845	2902.92
695.251	2989.62
695.657	3062.71
696.063	3180.95
696.469	3262.05
696.875	3333.43
697.281	3365.74
697.687	3408.87
698.093	3440.28
698.498	3518.89
698.904	3574.38
699.31	3671.8
699.715	3732.9
700.12	3829.17
700.526	3832.33
700.931	3900.83
701.337	3946.54
701.742	3967.92
702.147	4057.26
702.552	4076.07
702.957	4134.93
703.362	4143.36
703.767	4163.53
704.172	4193.86
704.577	4119.52
704.981	4160.01
705.386	4165.06
705.791	4140.15
706.195	4216.2
706.6	4209.6
707.004	4291.44
707.408	4237.24
707.813	4253.26
708.217	4223.19
708.621	4209.33
709.025	4311.06
709.43	4298.19
709.834	4358.28
710.237	4426.5
710.641	4395.01
711.045	4407.31
711.449	4385.42
711.853	4407.93
712.256	4445.67
712.66	4475.77
713.064	4554.54
713.467	4589.95
713.87	4705.76
714.274	4744.27
714.677	4856.37
715.08	5031.31
715.484	5210.59
715.887	5432.74
716.29	5644.23
716.693	5864.55
717.096	6120.75
717.499	6250.57
717.901	6266.74
718.304	6284.47
718.707	6296.28
719.109	6170.72
719.512	6121.1
719.915	5959.19
720.317	5882.13
720.719	5919.53
721.122	5879.52
721.524	5813.87
721.926	5759.5
722.328	5856.14
722.731	5837.62
723.133	5859.04
723.535	6062.07
723.937	6076.14
724.338	6124.19
724.74	6160.63
725.142	6097.2
725.544	6085.89
725.945	6108.43
726.347	6096.03
726.748	6085.11
727.15	6088.78
727.551	6044.1
727.952	6004.66
728.354	5963.98
728.755	5958.58
729.156	5906.44
729.557	5872.49
729.958	5735.61
730.359	5672.01
730.76	5648.18
731.161	5575.36
731.562	5546.07
731.962	5542.1
732.363	5471.79
732.763	5402.62
733.164	5437.03
733.564	5362.85
733.965	5259.73
734.365	5218.95
734.766	5243.97
735.166	5198.31
735.566	5136.66
735.966	5106.52
736.366	5099.11
736.766	5032.64
737.166	5063.83
737.566	5018.98
737.966	4989.85
738.365	5028.77
738.765	5023.57
739.165	4940.29
739.564	4910.84
739.964	4958.61
740.363	4908.94
740.763	4903.5
741.162	4888.55
741.561	4851.95
741.96	4799.7
742.36	4819.47
742.759	4822.77
743.158	4859.33
743.557	4874.76
743.955	4916.89
744.354	4866.63
744.753	4923.34
745.152	4881.5
745.55	4939.07
745.949	4931.41
746.348	4933.98
746.746	4949.75
747.144	4905.94
747.543	4881.81
747.941	4934.24
748.339	4858.05
748.737	4850.28
749.136	4840.02
749.534	4905.69
749.932	4874.38
750.33	4897.92
750.727	4954.86
751.125	4929.11
751.523	4911.86
751.921	4957.03
752.318	4919.15
752.716	4979.94
753.113	4993.29
753.511	5019.14
753.908	5016.21
754.305	4999.19
754.703	5062.91
755.1	5123.69
755.497	5185.22
755.894	5381.55
756.291	5567.61
756.688	5907.89
757.085	6365.21
757.482	7004.85
757.878	7705.75
758.275	8343.49
758.672	9211.71
759.068	9917.89
759.465	10926.77
759.861	12231.8
760.258	13741.3
760.654	14517.89
761.05	14407.14
761.447	13743.95
761.843	12797.91
762.239	11819.44
762.635	11367.58
763.031	10941.27
763.427	10330.57
763.822	9690.06
764.218	9052.03
764.614	8227.6
765.01	7674.04
765.405	7314.8
765.801	7043.45
766.196	6697.97
766.592	6500.66
766.987	6175.92
767.382	5954.95
767.778	5863.76
768.173	5730.8
768.568	5655.01
768.963	5529.52
769.358	5549.6
769.753	5500.03
770.148	5415.28
770.542	5413.46
770.937	5384.11
771.332	5479.95
771.726	5502.75
772.121	5437.99
772.515	5495.12
772.91	5482.79
773.304	5552.74
773.699	5481
774.093	5539.17
774.487	5592.04
774.881	5635.83
775.275	5629.63
775.669	5582.96
776.063	5625
776.457	5660.67
776.851	5581.14
777.245	5570.39
777.638	5604.46
778.032	5725.7
778.425	5686.54
778.819	5732.44
779.212	5685.35
779.606	5642.32
779.999	5663.11
780.392	5649.78
780.786	5731.76
781.179	5753.43
781.572	5797.99
781.965	5812.28
782.358	5749.34
782.751	5806.03
783.143	5755.07
783.536	5832.56
783.929	5878.5
784.322	5996.18
784.714	6027.5
785.107	6026.93
785.499	6101.02
785.891	6078.31
786.284	6055.5
786.676	6206.39
787.068	6187.72
787.46	6238.96
787.852	6261.56
788.245	6348.6
788.636	6384.26
789.028	6454.27
789.42	6494.01
789.812	6502.81
790.204	6603.04
790.595	6713.27
790.987	6512.58
791.378	6539.49
791.77	6681.57
792.161	6821.01
792.553	6881.99
792.944	6765.42
793.335	6697.43
793.726	6774.78
794.117	6870.56
794.508	7016.96
794.899	6985.3
795.29	7129.24
795.681	7187.55
796.072	7034.67
796.463	6853.73
796.853	6866.02
797.244	7032.37
797.634	7067.8
798.025	7069.24
798.415	7083.7
798.806	7174.98
799.196	7265.5
799.586	7320.74
799.976	7278.69
800.366	7524.5
800.756	7770.47
801.146	7732.37
801.536	7763.63
801.926	7838.53
802.316	7866.64
802.706	7939.47
803.095	7814.39
803.485	7916.07
803.874	7962.82
804.264	8242.46
804.653	8216.37
805.043	8368.74
805.432	8483.26
805.821	8488.91
806.21	8511.39
806.599	8634.69
806.988	8685.99
807.377	8797.17
807.766	8935.63
808.155	9231.47
808.544	8955.02
808.933	8974.79
809.321	8951.58
809.71	9261.35
810.098	9425.78
810.487	9913.52
810.875	10420.66
811.264	10448.16
811.652	10755.92
812.04	10910.64
812.428	11079.74
812.816	11885.5
813.204	12320.51
813.592	12898.09
813.98	13249.57
814.368	13150.72
814.756	13642.51
815.144	13555.12
815.531	14041.9
815.919	13964.49
816.306	14294.5
816.694	13973
817.081	14021.22
817.469	14385.33
817.856	14383.62
818.243	14668.16
818.63	15090.03
819.017	14661.24
819.404	14731.41
819.791	15126.81
820.178	15770.6
820.565	16022.96
820.952	17002.44
821.339	16488.61
821.725	16678.32
822.112	15910.32
822.498	15867.59
822.885	16002.36
823.271	15907.89
823.657	16344.69
824.044	16352.28
824.43	16430.08
824.816	16398.7
825.202	15943.38
825.588	17012.05
825.974	17028.69
826.36	17561.65
826.746	17592.51
827.132	17951.01
827.517	17919.06
827.903	17099.05
828.289	17146.54
828.674	16332.77
829.06	16222.28
829.445	16634.49
829.83	17001.66
830.216	17498.24
830.601	17876.34
830.986	17451.04
831.371	17311.37
831.756	17889.19
832.141	17430.4
832.526	17412.88
832.911	17704.84
833.295	17578.51
833.68	18058.52
834.065	17417.58
834.449	16467.62
834.834	16391.34
835.218	16383.1
835.603	16730.17
835.987	16506.98
836.371	17376.43
836.755	17267.18
837.139	17673.92
837.524	17924.12
837.908	17737.84
838.291	17790.68
838.675	17853.26
839.059	18061.64
839.443	18046.81
839.827	17807.84
840.21	18301.11
840.594	18138.94
840.977	18350.39
841.361	18325.4
841.744	18710.09
842.127	18542.4
842.511	18797.08
842.894	19406.47
843.277	19798.44
843.66	20353.7
844.043	20437.74
844.426	19596.3
844.809	19269.56
845.191	19297.56
845.574	18817.54
845.957	18438.64
846.339	18322.88
846.722	17774.73
847.104	17847.79
847.487	17658.2
847.869	17671.12
848.252	17961.44
848.634	18305.18
849.016	18581.77
849.398	18704.79
849.78	19583.91
850.162	19586.34
850.544	20014.35
850.926	20660.87
851.307	20576.57
851.689	20872.52
852.071	21332.46
852.452	21666.05
852.834	21647.8
853.215	22051.19
853.597	22219.94
853.978	22528.97
854.359	22998.78
854.741	21976.9
855.122	21867.23
855.503	21556.52
855.884	21694.54
856.265	21634.68
856.646	21746.73
857.026	21342.36
857.407	21282.56
857.788	21436.31
858.169	21719.15
858.549	20847.15
858.93	21486.98
859.31	21547.03
859.69	21767.07
860.071	21351.94
860.451	21130.18
860.831	20375.45
861.211	21566.59
861.591	22120.62
861.971	22100.73
862.351	22309.37
862.731	22713.74
863.111	22980.78
863.491	23319.58
863.87	24219.17
864.25	24575.53
864.629	24161.01
865.009	24678.45
865.388	25567.11
865.768	27411.15
866.147	27314.14
866.526	25799.13
866.905	26096.53
867.284	27561.61
867.663	26167.73
868.042	25075.35
868.421	24984.73
868.8	25403.13
869.179	25645.92
869.558	24137.16
869.936	22251.69
870.315	22632.66
870.693	23193.1
871.072	25009.75
871.45	23832.79
871.828	24149.75
872.207	25392.43
872.585	25023.26
872.963	25706.24
873.341	24831.55
873.719	24539.04
874.097	24232.09
874.475	24708.75
874.853	25268.9
875.23	24227.83
875.608	25234.42
875.986	27282.8
876.363	26089.21
876.741	26884.76
877.118	26206.4
877.495	27485.01
877.873	27941.53
878.25	29413.67
878.627	28192.95
879.004	28578.92
879.381	28433.94
879.758	27691.86
880.135	25771.73
880.512	27260.92
880.889	26535.2
881.265	26257.75
881.642	26040.13
882.019	26478.88
882.395	25941.11
882.772	26971.99
883.148	25814.24
883.524	25709.65
883.901	25560.41
884.277	25950.65
884.653	25778.47
885.029	26505.91
885.405	29357.05
885.781	29130.66
886.157	27938
886.532	28266.57
886.908	28255.15
887.284	31390.56
887.659	32414.98
888.035	33401.29
888.411	34253.83
888.786	34704.02
889.161	35905.41
889.537	35235.05
889.912	36349.42
890.287	36294.41
890.662	37236.69
891.037	36538.6
891.412	34076.8
891.787	33717.73
892.162	32547.61
892.536	33306.21
892.911	32045.7
893.286	31369.14
893.66	30078.69
894.035	30844.89
894.409	33586.01
894.784	32218.92
895.158	32741.55
895.532	34682.96
895.906	35617.67
896.281	36449.92
896.655	35856.34
897.029	40965.64
897.402	42649.83
897.776	47485.33
898.15	47308.31
898.524	46794.23
898.898	47412.49
899.271	53104.15
899.645	45992.36
900.018	44186.79
900.392	45818.52
900.765	46185.21
901.138	42738.08
901.511	42090.78
901.884	38672.17
902.258	35683.48
902.631	36875.41
903.003	42423.66
903.376	38281.97
903.749	42924.44
904.122	45945.89
904.495	50594.86
904.867	51258.11
905.24	44509.57
905.612	41435.39
905.985	42365.55
906.357	44277.3
906.729	42250.41
907.102	36102.24
907.474	34723.44
907.846	34931.88
908.218	34473.36
908.59	30460.66
908.962	29443.85
909.334	31698.69
909.705	33325.99
910.077	32351.7
910.449	33695.12
910.82	34641.43
911.192	38134.19
911.563	39615.79
911.935	42402.77
912.306	42461.09
912.677	43843.19
913.048	43411.37
913.419	47120.46
913.79	47347.83
914.161	50780.33
914.532	48525.25
914.903	44613.94
915.274	42373.85
915.645	41763.42
916.015	36735.41
916.386	35042.2
916.756	37289.44
917.127	38452.33
917.497	34347.87
917.868	37394.04
918.238	35528.01
918.608	36550.55
918.978	37312.6
919.348	39500.58
919.718	40814.85
920.088	39350.6
920.458	40898.49
920.828	43071.64
921.198	40864.26
921.567	43677.34
921.937	33850.87
922.306	34171.68
922.676	36862.19
923.045	30758.95
923.415	29232.02
923.784	26621.52
924.153	27370.67
924.522	27329.76
924.891	25691.38
925.26	27523.7
925.629	26873.37
925.998	30893.27
926.367	30154.92
926.736	28736.1
927.104	34225.97
927.473	36795.5
927.842	44428.21
928.21	44019.89
928.578	46272.42
928.947	43771.77
929.315	44055.19
929.683	51678.87
930.051	52078.12
930.42	60514.81
930.788	51693.5
931.156	51314.25
931.523	48107.99
931.891	44464.37
932.259	42707.41
932.627	49516.4
932.994	70070
933.362	57918.11
933.729	50272.6
934.097	48137.11
934.464	40736.15
934.831	47002.51
935.199	46306.94
935.566	44922.27
935.933	45494.08
936.3	55092.73
936.667	42886.7
937.034	38711.94
937.401	38244.5
937.767	33027.09
938.134	29388.19
938.501	41457.38
938.867	44198.87
939.234	74718.48
939.6	63728.02
939.967	70304.64
940.333	47038.46
940.699	40045.64
941.065	32094.38
941.431	42145.4
941.798	40621.21
942.163	53318.27
942.529	33297.51
942.895	30643.62
943.261	19848.93
943.627	26049.45
943.992	22817.47
944.358	22886.04
944.723	22971.19
945.089	22381.67
945.454	20676.63
945.82	22086.75
946.185	21253.87
946.55	24620.34
946.915	22084.81
947.28	25892.57
947.645	22800.06
948.01	21058.23
948.375	21941.49
948.74	26302.21
949.104	30678.37
949.469	44253.68
949.834	78267.03
950.198	74137.42
950.562	44399.37
950.927	36995.88
951.291	44478.61
951.655	37839.52
952.02	35525.84
952.384	26845.69
952.748	23375.46
953.112	22783.44
953.476	19841.86
953.839	18326.64
954.203	18158.81
954.567	22734.01
954.931	35770.27
955.294	30625.03
955.658	30797.74
956.021	52369.86
956.385	88781.59
956.748	130958.94
957.111	203268.62
957.474	228205.28
957.837	257113.07
958.2	194358.77
958.563	69858.08
958.926	47240.4
959.289	71676.36
959.652	80121.23
960.015	60087.74
960.377	86254.65
960.74	98552.34
961.102	170006.21
961.465	182437.52
961.827	97759.54
962.189	187649.34
962.552	130189.99
962.914	104382.46
963.276	67713.91
963.638	55988.25
964	55406.82
964.362	37474.93
964.724	36186.52
965.085	25815.04
965.447	21152.16
965.809	24103.65
966.17	24137.04
966.532	26085.28
966.893	23937.31
967.255	21782.38
967.616	25705.42
967.977	20602.03
968.338	22486.29
968.699	18484.62
969.061	18473.52
969.421	18589.09
969.782	20849.71
970.143	17613.75
970.504	18274.83
970.865	20786.89
971.225	21249.53
971.586	20782.46
971.946	29610.31
972.307	25682.78
972.667	33543.03
973.027	34551.41
973.388	41909.97
973.748	28471.95
974.108	31019.69
974.468	41932.29
974.828	32319.89
975.188	24883.82
975.548	22864.12
975.907	19184.24
976.267	21516.99
976.627	18112.86
976.986	18793.56
977.346	17906.94
977.705	17248.17
978.064	15694.18
978.424	13062.92
978.783	13497.97
979.142	15400.91
979.501	14744.07
979.86	15622.78
980.219	15062.26
980.578	19413.97
980.937	21736.72
981.296	19400.82
981.654	19947.5
982.013	31016.68
982.371	40235
982.73	37585.23
983.088	42598.98
983.447	45492.38
983.805	64988.75
984.163	135868.2
984.521	150722.49
984.879	221172.98
985.237	-359381.83
985.595	346716.57
985.953	86223.24
986.311	49819.46
986.669	28900.55
987.026	24937.05
987.384	33506.07
987.741	34648.27
988.099	24783.39
988.456	19750.9
988.814	18469.37
989.171	16055.69
989.528	15837.41
989.885	16698.08
990.242	13218.53
990.599	16486.3
990.956	13460.95
991.313	9415.63
991.67	7720.53
992.027	8200.32
992.383	7289.62
992.74	6400.23
993.096	6720.59
993.453	6971.92
993.809	7232.58
994.165	9636.91
994.522	8865.9
994.878	9787.65
995.234	12294.98
995.59	12145.02
995.946	11474.2
996.302	13084.6
996.658	15101
997.013	16653.16
997.369	19766.31
997.725	25303.42
998.08	16391.79
998.436	25208.29
998.791	34754.81
999.147	34745.94
999.502	37847.75
999.857	27563.24
1000.212	44940.99
1000.567	63998.85
1000.922	36830.78
1001.277	23375.55
1001.632	17355.61
1001.987	22390.81
1002.342	16043.38
1002.696	12817.86
1003.051	10211.8
1003.406	12379.45
1003.76	12298.6
1004.114	12108.69
1004.469	10199.96
1004.823	8462.53
1005.177	9132.41
1005.531	7241.47
1005.885	6421.82
1006.239	7241.65
1006.593	9122.23
1006.947	12215.98
1007.301	9159.46
1007.655	9977.08
1008.008	7338.83
1008.362	8253.19
1008.715	11795.8
1009.069	10690.73
1009.422	16096.27
1009.776	32213.24
1010.129	21431.45
1010.482	17857.44
1010.835	15073.99
1011.188	31397.06
1011.541	29599.66
1011.894	-180887.14
1012.247	532569.96
1012.6	36141.21
1012.952	22892.93
1013.305	11815.3
1013.657	8544.3
1014.01	8088.08
1014.362	6674.22
1014.715	5950.89
1015.067	5188.86
1015.419	5075.59
1015.771	4502.83
1016.123	4002.39
1016.475	4120.1
1016.827	4382.75
1017.179	4718.42
1017.531	4751.75
1017.883	4854.87
1018.234	4706.85
1018.586	5945.12
1018.938	6317.48
1019.289	8692.07
1019.64	9928
1019.992	9209.65
1020.343	8448.52
1020.694	6688.58
1021.045	5908
1021.396	6728.81
1021.747	7234.96
1022.098	8635.07
1022.449	6280.07
1022.8	5808.07
1023.151	4061.66
1023.501	3626.84
1023.852	3961.09
1024.202	4108.77
1024.553	4525.2
1024.903	4427.72
1025.253	3810.96
1025.604	3422.39
1025.954	4266.33
1026.304	5185.43
1026.654	6047.62
1027.004	8870.07
1027.354	14258.8
1027.703	13499.34
1028.053	17754.57
1028.403	25797.26
1028.753	37259.03
1029.102	50544.08
1029.452	259620.34
1029.801	11179.21
1030.15	7205.41
1030.499	6104.71
897.758	3283.85
901.051	3267.66
904.343	3302.67
907.636	3294.55
910.928	3363.4
914.22	3263.15
917.511	3276.91
920.803	3364.03
924.094	3411.5
927.384	3358.36
930.675	3322.1
933.965	3263.1
937.255	3254.85
940.544	3221.42
943.834	3074.87
947.123	3033.94
950.411	3141.75
953.7	3101.38
956.988	3049.72
960.276	2997.49
963.563	3120.15
966.851	3099.41
970.138	3178.12
973.424	3152.37
976.711	3102.2
979.997	3360.51
983.283	3374.75
986.568	3242.99
989.853	3291.61
993.138	3320.89
996.423	3400.52
999.708	3313.31
1002.992	3433.11
1006.275	3159.43
1009.559	3269.33
1012.842	3410.39
1016.125	3309.57
1019.408	3287.02
1022.69	3415.05
1025.972	3419.71
1029.254	3385.89
1032.536	3279.43
1035.817	3326.77
1039.098	3224.44
1042.379	3495.78
1045.659	3446.81
1048.939	3353.98
1052.219	3397.84
1055.498	3428.97
1058.778	3398.86
1062.057	3389.95
1065.335	3409.01
1068.614	3442.63
1071.892	3403.76
1075.17	3510.38
1078.447	3483.47
1081.724	3466.15
1085.001	3519.05
1088.278	3485.66
1091.554	3509.74
1094.83	3506.09
1098.106	3530.13
1101.382	3593.37
1104.657	3593.63
1107.932	3589.15
1111.206	3534.18
1114.481	3491.84
1117.755	3505.52
1121.029	3466.69
1124.302	3511.35
1127.575	3439.31
1130.848	3416.51
1134.121	3366.42
1137.393	3296.98
1140.665	3380
1143.937	3358.82
1147.208	3262.75
1150.48	3289.23
1153.75	3266.55
1157.021	3338.6
1160.291	3295.19
1163.561	3335.07
1166.831	3356.33
1170.101	3391.14
1173.37	3381.55
1176.639	3299.5
1179.907	3376.37
1183.176	3429.78
1186.444	3434.91
1189.711	3468.36
1192.979	3468.14
1196.246	3428.84
1199.513	3453.18
1202.78	3447.49
1206.046	3454.25
1209.312	3488.89
1212.578	3528.27
1215.843	3452.95
1219.108	3434.89
1222.373	3458.3
1225.638	3404.93
1228.902	3378.69
1232.166	3346.75
1235.43	3321.98
1238.693	3339.76
1241.956	3344.39
1245.219	3371.92
1248.482	3374.6
1251.744	3366.07
1255.006	3552.68
1258.268	3518.14
1261.529	3446.23
1264.79	3463
1268.051	3589.49
1271.312	3610.37
1274.572	3561.22
1277.832	3552.94
1281.092	3556.1
1284.351	3502.08
1287.61	3472.42
1290.869	3360.4
1294.128	3307.68
1297.386	3451.69
1300.644	3433.87
1303.902	3446.03
1307.159	3287.86
1310.416	3348.73
1313.673	3368.77
1316.93	3336.43
1320.186	3406.8
1323.442	3463.74
1326.697	3436.92
1329.953	3452.13
1333.208	3459.17
1336.463	3447.29
1339.717	3370.25
1342.972	3462.97
1346.226	3469.33
1349.479	3376.95
1352.733	3331
1355.986	3377.19
1359.238	3344.48
1362.491	3342.64
1365.743	3349.59
1368.995	3351.6
1372.247	3365.68
1375.498	3379.12
1378.749	3441.07
1382	3382.17
1385.251	3457.48
1388.501	3433.51
1391.751	3394.66
1395	3378.53
1398.25	3418.2
1401.499	3409.26
1404.748	3317.77
1407.996	3231.17
1411.244	3227.71
1414.492	3200.38
1417.74	3170.74
1420.987	3196.59
1424.234	3242.23
1427.481	3247.36
1430.728	3304.1
1433.974	3275.64
1437.22	3308.49
1440.465	3313.23
1443.711	3316.56
1446.956	3348.92
1450.201	3361.6
1453.445	3409.55
1456.689	3368.52
1459.933	3388.43
1463.177	3416.85
1466.42	3384.5
1469.663	3364.5
1472.906	3331.18
1476.148	3478.66
1479.391	3357.1
1482.633	3346.34
1485.874	3341.5
1489.115	3301.41
1492.356	3334.67
1495.597	3304.76
1498.838	3319.42
1502.078	3265.18
1505.318	3185.01
1508.557	3239.91
1511.797	3149.23
1515.036	3326.96
1518.274	3312.44
1521.513	3298.63
1524.751	3333.08
1527.989	3335.83
1531.227	3339.86
1534.464	3302.16
1537.701	3359.28
1540.938	3390.13
1544.174	3347.91
1547.41	3363.33
1550.646	3401.34
1553.882	3419.41
1557.117	3474.06
1560.352	3503.39
1563.587	3448.25
1566.821	3396.3
1570.055	3462.76
1573.289	3418.13
1576.523	3518.12
1579.756	3518.4
1582.989	3533.37
1586.222	3489.01
1589.454	3543.79
1592.686	3503.54
1595.918	3523.04
1599.15	3499.33
1602.381	3615.84
1605.612	3535.97
1608.843	3639.77
1612.073	3536.2
1615.303	3513.82
1618.533	3491.18
1621.762	3507.22
1624.992	3506.68
1628.221	3470.7
1631.449	3454.96
1634.678	3553.27
1637.906	3492.01
1641.134	3545.5
1644.361	3490.15
1647.588	3474.4
1650.815	3481
1654.042	3478.28
1657.269	3518.9
1660.495	3466.36
1663.72	3407.64
1666.946	3396.55
1670.171	3294.98
1673.396	3274.64
1676.621	3273.41
1679.845	3324.03
1683.069	3367.2
1686.293	3431.2
1689.517	3379.81
1692.74	3267.67
1695.963	3284.93
1699.185	3387.09
1702.408	3328.8
1705.63	3388.49
1708.852	3391.18
1712.073	3363.16
1715.294	3323.69
1718.515	3349.21
1721.736	3292.56
1724.956	3255.36
1728.176	3292.36
1731.396	3311.17
1734.616	3310.53
1737.835	3317.35
1741.054	3311.57
1744.272	3310.72
1747.491	3322.37
1750.709	3413.02
1753.927	3309.81
1757.144	3370.75
1760.361	3443.38
1763.578	3455.41
1766.795	3384.57
1770.011	3408.44
1773.227	3473.15
1776.443	3502.49
1779.658	3546.65
1782.874	3492.65
1786.089	3456.12
1789.303	3460.18
1792.518	3472.76
1795.732	3462.3
1798.945	3462.47
1802.159	3523.63
1805.372	3374.66
1808.585	3347.5
1811.797	3349.98
1815.01	3435.58
1818.222	3438.84
1821.434	3305.68
1824.645	3418.31
1827.856	3373.54
1831.067	3424.75
1834.278	3347.78
1837.488	3337.25
1840.698	3524.54
1843.908	3420.21
1847.117	3380.13
1850.326	3196.67
1853.535	3341.99
1856.744	3473.13
1859.952	3346.31
1863.16	3341.95
1866.368	3366.6
1869.575	3524.93
1872.782	3402.57
1875.989	3346.61
1879.196	3481.25
1882.402	3473.84
1885.608	3528.33
1888.814	3383.07
1892.019	3254.98
1895.224	3307.64
1898.429	3308.74
1901.634	3274.44
1904.838	3254.89
1908.042	3299.27
1911.246	3298.18
1914.449	3184.38
1917.652	3204.1
1920.855	3187.55
1924.058	3266.09
1927.26	3293.55
1930.462	3334.2
1933.664	3343.46
1936.865	3275.54
1940.066	3271.14
1943.267	3217.81
1946.467	3247.17
1949.668	3285.17
1952.868	3349.89
1956.067	3309.01
1959.267	3228.11
1962.466	3263.15
1965.665	3249.57
1968.863	3249.7
1972.061	3279.99
1975.259	3290.29
1978.457	3378.85
1981.654	3328.75
1984.852	3326.52
1988.048	3228.99
1991.245	3250.52
1994.441	3335.84
1997.637	3355.6
2000.833	3336.05
2004.028	3381.21
2007.223	3426.32
2010.418	3384.59
2013.613	3355.71
2016.807	3291.77
2020.001	3320.11
2023.194	3396.45
2026.388	3364.41
2029.581	3310.72
2032.774	3340.1
2035.966	3337.93
2039.158	3245.78
2042.35	3284.23
2045.542	3209.99
2048.733	3343.71
2051.924	3406.19
2055.115	3449.93
2058.306	3359.49
2061.496	3425.39
2064.686	3509.88
2067.875	3430.38
2071.065	3463.85
2074.254	3502.24
2077.442	3454.29
2080.631	3559.37
2083.819	3388.73
2087.007	3353.89
2090.195	3305.88
2093.382	3369.8
2096.569	3342.91
2099.756	3284.21
2102.942	3283.77
2106.128	3270.65
2109.314	3271.11
2112.5	3200.69
2115.685	3184.92
2118.87	3200.48
2122.055	3275.65
2125.239	3221.98
2128.424	3171.9
2131.608	3338.11
2134.791	3315.95
2137.974	3405.02
2141.157	3382.5
2144.34	3306.16
2147.523	3325.73
2150.705	3320.31
2153.887	3318.4
2157.068	3235.59
2160.25	3264.88
2163.431	3327.22
2166.611	3235.89
2169.792	3251.38
2172.972	3118.05
2176.152	3240.86
2179.331	3287.18
2182.511	3266.02
2185.69	3302.37
2188.868	3284.27
2192.047	3371
2195.225	3328.7
2198.403	3274.34
2201.58	3276.23
2204.758	3276.99
2207.935	3373.66
2211.111	3221.66
2214.288	3198.78
2217.464	3251.73
2220.64	3243.12
2223.815	3309.95
2226.991	3214.76
2230.166	3239.27
2233.34	3255.11
2236.515	3294.02
2239.689	3385.24
2242.863	3318.47
2246.036	3382.41
2249.209	3408.62
2252.382	3458.87
2255.555	3424.2
2258.727	3337.63
2261.9	3392.54
2265.071	3383.9
2268.243	3394.9
2271.414	3305.88
2274.585	3233.17
2277.756	3312.58
2280.926	3266.51
2284.096	3321.05
2287.266	3196.79
2290.436	3266.58
2293.605	3308.94
2296.774	3324.27
2299.942	3370.48
2303.111	3387.63
2306.279	3427.93
2309.447	3417.17
2312.614	3397.38
2315.781	3411.68
2318.948	3368.01
2322.115	3412.99
2325.281	3308.34
2328.447	3350.16
2331.613	3328.86
2334.779	3274.07
2337.944	3290.67
2341.109	3282.42
2344.274	3259.76
2347.438	3218.51
2350.602	3252.36
2353.766	3275.52
2356.929	3255.56
2360.092	3303.99
2363.255	3224.16
2366.418	3115.77
2369.58	3292.77
2372.742	2956.36
2375.904	2998.55
2379.066	2957.32
2382.227	3008.32
2385.388	2969.08
2388.548	2864.58
2391.709	2938.93
2394.869	2908.16
2398.029	3070.43
2401.188	3107.99
2404.347	3001.96
2407.506	3226.01
2410.665	3248.12
2413.823	3281.48
2416.981	3208.42
2420.139	3260.94
2423.296	3322.14
2426.453	3300.17
2429.61	3326.02
2432.767	3209.46
2435.923	3262.68
2439.079	3137.59
2442.235	3231.72
2445.391	3132.98
2448.546	3137.74
2451.701	3213.15
2454.855	3147.2
2458.009	3233.05
2461.163	3253.29
2464.317	3195.03
2467.471	3238.28
2470.624	3276.96
2473.777	3334.88
2476.929	3322.15
2480.082	3353.33
2483.234	3321.5
2486.385	3187.42
2489.537	3189.88
2492.688	3114.15
2495.839	3131.26
2498.989	3131.36
2502.14	3112.96
2505.29	3078.17
2508.439	3108.5
2511.589	3007.29
2514.738	3039.77
2517.887	3065.98
2521.035	3230.24
2524.183	3225.69
2527.331	3192.62
2530.479	3138.32
2533.627	3163.32
