Data from N_3_DIV_OH_2N_Splice17_12-49-38-706.txt Node
Date: Sat Mar 14 12:49:38 EDT 2020
User: sa697716
Spectrometer: FLMS03696
Trigger mode: 0
Integration Time (sec): 3.180400E-1
Scans to average: 20
Electric dark correction enabled: true
Nonlinearity correction enabled: true
Boxcar width: 5
XAxis mode: Wavelengths
Number of Pixels in Spectrum: 2048
>>>>>Begin Spectral Data<<<<<
187.83	-371095.83
188.298	2655.94
188.766	1443.04
189.233	1303.17
189.701	1888.65
190.169	2500.99
190.636	946.91
191.104	760.54
191.571	128.41
192.039	-66.79
192.506	-21.79
192.974	615.54
193.441	-822.64
193.908	-142.33
194.375	-85.77
194.842	60.56
195.31	105.88
195.777	203.36
196.244	458.42
196.711	492.58
197.177	604.24
197.644	857.19
198.111	1468.72
198.578	2040.88
199.045	1619.96
199.511	2708.16
199.978	3119.23
200.445	2701.93
200.911	2982.15
201.378	3330.18
201.844	3081.83
202.31	5279.27
202.777	5516.87
203.243	3068.41
203.709	2932.83
204.176	3541.8
204.642	2914.65
205.108	2728.15
205.574	2185.85
206.04	1989.34
206.506	1857.43
206.972	1740.49
207.438	1686.35
207.903	1916.79
208.369	1676.59
208.835	1661.29
209.301	1736.53
209.766	1762.41
210.232	1736
210.697	2144.6
211.163	2641.25
211.628	3966.4
212.094	3345.14
212.559	4065.16
213.024	2534.47
213.49	3117.87
213.955	3015.33
214.42	2906.78
214.885	2716.5
215.35	2603.95
215.815	2522.22
216.28	2650.69
216.745	2155.85
217.21	2301.63
217.675	2114.7
218.14	2358.17
218.604	2593.01
219.069	2949.89
219.534	3084.5
219.998	3544.45
220.463	4267.32
220.927	5200.39
221.392	4873.1
221.856	4901.59
222.32	6135.38
222.785	7516.65
223.249	9417.53
223.713	10464.73
224.177	10479.6
224.642	13364.81
225.106	16417.93
225.57	17893.12
226.034	13304.8
226.497	20195.59
226.961	18205.38
227.425	21173.73
227.889	23439.84
228.353	23347.36
228.816	48205.06
229.28	45960.38
229.744	38779.25
230.207	23604.74
230.671	23175.61
231.134	38167.7
231.597	43971.45
232.061	43860.52
232.524	42729.62
232.987	29417.38
233.45	26494.93
233.914	23756.08
234.377	24267.65
234.84	22166.36
235.303	26010.32
235.766	29036.23
236.229	29987.02
236.691	18899.35
237.154	21228.94
237.617	15975.33
238.08	16359.83
238.542	19145.17
239.005	13672.68
239.468	13598.93
239.93	12825.36
240.393	11684.41
240.855	10245.46
241.317	10491.43
241.78	12747.38
242.242	13192.24
242.704	14262.84
243.166	12433.66
243.629	11303.55
244.091	13035.35
244.553	14254.58
245.015	15301.84
245.477	19766.79
245.939	28982.54
246.4	30747.85
246.862	29875.1
247.324	28142.94
247.786	31407.84
248.247	41059.65
248.709	42250.64
249.17	31560.84
249.632	29769.72
250.093	34525.62
250.555	29760.75
251.016	18149.82
251.477	17229.82
251.939	18578.78
252.4	19487.94
252.861	23152.01
253.322	21570.76
253.783	25692.97
254.244	33305.14
254.705	26239.52
255.166	23292.94
255.627	22942.94
256.088	32343.81
256.549	34290.05
257.009	29561.34
257.47	35809.53
257.931	29163.95
258.391	21786.06
258.852	22423.74
259.312	23475.22
259.773	28972.94
260.233	24498.4
260.694	20659.12
261.154	23389.43
261.614	18796.29
262.074	16782.96
262.534	17430.64
262.994	16422.1
263.455	21880.54
263.915	18411.46
264.374	17317.76
264.834	18866.33
265.294	20885.85
265.754	21572.83
266.214	20399.44
266.673	19058.99
267.133	23989.53
267.593	23752.96
268.052	28990.98
268.512	25173.34
268.971	30324.4
269.431	33214.03
269.89	29694.61
270.349	44461.98
270.809	49645.2
271.268	44603.6
271.727	99933.43
272.186	64694.2
272.645	48497.11
273.104	34982.05
273.563	50612.66
274.022	39789.97
274.481	33882.15
274.94	26090.53
275.399	19364.64
275.857	22511.14
276.316	30381.28
276.775	27003.91
277.233	26590.15
277.692	24901.63
278.15	28193.67
278.609	29018.42
279.067	26823.27
279.525	24920.2
279.984	32179.78
280.442	38646.37
280.9	38093.63
281.358	25097.93
281.816	23403.89
282.274	22924.84
282.732	23651.67
283.19	23716.95
283.648	20449.17
284.106	21818.18
284.564	22149.85
285.021	20563.21
285.479	15321.69
285.937	13911.12
286.394	12206.86
286.852	12566.31
287.309	13196.55
287.767	12760.22
288.224	12152.95
288.682	13347.51
289.139	14618.03
289.596	13358.48
290.053	13881.55
290.511	17520.3
290.968	21277.81
291.425	28886.42
291.882	24053.47
292.339	20913.84
292.796	20720.74
293.252	19476.23
293.709	15484.62
294.166	13881.54
294.623	15339.44
295.079	14692.3
295.536	14773.72
295.992	13415.7
296.449	13246.18
296.905	13760.52
297.362	13194.81
297.818	13891.21
298.274	14419.13
298.731	14655.87
299.187	14489.28
299.643	15554.14
300.099	18825.29
300.555	20611.19
301.011	17185.79
301.467	16601.39
301.923	19391.56
302.379	18947.6
302.835	18598.2
303.291	18622.47
303.746	21190.34
304.202	26777.78
304.658	26908.13
305.113	18095.99
305.569	17779.37
306.024	18976.52
306.479	18023.76
306.935	15230.03
307.39	16630.17
307.845	15348.26
308.301	15455.49
308.756	15077.35
309.211	14530.59
309.666	14896.31
310.121	18527.92
310.576	18771.37
311.031	18646.72
311.486	21358.61
311.94	21333.69
312.395	28535.41
312.85	53751.04
313.305	264102.68
313.759	1369213.61
314.214	99408.41
314.668	78819.99
315.123	66213.63
315.577	23764.87
316.032	21132.99
316.486	26480.31
316.94	20885.36
317.394	14574.99
317.849	11304.77
318.303	10706.15
318.757	10095.32
319.211	11163
319.665	9747.26
320.119	9866.9
320.572	14142.97
321.026	13222.3
321.48	11016.14
321.934	12000.31
322.387	11992.44
322.841	12982.09
323.295	11682.62
323.748	13430.02
324.202	13611.63
324.655	16402.67
325.108	22976.28
325.562	16226
326.015	19268.5
326.468	14553.04
326.921	16279.27
327.374	15209.52
327.827	15855.09
328.28	17953.05
328.733	12063.79
329.186	10619.19
329.639	10121.11
330.092	8517.65
330.545	8133.14
330.997	8209.12
331.45	9002.59
331.903	10592.3
332.355	18203.12
332.808	17677.36
333.26	14580.1
333.713	15863.21
334.165	15983.04
334.617	21297.36
335.069	17207.69
335.522	31115.89
335.974	34512.9
336.426	31498.25
336.878	21776.31
337.33	11070.82
337.782	10814.59
338.234	13580.68
338.686	16191.19
339.137	19181
339.589	18099.04
340.041	14195.51
340.493	12191.53
340.944	12476.45
341.396	13436.21
341.847	11331.9
342.299	13406.15
342.75	16374.96
343.201	14297.04
343.653	16453.66
344.104	20211.83
344.555	15880.13
345.006	24614.1
345.457	18866.48
345.908	14970.35
346.359	14097.78
346.81	11460.22
347.261	12026.51
347.712	11824.4
348.163	12668.96
348.613	12866.51
349.064	12021.83
349.515	10550.45
349.965	10854.54
350.416	13065.46
350.866	14365.9
351.317	16235.9
351.767	26876.08
352.217	34011.4
352.668	28266.02
353.118	25941.66
353.568	24947.5
354.018	19723.4
354.468	20826.13
354.918	14942.79
355.368	13047.73
355.818	18392.74
356.268	52857.34
356.718	221863.93
357.168	55195.09
357.617	27684.57
358.067	30722.92
358.517	28810.64
358.966	33867.78
359.416	38002.53
359.865	41015.13
360.315	48999.84
360.764	22909.92
361.213	12852.03
361.663	12127.9
362.112	14973.87
362.561	24222.88
363.01	18287.78
363.459	15386.67
363.908	16625
364.357	14102.06
364.806	23874.61
365.255	16398.45
365.703	15062.87
366.152	15076.06
366.601	12256.86
367.05	9960.5
367.498	9044.57
367.947	9449.84
368.395	9810.86
368.844	8710.82
369.292	10485.52
369.74	7248.78
370.189	11109.71
370.637	13017.26
371.085	11257.23
371.533	13690.32
371.981	13195.68
372.429	12595.55
372.877	13102.81
373.325	10980.85
373.773	11168.08
374.221	9952.45
374.669	12351.51
375.116	10674.9
375.564	10767.54
376.012	12033.33
376.459	9933.73
376.907	11845.23
377.354	14330.44
377.801	13384.33
378.249	15399.62
378.696	19712.59
379.143	23892.63
379.591	25492.38
380.038	43304.44
380.485	31363.73
380.932	33885.48
381.379	31100.59
381.826	23027.34
382.273	16401.64
382.72	14356.38
383.166	14038.03
383.613	9136.2
384.06	8272.88
384.506	9585.88
384.953	7053.59
385.4	7104.01
385.846	6243.8
386.292	6086.23
386.739	5960.57
387.185	5906.18
387.631	5944.59
388.078	5795.21
388.524	6205.58
388.97	5746.86
389.416	4804.72
389.862	5120.5
390.308	4872.93
390.754	4965.35
391.2	5412.64
391.645	5557.46
392.091	5343.71
392.537	5176.48
392.983	5193.53
393.428	5138.06
393.874	5509.71
394.319	5566.76
394.765	5296.46
395.21	5459.07
395.655	5123.05
396.101	4806.03
396.546	4355.99
396.991	4396.8
397.436	4084.55
397.881	3949.09
398.326	3736.98
398.771	3544.51
399.216	3095.18
399.661	2789.72
400.106	2783.66
400.551	2857.11
400.995	2557.18
401.44	2520.96
401.885	2366.18
402.329	2387.78
402.774	2291.12
403.218	2222.87
403.663	2136.63
404.107	2194.86
404.551	2204.65
404.995	2015.62
405.44	1934.56
405.884	1965.54
406.328	1902.01
406.772	1891.48
407.216	1721.05
407.66	1653.15
408.104	1559.86
408.547	1457
408.991	1407.49
409.435	1351.43
409.879	1330.59
410.322	1312.31
410.766	1264.98
411.209	1198.82
411.653	1150.26
412.096	1127.22
412.54	1128.87
412.983	1121.38
413.426	1124.57
413.869	1122.22
414.312	1102.17
414.756	1060.56
415.199	1008.45
415.642	978.36
416.085	981
416.527	970.9
416.97	979.99
417.413	928.62
417.856	916.69
418.298	904.99
418.741	893.52
419.184	888.35
419.626	921.35
420.069	922.15
420.511	927.96
420.953	906.78
421.396	899.05
421.838	878.7
422.28	899.93
422.722	905.58
423.164	917.35
423.606	907.2
424.048	905.52
424.49	862.69
424.932	856.79
425.374	841.05
425.816	854.24
426.258	870.39
426.699	877.14
427.141	865.69
427.582	874.41
428.024	869.29
428.465	859.31
428.907	837.12
429.348	824.34
429.789	825.95
430.231	811.73
430.672	823.16
431.113	803.28
431.554	792.77
431.995	770.58
432.436	747.21
432.877	732.03
433.318	722.97
433.759	718.98
434.2	718.53
434.64	709.78
435.081	712.8
435.522	675.47
435.962	652.17
436.403	639.92
436.843	647.45
437.284	633.01
437.724	616.06
438.164	613.54
438.604	600.04
439.045	581.07
439.485	559.19
439.925	545.7
440.365	532.75
440.805	524.97
441.245	519.31
441.685	502.61
442.125	499.44
442.564	502.34
443.004	494.16
443.444	496.4
443.883	497.4
444.323	492.57
444.762	493.32
445.202	499.6
445.641	512.9
446.081	509.8
446.52	514.5
446.959	511.3
447.398	502.68
447.837	498.11
448.276	489.83
448.716	495.38
449.154	503.23
449.593	494.53
450.032	495.39
450.471	484.21
450.91	486.43
451.349	488.21
451.787	486.34
452.226	494.1
452.664	495.22
453.103	496.81
453.541	495.47
453.98	496.44
454.418	499.48
454.856	492.98
455.295	492.87
455.733	496.97
456.171	499.23
456.609	500.76
457.047	499.56
457.485	507.99
457.923	510.41
458.361	504.33
458.798	504.26
459.236	502.32
459.674	504.29
460.111	507.37
460.549	503
460.987	499.72
461.424	497.18
461.862	495.12
462.299	487.06
462.736	486.68
463.173	489.57
463.611	487.14
464.048	488.49
464.485	493.96
464.922	488.83
465.359	484.22
465.796	483.82
466.233	481.75
466.67	479.24
467.106	477.53
467.543	470.81
467.98	463.81
468.416	449.51
468.853	443.31
469.29	429.09
469.726	424.4
470.162	414.81
470.599	404.19
471.035	399.7
471.471	390.03
471.907	387.69
472.344	385.75
472.78	387.42
473.216	392.25
473.652	389.17
474.088	388.13
474.523	386.91
474.959	390.07
475.395	387.03
475.831	385.09
476.266	386.53
476.702	384.96
477.138	381.68
477.573	380.62
478.008	380.09
478.444	383.02
478.879	387.71
479.314	390.55
479.75	390.18
480.185	392.14
480.62	395.55
481.055	397.81
481.49	401.97
481.925	408.25
482.36	416.48
482.795	427.59
483.229	437.25
483.664	446.19
484.099	447.53
484.534	455.41
484.968	461.1
485.403	462.72
485.837	462.2
486.271	462.07
486.706	462.34
487.14	456.87
487.574	450.65
488.009	448.29
488.443	445.73
488.877	451.9
489.311	454.26
489.745	460.89
490.179	467.18
490.613	478.84
491.046	483.94
491.48	489.7
491.914	492.44
492.348	497.66
492.781	503.73
493.215	506.87
493.648	510.23
494.082	516.75
494.515	519.64
494.948	528.59
495.382	534.6
495.815	540.86
496.248	548.47
496.681	561.79
497.114	574.16
497.547	584.92
497.98	599.62
498.413	609.3
498.846	622.22
499.279	632.89
499.711	640.34
500.144	646.61
500.577	661.48
501.009	674.95
501.442	688.71
501.874	695.67
502.306	703.07
502.739	716.74
503.171	734.43
503.603	742.15
504.036	756.76
504.468	768.13
504.9	783.91
505.332	794.27
505.764	804.58
506.196	816.06
506.627	834.73
507.059	852.4
507.491	865.25
507.923	869.38
508.354	889.72
508.786	905.46
509.217	928.5
509.649	949.59
510.08	973.21
510.512	994.82
510.943	1015.79
511.374	1033.91
511.805	1058.71
512.237	1081.82
512.668	1118.65
513.099	1150.84
513.53	1184.03
513.961	1207.83
514.391	1242.27
514.822	1281.91
515.253	1322.34
515.684	1351.8
516.114	1385.28
516.545	1411.49
516.975	1442.78
517.406	1464.45
517.836	1469.86
518.267	1479.1
518.697	1501.76
519.127	1510.78
519.558	1521.15
519.988	1527.84
520.418	1542.75
520.848	1562.65
521.278	1575.26
521.708	1587.15
522.138	1603.58
522.567	1639.54
522.997	1668.65
523.427	1687.64
523.857	1707.89
524.286	1720.5
524.716	1738.72
525.145	1760.18
525.575	1774.37
526.004	1790.91
526.433	1794.9
526.863	1796.69
527.292	1787.02
527.721	1794.38
528.15	1801.69
528.579	1803.12
529.008	1815.98
529.437	1841.98
529.866	1856.9
530.295	1875.91
530.724	1890.19
531.152	1920.96
531.581	1936.64
532.01	1956.61
532.438	1966.22
532.867	1982.4
533.295	2002.97
533.723	2010.46
534.152	2008.16
534.58	2008.28
535.008	1992.17
535.436	1993.57
535.865	2002.08
536.293	2018.41
536.721	2036.01
537.149	2064.89
537.576	2068.11
538.004	2081.91
538.432	2088.66
538.86	2086.2
539.287	2093.56
539.715	2108.43
540.143	2113.04
540.57	2107.89
540.998	2103.28
541.425	2077.78
541.852	2053.27
542.28	2051.17
542.707	2033.06
543.134	2018.41
543.561	2013.87
543.988	2007.05
544.415	2006.63
544.842	2000.07
545.269	1992.22
545.696	1994.14
546.123	2007.72
546.549	1996.96
546.976	1982.64
547.403	1982.66
547.829	1984.16
548.256	1987.28
548.682	1982.83
549.108	1974.62
549.535	1972.99
549.961	1975.51
550.387	1960.44
550.813	1954.95
551.24	1961.5
551.666	1963.22
552.092	1953.2
552.518	1947.02
552.943	1941.21
553.369	1948.62
553.795	1954.85
554.221	1957.22
554.646	1953.99
555.072	1966.79
555.498	1972.65
555.923	1983.08
556.349	1999.49
556.774	2009.54
557.199	2011.81
557.625	2017.71
558.05	2011.7
558.475	2023.94
558.9	2023.89
559.325	2015.15
559.75	2009.34
560.175	2001.08
560.6	1993.87
561.025	1991.69
561.449	1992.01
561.874	1997.63
562.299	2002.29
562.723	2010.82
563.148	1997.2
563.572	2001.07
563.997	2011.69
564.421	2016.24
564.846	2017.53
565.27	2022.26
565.694	2018.44
566.118	2030.83
566.542	2039.03
566.966	2032.16
567.39	2026.48
567.814	2015.54
568.238	2013.42
568.662	2018.93
569.086	2021.7
569.509	2029.41
569.933	2011.78
570.357	2004.11
570.78	1980.58
571.204	1965.68
571.627	1953.79
572.05	1950.58
572.474	1949.84
572.897	1935.29
573.32	1926.88
573.743	1915.11
574.166	1893.42
574.589	1892.78
575.012	1884.36
575.435	1881.61
575.858	1870.44
576.281	1856.77
576.704	1839.05
577.126	1824.09
577.549	1811.63
577.972	1799.16
578.394	1787.8
578.817	1781.19
579.239	1759.34
579.661	1744.55
580.084	1727.33
580.506	1712.95
580.928	1707.61
581.35	1695.9
581.772	1691
582.194	1677.4
582.616	1662.83
583.038	1646.26
583.46	1632.59
583.882	1628.99
584.303	1631.37
584.725	1626.33
585.147	1628.95
585.568	1639.84
585.99	1650.87
586.411	1657.34
586.833	1672.15
587.254	1673.51
587.675	1689.34
588.096	1703.07
588.518	1697.8
588.939	1679.67
589.36	1677.3
589.781	1664.71
590.202	1634.18
590.623	1624.31
591.043	1621.72
591.464	1608
591.885	1604.38
592.305	1596.4
592.726	1581.68
593.147	1581.25
593.567	1575.87
593.987	1567.34
594.408	1560.9
594.828	1558.93
595.248	1553.81
595.669	1534.02
596.089	1525.96
596.509	1517.73
596.929	1503.83
597.349	1503.89
597.769	1493.48
598.189	1486.29
598.608	1487.73
599.028	1489.41
599.448	1488.93
599.867	1474.19
600.287	1468.48
600.706	1462.62
601.126	1452.15
601.545	1449.77
601.965	1448.43
602.384	1442.23
602.803	1444.8
603.222	1438.61
603.641	1431.91
604.061	1427.8
604.48	1423.36
604.898	1431.98
605.317	1437.12
605.736	1438.71
606.155	1436.54
606.574	1425.98
606.992	1430.47
607.411	1424.78
607.829	1415.72
608.248	1411.49
608.666	1407.46
609.085	1406.84
609.503	1397.03
609.921	1390.07
610.339	1390.62
610.758	1387.8
611.176	1381.98
611.594	1372.97
612.012	1369.3
612.43	1371.17
612.847	1376.44
613.265	1376.89
613.683	1379.3
614.101	1378.88
614.518	1373.7
614.936	1363.12
615.353	1347.88
615.771	1343.91
616.188	1341.74
616.606	1335.52
617.023	1327.67
617.44	1311.74
617.857	1302.6
618.274	1292.19
618.691	1285.14
619.108	1274.8
619.525	1267.32
619.942	1272.39
620.359	1272.2
620.776	1265.52
621.192	1260.84
621.609	1256.51
622.026	1261.73
622.442	1267.68
622.859	1270.66
623.275	1262.99
623.691	1267.09
624.108	1277.12
624.524	1289.51
624.94	1289.66
625.356	1299.91
625.772	1312.17
626.188	1324.53
626.604	1326.33
627.02	1321.47
627.436	1319.13
627.852	1326.23
628.268	1337.61
628.683	1328.92
629.099	1320.85
629.514	1316.01
629.93	1318.84
630.345	1323.14
630.761	1318.17
631.176	1321.09
631.591	1314.16
632.007	1307.31
632.422	1302.31
632.837	1289.1
633.252	1285.01
633.667	1273.17
634.082	1262.34
634.497	1248.45
634.911	1227.13
635.326	1222.17
635.741	1202.19
636.155	1190.56
636.57	1190.28
636.984	1188.62
637.399	1189.61
637.813	1187.1
638.228	1183.71
638.642	1185.37
639.056	1171.33
639.47	1168
639.884	1156.53
640.298	1147.71
640.712	1143.24
641.126	1127.27
641.54	1115.26
641.954	1105.38
642.368	1090.79
642.781	1080.9
643.195	1060.04
643.609	1058
644.022	1049.73
644.436	1041.66
644.849	1026.85
645.262	1011.97
645.676	1008.66
646.089	1000.62
646.502	983.96
646.915	975.56
647.328	954.98
647.741	949.6
648.154	935.11
648.567	930.79
648.98	917.49
649.393	915.54
649.805	909.89
650.218	901.6
650.631	886.2
651.043	878.23
651.456	870.46
651.868	870.43
652.28	884.26
652.693	894.01
653.105	896.18
653.517	902.17
653.929	900.47
654.341	903.62
654.753	891.89
655.165	894.34
655.577	889.78
655.989	884.07
656.401	873.58
656.813	840.8
657.224	820.16
657.636	791.73
658.047	773.24
658.459	753.17
658.87	740.81
659.282	726.7
659.693	706.81
660.104	691.47
660.515	675.08
660.926	669.87
661.338	661.79
661.749	651.29
662.159	640.57
662.57	631.51
662.981	624.15
663.392	613.74
663.803	612.05
664.213	604.31
664.624	595.88
665.035	593.91
665.445	578.13
665.855	569.71
666.266	561.52
666.676	555.02
667.086	544.74
667.497	540.57
667.907	533.71
668.317	522.78
668.727	520.63
669.137	517.66
669.547	513.84
669.956	513.96
670.366	511.95
670.776	510.84
671.186	512.68
671.595	514.41
672.005	514.1
672.414	513.16
672.824	513.61
673.233	512.3
673.642	514.8
674.052	515.59
674.461	516.94
674.87	520.15
675.279	518.41
675.688	517.89
676.097	518.94
676.506	517.33
676.915	526.56
677.323	528.29
677.732	527.4
678.141	526.6
678.549	520.9
678.958	520.94
679.366	522.24
679.775	526.29
680.183	538.33
680.592	544.61
681	551.86
681.408	550.87
681.816	560.45
682.224	573.02
682.632	587.77
683.04	615.78
683.448	640.01
683.856	669.27
684.264	704.45
684.671	736.39
685.079	777.51
685.487	821.58
685.894	882.18
686.302	935.21
686.709	983.71
687.116	1038.26
687.524	1086.81
687.931	1132.09
688.338	1173.77
688.745	1212.3
689.152	1252.63
689.559	1303.79
689.966	1356.64
690.373	1387.07
690.78	1434.57
691.187	1501.62
691.593	1557.19
692	1607.08
692.407	1674.14
692.813	1756.53
693.22	1823.47
693.626	1894.3
694.032	1951.89
694.439	2032.53
694.845	2098.78
695.251	2181.2
695.657	2253.7
696.063	2357.43
696.469	2436.78
696.875	2511.87
697.281	2553.75
697.687	2603.12
698.093	2645.66
698.498	2724.43
698.904	2788.8
699.31	2882.13
699.715	2947.04
700.12	3043.07
700.526	3062.86
700.931	3137.45
701.337	3193.67
701.742	3230.95
702.147	3322.89
702.552	3356.97
702.957	3420.64
703.362	3442.6
703.767	3474.11
704.172	3518.1
704.577	3470.98
704.981	3522.76
705.386	3539.55
705.791	3532.96
706.195	3612.86
706.6	3622.78
707.004	3707.22
707.408	3676.94
707.813	3705.95
708.217	3694.49
708.621	3699.5
709.025	3800.95
709.43	3802.61
709.834	3867.78
710.237	3940.38
710.641	3924.11
711.045	3947.01
711.449	3939.52
711.853	3969.29
712.256	4015.16
712.66	4053.84
713.064	4131.43
713.467	4176.83
713.87	4295.22
714.274	4342.52
714.677	4457.11
715.08	4629.45
715.484	4805.86
715.887	5020.45
716.29	5229.06
716.693	5446.96
717.096	5697.28
717.499	5834.48
717.901	5862.33
718.304	5889.42
718.707	5913.02
719.109	5808.48
719.512	5771.98
719.915	5633.59
720.317	5574.38
720.719	5622
721.122	5591.57
721.524	5542.54
721.926	5499.6
722.328	5606.09
722.731	5597.66
723.133	5629.18
723.535	5830.16
723.937	5853.18
724.338	5906.38
724.74	5950.63
725.142	5886.5
725.544	5882.25
725.945	5911.81
726.347	5907.48
726.748	5899.06
727.15	5912.56
727.551	5874.1
727.952	5845.35
728.354	5814.82
728.755	5813.81
729.156	5768.94
729.557	5752.7
729.958	5621.49
730.359	5557.11
730.76	5538.83
731.161	5473.33
731.562	5444.57
731.962	5447.11
732.363	5378.2
732.763	5308.15
733.164	5346.47
733.564	5274.61
733.965	5172.38
734.365	5137.95
734.766	5169.08
735.166	5126.8
735.566	5070.96
735.966	5044.04
736.366	5036.57
736.766	4972.02
737.166	5005.99
737.566	4961.54
737.966	4933.14
738.365	4974.12
738.765	4969.18
739.165	4888.23
739.564	4860.35
739.964	4904.49
740.363	4856.45
740.763	4852.56
741.162	4841.29
741.561	4807.81
741.96	4759.35
742.36	4780.62
742.759	4782.71
743.158	4820.56
743.557	4839.7
743.955	4880.55
744.354	4834.5
744.753	4892.42
745.152	4848.17
745.55	4903.55
745.949	4897.6
746.348	4897.93
746.746	4913.29
747.144	4876.55
747.543	4852.71
747.941	4900.59
748.339	4826.82
748.737	4817.99
749.136	4810.8
749.534	4879.87
749.932	4851.54
750.33	4873.85
750.727	4930.6
751.125	4906.48
751.523	4889.21
751.921	4936.51
752.318	4900.78
752.716	4962.1
753.113	4978
753.511	5003.15
753.908	5004.22
754.305	4985.34
754.703	5049.57
755.1	5112.9
755.497	5176.59
755.894	5373.23
756.291	5558.07
756.688	5898.79
757.085	6351.98
757.482	6987.43
757.878	7686.35
758.275	8315.34
758.672	9184
759.068	9892.06
759.465	10900.72
759.861	12198.81
760.258	13706.38
760.654	14480.03
761.05	14365.88
761.447	13707.85
761.843	12765.21
762.239	11785.38
762.635	11344.27
763.031	10917.52
763.427	10311.59
763.822	9666.74
764.218	9032.68
764.614	8210.54
765.01	7658.92
765.405	7300.91
765.801	7027.7
766.196	6680.53
766.592	6485.89
766.987	6159.65
767.382	5940.15
767.778	5843.47
768.173	5710.23
768.568	5632.59
768.963	5503.31
769.358	5521
769.753	5472.38
770.148	5385.46
770.542	5383.1
770.937	5350.96
771.332	5441.87
771.726	5463.22
772.121	5398.94
772.515	5454.55
772.91	5440.32
773.304	5508.6
773.699	5439.87
774.093	5494.55
774.487	5551.48
774.881	5597.04
775.275	5593.1
775.669	5550.13
776.063	5593.48
776.457	5628.11
776.851	5550.97
777.245	5541.9
777.638	5577.32
778.032	5696.34
778.425	5660.38
778.819	5704
779.212	5657.94
779.606	5615.76
779.999	5637.83
780.392	5622.42
780.786	5708.73
781.179	5731.87
781.572	5776.54
781.965	5791.2
782.358	5729.43
782.751	5787.15
783.143	5740.82
783.536	5818.01
783.929	5865.4
784.322	5984.14
784.714	6014.12
785.107	6008.58
785.499	6083.19
785.891	6060.54
786.284	6038.98
786.676	6188.9
787.068	6168.7
787.46	6219.93
787.852	6239.16
788.245	6323.47
788.636	6352.08
789.028	6420.78
789.42	6466.4
789.812	6473.96
790.204	6573.95
790.595	6678.46
790.987	6476.36
791.378	6502.26
791.77	6636.25
792.161	6778.65
792.553	6837.82
792.944	6725.38
793.335	6657.83
793.726	6732.74
794.117	6827.63
794.508	6971.89
794.899	6941.7
795.29	7087.23
795.681	7144.82
796.072	7005.81
796.463	6818.93
796.853	6827.82
797.244	6994.34
797.634	7027.38
798.025	7023.11
798.415	7034.57
798.806	7126.5
799.196	7212.36
799.586	7269.25
799.976	7232.42
800.366	7462.61
800.756	7704.86
801.146	7663.59
801.536	7687.68
801.926	7764.49
802.316	7791.85
802.706	7863.21
803.095	7731.35
803.485	7841.23
803.874	7878.57
804.264	8144.15
804.653	8117.01
805.043	8263.53
805.432	8377.47
805.821	8381.56
806.21	8403.45
806.599	8522.06
806.988	8570.5
807.377	8683.76
807.766	8811.87
808.155	9100.68
808.544	8831.75
808.933	8850.73
809.321	8835.93
809.71	9137.3
810.098	9300.15
810.487	9778.87
810.875	10274.83
811.264	10297.15
811.652	10595.24
812.04	10741.84
812.428	10913.25
812.816	11696.16
813.204	12122.37
813.592	12680.84
813.98	13028.8
814.368	12928.71
814.756	13415.42
815.144	13334.37
815.531	13820.45
815.919	13744.06
816.306	14069.07
816.694	13752.43
817.081	13807.91
817.469	14166.77
817.856	14172.38
818.243	14452.43
818.63	14863.96
819.017	14436.02
819.404	14500.25
819.791	14880.48
820.178	15519.09
820.565	15776.52
820.952	16739.17
821.339	16230.74
821.725	16419.43
822.112	15662.07
822.498	15623.5
822.885	15757.58
823.271	15662.51
823.657	16103.54
824.044	16114.81
824.43	16184.29
824.816	16155.21
825.202	15704.54
825.588	16753.18
825.974	16777.14
826.36	17309.74
826.746	17340.64
827.132	17705.35
827.517	17679.55
827.903	16865.63
828.289	16912.76
828.674	16110.43
829.06	16003.42
829.445	16411.44
829.83	16783.04
830.216	17269.75
830.601	17640.43
830.986	17218.38
831.371	17079.23
831.756	17651.36
832.141	17216.62
832.526	17205.83
832.911	17500.95
833.295	17377.95
833.68	17858.51
834.065	17218.24
834.449	16280.47
834.834	16204.81
835.218	16205.85
835.603	16553.35
835.987	16336.26
836.371	17177.74
836.755	17075.15
837.139	17481.16
837.524	17724.94
837.908	17547.53
838.291	17610.31
838.675	17665.88
839.059	17871.18
839.443	17851.85
839.827	17611.4
840.21	18096.09
840.594	17942.01
840.977	18148.91
841.361	18122.87
841.744	18499.69
842.127	18326.14
842.511	18571.4
842.894	19175.52
843.277	19565.57
843.66	20117.95
844.043	20201.38
844.426	19381.69
844.809	19067.76
845.191	19099.97
845.574	18634.51
845.957	18263.74
846.339	18155.21
846.722	17613.96
847.104	17692.65
847.487	17513.41
847.869	17528.4
848.252	17815.8
848.634	18147.96
849.016	18410.16
849.398	18532.99
849.78	19394.42
850.162	19396.72
850.544	19820.69
850.926	20460.73
851.307	20375.15
851.689	20659.68
852.071	21120.79
852.452	21450.97
852.834	21431.7
853.215	21839.28
853.597	21989.44
853.978	22293.74
854.359	22765.27
854.741	21747.1
855.122	21648.29
855.503	21345.89
855.884	21478.07
856.265	21407.61
856.646	21519.02
857.026	21115.77
857.407	21056.03
857.788	21216.16
858.169	21508.95
858.549	20639.32
858.93	21279.28
859.31	21331.41
859.69	21547.91
860.071	21143.46
860.451	20920.81
860.831	20169.19
861.211	21355.13
861.591	21913.73
861.971	21887.36
862.351	22084.92
862.731	22475.84
863.111	22737.36
863.491	23076.87
863.87	23974.74
864.25	24335.85
864.629	23937.65
865.009	24465.36
865.388	25337.66
865.768	27140.49
866.147	27040.67
866.526	25547.92
866.905	25864.66
867.284	27335.32
867.663	25957.45
868.042	24881.91
868.421	24795.85
868.8	25217.75
869.179	25456.38
869.558	23967
869.936	22107.91
870.315	22501.54
870.693	23049.13
871.072	24850.57
871.45	23663.56
871.828	23958.97
872.207	25181.98
872.585	24800.57
872.963	25474.15
873.341	24606.28
873.719	24328.86
874.097	24030.01
874.475	24490.9
874.853	25047.39
875.23	24006.44
875.608	25006.46
875.986	27060.38
876.363	25872.5
876.741	26662.74
877.118	25983.86
877.495	27254.89
877.873	27702.41
878.25	29155.39
878.627	27959.23
879.004	28357.32
879.381	28223.04
879.758	27490.5
880.135	25584.78
880.512	27058.26
880.889	26340.44
881.265	26071.47
881.642	25847.7
882.019	26272.59
882.395	25733.76
882.772	26751.49
883.148	25584.16
883.524	25482.93
883.901	25330.77
884.277	25709.31
884.653	25538.59
885.029	26277.43
885.405	29096.57
885.781	28875.13
886.157	27699.35
886.532	28039.77
886.908	28013.75
887.284	31159.09
887.659	32168.6
888.035	33166.46
888.411	34019.44
888.786	34469.27
889.161	35639.71
889.537	34970.75
889.912	36092.7
890.287	36041.31
890.662	36965.56
891.037	36293.98
891.412	33834.98
891.787	33487.03
892.162	32314.4
892.536	33067.58
892.911	31824.46
893.286	31149.73
893.66	29884.3
894.035	30631.26
894.409	33354.27
894.784	31996.44
895.158	32529.26
895.532	34435.69
895.906	35371.38
896.281	36191.19
896.655	35605.17
897.029	40674.03
897.402	42361.19
897.776	47163.16
898.15	47005.31
898.524	46489.34
898.898	47106.07
899.271	52726.41
899.645	45682
900.018	43891.86
900.392	45529.09
900.765	45898.6
901.138	42487.86
901.511	41837.78
901.884	38422.03
902.258	35440.37
902.631	36637.37
903.003	42177.21
903.376	38076.88
903.749	42723.37
904.122	45729.05
904.495	50373.7
904.867	51034.46
905.24	44300.76
905.612	41262.99
905.985	42193.69
906.357	44120.63
906.729	42108.86
907.102	35969.49
907.474	34604.16
907.846	34816.46
908.218	34369.1
908.59	30362.41
908.962	29349.31
909.334	31609.4
909.705	33191.85
910.077	32229.83
910.449	33556.49
910.82	34500.49
911.192	37958.7
911.563	39442.69
911.935	42211.64
912.306	42255.81
912.677	43635.79
913.048	43216.46
913.419	46895.98
913.79	47183.64
914.161	50607.68
914.532	48388.31
914.903	44460.99
915.274	42242.91
915.645	41623.33
916.015	36637.86
916.386	34941.12
916.756	37189.8
917.127	38374.36
917.497	34295.78
917.868	37335.4
918.238	35493.52
918.608	36512.42
918.978	37270.17
919.348	39454.51
919.718	40755.33
920.088	39247.78
920.458	40770.23
920.828	42908.67
921.198	40671.91
921.567	43464.38
921.937	33660.4
922.306	33979.98
922.676	36653.26
923.045	30574.63
923.415	29057.71
923.784	26475.2
924.153	27220.64
924.522	27202.53
924.891	25571.73
925.26	27389.95
925.629	26736.05
925.998	30761.52
926.367	30019.9
926.736	28595.1
927.104	34063.92
927.473	36616.19
927.842	44242.88
928.21	43818.85
928.578	46039.36
928.947	43541.01
929.315	43805.71
929.683	51362.59
930.051	51747.77
930.42	60098.98
930.788	51343.58
931.156	50935.55
931.523	47764.69
931.891	44114.93
932.259	42380.73
932.627	49113.24
932.994	69470.02
933.362	57407.24
933.729	49873.72
934.097	47716.88
934.464	40360.15
934.831	46569.32
935.199	45925.29
935.566	44537.26
935.933	45076.57
936.3	54589.22
936.667	42525.97
937.034	38384.29
937.401	37981.96
937.767	32771.92
938.134	29167.83
938.501	41144.12
938.867	43837.63
939.234	74107.4
939.6	63190.95
939.967	69724.3
940.333	46667.55
940.699	39725.13
941.065	31840.04
941.431	41737.75
941.798	40247.37
942.163	52845.24
942.529	33027.31
942.895	30423.54
943.261	19680.45
943.627	25824.34
943.992	22590.18
944.358	22637.59
944.723	22717.66
945.089	22158.6
945.454	20448.08
945.82	21828.09
946.185	20967.43
946.55	24293.05
946.915	21786.97
947.28	25579.29
947.645	22513.18
948.01	20784.4
948.375	21663.41
948.74	25958.41
949.104	30302.14
949.469	43803.33
949.834	77403.98
950.198	73481.19
950.562	44026.76
950.927	36673.69
951.291	44096.14
951.655	37630.09
952.02	35384.18
952.384	26751.71
952.748	23309.6
953.112	22733.03
953.476	19789.45
953.839	18306.67
954.203	18119.79
954.567	22667.92
954.931	35723.83
955.294	30617.22
955.658	30765.65
956.021	52292.85
956.385	88675.27
956.748	130820.85
957.111	202822.3
957.474	227737.56
957.837	256551.51
958.2	194130.83
958.563	69865.97
958.926	47223.29
959.289	71621.4
959.652	80040.16
960.015	60093.29
960.377	86302.1
960.74	98619.02
961.102	170331.79
961.465	183052.43
961.827	98028.27
962.189	188248.3
962.552	130447.72
962.914	104605.7
963.276	67894.24
963.638	56112.45
964	55540.55
964.362	37546.19
964.724	36247.75
965.085	25886.58
965.447	21192.69
965.809	24173.9
966.17	24183.85
966.532	26183.55
966.893	24027.81
967.255	21857.15
967.616	25812.44
967.977	20665.66
968.338	22587.26
968.699	18575.55
969.061	18559.65
969.421	18695.56
969.782	20979.19
970.143	17727.63
970.504	18355.71
970.865	20871.85
971.225	21368.35
971.586	20916.73
971.946	29864.76
972.307	25917.46
972.667	33874.27
973.027	34916.61
973.388	42350.33
973.748	28824.56
974.108	31443.92
974.468	42549.98
974.828	32835.89
975.188	25263.03
975.548	23193.97
975.907	19451.26
976.267	21807.03
976.627	18310.33
976.986	18945.87
977.346	18048.34
977.705	17349
978.064	15773.03
978.424	13137.58
978.783	13573.3
979.142	15476.47
979.501	14807.9
979.86	15666.35
980.219	15130.26
980.578	19527.62
980.937	21912.22
981.296	19543.87
981.654	20111.39
982.013	31339.91
982.371	40712.41
982.73	38056.63
983.088	43074.36
983.447	46038.31
983.805	65869.27
984.163	137406.2
984.521	152412.29
984.879	223067.66
985.237	-362433.53
985.595	349650.88
985.953	86877.97
986.311	50030.57
986.669	29021.76
987.026	25085.26
987.384	33721.95
987.741	34806.79
988.099	24884.28
988.456	19850.05
988.814	18601.64
989.171	16199.5
989.528	15955.63
989.885	16838.69
990.242	13355.52
990.599	16631.38
990.956	13587.8
991.313	9485.67
991.67	7786.64
992.027	8253.83
992.383	7337.73
992.74	6434.81
993.096	6747.02
993.453	7008.18
993.809	7270.17
994.165	9678.52
994.522	8890.6
994.878	9804.26
995.234	12325.15
995.59	12151.35
995.946	11504.05
996.302	13134.69
996.658	15173.97
997.013	16719.08
997.369	19819.79
997.725	25332.53
998.08	16444.25
998.436	25253.34
998.791	34855.67
999.147	34782.17
999.502	37994.91
999.857	27635.37
1000.212	45047.78
1000.567	64112.72
1000.922	36972.26
1001.277	23490.77
1001.632	17414.74
1001.987	22405.24
1002.342	16126.05
1002.696	12907.39
1003.051	10318.89
1003.406	12498.23
1003.76	12456.25
1004.114	12268.87
1004.469	10320.62
1004.823	8550.79
1005.177	9215.97
1005.531	7325.36
1005.885	6515.98
1006.239	7358.15
1006.593	9223.59
1006.947	12355.36
1007.301	9263.76
1007.655	10076.54
1008.008	7402.74
1008.362	8307.9
1008.715	11854.58
1009.069	10773.29
1009.422	16190.98
1009.776	32365.14
1010.129	21429.38
1010.482	17892.3
1010.835	15107.7
1011.188	31427.48
1011.541	29647.28
1011.894	-181427.56
1012.247	536194.36
1012.6	36454.95
1012.952	23047.3
1013.305	11881.27
1013.657	8585.68
1014.01	8134.6
1014.362	6703.94
1014.715	5947.12
1015.067	5181.16
1015.419	5072.05
1015.771	4498.32
1016.123	3993.7
1016.475	4111.72
1016.827	4372.63
1017.179	4698.46
1017.531	4723.87
1017.883	4815.74
1018.234	4662.44
1018.586	5902.17
1018.938	6260.8
1019.289	8609.97
1019.64	9834.23
1019.992	9156.74
1020.343	8393.58
1020.694	6633.97
1021.045	5842.67
1021.396	6686.35
1021.747	7224.17
1022.098	8670.98
1022.449	6277.67
1022.8	5854.59
1023.151	4076.56
1023.501	3611.48
1023.852	3919.87
1024.202	4043.51
1024.553	4445.56
1024.903	4377.7
1025.253	3740.04
1025.604	3356.58
1025.954	4168.88
1026.304	5096.78
1026.654	5940.15
1027.004	8717.64
1027.354	14043.33
1027.703	13242.02
1028.053	17512.92
1028.403	25546.44
1028.753	37099.67
1029.102	50461.77
1029.452	259015.64
1029.801	11158.3
1030.15	7184.63
1030.499	6055.79
897.758	2792.15
901.051	2755.37
904.343	2787.08
907.636	2786.67
910.928	2853.98
914.22	2759.9
917.511	2772.33
920.803	2840.46
924.094	2861.76
927.384	2836.75
930.675	2801.58
933.965	2751.34
937.255	2756.82
940.544	2728.44
943.834	2651.13
947.123	2596.89
950.411	2697.24
953.7	2666.23
956.988	2628.55
960.276	2571.19
963.563	2658.21
966.851	2651.58
970.138	2715.19
973.424	2706.31
976.711	2654.46
979.997	2807.43
983.283	2840.67
986.568	2740.49
989.853	2761.42
993.138	2789.34
996.423	2873.18
999.708	2808.4
1002.992	2882.88
1006.275	2694.75
1009.559	2750.48
1012.842	2870.69
1016.125	2797.89
1019.408	2778.53
1022.69	2871.17
1025.972	2890.86
1029.254	2863.63
1032.536	2790.52
1035.817	2820.03
1039.098	2756.48
1042.379	2925.09
1045.659	2915.81
1048.939	2843.5
1052.219	2870.18
1055.498	2882.1
1058.778	2865.6
1062.057	2846.71
1065.335	2870.69
1068.614	2891.15
1071.892	2871.51
1075.17	2951.9
1078.447	2939.05
1081.724	2930.34
1085.001	2969.44
1088.278	2942.6
1091.554	2955.31
1094.83	2954.27
1098.106	2982.51
1101.382	3031.17
1104.657	3032.57
1107.932	3026
1111.206	2988.84
1114.481	2946.5
1117.755	2948.28
1121.029	2925.68
1124.302	2978.19
1127.575	2926.31
1130.848	2910.63
1134.121	2869.78
1137.393	2815.42
1140.665	2888.26
1143.937	2863.47
1147.208	2821.26
1150.48	2860.52
1153.75	2846.65
1157.021	2882.91
1160.291	2853.43
1163.561	2901.44
1166.831	2889.55
1170.101	2925.93
1173.37	2901.92
1176.639	2840.32
1179.907	2903.91
1183.176	2907.27
1186.444	2915.41
1189.711	2945.53
1192.979	2956.82
1196.246	2910.8
1199.513	2929.06
1202.78	2930.3
1206.046	2938.23
1209.312	2963.1
1212.578	2991.64
1215.843	2938.6
1219.108	2916.7
1222.373	2939.37
1225.638	2899.98
1228.902	2881.19
1232.166	2846.28
1235.43	2827.41
1238.693	2849.96
1241.956	2848.06
1245.219	2889.5
1248.482	2881.22
1251.744	2875.5
1255.006	3034.69
1258.268	2988.35
1261.529	2927.99
1264.79	2938.49
1268.051	3049.2
1271.312	3066.44
1274.572	3027.7
1277.832	3017.08
1281.092	3006.28
1284.351	2976.65
1287.61	2953.93
1290.869	2859.96
1294.128	2835.92
1297.386	2934.47
1300.644	2920.71
1303.902	2932.02
1307.159	2783.5
1310.416	2841.66
1313.673	2867.8
1316.93	2850.74
1320.186	2899.74
1323.442	2945.15
1326.697	2934.73
1329.953	2923.85
1333.208	2948.22
1336.463	2930.08
1339.717	2863.23
1342.972	3007.65
1346.226	2983.58
1349.479	2909.23
1352.733	2877.71
1355.986	2904.5
1359.238	2878.59
1362.491	2880.23
1365.743	2884.71
1368.995	2878.82
1372.247	2891.71
1375.498	2919.59
1378.749	2931.11
1382	2884.31
1385.251	2943.23
1388.501	2904.62
1391.751	2886.17
1395	2858.62
1398.25	2891.8
1401.499	2897.23
1404.748	2817.75
1407.996	2809.77
1411.244	2792.58
1414.492	2772.1
1417.74	2747.61
1420.987	2760.36
1424.234	2819.26
1427.481	2798.96
1430.728	2860.78
1433.974	2833.67
1437.22	2851.16
1440.465	2854.59
1443.711	2812.18
1446.956	2850.04
1450.201	2837.71
1453.445	2888.79
1456.689	2863.32
1459.933	2876.68
1463.177	2908.51
1466.42	2879.95
1469.663	2858.96
1472.906	2851.29
1476.148	2939.43
1479.391	2881.38
1482.633	2856.13
1485.874	2867.13
1489.115	2849.18
1492.356	2859.14
1495.597	2833.79
1498.838	2837.9
1502.078	2801.81
1505.318	2746.99
1508.557	2794.38
1511.797	2760.18
1515.036	2853.72
1518.274	2835.31
1521.513	2813.73
1524.751	2835.44
1527.989	2845.78
1531.227	2858.22
1534.464	2852.1
1537.701	2876.59
1540.938	2898.14
1544.174	2849.24
1547.41	2849.67
1550.646	2891.49
1553.882	2931.19
1557.117	2983.68
1560.352	3001.02
1563.587	2956.08
1566.821	2914.22
1570.055	2951.19
1573.289	2920.74
1576.523	3001.88
1579.756	3008.13
1582.989	3024.32
1586.222	2982.54
1589.454	3022.18
1592.686	2992.32
1595.918	3018.1
1599.15	3007.04
1602.381	3086.75
1605.612	3038.98
1608.843	3138.42
1612.073	3047.58
1615.303	3030
1618.533	3021.82
1621.762	3026.18
1624.992	3013.75
1628.221	2997.36
1631.449	2984.62
1634.678	3045.19
1637.906	2995.82
1641.134	3037.91
1644.361	2991.37
1647.588	2978.13
1650.815	2995.02
1654.042	2971.73
1657.269	3005.33
1660.495	2952.2
1663.72	2955.61
1666.946	2915.42
1670.171	2850.33
1673.396	2827.71
1676.621	2815.14
1679.845	2839.02
1683.069	2861.94
1686.293	2908.27
1689.517	2877.63
1692.74	2797.8
1695.963	2833.35
1699.185	2868.22
1702.408	2842.52
1705.63	2887.12
1708.852	2896.65
1712.073	2870.77
1715.294	2852.7
1718.515	2916.57
1721.736	2859.49
1724.956	2854.46
1728.176	2882.05
1731.396	2906.47
1734.616	2892.67
1737.835	2918.86
1741.054	2899.77
1744.272	2895.77
1747.491	2922.77
1750.709	2983.72
1753.927	2879.16
1757.144	2927.34
1760.361	2970.68
1763.578	2966.27
1766.795	2901.51
1770.011	2913.68
1773.227	2957
1776.443	2993.2
1779.658	3036.5
1782.874	2979.03
1786.089	2954.02
1789.303	2958.35
1792.518	2966.17
1795.732	2951.75
1798.945	2961.11
1802.159	3013.74
1805.372	2904.7
1808.585	2891.1
1811.797	2890.74
1815.01	2946.27
1818.222	2945.76
1821.434	2896.79
1824.645	2962.3
1827.856	2940.49
1831.067	2979
1834.278	2937.42
1837.488	2919.51
1840.698	3077.47
1843.908	2993.87
1847.117	2957.96
1850.326	2829.98
1853.535	2941.11
1856.744	2990.23
1859.952	2898.34
1863.16	2900.99
1866.368	2924.1
1869.575	3029.82
1872.782	2908.93
1875.989	2845.83
1879.196	2939.17
1882.402	2930.9
1885.608	2973.69
1888.814	2871.14
1892.019	2755.83
1895.224	2808.76
1898.429	2790.53
1901.634	2766.46
1904.838	2741.37
1908.042	2795.52
1911.246	2800.95
1914.449	2723.91
1917.652	2719.43
1920.855	2705.53
1924.058	2758.81
1927.26	2797.17
1930.462	2827.22
1933.664	2853.83
1936.865	2787.74
1940.066	2794.73
1943.267	2739.72
1946.467	2757.57
1949.668	2786.51
1952.868	2861.2
1956.067	2830.81
1959.267	2759.33
1962.466	2787.61
1965.665	2773.4
1968.863	2768.69
1972.061	2786.42
1975.259	2786.47
1978.457	2867.97
1981.654	2824.37
1984.852	2825.43
1988.048	2750.25
1991.245	2758.34
1994.441	2846.13
1997.637	2833.7
2000.833	2810.66
2004.028	2853.82
2007.223	2904.33
2010.418	2882.05
2013.613	2841.74
2016.807	2807.61
2020.001	2817.39
2023.194	2865.81
2026.388	2838.06
2029.581	2782.17
2032.774	2831.58
2035.966	2838.89
2039.158	2765.55
2042.35	2797.92
2045.542	2721.16
2048.733	2827.54
2051.924	2857.79
2055.115	2888.46
2058.306	2826.45
2061.496	2889.79
2064.686	2959.88
2067.875	2870.45
2071.065	2886.35
2074.254	2916.59
2077.442	2865.54
2080.631	2960.53
2083.819	2843.31
2087.007	2824.37
2090.195	2788.45
2093.382	2828.57
2096.569	2805.86
2099.756	2756.37
2102.942	2779.65
2106.128	2785.91
2109.314	2776.55
2112.5	2735.64
2115.685	2710.93
2118.87	2721.51
2122.055	2786.78
2125.239	2754.36
2128.424	2726.1
2131.608	2836.3
2134.791	2817.26
2137.974	2883.68
2141.157	2865.46
2144.34	2811.29
2147.523	2831.29
2150.705	2843.62
2153.887	2824.74
2157.068	2768.58
2160.25	2772.29
2163.431	2813.07
2166.611	2754.91
2169.792	2771.89
2172.972	2656.44
2176.152	2743.33
2179.331	2781.79
2182.511	2759.91
2185.69	2791.37
2188.868	2786.03
2192.047	2845.47
2195.225	2832.51
2198.403	2780.24
2201.58	2774.72
2204.758	2770.18
2207.935	2856.97
2211.111	2739.55
2214.288	2720.24
2217.464	2762.85
2220.64	2735.73
2223.815	2792.65
2226.991	2708.91
2230.166	2731.13
2233.34	2759.54
2236.515	2785.71
2239.689	2857.98
2242.863	2803.52
2246.036	2859.76
2249.209	2862.63
2252.382	2902.02
2255.555	2884.39
2258.727	2818.15
2261.9	2860.05
2265.071	2851.33
2268.243	2855.23
2271.414	2782.28
2274.585	2744.09
2277.756	2808.41
2280.926	2761.75
2284.096	2811.05
2287.266	2706.15
2290.436	2769.26
2293.605	2796.79
2296.774	2828.96
2299.942	2849.84
2303.111	2869.06
2306.279	2919.72
2309.447	2904.75
2312.614	2883.07
2315.781	2900.9
2318.948	2866.55
2322.115	2909.88
2325.281	2804.67
2328.447	2829.12
2331.613	2802.27
2334.779	2774.19
2337.944	2775.54
2341.109	2772.2
2344.274	2754.96
2347.438	2717.6
2350.602	2747.28
2353.766	2762.06
2356.929	2747.05
2360.092	2789.82
2363.255	2738.91
2366.418	2665.9
2369.58	2790.57
2372.742	2553.19
2375.904	2573.51
2379.066	2545.55
2382.227	2584.42
2385.388	2544.18
2388.548	2466.66
2391.709	2525.14
2394.869	2504.77
2398.029	2609.51
2401.188	2625.2
2404.347	2553.48
2407.506	2714.08
2410.665	2741.63
2413.823	2749.1
2416.981	2701.56
2420.139	2741.47
2423.296	2789.79
2426.453	2763.72
2429.61	2786.46
2432.767	2714.35
2435.923	2754.75
2439.079	2706.67
2442.235	2760.1
2445.391	2680.61
2448.546	2711.62
2451.701	2765.68
2454.855	2728.9
2458.009	2787
2461.163	2790.9
2464.317	2749.63
2467.471	2785.55
2470.624	2827.97
2473.777	2807.8
2476.929	2817.04
2480.082	2844.43
2483.234	2805.09
2486.385	2758.37
2489.537	2750.86
2492.688	2708.58
2495.839	2725.53
2498.989	2735.16
2502.14	2717.49
2505.29	2697.93
2508.439	2722.05
2511.589	2641.89
2514.738	2655.25
2517.887	2688.28
2521.035	2755.14
2524.183	2739.78
2527.331	2717.51
2530.479	2687.79
2533.627	2699.25
