Data from N_3_HIR_WI_4N_Splice17_13-12-06-219.txt Node
Date: Sat Mar 14 13:12:06 EDT 2020
User: sa697716
Spectrometer: FLMS03696
Trigger mode: 0
Integration Time (sec): 3.180400E-1
Scans to average: 20
Electric dark correction enabled: true
Nonlinearity correction enabled: true
Boxcar width: 5
XAxis mode: Wavelengths
Number of Pixels in Spectrum: 2048
>>>>>Begin Spectral Data<<<<<
187.83	-344471.64
188.298	2516.32
188.766	1333.29
189.233	1202.42
189.701	1708.56
190.169	2391.61
190.636	860.55
191.104	687.79
191.571	100.26
192.039	-61.85
192.506	-88.11
192.974	478.89
193.441	-749.71
193.908	-325.47
194.375	-67.26
194.842	26.01
195.31	121.29
195.777	168.35
196.244	379.46
196.711	449.32
197.177	581.19
197.644	802.85
198.111	1381.79
198.578	1950.25
199.045	1569.18
199.511	2528.99
199.978	2938.06
200.445	2486.63
200.911	2740.79
201.378	3063.83
201.844	2792.07
202.31	4741.2
202.777	4964.67
203.243	2788.93
203.709	2686.23
204.176	3221.33
204.642	2675.65
205.108	2512.9
205.574	2067.37
206.04	1887.76
206.506	1765.45
206.972	1673.19
207.438	1609.4
207.903	1823.52
208.369	1593.29
208.835	1569.63
209.301	1650.31
209.766	1689.73
210.232	1672.17
210.697	2082.41
211.163	2580.67
211.628	3972.21
212.094	3355.3
212.559	4172.96
213.024	2611.26
213.49	3221.84
213.955	3180.71
214.42	3121.82
214.885	2933.64
215.35	2843.78
215.815	2776.37
216.28	3016.87
216.745	2480.46
217.21	2740.98
217.675	2585.67
218.14	2989.04
218.604	3409.05
219.069	3990.64
219.534	4283.73
219.998	5095.66
220.463	6298.62
220.927	7929.11
221.392	7551.51
221.856	7743.35
222.32	9862.31
222.785	12263.8
223.249	15535.17
223.713	17445.37
224.177	17532.66
224.642	22619.65
225.106	27921.94
225.57	30599.28
226.034	22742.12
226.497	34698.93
226.961	31326.85
227.425	36498.46
227.889	40533.89
228.353	40554.62
228.816	83805.99
229.28	80072.8
229.744	67529.42
230.207	41030.04
230.671	40326.32
231.134	66802.27
231.597	76970.44
232.061	76985.09
232.524	75120.94
232.987	51703.95
233.45	46536.37
233.914	41747.49
234.377	42838.99
234.84	39191.78
235.303	46156.4
235.766	51569.81
236.229	53181.12
236.691	33492.35
237.154	37589.08
237.617	28260.83
238.08	28943.38
238.542	33866.46
239.005	24193.35
239.468	23964.9
239.93	22560.48
240.393	20505.52
240.855	17961.54
241.317	18400.35
241.78	22362.41
242.242	23107.42
242.704	24902.21
243.166	21660.72
243.629	19635.47
244.091	22619.58
244.553	24788.85
245.015	26648.56
245.477	34453.91
245.939	50461.04
246.4	53487.57
246.862	51932.26
247.324	48942.46
247.786	54753.63
248.247	71731.56
248.709	74097.26
249.17	55320.35
249.632	52038.78
250.093	60241.79
250.555	51989.26
251.016	31679.25
251.477	30022.93
251.939	32384.75
252.4	33953.45
252.861	40328.87
253.322	37467.83
253.783	44588.07
254.244	57768.85
254.705	45562.88
255.166	40500.03
255.627	39840.46
256.088	56213.32
256.549	59699.11
257.009	51367.27
257.47	62267.11
257.931	50751.08
258.391	38013.54
258.852	39127.97
259.312	41054.99
259.773	50683.07
260.233	42782.04
260.694	36063.22
261.154	40865.39
261.614	32762.04
262.074	29294.02
262.534	30422.81
262.994	28630.09
263.455	38126.49
263.915	32081.89
264.374	30219
264.834	32977.16
265.294	36525.71
265.754	37821.99
266.214	35779.94
266.673	33495.31
267.133	42223.64
267.593	41869.35
268.052	51179.54
268.512	44468.72
268.971	53599.31
269.431	58643.8
269.89	52454.7
270.349	78552.98
270.809	87473.52
271.268	78519.54
271.727	175937.99
272.186	113948.3
272.645	85350.69
273.104	61558.33
273.563	89090.29
274.022	70016.78
274.481	59486.49
274.94	45779.39
275.399	34016.65
275.857	39564.02
276.316	53489.92
276.775	47539.85
277.233	46723.88
277.692	43688.85
278.15	49309.19
278.609	50641.56
279.067	46792.61
279.525	43405.29
279.984	55962.82
280.442	67091.51
280.9	65982.78
281.358	43340.88
281.816	40374.15
282.274	39476.89
282.732	40727.8
283.19	40889.46
283.648	35264.79
284.106	37503.18
284.564	38123.04
285.021	35302.79
285.479	26289.62
285.937	23924.17
286.394	20965.73
286.852	21563.41
287.309	22648.42
287.767	21878.01
288.224	20787.26
288.682	22752.94
289.139	24973.99
289.596	22826.13
290.053	23706.38
290.511	29880.97
290.968	36195.86
291.425	49123.62
291.882	40794.21
292.339	35473.32
292.796	35150.19
293.252	33112.41
293.709	26299
294.166	23521.61
294.623	25997.96
295.079	24957.76
295.536	25068.8
295.992	22734.37
296.449	22429.11
296.905	23309.32
297.362	22334.45
297.818	23483.65
298.274	24341.36
298.731	24784.8
299.187	24531.53
299.643	26293.19
300.099	31727.59
300.555	34725.93
301.011	28990.76
301.467	27907.51
301.923	32634.49
302.379	31814.73
302.835	31191.81
303.291	31175.49
303.746	35459.56
304.202	44727.16
304.658	44893.68
305.113	30180.25
305.569	29556.85
306.024	31477.81
306.479	29958.99
306.935	25200.75
307.39	27525.49
307.845	25385.3
308.301	25507.33
308.756	24808.81
309.211	23890.51
309.666	24434.57
310.121	30313.27
310.576	30751.22
311.031	30490.37
311.486	34893.66
311.94	34861.91
312.395	46548.99
312.85	87470.11
313.305	429558.64
313.759	2220786.77
314.214	160668.42
314.668	127211.65
315.123	106868.71
315.577	38245.7
316.032	34033.46
316.486	42614.52
316.94	33592.05
317.394	23388.54
317.849	18153.23
318.303	17204.34
318.757	16252.64
319.211	17966.34
319.665	15715.7
320.119	15897.21
320.572	22788.63
321.026	21232.25
321.48	17665.32
321.934	19264.35
322.387	19250.42
322.841	20807.84
323.295	18657.14
323.748	21470.33
324.202	21734.59
324.655	26085.25
325.108	36403.39
325.562	25729.92
326.015	30528.95
326.468	23056.95
326.921	25755.05
327.374	24004.61
327.827	24944.18
328.28	28257.02
328.733	18888.68
329.186	16627.13
329.639	15816.7
330.092	13297.06
330.545	12644.52
330.997	12753.27
331.45	13924.38
331.903	16291.29
332.355	28051.62
332.808	27231.5
333.26	22413.36
333.713	24368.66
334.165	24502.08
334.617	32688.4
335.069	26424.41
335.522	47737.02
335.974	52869.23
336.426	48221.43
336.878	33386.74
337.33	16896.07
337.782	16490.96
338.234	20648.19
338.686	24612.8
339.137	29134.86
339.589	27432.49
340.041	21476.79
340.493	18442.99
340.944	18841.58
341.396	20276.68
341.847	17042.42
342.299	20089.83
342.75	24480.86
343.201	21383.48
343.653	24614.23
344.104	30207.62
344.555	23765.07
345.006	36957.23
345.457	28266.64
345.908	22458.56
346.359	21131.75
346.81	17200.7
347.261	18122.65
347.712	17836.08
348.163	19102.12
348.613	19288.49
349.064	17966.98
349.515	15692.14
349.965	16098.34
350.416	19350.89
350.866	21237.26
351.317	23956.37
351.767	39635.15
352.217	49992.06
352.668	41518.3
353.118	37945.36
353.568	36611.13
354.018	28950.85
354.468	30523.47
354.918	21866.72
355.368	19166.26
355.818	27044.77
356.268	77831.56
356.718	325432.65
357.168	80989.64
357.617	40546.46
358.067	45150.82
358.517	42228.77
358.966	49433.59
359.416	55419.77
359.865	59843.05
360.315	71122.22
360.764	33161.92
361.213	18548.5
361.663	17553
362.112	21685.62
362.561	34997.85
363.01	26345.67
363.459	22173.66
363.908	23999.59
364.357	20377.73
364.806	34414.37
365.255	23651.4
365.703	21656.38
366.152	21697.02
366.601	17579.75
367.05	14228.3
367.498	12920.94
367.947	13496.49
368.395	13998.82
368.844	12408.71
369.292	14940.36
369.74	10302.93
370.189	15729.59
370.637	18425.87
371.085	15868.45
371.533	19291.62
371.981	18586.65
372.429	17719.04
372.877	18432.28
373.325	15428.5
373.773	15695.06
374.221	13951.56
374.669	17300.54
375.116	14955.72
375.564	15056.31
376.012	16826.12
376.459	13869.46
376.907	16543.82
377.354	19976.21
377.801	18614.38
378.249	21399.35
378.696	27335.15
379.143	33082.67
379.591	35199.6
380.038	59517.08
380.485	42960.85
380.932	46321.85
381.379	42353.67
381.826	31171.75
382.273	22115.54
382.72	19308.87
383.166	18807.13
383.613	12182.44
384.06	10963.57
384.506	12695.1
384.953	9345.51
385.4	9411.59
385.846	8255.36
386.292	8046.15
386.739	7881.63
387.185	7798.75
387.631	7814.73
388.078	7587.99
388.524	8108.93
388.97	7502.68
389.416	6258.86
389.862	6633.59
390.308	6280.81
390.754	6374.05
391.2	6912.46
391.645	7060.73
392.091	6752.76
392.537	6522.9
392.983	6536.46
393.428	6443.62
393.874	6904.58
394.319	6923.9
394.765	6565
395.21	6756.35
395.655	6328.9
396.101	5922.28
396.546	5349.3
396.991	5398.63
397.436	5012.11
397.881	4826.22
398.326	4555.88
398.771	4306.08
399.216	3763.74
399.661	3386.64
400.106	3360.91
400.551	3446.32
400.995	3083.38
401.44	3042.16
401.885	2851.22
402.329	2872.81
402.774	2751.65
403.218	2664.91
403.663	2561.65
404.107	2627.75
404.551	2643.77
404.995	2423.32
405.44	2325.68
405.884	2357.1
406.328	2275.29
406.772	2260.23
407.216	2056.69
407.66	1985.72
408.104	1878.82
408.547	1750.97
408.991	1688.24
409.435	1619.17
409.879	1595.92
410.322	1570.96
410.766	1515.49
411.209	1440.07
411.653	1381.88
412.096	1349.15
412.54	1346.66
412.983	1336.34
413.426	1343
413.869	1339.58
414.312	1311.65
414.756	1260.09
415.199	1199.79
415.642	1163.23
416.085	1162.59
416.527	1151.88
416.97	1167.91
417.413	1107.43
417.856	1094.78
418.298	1081.45
418.741	1071.37
419.184	1067.94
419.626	1110.43
420.069	1107.69
420.511	1115.01
420.953	1091.6
421.396	1080.99
421.838	1054.83
422.28	1078.13
422.722	1082.21
423.164	1096.87
423.606	1079.97
424.048	1080.34
424.49	1025.27
424.932	1020.83
425.374	1005.05
425.816	1019.9
426.258	1038.23
426.699	1047.19
427.141	1030.28
427.582	1043.65
428.024	1034.83
428.465	1024.72
428.907	998.86
429.348	987.06
429.789	987.36
430.231	966.11
430.672	977.51
431.113	954.1
431.554	938.1
431.995	913.01
432.436	880.82
432.877	861.13
433.318	848.56
433.759	841.3
434.2	839.17
434.64	829.55
435.081	832.09
435.522	788.71
435.962	758.57
436.403	742.8
436.843	752.74
437.284	736.26
437.724	717.68
438.164	717.71
438.604	703.28
439.045	678.09
439.485	651.78
439.925	636.89
440.365	622.14
440.805	615.27
441.245	608.78
441.685	587.56
442.125	582.49
442.564	585.23
443.004	572.44
443.444	570.57
443.883	570.35
444.323	564.58
444.762	564.18
445.202	571.03
445.641	582.98
446.081	579.06
446.52	583.45
446.959	578.78
447.398	566.58
447.837	561.42
448.276	552.77
448.716	559.62
449.154	563.95
449.593	552.76
450.032	553.2
450.471	542.35
450.91	541.97
451.349	541.61
451.787	541.21
452.226	549.62
452.664	549.75
453.103	550.03
453.541	549.19
453.98	550.59
454.418	555.26
454.856	546.36
455.295	544.32
455.733	549.38
456.171	551.71
456.609	549.31
457.047	547.97
457.485	555.82
457.923	557.2
458.361	550.49
458.798	551.69
459.236	549.06
459.674	552.17
460.111	555.25
460.549	550.59
460.987	547.85
461.424	547.44
461.862	545.62
462.299	536.04
462.736	535.59
463.173	535.81
463.611	530.75
464.048	530.1
464.485	534.34
464.922	529.13
465.359	525.66
465.796	522.56
466.233	519.73
466.67	515.64
467.106	515.92
467.543	510.85
467.98	504.8
468.416	489.67
468.853	484.72
469.29	470.28
469.726	465.24
470.162	454.1
470.599	445.67
471.035	440.51
471.471	428.34
471.907	424.55
472.344	421.83
472.78	423.43
473.216	430.07
473.652	425.81
474.088	423.78
474.523	423.72
474.959	426.6
475.395	423.27
475.831	421.42
476.266	424.42
476.702	422.92
477.138	418.68
477.573	417.64
478.008	415.37
478.444	417.59
478.879	422.95
479.314	425.12
479.75	425.19
480.185	427.08
480.62	429.9
481.055	432.31
481.49	436.62
481.925	443.28
482.36	452.19
482.795	464.98
483.229	476.31
483.664	485.66
484.099	486.96
484.534	494.71
484.968	499.49
485.403	502.15
485.837	501.51
486.271	501.3
486.706	501.74
487.14	495.39
487.574	488.68
488.009	485.48
488.443	482.38
488.877	487.72
489.311	489.55
489.745	495.81
490.179	501.66
490.613	512.54
491.046	517.41
491.48	521.72
491.914	523.06
492.348	527.25
492.781	531.34
493.215	533.06
493.648	535.39
494.082	540.93
494.515	542.87
494.948	550.99
495.382	555.54
495.815	561.03
496.248	567.4
496.681	579.87
497.114	591.41
497.547	601.76
497.98	614.71
498.413	622.22
498.846	632.53
499.279	642.57
499.711	647.65
500.144	652.39
500.577	663.5
501.009	675.49
501.442	687.27
501.874	691.15
502.306	696
502.739	706.84
503.171	723.02
503.603	729.52
504.036	741.13
504.468	750.32
504.9	764.18
505.332	773.86
505.764	781.93
506.196	791.31
506.627	808.23
507.059	823.91
507.491	835.65
507.923	837.75
508.354	855.3
508.786	868.81
509.217	888.37
509.649	905.69
510.08	926.97
510.512	946.58
510.943	964.49
511.374	979.49
511.805	1002.16
512.237	1023.21
512.668	1057.43
513.099	1086.96
513.53	1115.95
513.961	1139.43
514.391	1172.67
514.822	1207.08
515.253	1244.19
515.684	1271.2
516.114	1302.53
516.545	1327.36
516.975	1354.74
517.406	1375.13
517.836	1380.77
518.267	1390.13
518.697	1410.38
519.127	1416.81
519.558	1427.45
519.988	1433.39
520.418	1446.03
520.848	1465.38
521.278	1475.94
521.708	1499.08
522.138	1513.03
522.567	1544.93
522.997	1571.34
523.427	1589.08
523.857	1608.31
524.286	1620.53
524.716	1636.59
525.145	1657.83
525.575	1669.61
526.004	1685.42
526.433	1677.35
526.863	1680.19
527.292	1672.72
527.721	1680.52
528.15	1685.85
528.579	1687.34
529.008	1698.47
529.437	1722.46
529.866	1736.56
530.295	1755.18
530.724	1767.89
531.152	1796.22
531.581	1811.32
532.01	1828.75
532.438	1837.12
532.867	1853.48
533.295	1872.88
533.723	1879.8
534.152	1878.74
534.58	1878.56
535.008	1862.41
535.436	1864.18
535.865	1871.63
536.293	1885.17
536.721	1901.49
537.149	1927.83
537.576	1931.08
538.004	1944.68
538.432	1951.87
538.86	1949.79
539.287	1957.28
539.715	1971.05
540.143	1974.94
540.57	1971.8
540.998	1967.64
541.425	1943.15
541.852	1921.12
542.28	1918.38
542.707	1900.55
543.134	1886.13
543.561	1882.38
543.988	1873.96
544.415	1873.44
544.842	1865.98
545.269	1858.43
545.696	1860.45
546.123	1874.53
546.549	1863.97
546.976	1849.46
547.403	1849.77
547.829	1853.36
548.256	1855.22
548.682	1852.76
549.108	1846.81
549.535	1847.91
549.961	1850.05
550.387	1838.34
550.813	1832.35
551.24	1839.5
551.666	1842.65
552.092	1834.62
552.518	1828.21
552.943	1823.85
553.369	1832.12
553.795	1837.92
554.221	1840.66
554.646	1838.96
555.072	1849.31
555.498	1856.08
555.923	1867.08
556.349	1883.04
556.774	1890.84
557.199	1892.16
557.625	1898.08
558.05	1891.66
558.475	1900.87
558.9	1899.7
559.325	1891.14
559.75	1884.92
560.175	1877.64
560.6	1869.45
561.025	1867.01
561.449	1868.53
561.874	1875.41
562.299	1879.18
562.723	1887.33
563.148	1878.56
563.572	1881.74
563.997	1892.54
564.421	1897.33
564.846	1897.04
565.27	1901.15
565.694	1899.28
566.118	1910.79
566.542	1917.01
566.966	1909.15
567.39	1903.09
567.814	1890.74
568.238	1889.1
568.662	1893.66
569.086	1896.96
569.509	1903.74
569.933	1886.49
570.357	1877.17
570.78	1855.06
571.204	1841.26
571.627	1829.91
572.05	1826.78
572.474	1825.73
572.897	1813.57
573.32	1804.1
573.743	1793.31
574.166	1774.73
574.589	1775.44
575.012	1767.6
575.435	1765.36
575.858	1754.54
576.281	1743.31
576.704	1727.25
577.126	1714.97
577.549	1702.3
577.972	1692.13
578.394	1681.31
578.817	1673.74
579.239	1653.72
579.661	1640.24
580.084	1624.49
580.506	1611.54
580.928	1608.17
581.35	1597.46
581.772	1593.22
582.194	1580.47
582.616	1568.33
583.038	1553.49
583.46	1542.46
583.882	1539.39
584.303	1543.25
584.725	1538.39
585.147	1540.44
585.568	1551.15
585.99	1562.59
586.411	1568.18
586.833	1581.92
587.254	1582.61
587.675	1596.63
588.096	1609.65
588.518	1603.69
588.939	1586.47
589.36	1583.98
589.781	1572.86
590.202	1541.85
590.623	1533.3
591.043	1531.61
591.464	1518.72
591.885	1514.73
592.305	1508.83
592.726	1494.61
593.147	1496.67
593.567	1490.79
593.987	1482.38
594.408	1475.8
594.828	1474.51
595.248	1468.39
595.669	1448.84
596.089	1441.7
596.509	1435.5
596.929	1420.72
597.349	1421.01
597.769	1410.19
598.189	1404.21
598.608	1406.62
599.028	1409.44
599.448	1409.49
599.867	1396.55
600.287	1392.77
600.706	1388.3
601.126	1377.11
601.545	1375.74
601.965	1373.86
602.384	1368.28
602.803	1370.51
603.222	1364.58
603.641	1357.56
604.061	1354.17
604.48	1348.97
604.898	1355.98
605.317	1360.47
605.736	1362.33
606.155	1359.83
606.574	1350.4
606.992	1354.66
607.411	1348.49
607.829	1339.34
608.248	1334.3
608.666	1330.21
609.085	1329.24
609.503	1319.41
609.921	1311.65
610.339	1312.17
610.758	1310.37
611.176	1304.74
611.594	1295.16
612.012	1291.71
612.43	1294.88
612.847	1300.78
613.265	1301.28
613.683	1304.78
614.101	1304.98
614.518	1301.19
614.936	1290.94
615.353	1275.8
615.771	1272.35
616.188	1271.68
616.606	1267.82
617.023	1259.91
617.44	1246.14
617.857	1237.06
618.274	1227.25
618.691	1221.28
619.108	1210.94
619.525	1203.51
619.942	1209.37
620.359	1210.32
620.776	1205.14
621.192	1200.27
621.609	1197.25
622.026	1202.68
622.442	1209.24
622.859	1211.54
623.275	1203.64
623.691	1209.24
624.108	1220.44
624.524	1232.52
624.94	1232.5
625.356	1241.09
625.772	1253.06
626.188	1263.73
626.604	1265.01
627.02	1259.52
627.436	1257.24
627.852	1264.34
628.268	1275.19
628.683	1266
629.099	1256.1
629.514	1250.66
629.93	1253.53
630.345	1257.26
630.761	1253.23
631.176	1256.15
631.591	1251.72
632.007	1245.41
632.422	1241.96
632.837	1230.23
633.252	1226.62
633.667	1216.91
634.082	1208.07
634.497	1195.36
634.911	1176.13
635.326	1170.96
635.741	1152.82
636.155	1140.14
636.57	1140.93
636.984	1139.36
637.399	1139.18
637.813	1137.19
638.228	1135.58
638.642	1136.47
639.056	1124.19
639.47	1122.16
639.884	1111.84
640.298	1102.26
640.712	1099.45
641.126	1083.94
641.54	1072.32
641.954	1064.03
642.368	1050.06
642.781	1039.38
643.195	1020.74
643.609	1018.04
644.022	1008.52
644.436	1002.08
644.849	990.34
645.262	975.81
645.676	974.73
646.089	967.65
646.502	951.94
646.915	944.54
647.328	927
647.741	923.58
648.154	909.9
648.567	906.08
648.98	893.21
649.393	890.01
649.805	885.63
650.218	877.13
650.631	863.54
651.043	857.62
651.456	851.71
651.868	850.55
652.28	863.2
652.693	874.55
653.105	879.35
653.517	885.74
653.929	885.81
654.341	889.19
654.753	877.92
655.165	879.66
655.577	875.58
655.989	869.78
656.401	861.03
656.813	829.31
657.224	809.42
657.636	782.88
658.047	766.78
658.459	747.28
658.87	737
659.282	725.26
659.693	707.01
660.104	693
660.515	678.9
660.926	674.87
661.338	669
661.749	660.65
662.159	649.76
662.57	641.55
662.981	636.1
663.392	627.3
663.803	627.03
664.213	622.13
664.624	613.71
665.035	613.93
665.445	600.45
665.855	594.01
666.266	586.73
666.676	582.01
667.086	573.46
667.497	570.81
667.907	564.38
668.317	556.24
668.727	553.27
669.137	552.77
669.547	549.03
669.956	549.55
670.366	548.47
670.776	549.47
671.186	552.72
671.595	555.4
672.005	557.12
672.414	556.85
672.824	555.18
673.233	555.62
673.642	557.26
674.052	560.25
674.461	562.17
674.87	566.32
675.279	564.12
675.688	564.9
676.097	566.27
676.506	564.77
676.915	576.3
677.323	579.03
677.732	579.94
678.141	581.19
678.549	573.56
678.958	575.09
679.366	574
679.775	578.29
680.183	588.69
680.592	594.79
681	601.55
681.408	598.59
681.816	607.88
682.224	616.02
682.632	628.12
683.04	654.33
683.448	676.36
683.856	706.53
684.264	739.81
684.671	770.82
685.079	809.21
685.487	850.22
685.894	907.25
686.302	954.98
686.709	998.49
687.116	1047.72
687.524	1091.89
687.931	1132.35
688.338	1167.69
688.745	1197.67
689.152	1232.14
689.559	1275.94
689.966	1321.47
690.373	1347.07
690.78	1390.53
691.187	1454.37
691.593	1504.17
692	1548.79
692.407	1610.76
692.813	1686.75
693.22	1749.65
693.626	1812.81
694.032	1864.06
694.439	1938.77
694.845	1999.49
695.251	2074.97
695.657	2142.65
696.063	2241.26
696.469	2313.25
696.875	2383.55
697.281	2422.69
697.687	2469.63
698.093	2510.15
698.498	2584.92
698.904	2643.25
699.31	2729.73
699.715	2792.72
700.12	2882.71
700.526	2900.13
700.931	2969.53
701.337	3018.3
701.742	3051.25
702.147	3135.82
702.552	3167.4
702.957	3228.07
703.362	3251.9
703.767	3282.94
704.172	3322.36
704.577	3275.51
704.981	3323.88
705.386	3340.26
705.791	3333.34
706.195	3409.58
706.6	3418.39
707.004	3496.4
707.408	3467.23
707.813	3492.37
708.217	3479.04
708.621	3483.53
709.025	3581.86
709.43	3583.19
709.834	3645.91
710.237	3715.9
710.641	3699.31
711.045	3720.1
711.449	3714.44
711.853	3743.78
712.256	3784.98
712.66	3822.66
713.064	3895.4
713.467	3936.41
713.87	4049.11
714.274	4093.39
714.677	4202.68
715.08	4365.14
715.484	4536.28
715.887	4736.68
716.29	4934.94
716.693	5142.09
717.096	5380.89
717.499	5511.3
717.901	5533.03
718.304	5557.13
718.707	5579.59
719.109	5476.73
719.512	5444.44
719.915	5307.08
720.317	5251.94
720.719	5290.74
721.122	5262.76
721.524	5213.06
721.926	5172.16
722.328	5273.63
722.731	5263.64
723.133	5293.13
723.535	5484.88
723.937	5502.71
724.338	5552
724.74	5594.2
725.142	5540.83
725.544	5536.87
725.945	5562.85
726.347	5557.79
726.748	5549.34
727.15	5564.19
727.551	5527.13
727.952	5497.32
728.354	5468.22
728.755	5470.68
729.156	5426.22
729.557	5404.9
729.958	5284.76
730.359	5227.77
730.76	5209.58
731.161	5149.55
731.562	5122.92
731.962	5125.34
732.363	5061.12
732.763	4999.58
733.164	5033.53
733.564	4968.82
733.965	4877.04
734.365	4842.86
734.766	4871.55
735.166	4833.15
735.566	4779.73
735.966	4754.51
736.366	4746.15
736.766	4688.67
737.166	4719.32
737.566	4677.8
737.966	4650.11
738.365	4686.91
738.765	4682.14
739.165	4607.73
739.564	4580.51
739.964	4626.5
740.363	4581.86
740.763	4582.37
741.162	4571.3
741.561	4539.51
741.96	4496.56
742.36	4518.02
742.759	4521.36
743.158	4557.83
743.557	4572.5
743.955	4610.21
744.354	4563.12
744.753	4620.07
745.152	4577.16
745.55	4629.27
745.949	4623.78
746.348	4623.02
746.746	4637.42
747.144	4600.54
747.543	4578.44
747.941	4626.83
748.339	4559.49
748.737	4553.26
749.136	4541.78
749.534	4605.89
749.932	4577
750.33	4599.46
750.727	4655.89
751.125	4635.94
751.523	4622.55
751.921	4667.38
752.318	4634.64
752.716	4693.29
753.113	4706.71
753.511	4732.56
753.908	4731.54
754.305	4716.23
754.703	4773.4
755.1	4830.2
755.497	4885.52
755.894	5068.9
756.291	5238.44
756.688	5559.3
757.085	5984.12
757.482	6584.08
757.878	7238.82
758.275	7832.98
758.672	8644.66
759.068	9309.06
759.465	10261.88
759.861	11488.12
760.258	12906.05
760.654	13638.25
761.05	13522.62
761.447	12903.08
761.843	12010.03
762.239	11093.82
762.635	10671.29
763.031	10279.82
763.427	9708.44
763.822	9102.21
764.218	8505.43
764.614	7728.7
765.01	7209.17
765.405	6870.53
765.801	6618.85
766.196	6295.11
766.592	6108.46
766.987	5805.22
767.382	5592.91
767.778	5503.26
768.173	5374.61
768.568	5301.42
768.963	5179.58
769.358	5198.14
769.753	5156.53
770.148	5072.81
770.542	5070.13
770.937	5040.34
771.332	5129.02
771.726	5150.57
772.121	5092.47
772.515	5147.83
772.91	5134.41
773.304	5205.53
773.699	5142.85
774.093	5194.49
774.487	5248.39
774.881	5289.86
775.275	5285.09
775.669	5244.63
776.063	5286.89
776.457	5320.24
776.851	5244.25
777.245	5235.71
777.638	5264.05
778.032	5374.54
778.425	5337.39
778.819	5379.68
779.212	5338.8
779.606	5299.61
779.999	5319.1
780.392	5304.23
780.786	5384.04
781.179	5407.4
781.572	5448.76
781.965	5464.01
782.358	5409.24
782.751	5466.58
783.143	5418.26
783.536	5489.59
783.929	5534
784.322	5644.99
784.714	5671.77
785.107	5667.48
785.499	5734.45
785.891	5715.78
786.284	5696.25
786.676	5831.03
787.068	5812.67
787.46	5863.53
787.852	5882.45
788.245	5963.78
788.636	5992.73
789.028	6060.09
789.42	6097.9
789.812	6108.6
790.204	6199.91
790.595	6296.99
790.987	6104.96
791.378	6126.07
791.77	6252.86
792.161	6382.94
792.553	6436.24
792.944	6329.37
793.335	6263.66
793.726	6338.45
794.117	6424.96
794.508	6559.36
794.899	6530.24
795.29	6672.65
795.681	6727.11
796.072	6588.7
796.463	6415.12
796.853	6429.73
797.244	6582.9
797.634	6617.24
798.025	6617.09
798.415	6630.27
798.806	6719.26
799.196	6802.14
799.586	6852.93
799.976	6819.27
800.366	7045.04
800.756	7278.84
801.146	7239.13
801.536	7265.65
801.926	7339.35
802.316	7363.71
802.706	7435.49
803.095	7316.07
803.485	7415.19
803.874	7455.55
804.264	7711.12
804.653	7687.38
805.043	7830.51
805.432	7938.58
805.821	7944.4
806.21	7967.6
806.599	8080.25
806.988	8124.49
807.377	8228.96
807.766	8362.13
808.155	8638.9
808.544	8382.07
808.933	8400.75
809.321	8381.65
809.71	8668.35
810.098	8818.94
810.487	9272.52
810.875	9746.86
811.264	9768.43
811.652	10051.59
812.04	10195.8
812.428	10356.15
812.816	11100.97
813.204	11510.54
813.592	12048.28
813.98	12380.67
814.368	12298.16
814.756	12765.64
815.144	12685.28
815.531	13143.76
815.919	13068.8
816.306	13364.49
816.694	13067.21
817.081	13121.59
817.469	13456.9
817.856	13461.97
818.243	13721.48
818.63	14102.63
819.017	13694.96
819.404	13763.82
819.791	14141.66
820.178	14753.38
820.565	14998.98
820.952	15913.92
821.339	15430.54
821.725	15615.39
822.112	14890.15
822.498	14854.8
822.885	14981.31
823.271	14886.35
823.657	15299.41
824.044	15301.35
824.43	15369.04
824.816	15341.18
825.202	14908.38
825.588	15901.13
825.974	15913.22
826.36	16407.37
826.746	16447.61
827.132	16794.2
827.517	16765.77
827.903	15994.12
828.289	16025.03
828.674	15266.35
829.06	15157.73
829.445	15539.59
829.83	15887.15
830.216	16348.91
830.601	16699.34
830.986	16286.7
831.371	16155.46
831.756	16695.32
832.141	16273.38
832.526	16264.89
832.911	16536.41
833.295	16418.09
833.68	16876.21
834.065	16272.37
834.449	15389.79
834.834	15318.25
835.218	15322.77
835.603	15652.27
835.987	15439.13
836.371	16242.93
836.755	16147.81
837.139	16530.53
837.524	16767.54
837.908	16595.93
838.291	16646.97
838.675	16704.35
839.059	16905.3
839.443	16887.14
839.827	16659.09
840.21	17134.87
840.594	16999.52
840.977	17195.85
841.361	17179.38
841.744	17540.19
842.127	17390.3
842.511	17634.79
842.894	18208.93
843.277	18577.63
843.66	19099.63
844.043	19178.69
844.426	18393.17
844.809	18079.09
845.191	18102.24
845.574	17648.19
845.957	17292.7
846.339	17174.26
846.722	16667.31
847.104	16736.86
847.487	16568.85
847.869	16583.55
848.252	16859.02
848.634	17175.15
849.016	17432.79
849.398	17559.14
849.78	18388.77
850.162	18392.2
850.544	18803.63
850.926	19411.8
851.307	19321.8
851.689	19595.36
852.071	20035.83
852.452	20344.85
852.834	20320.39
853.215	20707.26
853.597	20863.63
853.978	21143.9
854.359	21587.62
854.741	20618.17
855.122	20513.4
855.503	20229.71
855.884	20356.18
856.265	20293.55
856.646	20401
857.026	20026.67
857.407	19960.83
857.788	20103.56
858.169	20379.94
858.549	19564.34
858.93	20169.58
859.31	20216.71
859.69	20417.38
860.071	20025.4
860.451	19814.41
860.831	19106.75
861.211	20224.14
861.591	20755.42
861.971	20737.67
862.351	20924.72
862.731	21296.79
863.111	21555.56
863.491	21882.66
863.87	22733.67
864.25	23077.19
864.629	22690.28
865.009	23184.09
865.388	24012.53
865.768	25735.35
866.147	25626.21
866.526	24213.35
866.905	24504.36
867.284	25879.88
867.663	24568.78
868.042	23543.19
868.421	23459.05
868.8	23855.87
869.179	24091.04
869.558	22688.78
869.936	20909.48
870.315	21289.58
870.693	21808.61
871.072	23500.76
871.45	22387.03
871.828	22673.61
872.207	23852.09
872.585	23493.67
872.963	24122.29
873.341	23281.56
873.719	22998.12
874.097	22713.91
874.475	23135.77
874.853	23659.32
875.23	22685.46
875.608	23632.72
875.986	25565.8
876.363	24436.97
876.741	25185.35
877.118	24552.96
877.495	25775.79
877.873	26205.07
878.25	27594.34
878.627	26464.86
879.004	26834.53
879.381	26711.29
879.758	26001.53
880.135	24204.89
880.512	25600.09
880.889	24924.22
881.265	24667.32
881.642	24455.53
882.019	24872.74
882.395	24358.66
882.772	25324.96
883.148	24228.94
883.524	24127.5
883.901	23985.55
884.277	24336.93
884.653	24176.78
885.029	24866.3
885.405	27540.67
885.781	27310.6
886.157	26182.65
886.532	26504.3
886.908	26484.67
887.284	29445.41
887.659	30404.29
888.035	31362.76
888.411	32180.84
888.786	32606.24
889.161	33729.14
889.537	33093.68
889.912	34169.54
890.287	34131.56
890.662	34980.72
891.037	34342.2
891.412	32016.37
891.787	31687.12
892.162	30558.79
892.536	31254.51
892.911	30080.41
893.286	29442.11
893.66	28242.35
894.035	28955.17
894.409	31529.87
894.784	30259.9
895.158	30755.58
895.532	32576.9
895.906	33458.72
896.281	34256.15
896.655	33708.88
897.029	38521.95
897.402	40107.33
897.776	44660.13
898.15	44496.97
898.524	44003.76
898.898	44589.63
899.271	49939.12
899.645	43255.63
900.018	41543.6
900.392	43071.54
900.765	43445.09
901.138	40190.21
901.511	39590.49
901.884	36353.26
902.258	33522.8
902.631	34648.78
903.003	39884.04
903.376	35988.89
903.749	40362.63
904.122	43222.04
904.495	47592.54
904.867	48168.85
905.24	41799.13
905.612	38908.41
905.985	39786.2
906.357	41594.58
906.729	39688.03
907.102	33913.99
907.474	32602.41
907.846	32780.5
908.218	32358.99
908.59	28594.83
908.962	27647.16
909.334	29789.53
909.705	31292.8
910.077	30382.53
910.449	31639.34
910.82	32536.1
911.192	35783.53
911.563	37197.72
911.935	39822.81
912.306	39869.87
912.677	41160.45
913.048	40773.61
913.419	44253.87
913.79	44531.33
914.161	47766.47
914.532	45673.42
914.903	41949.04
915.274	39863.86
915.645	39289.73
916.015	34595.42
916.386	32979.06
916.756	35110.18
917.127	36202.68
917.497	32342.29
917.868	35199.79
918.238	33441.91
918.608	34391.61
918.978	35116.86
919.348	37185.08
919.718	38429.03
920.088	37014.89
920.458	38452.77
920.828	40475.17
921.198	38394.47
921.567	41037.54
921.937	31784.75
922.306	32086.03
922.676	34592.53
923.045	28871.8
923.415	27421.39
923.784	24965.52
924.153	25670.45
924.522	25651.88
924.891	24101.21
925.26	25802.53
925.629	25172.02
925.998	28927.07
926.367	28239.2
926.736	26899.28
927.104	32054.43
927.473	34464.08
927.842	41616.93
928.21	41219.55
928.578	43321.08
928.947	40990.66
929.315	41271.35
929.683	48418.3
930.051	48792.64
930.42	56693.27
930.788	48468.25
931.156	48062.51
931.523	45068.91
931.891	41641.77
932.259	39999.76
932.627	46348.57
932.994	65561.29
933.362	54112.96
933.729	46955.66
934.097	44914.13
934.464	37967.37
934.831	43798.24
935.199	43150.88
935.566	41854.35
935.933	42365.35
936.3	51322.85
936.667	39971.01
937.034	36077.83
937.401	35700.77
937.767	30839.25
938.134	27483.87
938.501	38790.9
938.867	41326.69
939.234	69909.23
939.6	59600.15
939.967	65737.11
940.333	43955.83
940.699	37395.07
941.065	29971.72
941.431	39321.57
941.798	37908.44
942.163	49797.87
942.529	31095.85
942.895	28637.85
943.261	18517.85
943.627	24314.62
943.992	21312.89
944.358	21370.15
944.723	21466.15
945.089	20940.48
945.454	19366.88
945.82	20665.67
946.185	19871.25
946.55	23039.36
946.915	20668.99
947.28	24267.81
947.645	21360.85
948.01	19720.8
948.375	20552.59
948.74	24653.87
949.104	28768.81
949.469	41498.93
949.834	73385.77
950.198	69596.84
950.562	41710.26
950.927	34732.97
951.291	41784.59
951.655	35609.16
952.02	33431.51
952.384	25300.47
952.748	22003.56
953.112	21465.85
953.476	18672.88
953.839	17268.71
954.203	17072.55
954.567	21343.45
954.931	33631.5
955.294	28774.68
955.658	28907.3
956.021	49147.24
956.385	83331.89
956.748	123125.73
957.111	190855.28
957.474	214330.03
957.837	241095.43
958.2	182410.68
958.563	65597.43
958.926	44390.32
959.289	67305.19
959.652	75255.68
960.015	56483.06
960.377	81091.24
960.74	92416.83
961.102	159597.78
961.465	171245.86
961.827	91870.4
962.189	176299.46
962.552	122327.29
962.914	98027.42
963.276	63720.71
963.638	52704.68
964	52129.22
964.362	35207.64
964.724	34041.23
965.085	24257.45
965.447	19898.83
965.809	22649.14
966.17	22665.22
966.532	24514.28
966.893	22489.19
967.255	20458.22
967.616	24128.41
967.977	19345.62
968.338	21136.95
968.699	17365.16
969.061	17382.53
969.421	17487.2
969.782	19615.87
970.143	16580.52
970.504	17181.93
970.865	19536.09
971.225	19957.47
971.586	19523.94
971.946	27798.66
972.307	24081.84
972.667	31492.46
973.027	32401.64
973.388	39347.91
973.748	26793.2
974.108	29209.24
974.468	39506.8
974.828	30479.43
975.188	23456.35
975.548	21544.02
975.907	18099.33
976.267	20311.72
976.627	17077.06
976.986	17702.19
977.346	16850.87
977.705	16209.32
978.064	14737.09
978.424	12259.17
978.783	12659.82
979.142	14458.91
979.501	13845.4
979.86	14645.82
980.219	14118.64
980.578	18185.26
980.937	20380.57
981.296	18161.25
981.654	18676.19
982.013	29078.41
982.371	37750.3
982.73	35279.09
983.088	39880.62
983.447	42535.42
983.805	60760.21
984.163	127063.92
984.521	141150.98
984.879	206712.19
985.237	-336142.72
985.595	324325.95
985.953	80552.85
986.311	46495.03
986.669	26966.2
987.026	23298.73
987.384	31337.89
987.741	32371.81
988.099	23146.4
988.456	18434.4
988.814	17274.21
989.171	15042.16
989.528	14825.04
989.885	15654.95
990.242	12396.11
990.599	15438.04
990.956	12646.96
991.313	8855.72
991.67	7278.87
992.027	7710.15
992.383	6873.54
992.74	6028.51
993.096	6330.18
993.453	6567.48
993.809	6814.97
994.165	9091.56
994.522	8337.92
994.878	9160.1
995.234	11482.47
995.59	11329.9
995.946	10709.24
996.302	12208.67
996.658	14099.79
997.013	15507.29
997.369	18358.83
997.725	23490.84
998.08	15203.01
998.436	23419.72
998.791	32374.05
999.147	32265.7
999.502	35137.6
999.857	25564.61
1000.212	41597.78
1000.567	59206.67
1000.922	34116.81
1001.277	21719.5
1001.632	16075.28
1001.987	20699.56
1002.342	14867
1002.696	11862.62
1003.051	9483.01
1003.406	11512.44
1003.76	11473.87
1004.114	11283.6
1004.469	9469.22
1004.823	7847.94
1005.177	8452.33
1005.531	6715.47
1005.885	5960.14
1006.239	6729.71
1006.593	8466.35
1006.947	11313.9
1007.301	8468.62
1007.655	9223.82
1008.008	6784.75
1008.362	7638.59
1008.715	10892.82
1009.069	9904.03
1009.422	14897.01
1009.776	29893.12
1010.129	19800.45
1010.482	16511.34
1010.835	13959.6
1011.188	29016.03
1011.541	27308.27
1011.894	-166847.26
1012.247	492000.52
1012.6	33441.07
1012.952	21060.31
1013.305	10853.89
1013.657	7815.85
1014.01	7413.67
1014.362	6108.56
1014.715	5433.51
1015.067	4755.71
1015.419	4638.87
1015.771	4113.18
1016.123	3654.32
1016.475	3764.37
1016.827	4006.07
1017.179	4311.94
1017.531	4345.36
1017.883	4432.88
1018.234	4288.36
1018.586	5421.1
1018.938	5737.24
1019.289	7926.17
1019.64	9053.39
1019.992	8408.54
1020.343	7691.96
1020.694	6103.11
1021.045	5382.26
1021.396	6135.24
1021.747	6571.7
1022.098	7882.24
1022.449	5738.5
1022.8	5304.38
1023.151	3704.64
1023.501	3291.14
1023.852	3593.75
1024.202	3708.72
1024.553	4088.35
1024.903	4005.89
1025.253	3429.32
1025.604	3093.66
1025.954	3837.56
1026.304	4658.77
1026.654	5454.48
1027.004	7976.28
1027.354	12910.42
1027.703	12159.83
1028.053	16039.26
1028.403	23376.86
1028.753	33932.55
1029.102	46291.39
1029.452	238039.33
1029.801	10305.53
1030.15	6663.95
1030.499	5627.18
897.758	2758.81
901.051	2717.33
904.343	2751.82
907.636	2752.3
910.928	2815.86
914.22	2726.52
917.511	2734.06
920.803	2798.98
924.094	2822.19
927.384	2799.92
930.675	2762.05
933.965	2712.49
937.255	2718.76
940.544	2687.65
943.834	2615.39
947.123	2563.53
950.411	2657.74
953.7	2629.76
956.988	2599.33
960.276	2538.61
963.563	2625.38
966.851	2620.54
970.138	2683.07
973.424	2675.05
976.711	2623.12
979.997	2770.7
983.283	2801.86
986.568	2703.47
989.853	2725.47
993.138	2750.91
996.423	2836.14
999.708	2767.8
1002.992	2838.82
1006.275	2657.39
1009.559	2711.78
1012.842	2831.32
1016.125	2760.41
1019.408	2738.96
1022.69	2833.29
1025.972	2846.9
1029.254	2821.4
1032.536	2747.18
1035.817	2778.47
1039.098	2716.57
1042.379	2880.89
1045.659	2874.03
1048.939	2800.79
1052.219	2827.13
1055.498	2843.45
1058.778	2823.87
1062.057	2811.27
1065.335	2830.72
1068.614	2852.78
1071.892	2832.88
1075.17	2910.3
1078.447	2897.25
1081.724	2884.68
1085.001	2926.05
1088.278	2894.99
1091.554	2907.13
1094.83	2904.75
1098.106	2932.33
1101.382	2981.78
1104.657	2979.72
1107.932	2974.92
1111.206	2941.46
1114.481	2896.04
1117.755	2899.58
1121.029	2875.26
1124.302	2931.49
1127.575	2881
1130.848	2867.59
1134.121	2824.13
1137.393	2772.18
1140.665	2840.4
1143.937	2814.32
1147.208	2773.8
1150.48	2812.03
1153.75	2800.37
1157.021	2837.58
1160.291	2803.64
1163.561	2847.93
1166.831	2841.24
1170.101	2875.48
1173.37	2848.05
1176.639	2790.3
1179.907	2856.86
1183.176	2857.65
1186.444	2866.19
1189.711	2895.41
1192.979	2905.85
1196.246	2863.55
1199.513	2881.7
1202.78	2877.58
1206.046	2888.02
1209.312	2916.24
1212.578	2944.49
1215.843	2887.73
1219.108	2863.14
1222.373	2886.44
1225.638	2847.66
1228.902	2831.3
1232.166	2797.28
1235.43	2777.7
1238.693	2802.56
1241.956	2798.79
1245.219	2836.56
1248.482	2828.93
1251.744	2823.42
1255.006	2980.61
1258.268	2939.23
1261.529	2879.14
1264.79	2886.81
1268.051	2991.69
1271.312	3013.63
1274.572	2973.71
1277.832	2961.68
1281.092	2954.32
1284.351	2924.92
1287.61	2901.36
1290.869	2814.22
1294.128	2783.43
1297.386	2882.17
1300.644	2870.18
1303.902	2881.29
1307.159	2733.51
1310.416	2788.78
1313.673	2815.5
1316.93	2799.12
1320.186	2848.52
1323.442	2896.2
1326.697	2879.72
1329.953	2874.19
1333.208	2893.23
1336.463	2874.02
1339.717	2810.47
1342.972	2952.73
1346.226	2930.02
1349.479	2858.13
1352.733	2825.54
1355.986	2850.73
1359.238	2824.56
1362.491	2830.27
1365.743	2834.22
1368.995	2829.47
1372.247	2845.2
1375.498	2872.17
1378.749	2882.17
1382	2834.38
1385.251	2893.24
1388.501	2856.53
1391.751	2837.28
1395	2811.14
1398.25	2842.1
1401.499	2847.93
1404.748	2772.48
1407.996	2762.4
1411.244	2745.3
1414.492	2724.4
1417.74	2707.73
1420.987	2717.87
1424.234	2774.13
1427.481	2756.13
1430.728	2816.4
1433.974	2789.96
1437.22	2807.69
1440.465	2807.01
1443.711	2764.27
1446.956	2804.72
1450.201	2793.61
1453.445	2837.89
1456.689	2812.98
1459.933	2826.85
1463.177	2863.23
1466.42	2830.73
1469.663	2812.99
1472.906	2803.25
1476.148	2892.05
1479.391	2840.8
1482.633	2810.52
1485.874	2821.88
1489.115	2803.21
1492.356	2814.96
1495.597	2789.19
1498.838	2790.8
1502.078	2757.79
1505.318	2703.22
1508.557	2747.91
1511.797	2715.07
1515.036	2797.56
1518.274	2790.14
1521.513	2761.68
1524.751	2786.34
1527.989	2795.28
1531.227	2809.32
1534.464	2798.04
1537.701	2826.07
1540.938	2844.78
1544.174	2796.01
1547.41	2795.19
1550.646	2838.6
1553.882	2868.09
1557.117	2926.74
1560.352	2942.26
1563.587	2900.89
1566.821	2855.83
1570.055	2896.09
1573.289	2860.55
1576.523	2942.64
1579.756	2947.49
1582.989	2969.12
1586.222	2926.92
1589.454	2970.33
1592.686	2939.69
1595.918	2965.98
1599.15	2949.8
1602.381	3033.4
1605.612	2982.91
1608.843	3085.55
1612.073	2993.17
1615.303	2980.4
1618.533	2968.19
1621.762	2970.29
1624.992	2957.59
1628.221	2940.03
1631.449	2923.81
1634.678	2987.17
1637.906	2935.71
1641.134	2976.73
1644.361	2929.93
1647.588	2916.78
1650.815	2930.2
1654.042	2912.4
1657.269	2944.41
1660.495	2890.72
1663.72	2904.01
1666.946	2867.29
1670.171	2802.92
1673.396	2780.71
1676.621	2771.19
1679.845	2793.76
1683.069	2819.08
1686.293	2866.11
1689.517	2833.2
1692.74	2757.14
1695.963	2791.42
1699.185	2817.2
1702.408	2790.98
1705.63	2837.41
1708.852	2848.17
1712.073	2819.13
1715.294	2801.35
1718.515	2865.55
1721.736	2808.25
1724.956	2803.16
1728.176	2831.22
1731.396	2852.35
1734.616	2841.31
1737.835	2868.37
1741.054	2848.57
1744.272	2841.2
1747.491	2872.4
1750.709	2931.34
1753.927	2825.92
1757.144	2879.02
1760.361	2919.04
1763.578	2914.41
1766.795	2852.35
1770.011	2864.28
1773.227	2906.69
1776.443	2936.76
1779.658	2985.29
1782.874	2926.41
1786.089	2902.75
1789.303	2906.34
1792.518	2908.42
1795.732	2897.58
1798.945	2906.75
1802.159	2958.77
1805.372	2848.77
1808.585	2835.3
1811.797	2840.46
1815.01	2892.34
1818.222	2891.85
1821.434	2851.52
1824.645	2913.79
1827.856	2893.81
1831.067	2930.84
1834.278	2890.05
1837.488	2875.29
1840.698	3033
1843.908	2951.39
1847.117	2913.87
1850.326	2787.14
1853.535	2902.37
1856.744	2940.9
1859.952	2853.16
1863.16	2853.89
1866.368	2879.54
1869.575	2982.55
1872.782	2862.28
1875.989	2800.45
1879.196	2893.7
1882.402	2885.98
1885.608	2931.02
1888.814	2824.45
1892.019	2713.87
1895.224	2766.64
1898.429	2751.87
1901.634	2726.01
1904.838	2704.44
1908.042	2756.33
1911.246	2760.49
1914.449	2684.87
1917.652	2684.39
1920.855	2665.66
1924.058	2719.28
1927.26	2757.56
1930.462	2786.07
1933.664	2810.4
1936.865	2742.26
1940.066	2748.3
1943.267	2696.22
1946.467	2715.29
1949.668	2744.47
1952.868	2811.31
1956.067	2786.19
1959.267	2713.69
1962.466	2742.45
1965.665	2727.97
1968.863	2723.3
1972.061	2743.9
1975.259	2744.26
1978.457	2822.18
1981.654	2780.9
1984.852	2779.72
1988.048	2708.9
1991.245	2712.63
1994.441	2800.23
1997.637	2789.96
2000.833	2769.27
2004.028	2809.86
2007.223	2863.78
2010.418	2840.22
2013.613	2803.73
2016.807	2767.45
2020.001	2779.38
2023.194	2827.55
2026.388	2803.82
2029.581	2750.7
2032.774	2796.91
2035.966	2804.52
2039.158	2731.29
2042.35	2759.72
2045.542	2685.77
2048.733	2791.83
2051.924	2820.29
2055.115	2849.55
2058.306	2788.36
2061.496	2848.83
2064.686	2917.69
2067.875	2831.84
2071.065	2847.46
2074.254	2879
2077.442	2830.38
2080.631	2922.11
2083.819	2804.64
2087.007	2786.25
2090.195	2751.38
2093.382	2790.8
2096.569	2769.64
2099.756	2719.34
2102.942	2742.3
2106.128	2747.54
2109.314	2737.02
2112.5	2695.08
2115.685	2672.47
2118.87	2684.13
2122.055	2749.12
2125.239	2715.36
2128.424	2685.78
2131.608	2798.16
2134.791	2773.62
2137.974	2837.58
2141.157	2822.61
2144.34	2770.8
2147.523	2789.29
2150.705	2801.95
2153.887	2781.38
2157.068	2726.57
2160.25	2732.86
2163.431	2772.77
2166.611	2714.33
2169.792	2734.67
2172.972	2619.81
2176.152	2703.32
2179.331	2740.25
2182.511	2721.53
2185.69	2751.41
2188.868	2743.19
2192.047	2806.28
2195.225	2790.9
2198.403	2740.16
2201.58	2733.04
2204.758	2729.66
2207.935	2817.14
2211.111	2700.14
2214.288	2683.5
2217.464	2722.99
2220.64	2695.7
2223.815	2754.16
2226.991	2671.47
2230.166	2691.64
2233.34	2721.52
2236.515	2751.34
2239.689	2825.99
2242.863	2768.69
2246.036	2824.43
2249.209	2826.83
2252.382	2866.28
2255.555	2850.12
2258.727	2784.15
2261.9	2824.62
2265.071	2818.11
2268.243	2819.9
2271.414	2744.24
2274.585	2701.62
2277.756	2768.32
2280.926	2726.51
2284.096	2770.2
2287.266	2668.8
2290.436	2729.08
2293.605	2758.73
2296.774	2788.51
2299.942	2814.79
2303.111	2826.56
2306.279	2877.65
2309.447	2862.36
2312.614	2843.09
2315.781	2861.18
2318.948	2828.97
2322.115	2869.62
2325.281	2768.85
2328.447	2791.56
2331.613	2766.45
2334.779	2732.47
2337.944	2744.2
2341.109	2739.01
2344.274	2722
2347.438	2683.57
2350.602	2708.45
2353.766	2726.59
2356.929	2712.3
2360.092	2754.96
2363.255	2705.53
2366.418	2630.71
2369.58	2755.32
2372.742	2521.54
2375.904	2541.46
2379.066	2516.98
2382.227	2554.51
2385.388	2515.99
2388.548	2437.33
2391.709	2496.31
2394.869	2474.33
2398.029	2580.88
2401.188	2600
2404.347	2526.91
2407.506	2682.38
2410.665	2709.4
2413.823	2718.5
2416.981	2672.23
2420.139	2708.91
2423.296	2760.03
2426.453	2732.04
2429.61	2754.48
2432.767	2680.35
2435.923	2716.33
2439.079	2676.49
2442.235	2726.75
2445.391	2649.49
2448.546	2676.09
2451.701	2729.14
2454.855	2694.61
2458.009	2755.48
2461.163	2759
2464.317	2719.04
2467.471	2755.47
2470.624	2796.2
2473.777	2769.74
2476.929	2785.09
2480.082	2813.16
2483.234	2774.76
2486.385	2731.43
2489.537	2722.33
2492.688	2676.33
2495.839	2695.86
2498.989	2704.7
2502.14	2687.28
2505.29	2668.21
2508.439	2696.13
2511.589	2614.14
2514.738	2630.52
2517.887	2663.5
2521.035	2721.62
2524.183	2709.88
2527.331	2689.98
2530.479	2658.66
2533.627	2671.85
