Data from N_3_DIV_PA_2N_Splice17_13-16-42-237.txt Node
Date: Sat Mar 14 13:16:42 EDT 2020
User: sa697716
Spectrometer: FLMS03696
Trigger mode: 0
Integration Time (sec): 3.180400E-1
Scans to average: 20
Electric dark correction enabled: true
Nonlinearity correction enabled: true
Boxcar width: 5
XAxis mode: Wavelengths
Number of Pixels in Spectrum: 2048
>>>>>Begin Spectral Data<<<<<
187.83	-288274.87
188.298	2127.21
188.766	1201.15
189.233	1107.55
189.701	1555.25
190.169	2120.17
190.636	816.89
191.104	729.45
191.571	90.44
192.039	-84.8
192.506	-59.67
192.974	523.78
193.441	-889.38
193.908	-244.96
194.375	-24.46
194.842	79.77
195.31	180.66
195.777	214.21
196.244	560.06
196.711	846.8
197.177	1131.8
197.644	1707.91
198.111	2965.26
198.578	4173.96
199.045	3318.78
199.511	5400.23
199.978	6325.96
200.445	5278.15
200.911	5819.52
201.378	6500.64
201.844	5763.28
202.31	9746.7
202.777	10015.17
203.243	5503.83
203.709	5155.01
204.176	6091.22
204.642	4966.74
205.108	4566.8
205.574	3725.83
206.04	3411.35
206.506	3179.64
206.972	2991.22
207.438	2872.21
207.903	3240.49
208.369	2799.75
208.835	2760.25
209.301	2869.46
209.766	2928.42
210.232	2877.39
210.697	3513.81
211.163	4280.52
211.628	6413.73
212.094	5299.39
212.559	6349.94
213.024	3883.73
213.49	4651.85
213.955	4491.15
214.42	4344.13
214.885	3996.98
215.35	3768.24
215.815	3545.54
216.28	3661.26
216.745	2892.22
217.21	3003.35
217.675	2620.87
218.14	2777.38
218.604	2882.77
219.069	3027.9
219.534	2919.02
219.998	3096.28
220.463	3454.8
220.927	3868.84
221.392	3363.94
221.856	3187.46
222.32	3709.17
222.785	4305.31
223.249	5106.12
223.713	5416.48
224.177	5193.13
224.642	6356.54
225.106	7561.03
225.57	7905.24
226.034	5735.44
226.497	8485.49
226.961	7457.68
227.425	8523.44
227.889	9222.62
228.353	8972.22
228.816	18031.7
229.28	16874.07
229.744	13959.83
230.207	8356.9
230.671	8100.92
231.134	12976.81
231.597	14828.61
232.061	14456.96
232.524	13739.9
232.987	9367.3
233.45	8394.75
233.914	7446.83
234.377	7488.76
234.84	6782.34
235.303	7896.84
235.766	8753.97
236.229	8994.29
236.691	5600.24
237.154	6256.42
237.617	4729.41
238.08	4777.72
238.542	5542.73
239.005	3994.88
239.468	3983.07
239.93	3745.5
240.393	3405.44
240.855	2976.44
241.317	3027.81
241.78	3648.57
242.242	3778.94
242.704	4099.5
243.166	3592.52
243.629	3290.49
244.091	3763.8
244.553	4106
245.015	4402.9
245.477	5649.98
245.939	8250.39
246.4	8775.63
246.862	8500.45
247.324	7987.55
247.786	8867.01
248.247	11489
248.709	11625.9
249.17	8643.9
249.632	8251.93
250.093	9648.97
250.555	8326.39
251.016	5095.53
251.477	4829.81
251.939	5230.91
252.4	5474.56
252.861	6462.88
253.322	6047.68
253.783	7206.2
254.244	9335.94
254.705	7264.79
255.166	6398.48
255.627	6292.5
256.088	8916.42
256.549	9502.13
257.009	8155.27
257.47	9847.46
257.931	8016.41
258.391	6011.42
258.852	6174.36
259.312	6467.79
259.773	7963.69
260.233	6773.38
260.694	5739.08
261.154	6439.19
261.614	5190.2
262.074	4611.67
262.534	4793.4
262.994	4508.43
263.455	5944.11
263.915	5005.63
264.374	4681.81
264.834	5076.21
265.294	5541.06
265.754	5695.4
266.214	5354.88
266.673	4977.19
267.133	6222.58
267.593	6104.46
268.052	7439.72
268.512	6422.78
268.971	7763.78
269.431	8504.16
269.89	7600.66
270.349	11425.47
270.809	12745.86
271.268	11468.85
271.727	25479.04
272.186	16561.02
272.645	12459.1
273.104	8913.83
273.563	12904.84
274.022	10069.72
274.481	8600.98
274.94	6652.68
275.399	4924.12
275.857	5692.05
276.316	7691.08
276.775	6872.19
277.233	6805.28
277.692	6446.35
278.15	7399.94
278.609	7710.45
279.067	7207.01
279.525	6771.3
279.984	8765.57
280.442	10625.04
280.9	10684.38
281.358	7082.99
281.816	6659.41
282.274	6579.17
282.732	6782.13
283.19	6841.62
283.648	5937.82
284.106	6336.73
284.564	6473.76
285.021	6081.63
285.479	4560.52
285.937	4144.44
286.394	3697.49
286.852	3841.59
287.309	4047.48
287.767	3985.8
288.224	3824.91
288.682	4217.27
289.139	4668.49
289.596	4284.03
290.053	4463.43
290.511	5629.41
290.968	6850.23
291.425	9200.28
291.882	7707.8
292.339	6693.83
292.796	6573.82
293.252	6160.66
293.709	4914.64
294.166	4397.36
294.623	4833.28
295.079	4589.19
295.536	4619.67
295.992	4191.09
296.449	4150.45
296.905	4298.94
297.362	4139.51
297.818	4343.91
298.274	4534.05
298.731	4600.44
299.187	4545.89
299.643	4865.29
300.099	5924.41
300.555	6516.08
301.011	5440.88
301.467	5321.32
301.923	6178.99
302.379	6054.38
302.835	5981.65
303.291	6012.64
303.746	6863.27
304.202	8713.11
304.658	8815.21
305.113	5960.72
305.569	5845.63
306.024	6244.63
306.479	5922.71
306.935	5062.83
307.39	5531.1
307.845	5138.53
308.301	5205.38
308.756	5098.99
309.211	4945.83
309.666	5111.68
310.121	6432.62
310.576	6583.57
311.031	6567.99
311.486	7523.45
311.94	7528.26
312.395	10170.25
312.85	19237.06
313.305	94247.7
313.759	495705.3
314.214	36133.06
314.668	28822.06
315.123	24287.59
315.577	8801.59
316.032	7897.95
316.486	9917.45
316.94	7867.14
317.394	5527.4
317.849	4289.45
318.303	4044.26
318.757	3808.53
319.211	4215.51
319.665	3678.66
320.119	3714.39
320.572	5281.86
321.026	4944.26
321.48	4117.05
321.934	4460.22
322.387	4429.65
322.841	4791.13
323.295	4380.38
323.748	5003.93
324.202	5088.27
324.655	6164.99
325.108	8720.46
325.562	6180.81
326.015	7339.76
326.468	5586.12
326.921	6289.58
327.374	5918.89
327.827	6228.95
328.28	7058.78
328.733	4775.05
329.186	4221.58
329.639	4029.92
330.092	3388.07
330.545	3251.54
330.997	3303.12
331.45	3673.79
331.903	4358.34
332.355	7493.57
332.808	7310.43
333.26	6060.54
333.713	6669.23
334.165	6735.82
334.617	9006.78
335.069	7272.86
335.522	13230.89
335.974	14723.95
336.426	13363.54
336.878	9220.95
337.33	4733.22
337.782	4629.35
338.234	5862.77
338.686	6962.7
339.137	8298.39
339.589	7852.82
340.041	6177.02
340.493	5306.58
340.944	5446.37
341.396	5901.63
341.847	5007.58
342.299	5944.67
342.75	7306.41
343.201	6317.42
343.653	7266.26
344.104	8884.67
344.555	6975.52
345.006	10829.08
345.457	8380.33
345.908	6612.14
346.359	6232.7
346.81	5056.84
347.261	5277.07
347.712	5183.2
348.163	5573.39
348.613	5698.87
349.064	5323.61
349.515	4667.29
349.965	4815.22
350.416	5761.51
350.866	6327.04
351.317	7138.24
351.767	11916.65
352.217	15095.11
352.668	12552.03
353.118	11554.02
353.568	11053.55
354.018	8805.24
354.468	9339.37
354.918	6737.05
355.368	5924.06
355.818	8429.95
356.268	24203
356.718	101154.15
357.168	25426.82
357.617	12788.05
358.067	14205.86
358.517	13418.34
358.966	15886.01
359.416	17972.9
359.865	19404.91
360.315	23122.73
360.764	10847.87
361.213	6127.59
361.663	5818.69
362.112	7160.41
362.561	11574.46
363.01	8767.47
363.459	7376.76
363.908	7936.19
364.357	6782.62
364.806	11466.56
365.255	7900.46
365.703	7289.45
366.152	7327.87
366.601	5961.94
367.05	4901.32
367.498	4490.15
367.947	4702.69
368.395	4912.39
368.844	4393.06
369.292	5256.33
369.74	3659.97
370.189	5629.16
370.637	6617.94
371.085	5719.63
371.533	6979.69
371.981	6711.01
372.429	6434.37
372.877	6724.8
373.325	5643.13
373.773	5772.89
374.221	5150.94
374.669	6401.29
375.116	5541.21
375.564	5581.23
376.012	6246.57
376.459	5162.53
376.907	6165.68
377.354	7452.43
377.801	6987.26
378.249	8090.9
378.696	10355.83
379.143	12569.31
379.591	13438.31
380.038	22852.71
380.485	16734.74
380.932	18226.96
381.379	16944.42
381.826	12668.74
382.273	9066.86
382.72	7971.29
383.166	7845.81
383.613	5141.43
384.06	4700.24
384.506	5532.1
384.953	4116.42
385.4	4185
385.846	3742.56
386.292	3693.3
386.739	3715.54
387.185	3779.78
387.631	3925
388.078	3976.55
388.524	4418.8
388.97	4247.01
389.416	3657.69
389.862	3993.75
390.308	3897.55
390.754	4094.73
391.2	4675.34
391.645	5065.9
392.091	5202.8
392.537	5359.15
392.983	5655.71
393.428	5857.32
393.874	6651.82
394.319	7229.49
394.765	7621.44
395.21	8819.2
395.655	9355.21
396.101	9869.57
396.546	10000.52
396.991	11338.16
397.436	11838.63
397.881	12903.06
398.326	13854.51
398.771	14727.32
399.216	14426.57
399.661	14415.17
400.106	15759.71
400.551	17612.67
400.995	17140.71
401.44	18274.25
401.885	18378.63
402.329	19774.42
402.774	20072.86
403.218	20430.95
403.663	20822.83
404.107	22563.96
404.551	23989.45
404.995	23307.41
405.44	23812.19
405.884	25551.26
406.328	26021.02
406.772	27147.06
407.216	25842.38
407.66	26219.13
408.104	26309.51
408.547	25810.21
408.991	26035.83
409.435	26002.92
409.879	26383.25
410.322	26746.75
410.766	26501.26
411.209	25902.25
411.653	25651.36
412.096	25832.79
412.54	26556.45
412.983	26954.45
413.426	27496.29
413.869	28051.8
414.312	28002.57
414.756	27581.35
415.199	26849.43
415.642	26523.07
416.085	26987.95
416.527	27207.88
416.97	28055.41
417.413	26861.71
417.856	26832.38
418.298	26726.12
418.741	26659.05
419.184	26714.98
419.626	27972.27
420.069	28020.7
420.511	28263.89
420.953	27730.61
421.396	27621.97
421.838	27118.61
422.28	27906.33
422.722	28243.79
423.164	29063.42
423.606	28942.22
424.048	29317.72
424.49	28089.48
424.932	28293.93
425.374	28216.91
425.816	28954.99
426.258	29494.68
426.699	29573.05
427.141	28683.28
427.582	28826.84
428.024	28477.22
428.465	28376.04
428.907	27834.66
429.348	27811.5
429.789	28002.27
430.231	27544.68
430.672	28072.9
431.113	27744.13
431.554	27887.36
431.995	28081.82
432.436	27699.97
432.877	27654.09
433.318	27508.8
433.759	27766.01
434.2	28024.26
434.64	28022.15
435.081	28392.95
435.522	27274.18
435.962	26663.19
436.403	26433.92
436.843	27181.15
437.284	26989.85
437.724	26605.1
438.164	27038.11
438.604	26644.3
439.045	25728.11
439.485	24731.9
439.925	24423.71
440.365	23997.06
440.805	23835.62
441.245	23530.43
441.685	22700.45
442.125	22585.55
442.564	22737.14
443.004	22151.85
443.444	22107.02
443.883	22151.36
444.323	22148.57
444.762	22370.56
445.202	22727.07
445.641	23082.19
446.081	23131.77
446.52	23262.32
446.959	23021.97
447.398	22456.57
447.837	22230.01
448.276	21861.52
448.716	22063.49
449.154	22257.22
449.593	21576.4
450.032	21373.54
450.471	20949.69
450.91	20832.17
451.349	20602.3
451.787	20403.24
452.226	20538.13
452.664	20371.79
453.103	20223.47
453.541	20017.78
453.98	19644.98
454.418	19548.42
454.856	18964.97
455.295	18733.52
455.733	18605.06
456.171	18526.8
456.609	18315.2
457.047	18061.25
457.485	18087.5
457.923	17934.66
458.361	17587.83
458.798	17603.66
459.236	17501.32
459.674	17666.47
460.111	17697.86
460.549	17552.3
460.987	17555.43
461.424	17534.66
461.862	17526.83
462.299	17309.42
462.736	17284.69
463.173	17403.22
463.611	17168.77
464.048	17168.68
464.485	17342.73
464.922	17272
465.359	17283.56
465.796	16833.01
466.233	16798.37
466.67	16664.96
467.106	16677.71
467.543	16655.16
467.98	16530.78
468.416	16274.35
468.853	16254.24
469.29	15843.44
469.726	15729.92
470.162	15350.81
470.599	15404.01
471.035	15301.21
471.471	14971.06
471.907	14949.48
472.344	14850.83
472.78	14817.27
473.216	14951.4
473.652	14681.03
474.088	14571.55
474.523	14378.04
474.959	14399.27
475.395	14144.15
475.831	13899.97
476.266	13839.01
476.702	13656.53
477.138	13334.81
477.573	13137.26
478.008	12905.27
478.444	12753.39
478.879	12644.09
479.314	12523.9
479.75	12329.87
480.185	12225.23
480.62	12159.31
481.055	12048.4
481.49	11931.64
481.925	11909.39
482.36	11863.91
482.795	12004.95
483.229	12158.66
483.664	12220.13
484.099	12079.21
484.534	12060.14
484.968	11990.48
485.403	11860.31
485.837	11707.1
486.271	11538.93
486.706	11408.87
487.14	11205.01
487.574	10909.16
488.009	10701.71
488.443	10510.89
488.877	10492.15
489.311	10433.32
489.745	10445.1
490.179	10434.33
490.613	10479.66
491.046	10478.43
491.48	10468.99
491.914	10384.26
492.348	10376.04
492.781	10351.72
493.215	10308.27
493.648	10279.72
494.082	10288.31
494.515	10223.94
494.948	10252.64
495.382	10275.62
495.815	10255.48
496.248	10249.25
496.681	10354.53
497.114	10440.5
497.547	10485.25
497.98	10548.31
498.413	10505.87
498.846	10526.05
499.279	10541.47
499.711	10507.09
500.144	10434.54
500.577	10451.3
501.009	10488.57
501.442	10485.65
501.874	10370.75
502.306	10302.21
502.739	10252.54
503.171	10347.59
503.603	10274.71
504.036	10270.82
504.468	10215
504.9	10225.53
505.332	10185.95
505.764	10105.46
506.196	10065.45
506.627	10099.58
507.059	10106.92
507.491	10104.95
507.923	9923.41
508.354	9936.99
508.786	9906.74
509.217	9941.57
509.649	9945.5
510.08	9991.28
510.512	9999.99
510.943	9999.41
511.374	9964.27
511.805	10003.8
512.237	10038.91
512.668	10200.62
513.099	10300.76
513.53	10381.33
513.961	10393.47
514.391	10496.93
514.822	10582.64
515.253	10707.24
515.684	10737.67
516.114	10798.7
516.545	10782.8
516.975	10803.71
517.406	10757.38
517.836	10607.07
518.267	10490.52
518.697	10458.11
519.127	10333.17
519.558	10241.84
519.988	10122.79
520.418	10056.57
520.848	10037.55
521.278	9965.31
521.708	9684.48
522.138	9650.06
522.567	9730.78
522.997	9769.8
523.427	9753.79
523.857	9740.73
524.286	9699.6
524.716	9688.27
525.145	9696.63
525.575	9670.25
526.004	9673.71
526.433	9788.09
526.863	9714.36
527.292	9576.9
527.721	9542.35
528.15	9523.17
528.579	9475
529.008	9486.78
529.437	9566.94
529.866	9594.6
530.295	9638.71
530.724	9647.19
531.152	9741.36
531.581	9763.09
532.01	9817.13
532.438	9822.49
532.867	9862.14
533.295	9923.31
533.723	9919.9
534.152	9873.71
534.58	9840.62
535.008	9729.49
535.436	9713.56
535.865	9733
536.293	9791.51
536.721	9854.5
537.149	9962.24
537.576	9954.27
538.004	10009.72
538.432	10044.41
538.86	10027.15
539.287	10062.41
539.715	10130.16
540.143	10155.2
540.57	10145.66
540.998	10141.34
541.425	10018.95
541.852	9934.55
542.28	9946.84
542.707	9886.22
543.134	9829.7
543.561	9826.28
543.988	9806.27
544.415	9830.14
544.842	9823.89
545.269	9801.79
545.696	9826.36
546.123	9932.28
546.549	9894.98
546.976	9842.11
547.403	9853.5
547.829	9887.77
548.256	9925.38
548.682	9924.17
549.108	9899.1
549.535	9918.6
549.961	9948.97
550.387	9894.98
550.813	9873.7
551.24	9925.99
551.666	9950.01
552.092	9912.91
552.518	9896
552.943	9870.38
553.369	9933.34
553.795	9982.48
554.221	9994.88
554.646	9991.26
555.072	10046.19
555.498	10087.77
555.923	10146.6
556.349	10233.8
556.774	10289.27
557.199	10299.75
557.625	10353.88
558.05	10320.68
558.475	10384.71
558.9	10383.52
559.325	10340.02
559.75	10319.77
560.175	10292.79
560.6	10268.84
561.025	10265.12
561.449	10278.27
561.874	10310.57
562.299	10323.25
562.723	10368.71
563.148	10305.59
563.572	10325.83
563.997	10381.26
564.421	10409.67
564.846	10405.78
565.27	10409.1
565.694	10387.37
566.118	10430.98
566.542	10453.49
566.966	10403.14
567.39	10353.52
567.814	10277.36
568.238	10266.07
568.662	10287.86
569.086	10297.65
569.509	10349.02
569.933	10270.66
570.357	10255.25
570.78	10168.91
571.204	10125.15
571.627	10111.65
572.05	10158.17
572.474	10213.36
572.897	10213.15
573.32	10236.95
573.743	10264.62
574.166	10227.19
574.589	10318.89
575.012	10353.95
575.435	10441.77
575.858	10480.69
576.281	10509.77
576.704	10510.34
577.126	10537.18
577.549	10557.72
577.972	10598.82
578.394	10621.66
578.817	10653.15
579.239	10624.88
579.661	10624.58
580.084	10590.84
580.506	10594.55
580.928	10656.99
581.35	10669.31
581.772	10718.02
582.194	10705.06
582.616	10686.85
583.038	10670.57
583.46	10685.84
583.882	10728.4
584.303	10833.19
584.725	10886.86
585.147	10919.45
585.568	11041.1
585.99	11161.86
586.411	11247.16
586.833	11391.2
587.254	11441.08
587.675	11585.12
588.096	11718.77
588.518	11719.17
588.939	11628.61
589.36	11643.29
589.781	11650.12
590.202	11442.11
590.623	11419.39
591.043	11436.2
591.464	11363.97
591.885	11350.14
592.305	11320.67
592.726	11221.49
593.147	11222.04
593.567	11173.31
593.987	11100.38
594.408	11040.88
594.828	11033.11
595.248	10945.3
595.669	10756.5
596.089	10661.59
596.509	10576.12
596.929	10417.64
597.349	10368.36
597.769	10242.19
598.189	10134.1
598.608	10088.44
599.028	10042.96
599.448	9989.45
599.867	9855
600.287	9794.15
600.706	9716.4
601.126	9602.93
601.545	9556.85
601.965	9522.19
602.384	9466.22
602.803	9473.66
603.222	9423.71
603.641	9375.15
604.061	9344.34
604.48	9326.32
604.898	9393.15
605.317	9450.88
605.736	9490.24
606.155	9495.12
606.574	9460.9
606.992	9533.83
607.411	9534.08
607.829	9528.53
608.248	9556.47
608.666	9593.01
609.085	9634.48
609.503	9618.56
609.921	9621.88
610.339	9687.76
610.758	9742.83
611.176	9765.66
611.594	9750.15
612.012	9783.51
612.43	9851.16
612.847	9950.91
613.265	9996.87
613.683	10085.7
614.101	10152.44
614.518	10187.34
614.936	10167.43
615.353	10106.3
615.771	10131.9
616.188	10188.05
616.606	10212.51
617.023	10213.33
617.44	10149.45
617.857	10158.23
618.274	10142.42
618.691	10132.45
619.108	10101.1
619.525	10094.04
619.942	10179.68
620.359	10232.68
620.776	10221.9
621.192	10207.88
621.609	10212.45
622.026	10281.98
622.442	10348.78
622.859	10394.02
623.275	10357.46
623.691	10416.16
624.108	10525.7
624.524	10663.71
624.94	10679.29
625.356	10775.64
625.772	10907.82
626.188	11024.84
626.604	11053.74
627.02	11034.08
627.436	11025.21
627.852	11087.37
628.268	11195.03
628.683	11140.32
629.099	11088.56
629.514	11076.43
629.93	11132.6
630.345	11198.18
630.761	11196.14
631.176	11259.15
631.591	11224.86
632.007	11210.26
632.422	11250.79
632.837	11206.5
633.252	11220.39
633.667	11184.22
634.082	11154.29
634.497	11096.26
634.911	10969.21
635.326	10999.7
635.741	10915.98
636.155	10913.89
636.57	10991.86
636.984	11066.62
637.399	11149.57
637.813	11244.74
638.228	11321.37
638.642	11464.82
639.056	11471.92
639.47	11592.25
639.884	11620.35
640.298	11671.16
640.712	11766.87
641.126	11766.07
641.54	11805.9
641.954	11901.07
642.368	11891.94
642.781	11905.85
643.195	11842.26
643.609	11965.41
644.022	12023.46
644.436	12098.39
644.849	12095.54
645.262	12089.29
645.676	12231.64
646.089	12279.55
646.502	12193.53
646.915	12240.83
647.328	12177.33
647.741	12245.66
648.154	12187.82
648.567	12202.18
648.98	12119.72
649.393	12198.62
649.805	12230.57
650.218	12215.35
650.631	12079.98
651.043	12076.72
651.456	12057.18
651.868	12121.93
652.28	12386.97
652.693	12590.23
653.105	12710.14
653.517	12843.31
653.929	12854.17
654.341	12946.44
654.753	12817.47
655.165	12959.83
655.577	12997.1
655.989	13029.83
656.401	13030.87
656.813	12644.57
657.224	12506.79
657.636	12302.46
658.047	12208.62
658.459	12106.37
658.87	12151.67
659.282	12148.65
659.693	11982.66
660.104	11900.39
660.515	11831.77
660.926	11926.45
661.338	12026.34
661.749	12066.68
662.159	12031.53
662.57	12106.36
662.981	12155.83
663.392	12148.42
663.803	12310.3
664.213	12398.18
664.624	12450.89
665.035	12607.8
665.445	12497.7
665.855	12459.81
666.266	12397.53
666.676	12446.39
667.086	12373.91
667.497	12413.35
667.907	12373.9
668.317	12281.37
668.727	12208.68
669.137	12267.94
669.547	12256.64
669.956	12333.49
670.366	12390.93
670.776	12437.15
671.186	12522.39
671.595	12575.82
672.005	12656.62
672.414	12629.42
672.824	12582.78
673.233	12710.96
673.642	12730.82
674.052	12751.39
674.461	12744.71
674.87	12810.2
675.279	12730.73
675.688	12751.29
676.097	12728.2
676.506	12640.62
676.915	12861.97
677.323	12884.85
677.732	12828.24
678.141	12793.2
678.549	12603.68
678.958	12571.96
679.366	12528.83
679.775	12590.17
680.183	12642.65
680.592	12687.28
681	12705.28
681.408	12507.35
681.816	12536.49
682.224	12576.78
682.632	12572.82
683.04	12873.39
683.448	13052.66
683.856	13250.4
684.264	13467.25
684.671	13650.75
685.079	13885.21
685.487	14137.46
685.894	14586.62
686.302	14845.03
686.709	14919.05
687.116	15068.54
687.524	15054.81
687.931	14971.33
688.338	14858.77
688.745	14717.28
689.152	14595.38
689.559	14554.11
689.966	14459.32
690.373	14139.85
690.78	13991.79
691.187	14037.48
691.593	13923.64
692	13760.28
692.407	13748.61
692.813	13809.63
693.22	13764.02
693.626	13758
694.032	13650.48
694.439	13734.53
694.845	13723.8
695.251	13809.81
695.657	13837.24
696.063	14074.17
696.469	14133.84
696.875	14159.67
697.281	14029.38
697.687	13934.54
698.093	13785.09
698.498	13840.46
698.904	13813.89
699.31	13934.58
699.715	13917.85
700.12	14068.41
700.526	13879.3
700.931	13962.9
701.337	13964.76
701.742	13898.11
702.147	14071.31
702.552	14009.88
702.957	14089.87
703.362	13999.97
703.767	13957.51
704.172	13978.98
704.577	13639
704.981	13690.45
705.386	13605.93
705.791	13437.63
706.195	13598.57
706.6	13502.4
707.004	13692.18
707.408	13452.7
707.813	13436.02
708.217	13269.96
708.621	13169.58
709.025	13420.62
709.43	13310.75
709.834	13423.87
710.237	13577.55
710.641	13423.16
711.045	13399.92
711.449	13279.26
711.853	13269.59
712.256	13320.5
712.66	13350.91
713.064	13491.16
713.467	13483.63
713.87	13680.85
714.274	13612.15
714.677	13710.63
715.08	13932.91
715.484	14137.2
715.887	14391.73
716.29	14632.02
716.693	14850.48
717.096	15150.38
717.499	15178.61
717.901	15014.69
718.304	14975.09
718.707	15031.47
719.109	14818.45
719.512	14838.07
719.915	14569.56
720.317	14528.01
720.719	14725.35
721.122	14713.8
721.524	14623.08
721.926	14510.74
722.328	14745.69
722.731	14617.33
723.133	14556.11
723.535	14920.78
723.937	14812.8
724.338	14809.13
724.74	14790.06
725.142	14421.07
725.544	14369.35
725.945	14368.88
726.347	14332.34
726.748	14284.28
727.15	14296.6
727.551	14165.01
727.952	14065.71
728.354	13973.05
728.755	13983.72
729.156	13920.29
729.557	14069.91
729.958	13824.84
730.359	13804.16
730.76	13866.89
731.161	13827.96
731.562	13875.96
731.962	14005.86
732.363	13936.9
732.763	13855.73
733.164	14031.08
733.564	13895.39
733.965	13661.73
734.365	13594.02
734.766	13683.62
735.166	13571.23
735.566	13397.39
735.966	13303.96
736.366	13268.42
736.766	13092.4
737.166	13180.18
737.566	13069.02
737.966	13000.38
738.365	13102.58
738.765	13073.66
739.165	12861.41
739.564	12789.38
739.964	12930.32
740.363	12822.11
740.763	12836.87
741.162	12811.47
741.561	12731.06
741.96	12612.61
742.36	12685.14
742.759	12715.81
743.158	12840.58
743.557	12896.89
743.955	13017.72
744.354	12889.53
744.753	13046.3
745.152	12921.13
745.55	13074.55
745.949	13049.43
746.348	13039.59
746.746	13064.81
747.144	12924.27
747.543	12837.14
747.941	12936.7
748.339	12710.99
748.737	12660.35
749.136	12600.33
749.534	12747.24
749.932	12629.39
750.33	12660.53
750.727	12779.53
751.125	12684.03
751.523	12620.06
751.921	12699.38
752.318	12578.62
752.716	12699.5
753.113	12705.39
753.511	12738.51
753.908	12701.11
754.305	12609.19
754.703	12731.7
755.1	12848.21
755.497	12955.28
755.894	13351.34
756.291	13599.31
756.688	14017.85
757.085	14433.74
757.482	14961.72
757.878	15369.2
758.275	15527.04
758.672	16065.36
759.068	16211.61
759.465	16672.5
759.861	17300.78
760.258	18006.07
760.654	17863.34
761.05	17106
761.447	16351.78
761.843	15691.63
762.239	15142.25
762.635	15228.47
763.031	15240.52
763.427	14929.61
763.822	14593.74
764.218	14311.82
764.614	13692.05
765.01	13440.46
765.405	13437.76
765.801	13505.21
766.196	13345.71
766.592	13404.16
766.987	13105.48
767.382	12959.56
767.778	13026.96
768.173	12936.2
768.568	12922.64
768.963	12740.27
769.358	12864.38
769.753	12816.4
770.148	12661.45
770.542	12697.8
770.937	12646.63
771.332	12878.25
771.726	12921.08
772.121	12748
772.515	12866.63
772.91	12823.91
773.304	12988.37
773.699	12820.89
774.093	12936.51
774.487	13045.28
774.881	13117.75
775.275	13074.98
775.669	12951
776.063	13033.17
776.457	13100.3
776.851	12895.37
777.245	12838.09
777.638	12875.96
778.032	13108.17
778.425	12982.43
778.819	13042.75
779.212	12908.29
779.606	12781.03
779.999	12792.12
780.392	12703.88
780.786	12854.77
781.179	12857.5
781.572	12916.66
781.965	12900.45
782.358	12721.64
782.751	12801.68
783.143	12641.38
783.536	12745.91
783.929	12780.08
784.322	12966.97
784.714	12971.97
785.107	12888.58
785.499	12972.15
785.891	12831.13
786.284	12693.32
786.676	12895.97
787.068	12744.01
787.46	12753.54
787.852	12701.16
788.245	12785.43
788.636	12751.72
789.028	12792.87
789.42	12781.38
789.812	12704.89
790.204	12823.25
790.595	12957.12
790.987	12511.9
791.378	12505.78
791.77	12713.67
792.161	12922.77
792.553	12971.27
792.944	12686.28
793.335	12489.49
793.726	12560.33
794.117	12680.06
794.508	12887
794.899	12777.18
795.29	12986.35
795.681	13041.21
796.072	12704.14
796.463	12268.19
796.853	12210.86
797.244	12435.76
797.634	12434.08
798.025	12367.67
798.415	12309.43
798.806	12381.84
799.196	12436.08
799.586	12422.73
799.976	12251.46
800.366	12556.08
800.756	12896.75
801.146	12739.81
801.536	12701.65
801.926	12743.26
802.316	12712.54
802.706	12765.02
803.095	12502.03
803.485	12616.08
803.874	12626.94
804.264	12993.37
804.653	12886.4
805.043	13052.58
805.432	13151.87
805.821	13069.83
806.21	13010.88
806.599	13088.72
806.988	13033.23
807.377	13064.16
807.766	13111.58
808.155	13377.2
808.544	12814.95
808.933	12661.57
809.321	12446.92
809.71	12669.42
810.098	12671.06
810.487	13055.72
810.875	13420.68
811.264	13143.63
811.652	13184.55
812.04	13026.71
812.428	12874.84
812.816	13403.67
813.204	13481.86
813.592	13688.93
813.98	13672.7
814.368	13215.26
814.756	13401.89
815.144	13033.34
815.531	13261.07
815.919	12987.85
816.306	13106.1
816.694	12683.85
817.081	12673.66
817.469	13002.91
817.856	13055.07
818.243	13364.76
818.63	13784.84
819.017	13384.1
819.404	13386.2
819.791	13585.35
820.178	13960.82
820.565	14031.46
820.952	14747.49
821.339	14193.54
821.725	14250.91
822.112	13460.9
822.498	13285.39
822.885	13271.24
823.271	13117.55
823.657	13487.58
824.044	13575.29
824.43	13717.62
824.816	13703.44
825.202	13278.45
825.588	14055.71
825.974	13919.25
826.36	14200.68
826.746	14071.33
827.132	14213.5
827.517	14041.81
827.903	13242.93
828.289	13127.71
828.674	12388.55
829.06	12218.83
829.445	12450.84
829.83	12658.95
830.216	12954.59
830.601	13154
830.986	12772.63
831.371	12619.65
831.756	12991
832.141	12637.03
832.526	12606.43
832.911	12794.62
833.295	12689.77
833.68	13024.38
834.065	12540.04
834.449	11849.14
834.834	11793.44
835.218	11790.01
835.603	12028.75
835.987	11842.68
836.371	12433.41
836.755	12326.05
837.139	12600.81
837.524	12741.39
837.908	12571.05
838.291	12577.95
838.675	12585.64
839.059	12694.18
839.443	12635.23
839.827	12418.99
840.21	12707.83
840.594	12539.64
840.977	12616.03
841.361	12527.58
841.744	12726.3
842.127	12558.7
842.511	12673.87
842.894	13029.99
843.277	13224.77
843.66	13534
844.043	13526.49
844.426	12918.04
844.809	12641.13
845.191	12612.3
845.574	12241.52
845.957	11931.96
846.339	11775.7
846.722	11324.99
847.104	11265.34
847.487	11052.22
847.869	10963.78
848.252	11041.88
848.634	11166.69
849.016	11242.32
849.398	11221.42
849.78	11663.72
850.162	11573.62
850.544	11715.86
850.926	11969.72
851.307	11766.86
851.689	11791.85
852.071	11923.77
852.452	11995.42
852.834	11870.19
853.215	12008.63
853.597	12013.74
853.978	12100.94
854.359	12289.29
854.741	11726.87
855.122	11687.23
855.503	11579.77
855.884	11697.55
856.265	11687.83
856.646	11747.76
857.026	11519.83
857.407	11455.65
857.788	11501.64
858.169	11605.86
858.549	11095.41
858.93	11376.38
859.31	11355.37
859.69	11406.74
860.071	11129.46
860.451	10958.02
860.831	10515.34
861.211	11072.21
861.591	11293.84
861.971	11215.21
862.351	11230.82
862.731	11320.68
863.111	11334.18
863.491	11360.25
863.87	11655.67
864.25	11686.42
864.629	11362.66
865.009	11493.3
865.388	11783.37
865.768	12509.5
866.147	12359.89
866.526	11612.06
866.905	11713.75
867.284	12356.72
867.663	11740.43
868.042	11253.16
868.421	11221.74
868.8	11405.26
869.179	11500.16
869.558	10816.87
869.936	9961.8
870.315	10119.27
870.693	10343.08
871.072	11120.12
871.45	10558.25
871.828	10645.05
872.207	11158.87
872.585	10948.74
872.963	11199.48
873.341	10783.55
873.719	10627.37
874.097	10452.89
874.475	10617.94
874.853	10827.48
875.23	10351.49
875.608	10765.35
875.986	11618.72
876.363	11080.15
876.741	11391
877.118	11071.43
877.495	11564.77
877.873	11700.78
878.25	12266.96
878.627	11712.93
879.004	11829.53
879.381	11717.24
879.758	11352.17
880.135	10529.77
880.512	11088.67
880.889	10743.72
881.265	10596.58
881.642	10471.48
882.019	10609.88
882.395	10381.13
882.772	10765.64
883.148	10261.91
883.524	10179.59
883.901	10078.31
884.277	10171
884.653	10056.73
885.029	10299.61
885.405	11358.4
885.781	11218.76
886.157	10710.05
886.532	10784.93
886.908	10725.7
887.284	11874.22
887.659	12230.55
888.035	12562.98
888.411	12849.15
888.786	12974.25
889.161	13368.47
889.537	13046.9
889.912	13396.14
890.287	13297.5
890.662	13534.28
891.037	13176.03
891.412	12174.77
891.787	11908.45
892.162	11350.47
892.536	11458
892.911	10858.52
893.286	10443.04
893.66	9850.45
894.035	9907.15
894.409	10573.45
894.784	9949.77
895.158	9928.51
895.532	10293.67
895.906	10357.77
896.281	10375.16
896.655	10006.55
897.029	11220.82
897.402	11503.67
897.776	12587.33
898.15	12370.15
898.524	12082.42
898.898	12097.97
899.271	13402.68
899.645	11538.8
900.018	11036.46
900.392	11456.68
900.765	11575.82
901.138	10778.25
901.511	10695.31
901.884	9942.21
902.258	9278.61
902.631	9717.69
903.003	11310.26
903.376	10310
903.749	11652.07
904.122	12553.45
904.495	13852.01
904.867	14005.03
905.24	12099.49
905.612	11173.82
905.985	11284.09
906.357	11626.38
906.729	10937.39
907.102	9216.46
907.474	8737.89
907.846	8676.71
908.218	8458.38
908.59	7414.8
908.962	7125.38
909.334	7632.61
909.705	7989.81
910.077	7736.08
910.449	8038.89
910.82	8230.36
911.192	9012.09
911.563	9344.05
911.935	9979.21
912.306	9953.56
912.677	10217.45
913.048	10061.73
913.419	10853.36
913.79	10836.9
914.161	11545.55
914.532	11002.23
914.903	10075.91
915.274	9553.05
915.645	9387.89
916.015	8243.07
916.386	7877.14
916.756	8416.33
917.127	8730.43
917.497	7867.61
917.868	8655.09
918.238	8307.82
918.608	8626.72
918.978	8890.02
919.348	9507.19
919.718	9914.75
920.088	9638.32
920.458	10092.95
920.828	10667
921.198	10140.4
921.567	10818.7
921.937	8356.76
922.306	8402.41
922.676	9025.74
923.045	7526.42
923.415	7121.27
923.784	6463
924.153	6627.27
924.522	6594.01
924.891	6165.05
925.26	6559.15
925.629	6345.88
925.998	7218.04
926.367	6983.99
926.736	6598.44
927.104	7720.26
927.473	8154.6
927.842	9625.99
928.21	9283.13
928.578	9470.44
928.947	8705.94
929.315	8511.06
929.683	9704.4
930.051	9476.34
930.42	10626.54
930.788	8725.6
931.156	8351.31
931.523	7587.09
931.891	6789.75
932.259	6331.07
932.627	7136.91
932.994	9823.54
933.362	7922.79
933.729	6730.92
934.097	6329.86
934.464	5292.84
934.831	6035.09
935.199	5930.58
935.566	5727.14
935.933	5764.71
936.3	7020.15
936.667	5502.12
937.034	5129.39
937.401	5163.32
937.767	4530.34
938.134	4145.74
938.501	5977.18
938.867	6566.93
939.234	11411.35
939.6	9993.8
939.967	11394.15
940.333	7805.87
940.699	6780.46
941.065	5424.23
941.431	7199.18
941.798	7101.43
942.163	9388.31
942.529	5863.23
942.895	5385.66
943.261	3486.92
943.627	4561.79
943.992	3990.51
944.358	3983.85
944.723	4009.65
945.089	3874.05
945.454	3566.06
945.82	3767.91
946.185	3589.54
946.55	4185.86
946.915	3769.95
947.28	4420.85
947.645	3892.96
948.01	3621.37
948.375	3780.56
948.74	4500.9
949.104	5276.25
949.469	7574.3
949.834	13318.43
950.198	12756.72
950.562	7644.67
950.927	6349.26
951.291	7575.45
951.655	6423.54
952.02	5937.6
952.384	4493.74
952.748	3937.07
953.112	3868.18
953.476	3369.4
953.839	3109.81
954.203	3082.87
954.567	3846.99
954.931	5987.17
955.294	5147.44
955.658	5186.17
956.021	8867.97
956.385	14965.59
956.748	22051.85
957.111	33841.5
957.474	37972.15
957.837	42671.45
958.2	31934.12
958.563	11493.77
958.926	7860.64
959.289	11968.95
959.652	13431.82
960.015	10137.2
960.377	14528.3
960.74	16561.73
961.102	28606.06
961.465	31153.37
961.827	17388.9
962.189	33676.46
962.552	23534.87
962.914	18882.12
963.276	12288.39
963.638	10176.38
964	10108.74
964.362	6922.61
964.724	6730.87
965.085	4845.09
965.447	3995.32
965.809	4444.31
966.17	4463.68
966.532	4853.8
966.893	4504.23
967.255	4157.12
967.616	4958.82
967.977	4029.51
968.338	4446.1
968.699	3730.61
969.061	3778.34
969.421	3841.13
969.782	4381.52
970.143	3772.44
970.504	3994.22
970.865	4604.17
971.225	4750.04
971.586	4677.76
971.946	6655.56
972.307	5782.9
972.667	7506.12
973.027	7760.29
973.388	9346.76
973.748	6355.44
974.108	6907.42
974.468	9169.24
974.828	7099.43
975.188	5410.81
975.548	4956.71
975.907	4161.63
976.267	4638.89
976.627	3947.39
976.986	4063.13
977.346	3907.99
977.705	3753.46
978.064	3408.37
978.424	2869.65
978.783	2944.38
979.142	3375.61
979.501	3263.08
979.86	3488.2
980.219	3387.06
980.578	4331.7
980.937	4897.08
981.296	4365.79
981.654	4528.01
982.013	7059.91
982.371	9216.92
982.73	8687.99
983.088	9925.63
983.447	10658.95
983.805	15325.37
984.163	32204.61
984.521	35964.46
984.879	52833.62
985.237	-86956.82
985.595	84619.33
985.953	21176.59
986.311	12247.39
986.669	7143.17
987.026	6183.61
987.384	8291.53
987.741	8523.68
988.099	6215.39
988.456	5001.06
988.814	4741.03
989.171	4126.64
989.528	4045.53
989.885	4291.43
990.242	3440.68
990.599	4277.31
990.956	3507.6
991.313	2481.76
991.67	2059.46
992.027	2233.78
992.383	1999.35
992.74	1765.48
993.096	1869.38
993.453	1952.48
993.809	2017.58
994.165	2681.05
994.522	2524.67
994.878	2806.02
995.234	3523.42
995.59	3487.94
995.946	3213.61
996.302	3670.57
996.658	4224.89
997.013	4654.01
997.369	5609.68
997.725	7297.54
998.08	4748.02
998.436	7135.02
998.791	9853.98
999.147	9848.35
999.502	10825.49
999.857	7876.88
1000.212	12830.54
1000.567	18396.44
1000.922	10625.16
1001.277	6703.07
1001.632	4982.51
1001.987	6462.63
1002.342	4672.86
1002.696	3759.74
1003.051	3047.9
1003.406	3714.94
1003.76	3722.17
1004.114	3671.41
1004.469	3105.58
1004.823	2581.09
1005.177	2779.29
1005.531	2219.47
1005.885	1987.63
1006.239	2262.75
1006.593	2876.27
1006.947	3848.03
1007.301	2873.92
1007.655	3138.87
1008.008	2333.21
1008.362	2618.15
1008.715	3753.17
1009.069	3434.58
1009.422	5218.64
1009.776	10392.32
1010.129	6941.85
1010.482	5752.75
1010.835	4837.19
1011.188	10103.92
1011.541	9549.82
1011.894	-58726.75
1012.247	175198.98
1012.6	11931.57
1012.952	7628.59
1013.305	3896.86
1013.657	2838
1014.01	2693.12
1014.362	2218.75
1014.715	2024.97
1015.067	1796.18
1015.419	1757.91
1015.771	1558.27
1016.123	1394.93
1016.475	1448.23
1016.827	1528.07
1017.179	1675.65
1017.531	1691.91
1017.883	1739.07
1018.234	1757.46
1018.586	2224.96
1018.938	2429.59
1019.289	3433.03
1019.64	3953.31
1019.992	3711.01
1020.343	3405.69
1020.694	2767.89
1021.045	2443.6
1021.396	2780.5
1021.747	3009.86
1022.098	3522.45
1022.449	2572.65
1022.8	2351.03
1023.151	1645.22
1023.501	1496.24
1023.852	1625.4
1024.202	1720.48
1024.553	1891.8
1024.903	1910.93
1025.253	1689.19
1025.604	1541.93
1025.954	1940.6
1026.304	2361.77
1026.654	2748.95
1027.004	4035.82
1027.354	6507.4
1027.703	6215.6
1028.053	8141.34
1028.403	12025.48
1028.753	17058.51
1029.102	22785.32
1029.452	115221.6
1029.801	4913.81
1030.15	3178.16
1030.499	2686.83
897.758	2778.16
901.051	2732.32
904.343	2768.38
907.636	2766.47
910.928	2832.48
914.22	2738.14
917.511	2746.28
920.803	2807.63
924.094	2831.97
927.384	2805.31
930.675	2767.19
933.965	2717.05
937.255	2723.14
940.544	2689.65
943.834	2617.95
947.123	2563.19
950.411	2662.07
953.7	2631.43
956.988	2597.97
960.276	2536.21
963.563	2621.16
966.851	2611.67
970.138	2673.92
973.424	2664.58
976.711	2612.37
979.997	2756.2
983.283	2786.62
986.568	2684.28
989.853	2708.44
993.138	2733.81
996.423	2813.41
999.708	2746.06
1002.992	2817.12
1006.275	2638.97
1009.559	2691.24
1012.842	2807.24
1016.125	2737.04
1019.408	2716
1022.69	2807.02
1025.972	2818.24
1029.254	2789.74
1032.536	2717.67
1035.817	2743.74
1039.098	2679.64
1042.379	2837.88
1045.659	2829.97
1048.939	2758.59
1052.219	2777.88
1055.498	2793.39
1058.778	2772.92
1062.057	2760.56
1065.335	2780.64
1068.614	2801.39
1071.892	2780.96
1075.17	2858.37
1078.447	2840.04
1081.724	2829.73
1085.001	2869.21
1088.278	2843.98
1091.554	2851.85
1094.83	2851.63
1098.106	2873.16
1101.382	2921.63
1104.657	2917.53
1107.932	2913.41
1111.206	2875.68
1114.481	2836.02
1117.755	2837.42
1121.029	2809.25
1124.302	2857.39
1127.575	2809.99
1130.848	2793.28
1134.121	2752.52
1137.393	2696.39
1140.665	2765.33
1143.937	2737.37
1147.208	2703.81
1150.48	2734.67
1153.75	2719.31
1157.021	2759.75
1160.291	2726.87
1163.561	2767.96
1166.831	2761.85
1170.101	2791.34
1173.37	2772.46
1176.639	2713.64
1179.907	2778.8
1183.176	2775.14
1186.444	2787.11
1189.711	2814.12
1192.979	2821.17
1196.246	2784.52
1199.513	2800.16
1202.78	2797.68
1206.046	2806.96
1209.312	2830.25
1212.578	2856.02
1215.843	2801.49
1219.108	2779.17
1222.373	2800.37
1225.638	2763.36
1228.902	2748.45
1232.166	2718.41
1235.43	2700.58
1238.693	2723.73
1241.956	2726.21
1245.219	2761.69
1248.482	2758.27
1251.744	2753.59
1255.006	2907.36
1258.268	2865.06
1261.529	2808.6
1264.79	2815.49
1268.051	2912.5
1271.312	2929.94
1274.572	2885.48
1277.832	2876.15
1281.092	2867.57
1284.351	2833.39
1287.61	2809.22
1290.869	2724.8
1294.128	2693.79
1297.386	2793.31
1300.644	2779.89
1303.902	2794.01
1307.159	2654.86
1310.416	2713.03
1313.673	2733.01
1316.93	2717.6
1320.186	2768.21
1323.442	2812.54
1326.697	2798.4
1329.953	2798.13
1333.208	2814.62
1336.463	2799.8
1339.717	2735.97
1342.972	2881.23
1346.226	2859.61
1349.479	2791.8
1352.733	2763.38
1355.986	2792.01
1359.238	2771.63
1362.491	2774.15
1365.743	2778.26
1368.995	2778.38
1372.247	2798.21
1375.498	2824.64
1378.749	2831.4
1382	2793.71
1385.251	2850.3
1388.501	2817.01
1391.751	2799.56
1395	2775.63
1398.25	2811.42
1401.499	2818.79
1404.748	2744
1407.996	2734.88
1411.244	2718.76
1414.492	2701.11
1417.74	2681.03
1420.987	2694.78
1424.234	2750.41
1427.481	2735.1
1430.728	2794.57
1433.974	2766.74
1437.22	2788.11
1440.465	2786.04
1443.711	2743
1446.956	2781.97
1450.201	2769.23
1453.445	2813.75
1456.689	2787.28
1459.933	2800.29
1463.177	2828.85
1466.42	2800.42
1469.663	2779.32
1472.906	2763.83
1476.148	2849.17
1479.391	2803.75
1482.633	2772.8
1485.874	2781.76
1489.115	2761.7
1492.356	2769.31
1495.597	2743.39
1498.838	2744.61
1502.078	2708.61
1505.318	2655.38
1508.557	2697.57
1511.797	2663.46
1515.036	2735.33
1518.274	2725.61
1521.513	2699.34
1524.751	2720.77
1527.989	2727.12
1531.227	2737.11
1534.464	2721.84
1537.701	2745.78
1540.938	2763.84
1544.174	2716.88
1547.41	2715.21
1550.646	2754.66
1553.882	2783.41
1557.117	2832.68
1560.352	2845.49
1563.587	2802.43
1566.821	2758.73
1570.055	2797.09
1573.289	2766.47
1576.523	2840.95
1579.756	2841.23
1582.989	2859.2
1586.222	2817.28
1589.454	2854.69
1592.686	2824.23
1595.918	2847.6
1599.15	2832.33
1602.381	2916.5
1605.612	2864.82
1608.843	2951.97
1612.073	2866.13
1615.303	2852.17
1618.533	2836.69
1621.762	2843.01
1624.992	2837
1628.221	2816.49
1631.449	2800.17
1634.678	2862.09
1637.906	2810.83
1641.134	2851.74
1644.361	2806
1647.588	2797.91
1650.815	2811.73
1654.042	2798.54
1657.269	2827.59
1660.495	2771.78
1663.72	2803.2
1666.946	2771
1670.171	2709.92
1673.396	2686.95
1676.621	2679.2
1679.845	2707.31
1683.069	2730.54
1686.293	2775.34
1689.517	2741.45
1692.74	2667.26
1695.963	2699.52
1699.185	2706.28
1702.408	2682.39
1705.63	2726.97
1708.852	2738.32
1712.073	2712.69
1715.294	2691.97
1718.515	2755.53
1721.736	2701.04
1724.956	2704.94
1728.176	2733.57
1731.396	2754.26
1734.616	2746.46
1737.835	2772.59
1741.054	2754.7
1744.272	2747.19
1747.491	2777.68
1750.709	2837.47
1753.927	2734.59
1757.144	2785.42
1760.361	2818.45
1763.578	2816.77
1766.795	2759.09
1770.011	2774.65
1773.227	2816.71
1776.443	2851.09
1779.658	2896.81
1782.874	2840.11
1786.089	2817.48
1789.303	2821.72
1792.518	2829.57
1795.732	2819.77
1798.945	2825.87
1802.159	2879.19
1805.372	2769.8
1808.585	2755.19
1811.797	2757.42
1815.01	2812.22
1818.222	2812.08
1821.434	2784.68
1824.645	2846.99
1827.856	2826.59
1831.067	2862.96
1834.278	2830.65
1837.488	2814.57
1840.698	2970.38
1843.908	2894.03
1847.117	2855.01
1850.326	2732.68
1853.535	2847.72
1856.744	2881.42
1859.952	2798.09
1863.16	2801.42
1866.368	2830.37
1869.575	2933.85
1872.782	2825.3
1875.989	2772.39
1879.196	2867.31
1882.402	2867.47
1885.608	2914.49
1888.814	2813.55
1892.019	2706.95
1895.224	2762.56
1898.429	2750.86
1901.634	2730.46
1904.838	2708.78
1908.042	2761.41
1911.246	2767.33
1914.449	2693.29
1917.652	2695.71
1920.855	2677.66
1924.058	2735.06
1927.26	2772.45
1930.462	2799.95
1933.664	2823.78
1936.865	2757.3
1940.066	2764.64
1943.267	2711.52
1946.467	2729.33
1949.668	2756.98
1952.868	2826.46
1956.067	2801.24
1959.267	2725.22
1962.466	2753.46
1965.665	2738.8
1968.863	2734.62
1972.061	2752.88
1975.259	2753.69
1978.457	2835.37
1981.654	2790.84
1984.852	2791.08
1988.048	2716.02
1991.245	2721.17
1994.441	2808.83
1997.637	2797.18
2000.833	2780.8
2004.028	2821.39
2007.223	2874.3
2010.418	2849.79
2013.613	2809.28
2016.807	2775.63
2020.001	2787.48
2023.194	2832.52
2026.388	2809.74
2029.581	2753.45
2032.774	2800.86
2035.966	2802.89
2039.158	2730.6
2042.35	2759.87
2045.542	2683.95
2048.733	2788.51
2051.924	2815.93
2055.115	2845.24
2058.306	2786.77
2061.496	2844.49
2064.686	2914.76
2067.875	2827.79
2071.065	2844.85
2074.254	2874.85
2077.442	2825.42
2080.631	2920.57
2083.819	2803.66
2087.007	2782.97
2090.195	2752.59
2093.382	2787.61
2096.569	2767.07
2099.756	2717.3
2102.942	2740.85
2106.128	2746.16
2109.314	2734.4
2112.5	2690.92
2115.685	2670.16
2118.87	2680.95
2122.055	2746.38
2125.239	2707.67
2128.424	2681
2131.608	2795.46
2134.791	2772.45
2137.974	2836.17
2141.157	2818.17
2144.34	2768.46
2147.523	2788.88
2150.705	2796.22
2153.887	2778.76
2157.068	2725.31
2160.25	2731.52
2163.431	2773
2166.611	2711.91
2169.792	2728.01
2172.972	2616.3
2176.152	2703.37
2179.331	2739.95
2182.511	2718.8
2185.69	2751.03
2188.868	2740.81
2192.047	2804.94
2195.225	2788.36
2198.403	2741.44
2201.58	2733.21
2204.758	2731.3
2207.935	2817.61
2211.111	2699.13
2214.288	2683.24
2217.464	2724.64
2220.64	2697.45
2223.815	2759.1
2226.991	2673.55
2230.166	2693.84
2233.34	2717.57
2236.515	2748.85
2239.689	2826.99
2242.863	2768.8
2246.036	2826.49
2249.209	2830.36
2252.382	2868.83
2255.555	2853.27
2258.727	2785.21
2261.9	2829.52
2265.071	2822.46
2268.243	2829.53
2271.414	2754.58
2274.585	2710.02
2277.756	2781.1
2280.926	2738
2284.096	2779.27
2287.266	2680.65
2290.436	2738.57
2293.605	2769.85
2296.774	2800.32
2299.942	2827.63
2303.111	2840.43
2306.279	2893.93
2309.447	2878.98
2312.614	2853.08
2315.781	2870.81
2318.948	2842.53
2322.115	2882.3
2325.281	2784.68
2328.447	2805.35
2331.613	2781.54
2334.779	2748.45
2337.944	2756.58
2341.109	2750.46
2344.274	2733.44
2347.438	2699.5
2350.602	2726.15
2353.766	2741.56
2356.929	2725.69
2360.092	2770.05
2363.255	2720.27
2366.418	2644.78
2369.58	2768.5
2372.742	2533.6
2375.904	2553.72
2379.066	2528.54
2382.227	2565.99
2385.388	2526.33
2388.548	2450.26
2391.709	2509.65
2394.869	2484.89
2398.029	2592.73
2401.188	2612.78
2404.347	2540.17
2407.506	2698.62
2410.665	2724.98
2413.823	2734.43
2416.981	2686.78
2420.139	2724.67
2423.296	2772.83
2426.453	2747.7
2429.61	2773.52
2432.767	2699.24
2435.923	2734.97
2439.079	2692.66
2442.235	2742.94
2445.391	2668.9
2448.546	2696.15
2451.701	2750.04
2454.855	2714.82
2458.009	2775.9
2461.163	2782.3
2464.317	2734.1
2467.471	2770.76
2470.624	2811.73
2473.777	2788.21
2476.929	2804.9
2480.082	2827.87
2483.234	2791.13
2486.385	2746.28
2489.537	2737.54
2492.688	2693.42
2495.839	2707.91
2498.989	2722.2
2502.14	2704.66
2505.29	2684.97
2508.439	2711.65
2511.589	2628.39
2514.738	2644.81
2517.887	2677.69
2521.035	2738.61
2524.183	2727.32
2527.331	2707.18
2530.479	2676.92
2533.627	2689.35
