Data from N_3_HIR_IL_4N_Splice17_13-40-49-839.txt Node
Date: Sat Mar 14 13:40:49 EDT 2020
User: sa697716
Spectrometer: FLMS03696
Trigger mode: 0
Integration Time (sec): 3.180400E-1
Scans to average: 20
Electric dark correction enabled: true
Nonlinearity correction enabled: true
Boxcar width: 5
XAxis mode: Wavelengths
Number of Pixels in Spectrum: 2048
>>>>>Begin Spectral Data<<<<<
187.83	-496993.25
188.298	3641.92
188.766	1933.89
189.233	1811.63
189.701	2498.68
190.169	3431.2
190.636	1233.56
191.104	1023.63
191.571	130.68
192.039	-78.46
192.506	-89.03
192.974	665.3
193.441	-801.58
193.908	-164.07
194.375	-46.83
194.842	77.33
195.31	141.88
195.777	157.35
196.244	444.4
196.711	500.46
197.177	643.81
197.644	929.02
198.111	1627.24
198.578	2263.94
199.045	1837
199.511	3024.64
199.978	3481.97
200.445	2966.69
200.911	3282.36
201.378	3636.86
201.844	3278.01
202.31	5589.18
202.777	5844.86
203.243	3259.87
203.709	3108.82
204.176	3684.85
204.642	3050.29
205.108	2854.84
205.574	2335.93
206.04	2111.64
206.506	1983.21
206.972	1877.54
207.438	1818.81
207.903	2049.92
208.369	1789.5
208.835	1767.91
209.301	1869.53
209.766	1891.81
210.232	1859.56
210.697	2290.77
211.163	2824.11
211.628	4265.44
212.094	3561.33
212.559	4375.15
213.024	2726.85
213.49	3333.58
213.955	3257.37
214.42	3151.5
214.885	2954.13
215.35	2843.96
215.815	2766.48
216.28	2944.42
216.745	2377.64
217.21	2577.05
217.675	2337.72
218.14	2601.39
218.604	2875.57
219.069	3278.02
219.534	3436.63
219.998	3955.76
220.463	4756.74
220.927	5777.49
221.392	5409.48
221.856	5486.17
222.32	6877.05
222.785	8488.63
223.249	10683.16
223.713	11911.54
224.177	11889.59
224.642	15181
225.106	18683.96
225.57	20411.05
226.034	15207.14
226.497	23161.68
226.961	20907.14
227.425	24351.3
227.889	26963.68
228.353	26970.17
228.816	55669.65
229.28	53151.94
229.744	44811.06
230.207	27259.02
230.671	26797.83
231.134	44215.89
231.597	51008.21
232.061	50913.1
232.524	49574.37
232.987	34125.86
233.45	30679.37
233.914	27430.36
234.377	28092.83
234.84	25678.6
235.303	30189.44
235.766	33651.49
236.229	34770.26
236.691	21843.9
237.154	24533.82
237.617	18450.28
238.08	18881.58
238.542	22081.49
239.005	15801.78
239.468	15663.79
239.93	14757.32
240.393	13402.34
240.855	11760.42
241.317	12017.45
241.78	14612.5
242.242	15109.28
242.704	16342.7
243.166	14218.74
243.629	12947.62
244.091	14924.91
244.553	16378.3
245.015	17595.97
245.477	22768.77
245.939	33360.57
246.4	35447.41
246.862	34442.01
247.324	32435.29
247.786	36210.68
248.247	47525.12
248.709	48915.07
249.17	36564.76
249.632	34486.33
250.093	40050.29
250.555	34611.28
251.016	21145.66
251.477	20061.46
251.939	21683.42
252.4	22757.43
252.861	27071.51
253.322	25182.69
253.783	29980.89
254.244	38885.75
254.705	30616.37
255.166	27224.89
255.627	26792.23
256.088	37785.3
256.549	40142.03
257.009	34540.37
257.47	41884.73
257.931	34108.31
258.391	25541.45
258.852	26350.99
259.312	27613.76
259.773	34130.1
260.233	28857.02
260.694	24356.26
261.154	27596.42
261.614	22176.55
262.074	19826.22
262.534	20627.48
262.994	19455.51
263.455	25939.79
263.915	21831.8
264.374	20583.76
264.834	22473.93
265.294	24900.88
265.754	25812.57
266.214	24418.08
266.673	22859.94
267.133	28865.28
267.593	28625.17
268.052	35016.15
268.512	30429.57
268.971	36738.76
269.431	40278.16
269.89	36049.96
270.349	54077.81
270.809	60302.78
271.268	54313.7
271.727	121764.77
272.186	78896.45
272.645	59198.71
273.104	42701.91
273.563	61843.49
274.022	48596.1
274.481	41361.17
274.94	31876.78
275.399	23659.29
275.857	27548.69
276.316	37202.36
276.775	33155.4
277.233	32668.38
277.692	30619.92
278.15	34677.41
278.609	35720.91
279.067	33067.36
279.525	30728.63
279.984	39672.67
280.442	47701.67
280.9	47020.11
281.358	30961.97
281.816	28830.17
282.274	28223.54
282.732	29088.94
283.19	29188.88
283.648	25182.5
284.106	26822.73
284.564	27243.38
285.021	25286.91
285.479	18814.79
285.937	17095.03
286.394	14993.64
286.852	15429.71
287.309	16179.72
287.767	15657.43
288.224	14877.84
288.682	16296.91
289.139	17875.23
289.596	16344.99
290.053	16960.14
290.511	21388.06
290.968	25944.43
291.425	35202.36
291.882	29297.02
292.339	25510.93
292.796	25270.11
293.252	23798.24
293.709	18915.48
294.166	16951.86
294.623	18743.08
295.079	17983.17
295.536	18097.27
295.992	16404.14
296.449	16212.92
296.905	16830.12
297.362	16136.97
297.818	16948.12
298.274	17611.02
298.731	17911.57
299.187	17683.55
299.643	18950.16
300.099	22902.49
300.555	25089.61
301.011	20970.99
301.467	20247.06
301.923	23664.93
302.379	23116.6
302.835	22720.35
303.291	22699.44
303.746	25826.39
304.202	32648.59
304.658	32806.02
305.113	22065.31
305.569	21609.88
306.024	22990.06
306.479	21833.84
306.935	18422.82
307.39	20060.37
307.845	18489.07
308.301	18627.29
308.756	18110.95
309.211	17455.94
309.666	17892.8
310.121	22218.61
310.576	22519.08
311.031	22363.73
311.486	25572.04
311.94	25506.32
312.395	34165.04
312.85	64203.1
313.305	314970.58
313.759	1636331.98
314.214	118693.38
314.668	93921.26
315.123	78957.86
315.577	28310.32
316.032	25168.36
316.486	31529.71
316.94	24874.39
317.394	17315.15
317.849	13466.02
318.303	12727.68
318.757	11990.16
319.211	13223.09
319.665	11580.03
320.119	11699.27
320.572	16756.89
321.026	15640.98
321.48	13014.32
321.934	14195.8
322.387	14201.31
322.841	15332.44
323.295	13823.38
323.748	15908.4
324.202	16158.53
324.655	19389.45
325.108	27124.57
325.562	19186.12
326.015	22821.22
326.468	17249.47
326.921	19281
327.374	17982.81
327.827	18747.71
328.28	21224.15
328.733	14225.67
329.186	12490.85
329.639	11898.25
330.092	10017.56
330.545	9528.43
330.997	9604.33
331.45	10522.49
331.903	12343.53
332.355	21213.12
332.808	20586.76
333.26	16926.12
333.713	18414.54
334.165	18534.61
334.617	24700.12
335.069	19945.53
335.522	36030.54
335.974	39905
336.426	36327.83
336.878	25113.37
337.33	12747.61
337.782	12428.54
338.234	15611.08
338.686	18642.02
339.137	22071.37
339.589	20792.28
340.041	16294.84
340.493	13995
340.944	14331.22
341.396	15471.76
341.847	13027.97
342.299	15384.99
342.75	18800.28
343.201	16384.48
343.653	18813.34
344.104	23128.77
344.555	18210.19
345.006	28306.53
345.457	21767.98
345.908	17284.23
346.359	16241.2
346.81	13218.18
347.261	13906.95
347.712	13675.48
348.163	14642.87
348.613	14860.87
349.064	13868.95
349.515	12130
349.965	12439.71
350.416	14938.31
350.866	16392.03
351.317	18502.89
351.767	30611.12
352.217	38680.25
352.668	32095.81
353.118	29431.48
353.568	28288.4
354.018	22390.67
354.468	23634.91
354.918	16946.16
355.368	14856.24
355.818	20998.48
356.268	60351.91
356.718	253313.34
357.168	63143.34
357.617	31653.97
358.067	35109.32
358.517	32917.93
358.966	38583.37
359.416	43319.71
359.865	46751.31
360.315	55429.76
360.764	25832.61
361.213	14485.1
361.663	13672.37
362.112	16848.22
362.561	27247.6
363.01	20630.59
363.459	17345.36
363.908	18742.61
364.357	15897.21
364.806	26892.42
365.255	18538.09
365.703	17019.73
366.152	17035.36
366.601	13819.72
367.05	11214.07
367.498	10170.83
367.947	10590.15
368.395	11013.33
368.844	9775.91
369.292	11776.23
369.74	8132.13
370.189	12429.27
370.637	14522.59
371.085	12526.22
371.533	15212.25
371.981	14626.02
372.429	14000.97
372.877	14538.68
373.325	12159.33
373.773	12350.8
374.221	10971.73
374.669	13619.82
375.116	11754.82
375.564	11864.28
376.012	13237.18
376.459	10934.17
376.907	13072.14
377.354	15743.85
377.801	14746.81
378.249	16943.49
378.696	21647.49
379.143	26180.82
379.591	27792.54
380.038	47046.8
380.485	34007.96
380.932	36726.41
381.379	33604.9
381.826	24797.26
382.273	17611.69
382.72	15317.76
383.166	14962.28
383.613	9698.08
384.06	8758.83
384.506	10146.05
384.953	7451.23
385.4	7488.4
385.846	6553.33
386.292	6363.51
386.739	6201.33
387.185	6113.8
387.631	6129.11
388.078	5947.07
388.524	6352.24
388.97	5870.96
389.416	4903.09
389.862	5211.96
390.308	4928.68
390.754	5010.22
391.2	5442.49
391.645	5578.94
392.091	5384.16
392.537	5207.6
392.983	5206.73
393.428	5149.97
393.874	5513.29
394.319	5543.95
394.765	5268.85
395.21	5410.42
395.655	5074.25
396.101	4757.23
396.546	4299.52
396.991	4314.74
397.436	4007.98
397.881	3873.5
398.326	3656.99
398.771	3465.66
399.216	3029.6
399.661	2726.83
400.106	2728.08
400.551	2805.33
400.995	2524.21
401.44	2496.55
401.885	2348.18
402.329	2379.82
402.774	2288.98
403.218	2233.91
403.663	2158.5
404.107	2221.66
404.551	2245.94
404.995	2061.37
405.44	1982.97
405.884	2013.73
406.328	1948.36
406.772	1944.61
407.216	1774.55
407.66	1713.02
408.104	1615.66
408.547	1511.27
408.991	1464.88
409.435	1408.95
409.879	1395.36
410.322	1381.12
410.766	1339.37
411.209	1278.14
411.653	1231.18
412.096	1207.24
412.54	1211.11
412.983	1209.86
413.426	1217.83
413.869	1215.55
414.312	1197.56
414.756	1153.08
415.199	1100.28
415.642	1067.09
416.085	1071.96
416.527	1066.4
416.97	1085.33
417.413	1030.25
417.856	1017.96
418.298	1005.22
418.741	998.82
419.184	992.85
419.626	1031.05
420.069	1030.07
420.511	1037.3
420.953	1016.69
421.396	1007.76
421.838	978.41
422.28	1002.57
422.722	1010.17
423.164	1026.02
423.606	1011.68
424.048	1010.08
424.49	963.89
424.932	961.35
425.374	947.22
425.816	959.65
426.258	978.18
426.699	992.4
427.141	977.61
427.582	989.32
428.024	982.41
428.465	973.52
428.907	951.63
429.348	937.83
429.789	940.68
430.231	922.82
430.672	937.15
431.113	912.6
431.554	898.21
431.995	874.58
432.436	847.52
432.877	833.01
433.318	822.37
433.759	816.38
434.2	819.21
434.64	809.19
435.081	811.52
435.522	768.72
435.962	739.9
436.403	726.15
436.843	734.12
437.284	715.59
437.724	692.57
438.164	690.39
438.604	675.3
439.045	648
439.485	622.29
439.925	606.99
440.365	591.41
440.805	582.7
441.245	576.02
441.685	556.48
442.125	550.44
442.564	553.19
443.004	541.45
443.444	541.76
443.883	544.78
444.323	538.01
444.762	538.74
445.202	545.22
445.641	558.02
446.081	551.23
446.52	555.77
446.959	555.19
447.398	544.62
447.837	540.55
448.276	530.29
448.716	534.04
449.154	540.06
449.593	528.97
450.032	529.57
450.471	517.2
450.91	517.95
451.349	519.5
451.787	515.38
452.226	522.1
452.664	520.56
453.103	520.56
453.541	519.07
453.98	519.06
454.418	521.56
454.856	514.43
455.295	513.98
455.733	518.64
456.171	519.29
456.609	518
457.047	517.51
457.485	526.09
457.923	528.67
458.361	521.27
458.798	521.92
459.236	519.99
459.674	520.51
460.111	522.86
460.549	519.33
460.987	515.81
461.424	514.56
461.862	511.46
462.299	503.01
462.736	502.41
463.173	503.89
463.611	502.4
464.048	502.27
464.485	507.73
464.922	503.17
465.359	498.33
465.796	500.89
466.233	498.33
466.67	495.79
467.106	495.3
467.543	490.3
467.98	484.66
468.416	468.44
468.853	463.41
469.29	447.8
469.726	442.94
470.162	431.28
470.599	417.51
471.035	412.6
471.471	401.14
471.907	397.46
472.344	394.34
472.78	395.83
473.216	400.41
473.652	396.67
474.088	396.01
474.523	396.09
474.959	400.96
475.395	398.87
475.831	397.61
476.266	400.41
476.702	399.4
477.138	394.84
477.573	393.11
478.008	391.85
478.444	394.11
478.879	399.86
479.314	402.45
479.75	402.08
480.185	404.09
480.62	406.79
481.055	408.36
481.49	412.02
481.925	418.38
482.36	427.57
482.795	439.16
483.229	449.96
483.664	458.46
484.099	458.68
484.534	465.63
484.968	470.55
485.403	472.4
485.837	471.75
486.271	470.69
486.706	470.62
487.14	463.85
487.574	457.85
488.009	454.3
488.443	450.19
488.877	456.14
489.311	457.81
489.745	462.65
490.179	467.81
490.613	478.62
491.046	482.67
491.48	487.19
491.914	488.23
492.348	491.87
492.781	494.89
493.215	496.89
493.648	497.25
494.082	501.78
494.515	503.39
494.948	509.9
495.382	512.57
495.815	516.83
496.248	522.49
496.681	533.01
497.114	541.96
497.547	551.6
497.98	563.4
498.413	570.63
498.846	579.48
499.279	587.68
499.711	591.57
500.144	596.11
500.577	607.59
501.009	618.16
501.442	628.96
501.874	633.48
502.306	637.51
502.739	647.85
503.171	661.71
503.603	666.56
504.036	676.05
504.468	684.49
504.9	696.53
505.332	704.12
505.764	710.08
506.196	718.66
506.627	732.6
507.059	746.63
507.491	753.81
507.923	755.84
508.354	772.02
508.786	785.47
509.217	803.21
509.649	818.59
510.08	836.97
510.512	854.81
510.943	870.25
511.374	883.91
511.805	904.53
512.237	925.78
512.668	956.82
513.099	984.18
513.53	1010.56
513.961	1033.07
514.391	1064.05
514.822	1099.43
515.253	1135.67
515.684	1163.38
516.114	1194.17
516.545	1217.91
516.975	1245.14
517.406	1266.17
517.836	1273.14
518.267	1284.56
518.697	1306.09
519.127	1316.88
519.558	1326.86
519.988	1334.75
520.418	1348.8
520.848	1369.19
521.278	1381.19
521.708	1423.38
522.138	1440.8
522.567	1473.77
522.997	1501.83
523.427	1519.29
523.857	1538.3
524.286	1552.05
524.716	1569.9
525.145	1591.96
525.575	1606.24
526.004	1623.79
526.433	1601.33
526.863	1603.95
527.292	1599.05
527.721	1607.55
528.15	1617.33
528.579	1621.45
529.008	1635.59
529.437	1660.31
529.866	1675.35
530.295	1694.56
530.724	1710.09
531.152	1739.31
531.581	1755.33
532.01	1774.14
532.438	1785.04
532.867	1801.51
533.295	1821.84
533.723	1828.45
534.152	1828.48
534.58	1830.59
535.008	1816.92
535.436	1820.47
535.865	1828.68
536.293	1844.06
536.721	1860.29
537.149	1886.96
537.576	1890.04
538.004	1903.15
538.432	1911.5
538.86	1910.9
539.287	1918.02
539.715	1931.22
540.143	1933
540.57	1929.51
540.998	1925.69
541.425	1904.25
541.852	1882.94
542.28	1881.78
542.707	1864.88
543.134	1852.3
543.561	1849.23
543.988	1842.55
544.415	1843.54
544.842	1840.27
545.269	1834.79
545.696	1839.09
546.123	1852.22
546.549	1842.89
546.976	1830.67
547.403	1832.21
547.829	1835.27
548.256	1837.55
548.682	1835.4
549.108	1829.52
549.535	1830.07
549.961	1833.01
550.387	1820
550.813	1816.13
551.24	1823.58
551.666	1826.68
552.092	1819.35
552.518	1813.84
552.943	1809.77
553.369	1819.49
553.795	1826.35
554.221	1828.05
554.646	1826.04
555.072	1838.99
555.498	1844.66
555.923	1855.16
556.349	1871.53
556.774	1879.79
557.199	1881.69
557.625	1888.39
558.05	1881.89
558.475	1892.59
558.9	1893.1
559.325	1885.6
559.75	1879.66
560.175	1874.49
560.6	1867.98
561.025	1866.17
561.449	1867.96
561.874	1874.28
562.299	1879.01
562.723	1887.19
563.148	1877.45
563.572	1880.75
563.997	1891.34
564.421	1896.17
564.846	1895.14
565.27	1899.25
565.694	1896.6
566.118	1908.55
566.542	1916.35
566.966	1908.6
567.39	1902.51
567.814	1890.61
568.238	1889.74
568.662	1893.28
569.086	1894.5
569.509	1901.4
569.933	1883.7
570.357	1874.87
570.78	1852.19
571.204	1838.45
571.627	1826.73
572.05	1824.74
572.474	1824.44
572.897	1810.04
573.32	1802.34
573.743	1792.64
574.166	1773.59
574.589	1774.03
575.012	1766.87
575.435	1765.88
575.858	1756.27
576.281	1745.63
576.704	1728.34
577.126	1715.61
577.549	1706.25
577.972	1695.33
578.394	1685.04
578.817	1680.31
579.239	1661.39
579.661	1646.88
580.084	1631.42
580.506	1618.3
580.928	1613.93
581.35	1604.04
581.772	1599.75
582.194	1586.46
582.616	1575.41
583.038	1560.72
583.46	1548.43
583.882	1545.77
584.303	1551.06
584.725	1546.59
585.147	1551.35
585.568	1562.73
585.99	1575.9
586.411	1582.85
586.833	1597.38
587.254	1598.2
587.675	1613.2
588.096	1626.72
588.518	1621.5
588.939	1604.31
589.36	1601.75
589.781	1587.33
590.202	1558.85
590.623	1548.72
591.043	1545.68
591.464	1531.08
591.885	1527.68
592.305	1521.56
592.726	1506.34
593.147	1507.02
593.567	1501.79
593.987	1493.54
594.408	1487.82
594.828	1483.97
595.248	1478.69
595.669	1459.41
596.089	1453.48
596.509	1445.59
596.929	1431.2
597.349	1432.35
597.769	1423.23
598.189	1416.41
598.608	1417.22
599.028	1419.34
599.448	1419.61
599.867	1405.18
600.287	1401.22
600.706	1396.75
601.126	1388.6
601.545	1388.15
601.965	1387.62
602.384	1381.13
602.803	1383.67
603.222	1379.57
603.641	1371.84
604.061	1368.78
604.48	1365.3
604.898	1373.02
605.317	1377.69
605.736	1378.09
606.155	1374.06
606.574	1363.04
606.992	1368.16
607.411	1362.81
607.829	1352.63
608.248	1349.86
608.666	1345.56
609.085	1344.23
609.503	1335.2
609.921	1328.5
610.339	1329.69
610.758	1327.82
611.176	1322.33
611.594	1312.93
612.012	1307.38
612.43	1311.01
612.847	1315.24
613.265	1316.85
613.683	1320.38
614.101	1320.97
614.518	1315.33
614.936	1304.45
615.353	1289.4
615.771	1286.05
616.188	1285.37
616.606	1281.97
617.023	1274.54
617.44	1260.98
617.857	1252.12
618.274	1242.6
618.691	1235.26
619.108	1225.34
619.525	1218.89
619.942	1225.11
620.359	1226.63
620.776	1219.62
621.192	1216.69
621.609	1213.71
622.026	1219.68
622.442	1225.17
622.859	1228.33
623.275	1220.86
623.691	1226.41
624.108	1236.27
624.524	1249.07
624.94	1249.52
625.356	1260.27
625.772	1271.04
626.188	1282.42
626.604	1283.48
627.02	1278.89
627.436	1276.28
627.852	1284.4
628.268	1294.86
628.683	1286.08
629.099	1278.22
629.514	1272.36
629.93	1275.22
630.345	1280.05
630.761	1274.83
631.176	1278.47
631.591	1273.52
632.007	1268.04
632.422	1264.16
632.837	1253.13
633.252	1250.77
633.667	1240.82
634.082	1231.05
634.497	1218.45
634.911	1199.16
635.326	1194.57
635.741	1176.35
636.155	1164.63
636.57	1164.45
636.984	1163.04
637.399	1165.23
637.813	1162.98
638.228	1159.68
638.642	1162.98
639.056	1149.82
639.47	1146.52
639.884	1137.63
640.298	1129.59
640.712	1127.71
641.126	1113.16
641.54	1101.72
641.954	1091.47
642.368	1077.92
642.781	1068.4
643.195	1048.5
643.609	1047.54
644.022	1040.12
644.436	1032.84
644.849	1018.13
645.262	1002.91
645.676	1001.93
646.089	994.59
646.502	980.33
646.915	972.72
647.328	954.66
647.741	950.06
648.154	934.86
648.567	931.2
648.98	918.21
649.393	916.89
649.805	913.33
650.218	904.91
650.631	890.41
651.043	881.95
651.456	875.65
651.868	874.39
652.28	888.56
652.693	899.34
653.105	901.27
653.517	907.34
653.929	906.48
654.341	908.08
654.753	894.95
655.165	896.91
655.577	893.56
655.989	887.87
656.401	877.98
656.813	845.02
657.224	825.32
657.636	797.95
658.047	780.82
658.459	761.35
658.87	750.3
659.282	736.83
659.693	718.27
660.104	702.05
660.515	686.93
660.926	681.93
661.338	675.07
661.749	666.19
662.159	657.16
662.57	648.78
662.981	641.73
663.392	633.17
663.803	633.51
664.213	627.37
664.624	620.81
665.035	619.25
665.445	606.52
665.855	599.91
666.266	592.24
666.676	587.14
667.086	578.01
667.497	575.7
667.907	568.74
668.317	560.15
668.727	558.13
669.137	557.01
669.547	553.97
669.956	553.54
670.366	553.13
670.776	552.01
671.186	553.09
671.595	555.45
672.005	555.75
672.414	555.17
672.824	553.83
673.233	554.14
673.642	554.99
674.052	557.21
674.461	558.86
674.87	561.53
675.279	560.67
675.688	561.37
676.097	562.7
676.506	561.39
676.915	571.83
677.323	574.12
677.732	573.45
678.141	573.94
678.549	567.71
678.958	567.82
679.366	567.92
679.775	572
680.183	584.03
680.592	590.37
681	596.36
681.408	593.5
681.816	600.95
682.224	610.57
682.632	622.45
683.04	647.92
683.448	671.05
683.856	700.68
684.264	734.38
684.671	762.96
685.079	799.99
685.487	842.51
685.894	900.66
686.302	950.66
686.709	994.29
687.116	1045.8
687.524	1091.23
687.931	1132.82
688.338	1167.99
688.745	1198.53
689.152	1235.14
689.559	1281.2
689.966	1328.7
690.373	1354.61
690.78	1400.02
691.187	1464.12
691.593	1515.21
692	1559.46
692.407	1621.45
692.813	1700.78
693.22	1764.77
693.626	1829.35
694.032	1883.72
694.439	1962.29
694.845	2024.64
695.251	2103.01
695.657	2173.21
696.063	2273.68
696.469	2351.2
696.875	2424.7
697.281	2467.33
697.687	2520.48
698.093	2566.51
698.498	2645.55
698.904	2707.69
699.31	2802.81
699.715	2872.08
700.12	2968.73
700.526	2990.18
700.931	3064.47
701.337	3121.4
701.742	3157.95
702.147	3245.35
702.552	3278.84
702.957	3343.99
703.362	3368.47
703.767	3398.45
704.172	3439.29
704.577	3392.51
704.981	3443.95
705.386	3461.19
705.791	3454.87
706.195	3533.71
706.6	3543.91
707.004	3626.66
707.408	3594.79
707.813	3622.6
708.217	3611.45
708.621	3613.96
709.025	3714.2
709.43	3715.09
709.834	3778.87
710.237	3849.62
710.641	3830.88
711.045	3855.72
711.449	3850.37
711.853	3883.51
712.256	3926.55
712.66	3963.98
713.064	4042.54
713.467	4087.93
713.87	4204.09
714.274	4251.64
714.677	4366.52
715.08	4536.39
715.484	4707.17
715.887	4916.48
716.29	5118.05
716.693	5331.6
717.096	5577.38
717.499	5709.2
717.901	5735.51
718.304	5761.8
718.707	5785.35
719.109	5677.52
719.512	5643.91
719.915	5506.02
720.317	5447.19
720.719	5490.57
721.122	5458.73
721.524	5407.59
721.926	5366.43
722.328	5464.91
722.731	5454.32
723.133	5482.54
723.535	5679.87
723.937	5700.08
724.338	5751.04
724.74	5791.83
725.142	5750.45
725.544	5750.24
725.945	5782.49
726.347	5777.61
726.748	5768.45
727.15	5783.16
727.551	5745.83
727.952	5715.41
728.354	5683.26
728.755	5683.05
729.156	5638.25
729.557	5600.86
729.958	5473.06
730.359	5411.64
730.76	5392.92
731.161	5331.44
731.562	5304.26
731.962	5304.59
732.363	5238.27
732.763	5172.66
733.164	5207.15
733.564	5139.51
733.965	5043.39
734.365	5004.97
734.766	5031.95
735.166	4990.57
735.566	4935.58
735.966	4907.78
736.366	4901.01
736.766	4839.81
737.166	4871.92
737.566	4830.55
737.966	4802.78
738.365	4840.25
738.765	4838.12
739.165	4761.6
739.564	4733.04
739.964	4778.23
740.363	4731.58
740.763	4730.07
741.162	4718.73
741.561	4686
741.96	4638.86
742.36	4658.83
742.759	4666.22
743.158	4702.46
743.557	4719.64
743.955	4758.55
744.354	4715.04
744.753	4775.02
745.152	4734.22
745.55	4789.82
745.949	4783.33
746.348	4786.18
746.746	4803.41
747.144	4764.88
747.543	4745.65
747.941	4795.81
748.339	4726.58
748.737	4715.43
749.136	4706.7
749.534	4772.09
749.932	4744.35
750.33	4768.15
750.727	4824.21
751.125	4800.52
751.523	4782.44
751.921	4826.48
752.318	4791.98
752.716	4854.09
753.113	4870.08
753.511	4893.11
753.908	4894.41
754.305	4877.74
754.703	4940.84
755.1	5003.92
755.497	5064.71
755.894	5257.47
756.291	5439.51
756.688	5774.52
757.085	6217.68
757.482	6842.95
757.878	7529.22
758.275	8145.29
758.672	8988.88
759.068	9681
759.465	10664.34
759.861	11934.97
760.258	13411.72
760.654	14167.55
761.05	14052.38
761.447	13404.33
761.843	12478.99
762.239	11520.86
762.635	11083.47
763.031	10672.13
763.427	10072.39
763.822	9451.08
764.218	8831.32
764.614	8021.57
765.01	7482.96
765.405	7134.21
765.801	6871.38
766.196	6529.08
766.592	6340.01
766.987	6023.81
767.382	5805.79
767.778	5718
768.173	5581.98
768.568	5508.08
768.963	5384.22
769.358	5401.22
769.753	5353.03
770.148	5269.93
770.542	5272.86
770.937	5241.24
771.332	5333.05
771.726	5355.5
772.121	5293.39
772.515	5351.23
772.91	5335.89
773.304	5405.59
773.699	5341.25
774.093	5394.68
774.487	5451.28
774.881	5493.78
775.275	5491.16
775.669	5450.87
776.063	5497.82
776.457	5534.76
776.851	5461.54
777.245	5456.16
777.638	5489.92
778.032	5606.68
778.425	5570.91
778.819	5613.81
779.212	5572.21
779.606	5535.94
779.999	5557.11
780.392	5541.54
780.786	5621.66
781.179	5640.89
781.572	5684.7
781.965	5701.71
782.358	5642.74
782.751	5699.75
783.143	5651.26
783.536	5729.1
783.929	5769.22
784.322	5883.7
784.714	5912.5
785.107	5909.66
785.499	5984.02
785.891	5962.84
786.284	5942.59
786.676	6087.38
787.068	6067.65
787.46	6116.17
787.852	6131.36
788.245	6220.81
788.636	6249.86
789.028	6319.27
789.42	6360.51
789.812	6369.88
790.204	6463.6
790.595	6563.12
790.987	6362.78
791.378	6390.23
791.77	6523.74
792.161	6658.12
792.553	6712
792.944	6602.55
793.335	6532.56
793.726	6606.1
794.117	6695.42
794.508	6834.42
794.899	6806.02
795.29	6951.98
795.681	7008.29
796.072	6866.18
796.463	6695.1
796.853	6705.3
797.244	6864
797.634	6904.4
798.025	6902.86
798.415	6913.49
798.806	7009.06
799.196	7099.88
799.586	7151.92
799.976	7117.45
800.366	7350.18
800.756	7579.78
801.146	7543.49
801.536	7575.49
801.926	7645.12
802.316	7676.3
802.706	7755.99
803.095	7632.44
803.485	7732.68
803.874	7777.65
804.264	8039.55
804.653	8022.19
805.043	8178.46
805.432	8292.17
805.821	8298.95
806.21	8328.34
806.599	8450.34
806.988	8500.29
807.377	8613.41
807.766	8751.51
808.155	9046.5
808.544	8779.07
808.933	8791.55
809.321	8773.98
809.71	9077.97
810.098	9239.71
810.487	9709.46
810.875	10208.22
811.264	10232.88
811.652	10537.53
812.04	10692.97
812.428	10862.04
812.816	11650.8
813.204	12085.2
813.592	12654.5
813.98	13005.23
814.368	12918.28
814.756	13418.17
815.144	13337.72
815.531	13819.07
815.919	13743.46
816.306	14057.73
816.694	13745.87
817.081	13809.02
817.469	14171.44
817.856	14170.6
818.243	14448.71
818.63	14849.51
819.017	14418.94
819.404	14486.52
819.791	14882.62
820.178	15518.18
820.565	15775.72
820.952	16733.37
821.339	16226.2
821.725	16422.43
822.112	15661.31
822.498	15617.12
822.885	15750.8
823.271	15654.3
823.657	16075.82
824.044	16080.57
824.43	16146.43
824.816	16116.12
825.202	15664.93
825.588	16700.05
825.974	16718.38
826.36	17240.01
826.746	17274.05
827.132	17631.87
827.517	17602.28
827.903	16796.96
828.289	16830.99
828.674	16024.9
829.06	15908.99
829.445	16315.58
829.83	16683.72
830.216	17153.16
830.601	17520.25
830.986	17097.76
831.371	16962.14
831.756	17527.39
832.141	17073.5
832.526	17055.32
832.911	17345.6
833.295	17221.43
833.68	17691.64
834.065	17045.52
834.449	16111.66
834.834	16037.08
835.218	16027.11
835.603	16368
835.987	16145.76
836.371	16995.42
836.755	16885.54
837.139	17279.58
837.524	17524.86
837.908	17329.08
838.291	17392.29
838.675	17455.56
839.059	17656.12
839.443	17634.44
839.827	17394.25
840.21	17877.14
840.594	17729.05
840.977	17938.78
841.361	17920.95
841.744	18302.44
842.127	18146.06
842.511	18391.69
842.894	18994.47
843.277	19389.82
843.66	19953.05
844.043	20051.64
844.426	19237.24
844.809	18921.2
845.191	18956.66
845.574	18497.88
845.957	18120.93
846.339	18017.73
846.722	17489.51
847.104	17565.61
847.487	17386.22
847.869	17392.51
848.252	17668.73
848.634	18011.57
849.016	18279.48
849.398	18415.44
849.78	19273.46
850.162	19282.25
850.544	19708.41
850.926	20345.08
851.307	20247.45
851.689	20535.55
852.071	21006.64
852.452	21334.23
852.834	21301.23
853.215	21706.31
853.597	21852.58
853.978	22162.9
854.359	22629.05
854.741	21618.09
855.122	21524.19
855.503	21246.98
855.884	21392.6
856.265	21335.6
856.646	21456.24
857.026	21065.38
857.407	21003.91
857.788	21168.98
858.169	21459.49
858.549	20596.94
858.93	21239.96
859.31	21281.74
859.69	21490.37
860.071	21064.63
860.451	20837.6
860.831	20084.42
861.211	21260.95
861.591	21811.03
861.971	21786.84
862.351	21979.77
862.731	22365.27
863.111	22617.42
863.491	22957.81
863.87	23848.69
864.25	24202.89
864.629	23793.16
865.009	24303.66
865.388	25162.75
865.768	26970.94
866.147	26864.44
866.526	25370.97
866.905	25675.95
867.284	27118.6
867.663	25746.85
868.042	24657.09
868.421	24576.54
868.8	24980.49
869.179	25234.42
869.558	23758.66
869.936	21897.58
870.315	22277.32
870.693	22824.6
871.072	24605.17
871.45	23437.13
871.828	23738.21
872.207	24956.9
872.585	24580.69
872.963	25238.33
873.341	24368.21
873.719	24080.31
874.097	23785.47
874.475	24239.93
874.853	24786.32
875.23	23759.96
875.608	24752.3
875.986	26767.09
876.363	25616.84
876.741	26399.78
877.118	25753.31
877.495	27023.88
877.873	27478.97
878.25	28915.5
878.627	27738.08
879.004	28127.22
879.381	27993.17
879.758	27261.63
880.135	25368.11
880.512	26819.04
880.889	26098.54
881.265	25816.84
881.642	25592.46
882.019	26023.36
882.395	25491.03
882.772	26494.14
883.148	25343.43
883.524	25253.21
883.901	25096.27
884.277	25481.7
884.653	25309.62
885.029	26041.99
885.405	28844.47
885.781	28625.54
886.157	27446
886.532	27786.45
886.908	27769.13
887.284	30883.61
887.659	31877.52
888.035	32864.96
888.411	33703.01
888.786	34149.65
889.161	35337.97
889.537	34685.68
889.912	35787.75
890.287	35746.15
890.662	36659.74
891.037	35993
891.412	33554.36
891.787	33202.59
892.162	32055.87
892.536	32813.22
892.911	31590.09
893.286	30914.27
893.66	29664.54
894.035	30424.69
894.409	33131.86
894.784	31803.99
895.158	32324.27
895.532	34234.6
895.906	35175.4
896.281	35999.74
896.655	35423.15
897.029	40463.03
897.402	42142.01
897.776	46895.13
898.15	46717.07
898.524	46216.76
898.898	46813.58
899.271	52432.41
899.645	45419.78
900.018	43638.11
900.392	45249.66
900.765	45619.72
901.138	42210.27
901.511	41560.64
901.884	38172.79
902.258	35211.26
902.631	36377.23
903.003	41869.47
903.376	37777.46
903.749	42350.92
904.122	45314.62
904.495	49882.05
904.867	50494.78
905.24	43845.9
905.612	40798.76
905.985	41705.87
906.357	43597.54
906.729	41612.67
907.102	35539.2
907.474	34168.31
907.846	34390.37
908.218	33960.78
908.59	30006.95
908.962	29008.18
909.334	31247
909.705	32854.86
910.077	31899.02
910.449	33196.48
910.82	34131.88
911.192	37555.45
911.563	39024.32
911.935	41743.32
912.306	41762.5
912.677	43146.81
913.048	42736.29
913.419	46350.55
913.79	46585.14
914.161	49960.35
914.532	47773.23
914.903	43897.52
915.274	41708.77
915.645	41105.4
916.015	36187.99
916.386	34513.93
916.756	36725.04
917.127	37884.7
917.497	33843.63
917.868	36833.18
918.238	35011.45
918.608	36022.37
918.978	36758.64
919.348	38914.78
919.718	40203.79
920.088	38732.29
920.458	40229.49
920.828	42348.22
921.198	40142.38
921.567	42904.79
921.937	33248
922.306	33569.54
922.676	36209.19
923.045	30229.53
923.415	28741.6
923.784	26183.71
924.153	26934.13
924.522	26925.97
924.891	25321.5
925.26	27122.78
925.629	26487.43
925.998	30449.53
926.367	29722.75
926.736	28317.65
927.104	33717.41
927.473	36237.49
927.842	43777.8
928.21	43335.82
928.578	45561.26
928.947	43081.33
929.315	43386.46
929.683	50893.45
930.051	51329.61
930.42	59620.24
930.788	50937.45
931.156	50608.21
931.523	47454.3
931.891	43874.72
932.259	42175.64
932.627	48902.6
932.994	69246.96
933.362	57227.62
933.729	49666.5
934.097	47512.36
934.464	40224.91
934.831	46433.02
935.199	45737.66
935.566	44355.11
935.933	44889.86
936.3	54414.59
936.667	42355.37
937.034	38242.17
937.401	37815.14
937.767	32675.05
938.134	29125.52
938.501	41075.6
938.867	43816.37
939.234	74156.32
939.6	63282.76
939.967	69898.07
940.333	46783.23
940.699	39862.17
941.065	31952.93
941.431	41919.01
941.798	40455.53
942.163	53075.37
942.529	33159.03
942.895	30531.34
943.261	19748.37
943.627	25938.06
943.992	22724.68
944.358	22764.8
944.723	22841.13
945.089	22243.35
945.454	20559.69
945.82	21908.61
946.185	21076.61
946.55	24428.19
946.915	21901.9
947.28	25675.01
947.645	22602.95
948.01	20838.74
948.375	21726.31
948.74	26013.24
949.104	30337.21
949.469	43822.55
949.834	77515.31
950.198	73409
950.562	44021.98
950.927	36668.02
951.291	44150.24
951.655	37570.46
952.02	35258.23
952.384	26645.75
952.748	23236.19
953.112	22673.73
953.476	19720.33
953.839	18213.77
954.203	18045.03
954.567	22553.05
954.931	35507.46
955.294	30355.59
955.658	30502.06
956.021	51870.1
956.385	87927.66
956.748	129640.62
957.111	200934.8
957.474	225402.4
957.837	253936.77
958.2	191935.98
958.563	68953.25
958.926	46633.92
959.289	70746.86
959.652	79041.62
960.015	59300.11
960.377	85161.36
960.74	97055.43
961.102	167430.92
961.465	179727.46
961.827	96354.01
962.189	184976.11
962.552	128300.02
962.914	102761.24
963.276	66703.15
963.638	55200.62
964	54640.76
964.362	36882.56
964.724	35679.71
965.085	25467.38
965.447	20878.48
965.809	23771.36
966.17	23793.07
966.532	25742.79
966.893	23639.21
967.255	21486.85
967.616	25317.39
967.977	20277.03
968.338	22157.9
968.699	18210.8
969.061	18190.54
969.421	18312.44
969.782	20552.38
970.143	17355.23
970.504	17991.78
970.865	20456.38
971.225	20944.79
971.586	20506.98
971.946	29223.07
972.307	25359.76
972.667	33145.4
973.027	34134.03
973.388	41320.57
973.748	28085.56
974.108	30621.79
974.468	41362.79
974.828	31890.73
975.188	24521.79
975.548	22543.95
975.907	18921.77
976.267	21229
976.627	17844.23
976.986	18513.47
977.346	17655.38
977.705	16981.59
978.064	15438.83
978.424	12862.26
978.783	13285.78
979.142	15145.25
979.501	14478.95
979.86	15327.6
980.219	14746.09
980.578	19004.12
980.937	21262.26
981.296	18974.9
981.654	19553.3
982.013	30449.04
982.371	39512.29
982.73	36897.36
983.088	41826.49
983.447	44642.87
983.805	63802.15
984.163	133413.95
984.521	147961.03
984.879	216857.96
985.237	-352636.57
985.595	339741.44
985.953	84398.92
986.311	48752.99
986.669	28321.38
987.026	24469.03
987.384	32920.65
987.741	34040.46
988.099	24368.31
988.456	19437.88
988.814	18211.55
989.171	15840.29
989.528	15638.06
989.885	16477.92
990.242	13049.02
990.599	16239.37
990.956	13284.13
991.313	9291.36
991.67	7633.37
992.027	8104.25
992.383	7205.58
992.74	6325.28
993.096	6637.91
993.453	6872.96
993.809	7143.31
994.165	9514.23
994.522	8747.97
994.878	9626.79
995.234	12066.25
995.59	11884.56
995.946	11218.7
996.302	12801.91
996.658	14810.11
997.013	16307.47
997.369	19360.45
997.725	24768.55
998.08	16070.46
998.436	24684.31
998.791	34029.01
999.147	33996.18
999.502	37056.3
999.857	26914.24
1000.212	43854.27
1000.567	62269.21
1000.922	35910.75
1001.277	22775.78
1001.632	16891.38
1001.987	21719.93
1002.342	15601.37
1002.696	12500.67
1003.051	9998.47
1003.406	12134.32
1003.76	12111.01
1004.114	11957.66
1004.469	10071.8
1004.823	8355.81
1005.177	9027.91
1005.531	7168.76
1005.885	6364.3
1006.239	7180.44
1006.593	9013.42
1006.947	12042.64
1007.301	9021.58
1007.655	9817.5
1008.008	7205.66
1008.362	8095.87
1008.715	11547.27
1009.069	10464.02
1009.422	15762.68
1009.776	31560.52
1010.129	20907.03
1010.482	17442.52
1010.835	14749.35
1011.188	30745.25
1011.541	28931.03
1011.894	-176950.61
1012.247	521495.81
1012.6	35398.73
1012.952	22406.36
1013.305	11535.54
1013.657	8305.68
1014.01	7881.06
1014.362	6507.45
1014.715	5813.05
1015.067	5065.65
1015.419	4973.83
1015.771	4413.59
1016.123	3936.95
1016.475	4053.92
1016.827	4317.41
1017.179	4653.79
1017.531	4696.44
1017.883	4807.1
1018.234	4643.34
1018.586	5842.04
1018.938	6209.18
1019.289	8545.28
1019.64	9760.54
1019.992	9032.38
1020.343	8260.23
1020.694	6541.25
1021.045	5747.25
1021.396	6560.48
1021.747	7033.45
1022.098	8426.53
1022.449	6119.26
1022.8	5654.02
1023.151	3946.43
1023.501	3498.03
1023.852	3815.11
1024.202	3976.54
1024.553	4372.6
1024.903	4302.49
1025.253	3700.78
1025.604	3328.01
1025.954	4133.43
1026.304	5044.08
1026.654	5882.55
1027.004	8617.9
1027.354	13896.88
1027.703	13064.7
1028.053	17196.4
1028.403	25045.1
1028.753	36071.03
1029.102	48800.47
1029.452	250948.21
1029.801	10818.21
1030.15	6955.11
1030.499	5874.35
897.758	3378.04
901.051	3369.28
904.343	3410.36
907.636	3399.09
910.928	3470.31
914.22	3369.43
917.511	3383.41
920.803	3479
924.094	3528.44
927.384	3474.24
930.675	3437.84
933.965	3376.78
937.255	3365.83
940.544	3328.49
943.834	3168.31
947.123	3128.27
950.411	3239.2
953.7	3199.45
956.988	3137.99
960.276	3087.32
963.563	3214.62
966.851	3195.19
970.138	3278.6
973.424	3251.99
976.711	3199.24
979.997	3474.06
983.283	3489
986.568	3349.6
989.853	3399.95
993.138	3435.72
996.423	3517.94
999.708	3427.27
1002.992	3550.47
1006.275	3256.41
1009.559	3372.52
1012.842	3519.07
1016.125	3417.74
1019.408	3393.56
1022.69	3530.44
1025.972	3530.27
1029.254	3498.16
1032.536	3383.54
1035.817	3432.7
1039.098	3325.35
1042.379	3616.04
1045.659	3563.24
1048.939	3470
1052.219	3514.21
1055.498	3545.35
1058.778	3512.48
1062.057	3506.74
1065.335	3521.03
1068.614	3558.89
1071.892	3520.24
1075.17	3630.21
1078.447	3601.94
1081.724	3583.44
1085.001	3639.79
1088.278	3606.21
1091.554	3627.88
1094.83	3625.05
1098.106	3651.8
1101.382	3718.15
1104.657	3716.45
1107.932	3714.26
1111.206	3657.04
1114.481	3615.31
1117.755	3628.68
1121.029	3583.65
1124.302	3631.96
1127.575	3560.43
1130.848	3535.45
1134.121	3480.73
1137.393	3410.07
1140.665	3496.97
1143.937	3477.92
1147.208	3362.75
1150.48	3392.55
1153.75	3373.54
1157.021	3448.16
1160.291	3400.04
1163.561	3442.23
1166.831	3466.09
1170.101	3504.86
1173.37	3478.08
1176.639	3391.07
1179.907	3463.91
1183.176	3538.2
1186.444	3537.72
1189.711	3566.74
1192.979	3563.71
1196.246	3527.6
1199.513	3549.43
1202.78	3540.42
1206.046	3545.6
1209.312	3599.94
1212.578	3636.91
1215.843	3565.62
1219.108	3541.37
1222.373	3570.43
1225.638	3512.78
1228.902	3490.18
1232.166	3438.79
1235.43	3414.22
1238.693	3429.66
1241.956	3436.61
1245.219	3461.81
1248.482	3473.43
1251.744	3459.64
1255.006	3656.27
1258.268	3614.32
1261.529	3542.96
1264.79	3562.33
1268.051	3706.69
1271.312	3728.77
1274.572	3683.55
1277.832	3676.43
1281.092	3679.32
1284.351	3619.91
1287.61	3592.02
1290.869	3471.73
1294.128	3421.58
1297.386	3569.44
1300.644	3552.12
1303.902	3564.67
1307.159	3402.22
1310.416	3464.45
1313.673	3481.63
1316.93	3451.8
1320.186	3525.54
1323.442	3582.85
1326.697	3553.78
1329.953	3569.37
1333.208	3580.53
1336.463	3563.08
1339.717	3490.24
1342.972	3568.44
1346.226	3581.43
1349.479	3485.24
1352.733	3437.02
1355.986	3481.57
1359.238	3450.31
1362.491	3450.3
1365.743	3455.83
1368.995	3455.74
1372.247	3469.96
1375.498	3481.13
1378.749	3561.67
1382	3488.86
1385.251	3571.85
1388.501	3543.26
1391.751	3509.83
1395	3489.54
1398.25	3530.99
1401.499	3522.16
1404.748	3434.15
1407.996	3329.39
1411.244	3326.65
1414.492	3300.06
1417.74	3273.49
1420.987	3295.24
1424.234	3347.21
1427.481	3351.61
1430.728	3406.58
1433.974	3379.89
1437.22	3414.36
1440.465	3415.76
1443.711	3433.25
1446.956	3467.19
1450.201	3478.02
1453.445	3526.19
1456.689	3487.3
1459.933	3506.44
1463.177	3533.74
1466.42	3504.28
1469.663	3483.45
1472.906	3448.94
1476.148	3603.95
1479.391	3467.31
1482.633	3457.78
1485.874	3454.74
1489.115	3415.31
1492.356	3447.73
1495.597	3415.21
1498.838	3429.31
1502.078	3369.92
1505.318	3283.62
1508.557	3341.38
1511.797	3248.09
1515.036	3445.56
1518.274	3424.76
1521.513	3411.05
1524.751	3446.47
1527.989	3448.23
1531.227	3454.09
1534.464	3417.94
1537.701	3476.66
1540.938	3509.11
1544.174	3464.77
1547.41	3475.93
1550.646	3516.54
1553.882	3537.83
1557.117	3589.36
1560.352	3618.38
1563.587	3565.12
1566.821	3509.52
1570.055	3578.62
1573.289	3533.37
1576.523	3637.1
1579.756	3635.06
1582.989	3651.42
1586.222	3608.22
1589.454	3661.86
1592.686	3623.87
1595.918	3645.62
1599.15	3622.08
1602.381	3739.86
1605.612	3654.98
1608.843	3764.01
1612.073	3659.33
1615.303	3636.5
1618.533	3611.82
1621.762	3627.09
1624.992	3627.43
1628.221	3589.76
1631.449	3568.47
1634.678	3667.02
1637.906	3606.74
1641.134	3666.8
1644.361	3607.87
1647.588	3590.2
1650.815	3600.36
1654.042	3599.98
1657.269	3637.69
1660.495	3588.81
1663.72	3512.18
1666.946	3508.83
1670.171	3402.7
1673.396	3376.5
1676.621	3379.9
1679.845	3430.76
1683.069	3477.87
1686.293	3543.4
1689.517	3488.31
1692.74	3373.2
1695.963	3391.06
1699.185	3509.09
1702.408	3446.98
1705.63	3511.2
1708.852	3516.55
1712.073	3479.06
1715.294	3445.57
1718.515	3451.39
1721.736	3403.38
1724.956	3348.21
1728.176	3388.8
1731.396	3403.62
1734.616	3407.79
1737.835	3408.91
1741.054	3407.48
1744.272	3409.83
1747.491	3420.61
1750.709	3514.4
1753.927	3422.84
1757.144	3475.18
1760.361	3567.4
1763.578	3575.9
1766.795	3504.05
1770.011	3522.44
1773.227	3593.14
1776.443	3619.95
1779.658	3663.75
1782.874	3607.51
1786.089	3565.97
1789.303	3571.45
1792.518	3583.73
1795.732	3575.81
1798.945	3577.4
1802.159	3641.3
1805.372	3491.08
1808.585	3459.26
1811.797	3461.21
1815.01	3550.54
1818.222	3556.68
1821.434	3405.32
1824.645	3527.58
1827.856	3478.44
1831.067	3534.07
1834.278	3437.03
1837.488	3432.36
1840.698	3628.04
1843.908	3519.45
1847.117	3475.99
1850.326	3285.08
1853.535	3436.34
1856.744	3591.48
1859.952	3455.43
1863.16	3453.05
1866.368	3474.97
1869.575	3656.41
1872.782	3520.52
1875.989	3462.89
1879.196	3602.19
1882.402	3598.08
1885.608	3652.15
1888.814	3499.92
1892.019	3365.88
1895.224	3420.84
1898.429	3415.67
1901.634	3382.87
1904.838	3366.82
1908.042	3408.33
1911.246	3405.6
1914.449	3288.62
1917.652	3305.93
1920.855	3292.63
1924.058	3373.58
1927.26	3398.16
1930.462	3437.54
1933.664	3454.61
1936.865	3379.13
1940.066	3369.6
1943.267	3322.76
1946.467	3349.96
1949.668	3389.23
1952.868	3458.12
1956.067	3412.65
1959.267	3330.14
1962.466	3365.68
1965.665	3353.75
1968.863	3351.63
1972.061	3390.99
1975.259	3396.68
1978.457	3488.06
1981.654	3433.43
1984.852	3434.08
1988.048	3332.11
1991.245	3359.3
1994.441	3449.66
1997.637	3467.72
2000.833	3449.13
2004.028	3495.05
2007.223	3534.8
2010.418	3498.21
2013.613	3463.9
2016.807	3401.24
2020.001	3430.18
2023.194	3510.08
2026.388	3469.53
2029.581	3413.81
2032.774	3446.02
2035.966	3442.53
2039.158	3350.39
2042.35	3391.02
2045.542	3314.72
2048.733	3456.05
2051.924	3520.34
2055.115	3566.48
2058.306	3471.06
2061.496	3540.92
2064.686	3632.01
2067.875	3553.77
2071.065	3586.62
2074.254	3627.6
2077.442	3574.83
2080.631	3680.7
2083.819	3502.83
2087.007	3466.54
2090.195	3416.91
2093.382	3481.44
2096.569	3454.82
2099.756	3388.15
2102.942	3381.79
2106.128	3371.72
2109.314	3371.04
2112.5	3299.54
2115.685	3286.37
2118.87	3301.41
2122.055	3380.07
2125.239	3321.09
2128.424	3271.66
2131.608	3447.8
2134.791	3427.89
2137.974	3521.56
2141.157	3499.08
2144.34	3420.89
2147.523	3424.42
2150.705	3417.27
2153.887	3416.18
2157.068	3330.18
2160.25	3362.39
2163.431	3431.29
2166.611	3330.62
2169.792	3343.85
2172.972	3207.3
2176.152	3333.97
2179.331	3379.32
2182.511	3376.2
2185.69	3412.56
2188.868	3395.37
2192.047	3485.42
2195.225	3440.12
2198.403	3383
2201.58	3389.95
2204.758	3392.73
2207.935	3491.4
2211.111	3333.3
2214.288	3310.49
2217.464	3361.42
2220.64	3339.16
2223.815	3406.49
2226.991	3308.22
2230.166	3337.09
2233.34	3349.16
2236.515	3388.58
2239.689	3483.65
2242.863	3414.43
2246.036	3480.98
2249.209	3510.07
2252.382	3563.79
2255.555	3539.96
2258.727	3449.96
2261.9	3506.5
2265.071	3495.75
2268.243	3506.61
2271.414	3413.56
2274.585	3337.56
2277.756	3421.39
2280.926	3371
2284.096	3427.46
2287.266	3299.15
2290.436	3371.94
2293.605	3418.31
2296.774	3435.52
2299.942	3482.32
2303.111	3501.69
2306.279	3543.02
2309.447	3533.35
2312.614	3511.7
2315.781	3527.02
2318.948	3481.23
2322.115	3528.12
2325.281	3419.87
2328.447	3461.99
2331.613	3441.86
2334.779	3385.34
2337.944	3400.54
2341.109	3391.19
2344.274	3365.98
2347.438	3325.13
2350.602	3359.8
2353.766	3382.31
2356.929	3360.98
2360.092	3412.75
2363.255	3333.72
2366.418	3216.9
2369.58	3404.99
2372.742	3050.37
2375.904	3096.61
2379.066	3053.68
2382.227	3106.28
2385.388	3063.13
2388.548	2959.17
2391.709	3036.81
2394.869	3005.7
2398.029	3166.61
2401.188	3206.69
2404.347	3094.19
2407.506	3335.3
2410.665	3357.9
2413.823	3389.85
2416.981	3312.2
2420.139	3368.25
2423.296	3432.45
2426.453	3403.99
2429.61	3428.72
2432.767	3313.51
2435.923	3373.56
2439.079	3229.1
2442.235	3329.74
2445.391	3228.55
2448.546	3232.59
2451.701	3313.46
2454.855	3242.91
2458.009	3332.52
2461.163	3355.18
2464.317	3295.95
2467.471	3338.18
2470.624	3376.37
2473.777	3446.72
2476.929	3429.16
2480.082	3459.45
2483.234	3431.06
2486.385	3275.95
2489.537	3282.43
2492.688	3199.35
2495.839	3219
2498.989	3220.75
2502.14	3199.94
2505.29	3163.82
2508.439	3199.84
2511.589	3094.67
2514.738	3125.02
2517.887	3154.22
2521.035	3332.19
2524.183	3326.54
2527.331	3292.71
2530.479	3238.22
2533.627	3261.28
