Data from N_3_HIR_IL_4N_Splice17_13-40-32-844.txt Node
Date: Sat Mar 14 13:40:32 EDT 2020
User: sa697716
Spectrometer: FLMS03696
Trigger mode: 0
Integration Time (sec): 3.180400E-1
Scans to average: 20
Electric dark correction enabled: true
Nonlinearity correction enabled: true
Boxcar width: 5
XAxis mode: Wavelengths
Number of Pixels in Spectrum: 2048
>>>>>Begin Spectral Data<<<<<
187.83	-438510.01
188.298	3145.46
188.766	1656.2
189.233	1460.24
189.701	2019.21
190.169	2785.67
190.636	1026.36
191.104	808.75
191.571	80.02
192.039	-151.02
192.506	-204.16
192.974	503.92
193.441	-799.56
193.908	-226.95
194.375	-88.77
194.842	-88.21
195.31	-26.19
195.777	129.76
196.244	411.07
196.711	492.46
197.177	627.17
197.644	904.89
198.111	1557.52
198.578	2221.12
199.045	1786.88
199.511	2893.35
199.978	3384.82
200.445	2891.72
200.911	3203.83
201.378	3526.44
201.844	3183.31
202.31	5452.73
202.777	5664.37
203.243	3162.63
203.709	3003.02
204.176	3556.32
204.642	2948.26
205.108	2741.79
205.574	2218.63
206.04	1993.84
206.506	1850.89
206.972	1741.96
207.438	1694.03
207.903	1918.7
208.369	1686.32
208.835	1687.78
209.301	1771.47
209.766	1802.69
210.232	1796.33
210.697	2221.72
211.163	2740.17
211.628	4172.3
212.094	3505.03
212.559	4291.02
213.024	2685.77
213.49	3285.14
213.955	3182.86
214.42	3101.5
214.885	2894.45
215.35	2778.31
215.815	2720.1
216.28	2900.82
216.745	2348.99
217.21	2530.48
217.675	2311.86
218.14	2583.46
218.604	2867.46
219.069	3248.46
219.534	3424.81
219.998	3963.88
220.463	4786.05
220.927	5826.99
221.392	5464.79
221.856	5560.32
222.32	6997.5
222.785	8639.55
223.249	10868.1
223.713	12112.34
224.177	12136.4
224.642	15505.4
225.106	19026.36
225.57	20827.54
226.034	15535.71
226.497	23716.01
226.961	21439.05
227.425	24953.05
227.889	27632.8
228.353	27619.8
228.816	57014.01
229.28	54527.92
229.744	45935.99
230.207	27990.73
230.671	27483.35
231.134	45308.69
231.597	52199.43
232.061	52070.14
232.524	50781.03
232.987	35008.68
233.45	31541.97
233.914	28314.05
234.377	28972.24
234.84	26568.37
235.303	31315.55
235.766	34946.46
236.229	36155.86
236.691	22737.13
237.154	25542.91
237.617	19225.8
238.08	19684.05
238.542	23028.68
239.005	16439.58
239.468	16310.12
239.93	15375.3
240.393	13960.12
240.855	12254.6
241.317	12538.95
241.78	15260.84
242.242	15774.91
242.704	17049.57
243.166	14844.79
243.629	13493.61
244.091	15572.33
244.553	17065.68
245.015	18325.4
245.477	23715.67
245.939	34782.76
246.4	36922.61
246.862	35899.37
247.324	33833.21
247.786	37819.36
248.247	49543.61
248.709	51086.2
249.17	38227.93
249.632	36068.6
250.093	41809.64
250.555	36137
251.016	22050.43
251.477	20940.35
251.939	22610.41
252.4	23754.9
252.861	28254.99
253.322	26321.54
253.783	31345.41
254.244	40674.4
254.705	32098.7
255.166	28574.24
255.627	28136.35
256.088	39718.46
256.549	42222.72
257.009	36386.7
257.47	44127.46
257.931	35937.57
258.391	26954.27
258.852	27771.35
259.312	29107.98
259.773	35957.03
260.233	30411.74
260.694	25680.18
261.154	29130.39
261.614	23398.32
262.074	20936.14
262.534	21782.39
262.994	20543.34
263.455	27368.66
263.915	23087.54
264.374	21749.32
264.834	23756.62
265.294	26318.87
265.754	27283.58
266.214	25833.32
266.673	24205.17
267.133	30513.2
267.593	30262.86
268.052	37054.28
268.512	32236.97
268.971	38940.32
269.431	42694.3
269.89	38249.41
270.349	57426.54
270.809	64014.68
271.268	57548.22
271.727	129081.51
272.186	83674.09
272.645	62746.87
273.104	45221.02
273.563	65462.88
274.022	51371.17
274.481	43783.38
274.94	33744.08
275.399	25063.45
275.857	29199.88
276.316	39507.02
276.775	35121.37
277.233	34610.59
277.692	32456.82
278.15	36773.37
278.609	37838.94
279.067	35065.73
279.525	32576.56
279.984	42066
280.442	50543.63
280.9	49820.73
281.358	32777.01
281.816	30577.24
282.274	29885.5
282.732	30822.01
283.19	30976.75
283.648	26724.33
284.106	28436.33
284.564	28849.96
285.021	26754.32
285.479	19909.8
285.937	18080.79
286.394	15862.04
286.852	16314.83
287.309	17175.07
287.767	16604.42
288.224	15773.06
288.682	17295.16
289.139	19007.25
289.596	17390.59
290.053	18045.53
290.511	22771.67
290.968	27654.87
291.425	37524.79
291.882	31243.01
292.339	27175.2
292.796	26950.79
293.252	25401.34
293.709	20216.29
294.166	18109.36
294.623	20004.97
295.079	19198.74
295.536	19305.25
295.992	17505.98
296.449	17288.63
296.905	17940.68
297.362	17193.08
297.818	18075.99
298.274	18737.13
298.731	19056.7
299.187	18817.6
299.643	20184.94
300.099	24377.18
300.555	26682.2
301.011	22257.99
301.467	21485.89
301.923	25127.35
302.379	24531.29
302.835	24057.55
303.291	24082.02
303.746	27365.06
304.202	34584.36
304.658	34771.11
305.113	23380.24
305.569	22931.77
306.024	24421.94
306.479	23194.64
306.935	19551.75
307.39	21336.89
307.845	19699.86
308.301	19784.19
308.756	19272.19
309.211	18548.51
309.666	18943.34
310.121	23512.94
310.576	23824.11
311.031	23639.59
311.486	27012.62
311.94	26947.46
312.395	35994.27
312.85	67610.44
313.305	332104.43
313.759	1719466.55
314.214	124420.36
314.668	98686.32
315.123	83030.62
315.577	29770.36
316.032	26465.02
316.486	33193.06
316.94	26199.41
317.394	18250.97
317.849	14174.89
318.303	13414.04
318.757	12677.28
319.211	14028.69
319.665	12273.06
320.119	12400.69
320.572	17764.41
321.026	16597.74
321.48	13815.42
321.934	15049.46
322.387	15068.16
322.841	16255.05
323.295	14625.62
323.748	16794.38
324.202	17023.74
324.655	20442.08
325.108	28612.2
325.562	20195.78
326.015	23988.11
326.468	18097.68
326.921	20246.81
327.374	18855.36
327.827	19660.34
328.28	22232.56
328.733	14892.91
329.186	13079.26
329.639	12457.54
330.092	10480.09
330.545	9979.4
330.997	10054.55
331.45	11011.32
331.903	12898.38
332.355	22196.57
332.808	21534.16
333.26	17719.24
333.713	19240.52
334.165	19366.19
334.617	25825.01
335.069	20792.08
335.522	37578.83
335.974	41645.4
336.426	37963.98
336.878	26247
337.33	13286.43
337.782	12964.14
338.234	16284.54
338.686	19444.83
339.137	23077.61
339.589	21710.07
340.041	17032.79
340.493	14625.63
340.944	14963.05
341.396	16099.62
341.847	13555.43
342.299	16034.37
342.75	19592.84
343.201	17074.96
343.653	19589.34
344.104	24008.36
344.555	18891.43
345.006	29363.94
345.457	22544.09
345.908	17906.81
346.359	16859.41
346.81	13690.28
347.261	14402.33
347.712	14155.59
348.163	15161.94
348.613	15381.74
349.064	14366.55
349.515	12564.3
349.965	12890.97
350.416	15486.16
350.866	16961.96
351.317	19124.16
351.767	31677.99
352.217	39953.58
352.668	33147.43
353.118	30382.24
353.568	29253.84
354.018	23132.21
354.468	24404.17
354.918	17509.28
355.368	15318.43
355.818	21663
356.268	62276.14
356.718	261305.9
357.168	65013.27
357.617	32579.07
358.067	36187.28
358.517	33895.16
358.966	39736.2
359.416	44656.34
359.865	48182.94
360.315	57194.77
360.764	26672.69
361.213	14940.38
361.663	14106.09
362.112	17350.96
362.561	28032.52
363.01	21181.72
363.459	17823.03
363.908	19234.35
364.357	16313.41
364.806	27518.21
365.255	18922.89
365.703	17335.69
366.152	17361.37
366.601	14082.93
367.05	11496.75
367.498	10437.06
367.947	10859.71
368.395	11272.54
368.844	9989.23
369.292	12000.24
369.74	8308.78
370.189	12726.43
370.637	14879.03
371.085	12823.44
371.533	15601.82
371.981	14985.69
372.429	14298.65
372.877	14874.41
373.325	12449.82
373.773	12648.4
374.221	11257.63
374.669	13920.33
375.116	12018.55
375.564	12096
376.012	13534.4
376.459	11146.93
376.907	13290.39
377.354	16034.69
377.801	14950.91
378.249	17193.96
378.696	21986.9
379.143	26582.87
379.591	28347.27
380.038	47877.97
380.485	34661.64
380.932	37317.42
381.379	34126.33
381.826	25101.54
382.273	17835.7
382.72	15558.12
383.166	15122.71
383.613	9789.53
384.06	8811.16
384.506	10181.02
384.953	7474.79
385.4	7510.18
385.846	6584.72
386.292	6395.58
386.739	6253
387.185	6160.64
387.631	6171.17
388.078	6005.19
388.524	6424.06
388.97	5934.35
389.416	4946.9
389.862	5247.46
390.308	4975.59
390.754	5056.25
391.2	5492.95
391.645	5606.11
392.091	5391.09
392.537	5214.7
392.983	5209.01
393.428	5143.95
393.874	5516.71
394.319	5559.85
394.765	5288.25
395.21	5430.25
395.655	5073.17
396.101	4755.04
396.546	4314.4
396.991	4345.26
397.436	4033.82
397.881	3900.06
398.326	3679.51
398.771	3481.92
399.216	3031.23
399.661	2732.84
400.106	2727.43
400.551	2810.22
400.995	2525.01
401.44	2498.4
401.885	2348.29
402.329	2379.67
402.774	2286.91
403.218	2228.52
403.663	2152.92
404.107	2224.66
404.551	2248.14
404.995	2064.62
405.44	1988.22
405.884	2016
406.328	1950.44
406.772	1951.37
407.216	1776.75
407.66	1716.12
408.104	1626.8
408.547	1523.79
408.991	1473.18
409.435	1417.39
409.879	1400.42
410.322	1384.1
410.766	1341.38
411.209	1279.33
411.653	1227.7
412.096	1207.74
412.54	1212.59
412.983	1208.4
413.426	1214.3
413.869	1212.93
414.312	1193.94
414.756	1150.09
415.199	1095.58
415.642	1066.23
416.085	1070.05
416.527	1062.38
416.97	1076.1
417.413	1022.34
417.856	1009.79
418.298	1000.77
418.741	994.27
419.184	988.8
419.626	1029.48
420.069	1033.55
420.511	1041.59
420.953	1020.04
421.396	1012.16
421.838	985.91
422.28	1007.33
422.722	1016.51
423.164	1030.75
423.606	1016.67
424.048	1016.82
424.49	966.26
424.932	959.49
425.374	942.87
425.816	955.27
426.258	975.34
426.699	989.68
427.141	978.18
427.582	988.02
428.024	980.16
428.465	972.52
428.907	945.58
429.348	934.15
429.789	936.41
430.231	918.67
430.672	930.85
431.113	906.88
431.554	889.93
431.995	862.4
432.436	834.65
432.877	819.72
433.318	806.59
433.759	804.36
434.2	803.81
434.64	793.56
435.081	796.15
435.522	755.06
435.962	725.53
436.403	713.29
436.843	723.6
437.284	707.07
437.724	683.38
438.164	680.59
438.604	664.72
439.045	639.82
439.485	614.83
439.925	599.84
440.365	584.82
440.805	576.23
441.245	568.36
441.685	547.34
442.125	541.52
442.564	544.9
443.004	533.56
443.444	533.92
443.883	535.55
444.323	527.66
444.762	526.54
445.202	533.86
445.641	547.94
446.081	542.68
446.52	547.81
446.959	541.52
447.398	530.49
447.837	525.51
448.276	515.12
448.716	519.87
449.154	524.96
449.593	514.48
450.032	513.15
450.471	500.3
450.91	500.88
451.349	499.66
451.787	497.35
452.226	504.3
452.664	503.88
453.103	502.77
453.541	500.25
453.98	503.13
454.418	505.57
454.856	497.87
455.295	496.96
455.733	500.83
456.171	502.12
456.609	502.4
457.047	501.44
457.485	509.43
457.923	511.85
458.361	505.22
458.798	504.51
459.236	501.89
459.674	504.11
460.111	505.49
460.549	500.31
460.987	498.06
461.424	496.23
461.862	494.46
462.299	485.54
462.736	484.2
463.173	484.78
463.611	481.77
464.048	481.7
464.485	486.64
464.922	481.37
465.359	477.85
465.796	480.38
466.233	478.81
466.67	475.05
467.106	476.76
467.543	472.2
467.98	467.04
468.416	452.76
468.853	447.95
469.29	431.97
469.726	428.78
470.162	416.84
470.599	403.7
471.035	397.54
471.471	386.37
471.907	381.06
472.344	378.3
472.78	379.51
473.216	382.44
473.652	378.17
474.088	378.31
474.523	378.06
474.959	382.74
475.395	380.68
475.831	380.11
476.266	383.09
476.702	382.54
477.138	378.21
477.573	376.84
478.008	377.32
478.444	381.01
478.879	385.72
479.314	387.68
479.75	387.59
480.185	388.71
480.62	391.55
481.055	393.94
481.49	397.19
481.925	403.32
482.36	412.52
482.795	423.07
483.229	432.23
483.664	441.26
484.099	441.82
484.534	448.91
484.968	453.66
485.403	455.13
485.837	453.47
486.271	452.56
486.706	452.17
487.14	445.29
487.574	438.13
488.009	434.57
488.443	430.03
488.877	435.7
489.311	436.39
489.745	441.45
490.179	446.09
490.613	456.38
491.046	459.36
491.48	463.54
491.914	464.89
492.348	468.89
492.781	472.61
493.215	473.64
493.648	473.59
494.082	478.53
494.515	479.42
494.948	485.85
495.382	488.03
495.815	492.14
496.248	496.79
496.681	506.1
497.114	515.02
497.547	523.75
497.98	535.81
498.413	542.84
498.846	551.11
499.279	558.51
499.711	562.45
500.144	566.44
500.577	577.1
501.009	587.99
501.442	598.1
501.874	602.22
502.306	605.81
502.739	615.8
503.171	628.59
503.603	633.51
504.036	643.39
504.468	650.56
504.9	662.13
505.332	669.5
505.764	675
506.196	682.59
506.627	696.5
507.059	709.53
507.491	717.08
507.923	718.97
508.354	734.38
508.786	746.7
509.217	764.52
509.649	780.4
510.08	799.45
510.512	817.7
510.943	833.69
511.374	846.56
511.805	867.17
512.237	886.49
512.668	916.4
513.099	942.11
513.53	968.42
513.961	989.9
514.391	1019.55
514.822	1052.8
515.253	1086.87
515.684	1111.81
516.114	1141.93
516.545	1165.62
516.975	1192.73
517.406	1213.54
517.836	1221.23
518.267	1231.99
518.697	1252.69
519.127	1262.14
519.558	1272
519.988	1279.81
520.418	1295.05
520.848	1314.36
521.278	1325.91
521.708	1367.29
522.138	1382.71
522.567	1413.66
522.997	1440.99
523.427	1458.06
523.857	1476.48
524.286	1489.6
524.716	1507.01
525.145	1528.07
525.575	1540.65
526.004	1557.64
526.433	1534.61
526.863	1538.78
527.292	1534.57
527.721	1542.34
528.15	1551.09
528.579	1554.72
529.008	1568.24
529.437	1592.44
529.866	1607.19
530.295	1626.41
530.724	1639.63
531.152	1667.33
531.581	1682.44
532.01	1699.75
532.438	1708.99
532.867	1723.77
533.295	1743.54
533.723	1750.44
534.152	1749.58
534.58	1751.27
535.008	1737.7
535.436	1741.61
535.865	1750.06
536.293	1764.08
536.721	1780.27
537.149	1806.22
537.576	1810.32
538.004	1823.48
538.432	1831.04
538.86	1830.59
539.287	1837.86
539.715	1851.3
540.143	1855.41
540.57	1852.51
540.998	1849.03
541.425	1828.34
541.852	1807.98
542.28	1808.02
542.707	1792.9
543.134	1781.13
543.561	1777.8
543.988	1771.57
544.415	1772.6
544.842	1767.04
545.269	1761.78
545.696	1766.26
546.123	1778.79
546.549	1770.49
546.976	1758.27
547.403	1758.2
547.829	1760.51
548.256	1763.1
548.682	1760.38
549.108	1754.94
549.535	1755
549.961	1757.77
550.387	1745.62
550.813	1742.58
551.24	1749.95
551.666	1752.67
552.092	1745.13
552.518	1739.83
552.943	1735.32
553.369	1743.68
553.795	1749.97
554.221	1752.46
554.646	1750.04
555.072	1762.31
555.498	1767.65
555.923	1777.05
556.349	1792.86
556.774	1802.5
557.199	1805.28
557.625	1810.85
558.05	1805.5
558.475	1815.92
558.9	1816.65
559.325	1810.75
559.75	1804.56
560.175	1798.9
560.6	1793.41
561.025	1791.58
561.449	1792.29
561.874	1797.44
562.299	1802.42
562.723	1810.17
563.148	1800.85
563.572	1802.71
563.997	1811.49
564.421	1816.33
564.846	1816.08
565.27	1818.45
565.694	1815.2
566.118	1826.8
566.542	1834.33
566.966	1826.83
567.39	1821.26
567.814	1808.54
568.238	1808.2
568.662	1812.79
569.086	1815.39
569.509	1821.68
569.933	1806.32
570.357	1797.62
570.78	1775.85
571.204	1761.63
571.627	1751.8
572.05	1749.42
572.474	1750.25
572.897	1737.75
573.32	1729.56
573.743	1719.04
574.166	1701.56
574.589	1701.28
575.012	1694.92
575.435	1693.32
575.858	1684.76
576.281	1673.65
576.704	1658.42
577.126	1646.14
577.549	1635.22
577.972	1624.49
578.394	1614.62
578.817	1608.53
579.239	1590.11
579.661	1577.27
580.084	1562.39
580.506	1549.22
580.928	1545.4
581.35	1534.68
581.772	1529.74
582.194	1517.78
582.616	1506.81
583.038	1492.34
583.46	1480.75
583.882	1478.24
584.303	1480.99
584.725	1476.34
585.147	1480.32
585.568	1490.36
585.99	1503.35
586.411	1511.14
586.833	1525.83
587.254	1526.84
587.675	1540.63
588.096	1552.85
588.518	1547.57
588.939	1531.87
589.36	1530.22
589.781	1516.77
590.202	1489.68
590.623	1480.18
591.043	1475.71
591.464	1461.77
591.885	1456.89
592.305	1450.55
592.726	1437.3
593.147	1438.66
593.567	1433.05
593.987	1424.51
594.408	1420.19
594.828	1416.7
595.248	1410.68
595.669	1393.41
596.089	1386.29
596.509	1380.34
596.929	1366.97
597.349	1367.38
597.769	1356.9
598.189	1351.27
598.608	1352.68
599.028	1355.14
599.448	1355.55
599.867	1342.3
600.287	1338
600.706	1333.7
601.126	1324.78
601.545	1324.26
601.965	1322.91
602.384	1317.94
602.803	1320.41
603.222	1316.33
603.641	1309.54
604.061	1306.28
604.48	1302.38
604.898	1308.56
605.317	1312.9
605.736	1314.28
606.155	1311.72
606.574	1302.28
606.992	1307.1
607.411	1301.55
607.829	1292.15
608.248	1286.74
608.666	1282.81
609.085	1281.52
609.503	1273.2
609.921	1267.29
610.339	1268.36
610.758	1265.45
611.176	1258.81
611.594	1248.44
612.012	1243.49
612.43	1246.66
612.847	1252.17
613.265	1252.31
613.683	1255.15
614.101	1256.46
614.518	1252.28
614.936	1241.33
615.353	1227.37
615.771	1224.7
616.188	1224.37
616.606	1220.92
617.023	1212.62
617.44	1199.11
617.857	1191.45
618.274	1183.61
618.691	1177.33
619.108	1166.76
619.525	1160.69
619.942	1166.74
620.359	1168.89
620.776	1163.04
621.192	1158.82
621.609	1156.89
622.026	1163.02
622.442	1169.41
622.859	1171.51
623.275	1163.2
623.691	1168.7
624.108	1178.89
624.524	1191.05
624.94	1189.76
625.356	1199.35
625.772	1210.75
626.188	1221.21
626.604	1221.84
627.02	1215.83
627.436	1213.21
627.852	1221.21
628.268	1231.35
628.683	1222
629.099	1213.21
629.514	1208.23
629.93	1211.41
630.345	1214.22
630.761	1209.37
631.176	1212.96
631.591	1208.77
632.007	1202.92
632.422	1199.36
632.837	1188.78
633.252	1187.6
633.667	1178.67
634.082	1170.6
634.497	1158.33
634.911	1141.75
635.326	1137.33
635.741	1119.93
636.155	1108.99
636.57	1110.22
636.984	1108.68
637.399	1109.17
637.813	1105.28
638.228	1101.84
638.642	1104.3
639.056	1092.69
639.47	1090.26
639.884	1080.8
640.298	1073.16
640.712	1069.84
641.126	1055.82
641.54	1044
641.954	1035.21
642.368	1022.83
642.781	1014.65
643.195	994.96
643.609	992.52
644.022	983.92
644.436	977.55
644.849	962.53
645.262	949.97
645.676	947.27
646.089	941.72
646.502	927.11
646.915	918.92
647.328	900.03
647.741	896.71
648.154	882.17
648.567	878.99
648.98	865.21
649.393	864.73
649.805	859.43
650.218	851.04
650.631	835.15
651.043	828.17
651.456	822.66
651.868	821.44
652.28	833.24
652.693	844.03
653.105	845.48
653.517	851.75
653.929	850.67
654.341	852.75
654.753	841.04
655.165	844.68
655.577	839.75
655.989	833.02
656.401	822.12
656.813	791.32
657.224	772.17
657.636	746.93
658.047	731.78
658.459	713.33
658.87	703.3
659.282	690.83
659.693	672.89
660.104	658.62
660.515	644.4
660.926	639.99
661.338	633.93
661.749	624.28
662.159	614.55
662.57	605.64
662.981	598.35
663.392	588.89
663.803	588.22
664.213	581.22
664.624	574.57
665.035	573.67
665.445	562.03
665.855	554.75
666.266	548.22
666.676	543.68
667.086	534.89
667.497	532.23
667.907	525.95
668.317	516.5
668.727	515.25
669.137	513.89
669.547	509.82
669.956	508.89
670.366	508.89
670.776	508.58
671.186	509.47
671.595	511.26
672.005	511.37
672.414	511.41
672.824	511.33
673.233	510.67
673.642	510.84
674.052	514.55
674.461	518.24
674.87	520.66
675.279	519.33
675.688	519.73
676.097	521.91
676.506	521.23
676.915	529.39
677.323	531.07
677.732	531.58
678.141	532.31
678.549	524.26
678.958	524.05
679.366	524.26
679.775	528.36
680.183	539.11
680.592	543.53
681	549.48
681.408	548.06
681.816	556.52
682.224	564.5
682.632	576.91
683.04	603.04
683.448	624.11
683.856	652.23
684.264	683.72
684.671	712.33
685.079	747.64
685.487	787.62
685.894	842.43
686.302	888.84
686.709	931.65
687.116	979.06
687.524	1020.66
687.931	1059.2
688.338	1093.84
688.745	1125.15
689.152	1160.3
689.559	1205.73
689.966	1252.31
690.373	1279.41
690.78	1322.78
691.187	1384.37
691.593	1433
692	1477.43
692.407	1538.76
692.813	1614.67
693.22	1674.64
693.626	1737.41
694.032	1790.44
694.439	1865.39
694.845	1925.95
695.251	2001.1
695.657	2068.9
696.063	2167.31
696.469	2242.25
696.875	2312.44
697.281	2352.24
697.687	2404.11
698.093	2447.09
698.498	2523.73
698.904	2583.12
699.31	2671.32
699.715	2736.67
700.12	2828.42
700.526	2850.72
700.931	2921.47
701.337	2976.07
701.742	3010.49
702.147	3095.34
702.552	3128.66
702.957	3188.91
703.362	3211.87
703.767	3241.66
704.172	3281.55
704.577	3237.26
704.981	3283.23
705.386	3302.37
705.791	3296.56
706.195	3372.97
706.6	3381.94
707.004	3459.1
707.408	3431.2
707.813	3458.84
708.217	3448.34
708.621	3453.18
709.025	3551.23
709.43	3554.53
709.834	3612.17
710.237	3680.3
710.641	3665.57
711.045	3687.75
711.449	3684.81
711.853	3712.63
712.256	3751.1
712.66	3787.38
713.064	3859.92
713.467	3898.61
713.87	4007.76
714.274	4053.8
714.677	4161.8
715.08	4319.57
715.484	4485.3
715.887	4683
716.29	4877.84
716.693	5083.02
717.096	5317.56
717.499	5445.74
717.901	5469.72
718.304	5495.69
718.707	5518.93
719.109	5416.85
719.512	5385.78
719.915	5251.84
720.317	5196.12
720.719	5237.62
721.122	5209.09
721.524	5161.48
721.926	5123.1
722.328	5220.83
722.731	5212.78
723.133	5239.76
723.535	5431.34
723.937	5451.72
724.338	5502.91
724.74	5542.59
725.142	5509.41
725.544	5510.6
725.945	5541.2
726.347	5535.13
726.748	5531.64
727.15	5540.97
727.551	5505.27
727.952	5474.05
728.354	5445.32
728.755	5444.02
729.156	5401.48
729.557	5360.42
729.958	5236.36
730.359	5176.35
730.76	5155.62
731.161	5095.57
731.562	5071.34
731.962	5071.6
732.363	5008.52
732.763	4943.59
733.164	4977.14
733.564	4910.88
733.965	4816.27
734.365	4781.82
734.766	4809.34
735.166	4771.35
735.566	4716.45
735.966	4691.24
736.366	4686.22
736.766	4626.05
737.166	4656.59
737.566	4614.63
737.966	4588.47
738.365	4626.43
738.765	4620.49
739.165	4545.25
739.564	4518.67
739.964	4559.69
740.363	4516.31
740.763	4510.8
741.162	4499.83
741.561	4469.09
741.96	4427.72
742.36	4447.62
742.759	4452.32
743.158	4490.11
743.557	4505.99
743.955	4546.65
744.354	4503.08
744.753	4557.25
745.152	4520.87
745.55	4574.27
745.949	4568.27
746.348	4566.95
746.746	4583.29
747.144	4547.25
747.543	4526.13
747.941	4572.15
748.339	4504.95
748.737	4499.17
749.136	4491.52
749.534	4553.34
749.932	4527.62
750.33	4551.25
750.727	4605.72
751.125	4583.22
751.523	4568.47
751.921	4612.26
752.318	4580.76
752.716	4639.95
753.113	4654.61
753.511	4675.31
753.908	4675.41
754.305	4661.01
754.703	4720.81
755.1	4782.28
755.497	4840.71
755.894	5023.7
756.291	5196.21
756.688	5516.4
757.085	5938.88
757.482	6534.12
757.878	7190.83
758.275	7782.07
758.672	8589.68
759.068	9247.86
759.465	10189.76
759.861	11401.1
760.258	12808.72
760.654	13537.48
761.05	13424.81
761.447	12804.3
761.843	11918.78
762.239	11003.24
762.635	10585.7
763.031	10189.81
763.427	9623.3
763.822	9020.48
764.218	8424.85
764.614	7655.56
765.01	7137.84
765.405	6804.78
765.801	6551.36
766.196	6228.78
766.592	6050.64
766.987	5746.65
767.382	5539.05
767.778	5447.32
768.173	5322.11
768.568	5254.39
768.963	5132.5
769.358	5149.05
769.753	5104.23
770.148	5025.37
770.542	5022.71
770.937	4989.48
771.332	5079.53
771.726	5098.38
772.121	5045.19
772.515	5098.43
772.91	5083.49
773.304	5153.96
773.699	5093.5
774.093	5145.95
774.487	5199.91
774.881	5245.38
775.275	5243.72
775.669	5203.51
776.063	5250.21
776.457	5284.37
776.851	5210.68
777.245	5205.79
777.638	5240.94
778.032	5349.83
778.425	5315.74
778.819	5360.37
779.212	5319.36
779.606	5283.85
779.999	5302.51
780.392	5285.51
780.786	5363.69
781.179	5385.61
781.572	5426.7
781.965	5438.9
782.358	5386.74
782.751	5440.48
783.143	5389.31
783.536	5459.24
783.929	5500.63
784.322	5610.89
784.714	5638.39
785.107	5634.21
785.499	5707.33
785.891	5684.66
786.284	5665.21
786.676	5800.31
787.068	5785.7
787.46	5835.81
787.852	5856.92
788.245	5937.99
788.636	5968.05
789.028	6037.91
789.42	6076.69
789.812	6083.9
790.204	6178.2
790.595	6276.93
790.987	6085.95
791.378	6106.41
791.77	6234.95
792.161	6366.07
792.553	6423.54
792.944	6313.21
793.335	6243.28
793.726	6314.88
794.117	6401.9
794.508	6536.92
794.899	6505.63
795.29	6642.59
795.681	6700.63
796.072	6564.9
796.463	6396.59
796.853	6406.19
797.244	6563.29
797.634	6597.26
798.025	6597.22
798.415	6607.87
798.806	6694.03
799.196	6779.51
799.586	6832.03
799.976	6796.96
800.366	7020.81
800.756	7246.75
801.146	7206.67
801.536	7240.03
801.926	7316.92
802.316	7343.61
802.706	7417.54
803.095	7300.37
803.485	7396.94
803.874	7435.17
804.264	7684.75
804.653	7663.07
805.043	7806.33
805.432	7918.9
805.821	7920.85
806.21	7947.02
806.599	8069.68
806.988	8116.72
807.377	8224.89
807.766	8362.79
808.155	8650.09
808.544	8399.62
808.933	8416.39
809.321	8399.78
809.71	8694.86
810.098	8854.75
810.487	9305.52
810.875	9773.65
811.264	9798.89
811.652	10090.77
812.04	10231.12
812.428	10392.02
812.816	11142.98
813.204	11558.66
813.592	12097.91
813.98	12424.41
814.368	12334.6
814.756	12809.46
815.144	12735.13
815.531	13195.28
815.919	13123.09
816.306	13425.45
816.694	13123.47
817.081	13176.6
817.469	13513.55
817.856	13512.91
818.243	13774.91
818.63	14161.08
819.017	13751.4
819.404	13817.78
819.791	14198.13
820.178	14800.52
820.565	15046.3
820.952	15972.52
821.339	15495.28
821.725	15688.61
822.112	14965.58
822.498	14933.88
822.885	15060.02
823.271	14964.82
823.657	15373.08
824.044	15374.05
824.43	15444.93
824.816	15420.46
825.202	14985.57
825.588	15980.31
825.974	15983.15
826.36	16487.17
826.746	16515.57
827.132	16861.24
827.517	16836.4
827.903	16054.51
828.289	16088.73
828.674	15319.66
829.06	15204.6
829.445	15586.34
829.83	15933.09
830.216	16395.11
830.601	16746.17
830.986	16345.77
831.371	16213.15
831.756	16746.62
832.141	16319.01
832.526	16307.64
832.911	16585.59
833.295	16476.84
833.68	16929.32
834.065	16311.68
834.449	15419.2
834.834	15341.1
835.218	15325.18
835.603	15644.93
835.987	15434.31
836.371	16251.41
836.755	16146.68
837.139	16527.73
837.524	16748.19
837.908	16569.83
838.291	16631.92
838.675	16688.6
839.059	16878.2
839.443	16865.31
839.827	16641.35
840.21	17100.41
840.594	16947.43
840.977	17143.64
841.361	17125
841.744	17494.05
842.127	17339.78
842.511	17578.1
842.894	18158.12
843.277	18530.55
843.66	19054.39
844.043	19140.9
844.426	18371.19
844.809	18071.09
845.191	18104.64
845.574	17653.24
845.957	17295.28
846.339	17195.86
846.722	16677.65
847.104	16739.73
847.487	16577.17
847.869	16603.22
848.252	16875.09
848.634	17197.03
849.016	17457.53
849.398	17580.91
849.78	18407.63
850.162	18410.45
850.544	18817.66
850.926	19438.86
851.307	19352.56
851.689	19623.45
852.071	20052.11
852.452	20365.2
852.834	20350.2
853.215	20738.83
853.597	20887.37
853.978	21175.84
854.359	21631.53
854.741	20668.77
855.122	20566.99
855.503	20296.1
855.884	20425.73
856.265	20378.8
856.646	20489.78
857.026	20106.72
857.407	20049.28
857.788	20202.62
858.169	20481.17
858.549	19662.61
858.93	20266.41
859.31	20316.58
859.69	20523.48
860.071	20141.12
860.451	19918.76
860.831	19202.54
861.211	20335.68
861.591	20861.69
861.971	20836.18
862.351	21023.12
862.731	21391.13
863.111	21638.21
863.491	21963.86
863.87	22819.45
864.25	23154.65
864.629	22768.32
865.009	23255
865.388	24067.67
865.768	25794.42
866.147	25692.1
866.526	24274.22
866.905	24566.37
867.284	25949.53
867.663	24630.74
868.042	23593.27
868.421	23515.03
868.8	23901.85
869.179	24149.91
869.558	22737.03
869.936	20946.2
870.315	21319.45
870.693	21836.7
871.072	23534.25
871.45	22411.58
871.828	22699.14
872.207	23869.02
872.585	23503.61
872.963	24137.39
873.341	23287.91
873.719	23013.7
874.097	22737.08
874.475	23164.18
874.853	23683.9
875.23	22704.34
875.608	23661.5
875.986	25592.83
876.363	24470.08
876.741	25215.31
877.118	24594.15
877.495	25808.59
877.873	26248.51
878.25	27633.16
878.627	26510.87
879.004	26882.55
879.381	26743.62
879.758	26035.53
880.135	24240.08
880.512	25629.69
880.889	24944.41
881.265	24678.42
881.642	24469.97
882.019	24864.78
882.395	24361.7
882.772	25333.62
883.148	24235.7
883.524	24152.14
883.901	24013.99
884.277	24365.83
884.653	24206.59
885.029	24911.13
885.405	27587.88
885.781	27370.37
886.157	26246.64
886.532	26563.1
886.908	26539.45
887.284	29504.96
887.659	30467.63
888.035	31407.56
888.411	32224.4
888.786	32653.06
889.161	33775.74
889.537	33139.43
889.912	34205.5
890.287	34173.72
890.662	35046.33
891.037	34409.33
891.412	32083.78
891.787	31741.17
892.162	30631.07
892.536	31320.09
892.911	30145.74
893.286	29510.48
893.66	28326.64
894.035	29049.43
894.409	31622.21
894.784	30343.34
895.158	30836.64
895.532	32667.41
895.906	33565.66
896.281	34360.19
896.655	33826.12
897.029	38666.42
897.402	40266.9
897.776	44827.2
898.15	44687.25
898.524	44208.39
898.898	44794.76
899.271	50175.29
899.645	43477.19
900.018	41778.84
900.392	43338.93
900.765	43694.5
901.138	40423.21
901.511	39814.43
901.884	36568.43
902.258	33701.24
902.631	34839.66
903.003	40107.06
903.376	36179.03
903.749	40547.67
904.122	43370.35
904.495	47727.17
904.867	48323.31
905.24	41916.78
905.612	39008.78
905.985	39855.43
906.357	41682.74
906.729	39769.63
907.102	33955.36
907.474	32639.47
907.846	32837.54
908.218	32406.75
908.59	28643.6
908.962	27704.87
909.334	29860.28
909.705	31374.15
910.077	30468.33
910.449	31704.84
910.82	32604.12
911.192	35869.5
911.563	37289.46
911.935	39907.62
912.306	39952.95
912.677	41254.22
913.048	40845.67
913.419	44316.26
913.79	44546.94
914.161	47761.38
914.532	45663.34
914.903	41943.6
915.274	39879.22
915.645	39291.25
916.015	34585.85
916.386	32996.86
916.756	35117.13
917.127	36247.29
917.497	32372.01
917.868	35239.58
918.238	33472.87
918.608	34429.88
918.978	35145.93
919.348	37217.18
919.718	38434.75
920.088	37011.52
920.458	38434.54
920.828	40443.42
921.198	38322.3
921.567	40950.48
921.937	31727.68
922.306	32050.85
922.676	34577.19
923.045	28855.54
923.415	27412.7
923.784	24969.96
924.153	25686.75
924.522	25686.62
924.891	24150.29
925.26	25876.32
925.629	25281.43
925.998	29066.21
926.367	28383.4
926.736	27040.55
927.104	32211.19
927.473	34601.59
927.842	41842.38
928.21	41445.15
928.578	43564.08
928.947	41202.29
929.315	41480.44
929.683	48645.98
930.051	49049.92
930.42	56951.16
930.788	48690.21
931.156	48316.38
931.523	45317.73
931.891	41844.12
932.259	40200.63
932.627	46616.76
932.994	65996.26
933.362	54546.51
933.729	47354.74
934.097	45330.39
934.464	38386.17
934.831	44281.51
935.199	43671.58
935.566	42388.97
935.933	42977.32
936.3	52114.86
936.667	40579.23
937.034	36666.32
937.401	36251.68
937.767	31311.76
938.134	27882.43
938.501	39341.99
938.867	41970.97
939.234	71005.28
939.6	60581.93
939.967	66820.87
940.333	44734.48
940.699	38076.59
941.065	30497.07
941.431	40042.46
941.798	38639.04
942.163	50728.92
942.529	31711.59
942.895	29199.58
943.261	18904.38
943.627	24797.32
943.992	21712.54
944.358	21737.74
944.723	21814.87
945.089	21275.31
945.454	19659.52
945.82	20979.54
946.185	20163.83
946.55	23336.43
946.915	20947.7
947.28	24556.18
947.645	21631.11
948.01	19967.19
948.375	20817.04
948.74	24943.67
949.104	29065.57
949.469	41916.78
949.834	74028.12
950.198	70228.1
950.562	42111.26
950.927	35077.75
951.291	42220.66
951.655	35935.6
952.02	33723.86
952.384	25508.77
952.748	22225.92
953.112	21702.86
953.476	18887.91
953.839	17457.49
954.203	17288.67
954.567	21603.47
954.931	33957.99
955.294	29039.44
955.658	29219.79
956.021	49677.82
956.385	84226.51
956.748	124103.72
957.111	192300.39
957.474	215759.85
957.837	242859.14
958.2	183483.29
958.563	66022.9
958.926	44679.15
959.289	67788.94
959.652	75611.44
960.015	56696.35
960.377	81275.62
960.74	92788.27
961.102	160114.02
961.465	171901.18
961.827	92299.58
962.189	177248.6
962.552	122816.64
962.914	98403.84
963.276	63868.95
963.638	52818.45
964	52353.55
964.362	35425.86
964.724	34211.99
965.085	24387.85
965.447	20000.35
965.809	22747.04
966.17	22745.64
966.532	24599.37
966.893	22580.39
967.255	20534.56
967.616	24272.39
967.977	19427.96
968.338	21187.49
968.699	17391.91
969.061	17389.97
969.421	17484.17
969.782	19616.17
970.143	16578.62
970.504	17192.22
970.865	19542.35
971.225	19980.28
971.586	19518.46
971.946	27806.89
972.307	24109.6
972.667	31543.6
973.027	32484.51
973.388	39385.48
973.748	26794.45
974.108	29174.56
974.468	39423.28
974.828	30424.85
975.188	23416.29
975.548	21490.42
975.907	18046.9
976.267	20261.09
976.627	17038.01
976.986	17662.35
977.346	16855.25
977.705	16201.37
978.064	14760.52
978.424	12280.54
978.783	12687.76
979.142	14482.29
979.501	13860.25
979.86	14671.26
980.219	14149.25
980.578	18238.16
980.937	20426.87
981.296	18187.76
981.654	18724.06
982.013	29147.74
982.371	37905
982.73	35405.67
983.088	40077.22
983.447	42874.57
983.805	61235.4
984.163	127908.32
984.521	141869.14
984.879	208050.93
985.237	-338621.39
985.595	326974.13
985.953	81187.5
986.311	46789.61
986.669	27120.74
987.026	23416.81
987.384	31490.01
987.741	32517.59
988.099	23278.67
988.456	18586.14
988.814	17427.44
989.171	15129.97
989.528	14880.74
989.885	15718.25
990.242	12449.73
990.599	15508.58
990.956	12663
991.313	8860.31
991.67	7273.88
992.027	7723.98
992.383	6860.22
992.74	6014.59
993.096	6327.11
993.453	6568.64
993.809	6814.59
994.165	9064.96
994.522	8330.66
994.878	9190.63
995.234	11521.66
995.59	11374.07
995.946	10747.16
996.302	12284.59
996.658	14175.21
997.013	15581.52
997.369	18482.18
997.725	23652.6
998.08	15364.43
998.436	23656.43
998.791	32669.6
999.147	32572.02
999.502	35580.81
999.857	25820.61
1000.212	42051.19
1000.567	59810.27
1000.922	34480.41
1001.277	21950.24
1001.632	16245.71
1001.987	20930.05
1002.342	15003.98
1002.696	12016.76
1003.051	9611.45
1003.406	11624.43
1003.76	11602.43
1004.114	11428.89
1004.469	9622.84
1004.823	7982.71
1005.177	8611.8
1005.531	6833.83
1005.885	6071.58
1006.239	6860.05
1006.593	8603.62
1006.947	11521.08
1007.301	8645.83
1007.655	9399.85
1008.008	6909.52
1008.362	7770.04
1008.715	11092.39
1009.069	10045.45
1009.422	15176.64
1009.776	30378.51
1010.129	20163.22
1010.482	16769.46
1010.835	14142.64
1011.188	29426.22
1011.541	27696.54
1011.894	-168912.1
1012.247	498387.91
1012.6	33877.33
1012.952	21444.35
1013.305	10978.79
1013.657	7936.85
1014.01	7539.41
1014.362	6267.22
1014.715	5602.36
1015.067	4888.1
1015.419	4787.84
1015.771	4253.81
1016.123	3765.1
1016.475	3875.85
1016.827	4124.18
1017.179	4460.1
1017.531	4466.3
1017.883	4545.09
1018.234	4401.85
1018.586	5553.36
1018.938	5919.94
1019.289	8162.31
1019.64	9354.06
1019.992	8752.15
1020.343	8003.65
1020.694	6340.26
1021.045	5566.39
1021.396	6372.4
1021.747	6877.79
1022.098	8221.28
1022.449	5953.22
1022.8	5497.91
1023.151	3857.12
1023.501	3420.48
1023.852	3711.54
1024.202	3859.91
1024.553	4223.54
1024.903	4150.77
1025.253	3561.1
1025.604	3199.6
1025.954	3953.08
1026.304	4803.67
1026.654	5588.2
1027.004	8168.66
1027.354	13169.75
1027.703	12390.57
1028.053	16279.65
1028.403	23802.15
1028.753	34710.86
1029.102	47149.73
1029.452	240419.12
1029.801	10367.65
1030.15	6698.91
1030.499	5671
897.758	3369.88
901.051	3358.65
904.343	3399.93
907.636	3390.42
910.928	3460.74
914.22	3358.42
917.511	3371.59
920.803	3464.98
924.094	3514.5
927.384	3460.51
930.675	3421.13
933.965	3361.17
937.255	3353.09
940.544	3315
943.834	3155.29
947.123	3114.33
950.411	3225.83
953.7	3183.95
956.988	3125.1
960.276	3073.48
963.563	3200.19
966.851	3182.36
970.138	3264.46
973.424	3236.96
976.711	3184.52
979.997	3456.88
983.283	3471.03
986.568	3331.87
989.853	3383.61
993.138	3417.71
996.423	3499.07
999.708	3409.07
1002.992	3531.01
1006.275	3240.65
1009.559	3356.81
1012.842	3502.44
1016.125	3402.33
1019.408	3379.21
1022.69	3512.63
1025.972	3514.27
1029.254	3481.3
1032.536	3368.91
1035.817	3415.28
1039.098	3312.69
1042.379	3597.87
1045.659	3542.08
1048.939	3450.7
1052.219	3493.97
1055.498	3526.2
1058.778	3496.88
1062.057	3487.36
1065.335	3503.12
1068.614	3540.47
1071.892	3504.22
1075.17	3609.64
1078.447	3585.63
1081.724	3568.87
1085.001	3622.66
1088.278	3586.44
1091.554	3609.48
1094.83	3607.89
1098.106	3634.52
1101.382	3700.44
1104.657	3699.27
1107.932	3695.87
1111.206	3641.63
1114.481	3596.25
1117.755	3611.42
1121.029	3567.36
1124.302	3618.66
1127.575	3543.87
1130.848	3516.06
1134.121	3465.99
1137.393	3397.11
1140.665	3479.97
1143.937	3460.98
1147.208	3347.13
1150.48	3377.52
1153.75	3354.89
1157.021	3431.33
1160.291	3383.58
1163.561	3426.93
1166.831	3451.41
1170.101	3487.65
1173.37	3462.14
1176.639	3379.21
1179.907	3452.26
1183.176	3522.41
1186.444	3524.46
1189.711	3555.65
1192.979	3552.22
1196.246	3512.09
1199.513	3536.85
1202.78	3528.78
1206.046	3533.02
1209.312	3586.13
1212.578	3621.72
1215.843	3549.88
1219.108	3526.59
1222.373	3553.78
1225.638	3496.58
1228.902	3472.74
1232.166	3427.08
1235.43	3399.62
1238.693	3412.48
1241.956	3419.75
1245.219	3445.7
1248.482	3459.17
1251.744	3445.56
1255.006	3639.66
1258.268	3600.19
1261.529	3528.05
1264.79	3547.74
1268.051	3691.17
1271.312	3712.17
1274.572	3667.29
1277.832	3660.81
1281.092	3661.93
1284.351	3601.62
1287.61	3572.76
1290.869	3455.39
1294.128	3404.01
1297.386	3550.38
1300.644	3532.48
1303.902	3545.33
1307.159	3382.97
1310.416	3446.37
1313.673	3462.16
1316.93	3431.65
1320.186	3505.19
1323.442	3564.05
1326.697	3536.16
1329.953	3550.19
1333.208	3562.51
1336.463	3546.24
1339.717	3470.1
1342.972	3552.9
1346.226	3563.17
1349.479	3468.88
1352.733	3420.57
1355.986	3464.54
1359.238	3433.27
1362.491	3432.24
1365.743	3438.29
1368.995	3441.74
1372.247	3450.1
1375.498	3464.43
1378.749	3543.03
1382	3473.15
1385.251	3555.16
1388.501	3528.59
1391.751	3493.1
1395	3474.65
1398.25	3515.63
1401.499	3509.41
1404.748	3416
1407.996	3319.49
1411.244	3314.55
1414.492	3287.17
1417.74	3261.62
1420.987	3284.82
1424.234	3334.9
1427.481	3340.76
1430.728	3393.73
1433.974	3370.62
1437.22	3402.8
1440.465	3404.52
1443.711	3420.85
1446.956	3456.6
1450.201	3465.51
1453.445	3512.85
1456.689	3472.24
1459.933	3493.31
1463.177	3521.9
1466.42	3492.69
1469.663	3469.92
1472.906	3434.9
1476.148	3590.84
1479.391	3455.43
1482.633	3443.94
1485.874	3440.61
1489.115	3402.31
1492.356	3435.64
1495.597	3402.44
1498.838	3415.59
1502.078	3357.33
1505.318	3270.04
1508.557	3331.76
1511.797	3233.78
1515.036	3430.39
1518.274	3411.15
1521.513	3397.76
1524.751	3432.61
1527.989	3431.83
1531.227	3436.86
1534.464	3400.16
1537.701	3458.82
1540.938	3491.48
1544.174	3446.88
1547.41	3461.79
1550.646	3500.13
1553.882	3521.4
1557.117	3575.41
1560.352	3602.59
1563.587	3552.96
1566.821	3498.56
1570.055	3566.37
1573.289	3519.15
1576.523	3625.52
1579.756	3619.26
1582.989	3635.12
1586.222	3593.19
1589.454	3645.21
1592.686	3607.32
1595.918	3627.02
1599.15	3602.97
1602.381	3719.98
1605.612	3635.35
1608.843	3745.74
1612.073	3637.25
1615.303	3617.48
1618.533	3595.75
1621.762	3607.26
1624.992	3608.22
1628.221	3570.77
1631.449	3554.02
1634.678	3650.7
1637.906	3588.5
1641.134	3648.57
1644.361	3589.93
1647.588	3573.64
1650.815	3582.91
1654.042	3578.7
1657.269	3621.03
1660.495	3570.89
1663.72	3495.8
1666.946	3491.5
1670.171	3386.5
1673.396	3362.04
1676.621	3365.04
1679.845	3417.75
1683.069	3461.41
1686.293	3527.73
1689.517	3474.92
1692.74	3359.3
1695.963	3374.94
1699.185	3492.72
1702.408	3429.27
1705.63	3490.86
1708.852	3498.42
1712.073	3462.2
1715.294	3424.94
1718.515	3436.16
1721.736	3385.73
1724.956	3333.18
1728.176	3373.68
1731.396	3391.52
1734.616	3392.5
1737.835	3396.29
1741.054	3393.14
1744.272	3394.34
1747.491	3405.29
1750.709	3498.6
1753.927	3405.49
1757.144	3461.39
1760.361	3550.92
1763.578	3559.33
1766.795	3486.89
1770.011	3507.69
1773.227	3577.22
1776.443	3606.89
1779.658	3649.42
1782.874	3594.99
1786.089	3554.28
1789.303	3560.1
1792.518	3570.43
1795.732	3560.62
1798.945	3563.84
1802.159	3628.12
1805.372	3476.83
1808.585	3445.08
1811.797	3449.67
1815.01	3536.63
1818.222	3541.86
1821.434	3393.59
1824.645	3512.54
1827.856	3465.66
1831.067	3523.9
1834.278	3426.66
1837.488	3419.81
1840.698	3615.05
1843.908	3507.82
1847.117	3462.65
1850.326	3276.11
1853.535	3423.58
1856.744	3576.1
1859.952	3442.74
1863.16	3438.37
1866.368	3459.71
1869.575	3635.07
1872.782	3506.62
1875.989	3449.37
1879.196	3586.54
1882.402	3582.86
1885.608	3637.07
1888.814	3487.41
1892.019	3351.63
1895.224	3406.39
1898.429	3405.21
1901.634	3370.48
1904.838	3358.43
1908.042	3397.94
1911.246	3394.25
1914.449	3278.82
1917.652	3298.32
1920.855	3283.13
1924.058	3364.62
1927.26	3392.66
1930.462	3430.94
1933.664	3444.03
1936.865	3369.96
1940.066	3360.86
1943.267	3312.39
1946.467	3340.27
1949.668	3379.62
1952.868	3446.24
1956.067	3401.76
1959.267	3318.22
1962.466	3353.77
1965.665	3341.5
1968.863	3338.99
1972.061	3379.61
1975.259	3384.89
1978.457	3475.01
1981.654	3422.52
1984.852	3423.51
1988.048	3321.58
1991.245	3345.82
1994.441	3436.7
1997.637	3455.83
2000.833	3436.05
2004.028	3483.44
2007.223	3524.57
2010.418	3485.85
2013.613	3452.7
2016.807	3389.3
2020.001	3417.19
2023.194	3495.52
2026.388	3458.04
2029.581	3405.68
2032.774	3434.21
2035.966	3432.36
2039.158	3340.98
2042.35	3381.15
2045.542	3301.88
2048.733	3443.23
2051.924	3508.45
2055.115	3552.96
2058.306	3460.33
2061.496	3529
2064.686	3616.1
2067.875	3537.46
2071.065	3570.7
2074.254	3608.47
2077.442	3555.66
2080.631	3665.64
2083.819	3487.92
2087.007	3449.45
2090.195	3402.76
2093.382	3465.78
2096.569	3439.84
2099.756	3371.91
2102.942	3369.32
2106.128	3358.53
2109.314	3360.79
2112.5	3287.97
2115.685	3274.56
2118.87	3291.26
2122.055	3369.73
2125.239	3309.81
2128.424	3263.35
2131.608	3437.84
2134.791	3417.21
2137.974	3509.84
2141.157	3488.98
2144.34	3409.53
2147.523	3415.4
2150.705	3407.6
2153.887	3403.71
2157.068	3318.91
2160.25	3350.64
2163.431	3415.95
2166.611	3316.76
2169.792	3333.18
2172.972	3194.93
2176.152	3319.54
2179.331	3365.53
2182.511	3358.46
2185.69	3395.76
2188.868	3382.13
2192.047	3469.98
2195.225	3425.67
2198.403	3371.78
2201.58	3377.55
2204.758	3376.65
2207.935	3478.32
2211.111	3321.58
2214.288	3298.23
2217.464	3351.83
2220.64	3330.53
2223.815	3395.66
2226.991	3299.31
2230.166	3326.61
2233.34	3337.37
2236.515	3377.23
2239.689	3474.57
2242.863	3402.35
2246.036	3469.23
2249.209	3499.24
2252.382	3552.32
2255.555	3525.4
2258.727	3436.47
2261.9	3490.58
2265.071	3481.49
2268.243	3492.79
2271.414	3399.72
2274.585	3324.1
2277.756	3409.18
2280.926	3362.01
2284.096	3416.28
2287.266	3288.61
2290.436	3361.5
2293.605	3407.98
2296.774	3427.53
2299.942	3474.52
2303.111	3491.37
2306.279	3533.89
2309.447	3524.17
2312.614	3505.67
2315.781	3517.09
2318.948	3473.67
2322.115	3518.35
2325.281	3414.28
2328.447	3451.22
2331.613	3432.19
2334.779	3374.91
2337.944	3391.37
2341.109	3382.99
2344.274	3358.23
2347.438	3314.23
2350.602	3350.11
2353.766	3372.14
2356.929	3352.67
2360.092	3400.77
2363.255	3324.58
2366.418	3208.04
2369.58	3394.44
2372.742	3042.11
2375.904	3085.22
2379.066	3041.87
2382.227	3094.04
2385.388	3049.52
2388.548	2946.25
2391.709	3024.07
2394.869	2991.11
2398.029	3153.04
2401.188	3195.37
2404.347	3083.14
2407.506	3323.29
2410.665	3346.28
2413.823	3378.45
2416.981	3301.78
2420.139	3356.47
2423.296	3418.73
2426.453	3392.53
2429.61	3420.34
2432.767	3303.03
2435.923	3359.88
2439.079	3218.64
2442.235	3317.59
2445.391	3217.94
2448.546	3223.59
2451.701	3303.02
2454.855	3235.95
2458.009	3323.82
2461.163	3345.07
2464.317	3283.97
2467.471	3329.59
2470.624	3368.34
2473.777	3437.17
2476.929	3419.98
2480.082	3448.95
2483.234	3418.77
2486.385	3266.45
2489.537	3272.52
2492.688	3192.1
2495.839	3208.93
2498.989	3210.38
2502.14	3188.65
2505.29	3153.86
2508.439	3185.55
2511.589	3080.53
2514.738	3111.99
2517.887	3140.45
2521.035	3318.53
2524.183	3313.3
2527.331	3279.37
2530.479	3225.9
2533.627	3250.55
