Data from N_3_DEC_OH_4N_Splice17_13-34-45-586.txt Node
Date: Sat Mar 14 13:34:45 EDT 2020
User: sa697716
Spectrometer: FLMS03696
Trigger mode: 0
Integration Time (sec): 3.180400E-1
Scans to average: 20
Electric dark correction enabled: true
Nonlinearity correction enabled: true
Boxcar width: 5
XAxis mode: Wavelengths
Number of Pixels in Spectrum: 2048
>>>>>Begin Spectral Data<<<<<
187.83	-387112.44
188.298	2870.08
188.766	1560.15
189.233	1407.17
189.701	1994.85
190.169	2914.91
190.636	1108.61
191.104	923
191.571	177.87
192.039	-74.16
192.506	-134.5
192.974	428.9
193.441	-667.06
193.908	-78.41
194.375	4.2
194.842	73.46
195.31	242.54
195.777	240.61
196.244	485.02
196.711	584.28
197.177	729.79
197.644	1011.16
198.111	1735.84
198.578	2478.2
199.045	1991.84
199.511	3226.44
199.978	3739.46
200.445	3189.61
200.911	3523.06
201.378	3949.42
201.844	3552.48
202.31	6069.16
202.777	6268.61
203.243	3497.13
203.709	3308.32
204.176	3938.1
204.642	3244.11
205.108	3044.09
205.574	2479.07
206.04	2251.41
206.506	2108.2
206.972	1990.07
207.438	1915.5
207.903	2189.08
208.369	1907.23
208.835	1887.87
209.301	1986.44
209.766	2052.95
210.232	2042.24
210.697	2537.41
211.163	3145.16
211.628	4759.34
212.094	4021.41
212.559	4975.3
213.024	3107.88
213.49	3815.26
213.955	3754.75
214.42	3675.46
214.885	3429.95
215.35	3298.56
215.815	3179.2
216.28	3384.75
216.745	2771.26
217.21	3017.89
217.675	2796.27
218.14	3193.82
218.604	3639.65
219.069	4232.04
219.534	4517.32
219.998	5325.2
220.463	6544.14
220.927	8157.41
221.392	7771.83
221.856	7948.39
222.32	10126.06
222.785	12580.16
223.249	15902.07
223.713	17853.01
224.177	17932.81
224.642	23087.65
225.106	28516.01
225.57	31264.27
226.034	23296.74
226.497	35517.94
226.961	32112.71
227.425	37405.59
227.889	41605.79
228.353	41703.95
228.816	86121.33
229.28	82429.38
229.744	69543.49
230.207	42235.34
230.671	41578.89
231.134	68854.9
231.597	79441.58
232.061	79463.28
232.524	77600.77
232.987	53488.14
233.45	48200.41
233.914	43271.68
234.377	44420.66
234.84	40675.55
235.303	48029.91
235.766	53602.61
236.229	55480.36
236.691	34952.3
237.154	39298.3
237.617	29551.8
238.08	30291.83
238.542	35446.54
239.005	25341.56
239.468	25135.84
239.93	23708.76
240.393	21567.3
240.855	18944.28
241.317	19400.08
241.78	23614.88
242.242	24440.9
242.704	26394.24
243.166	22983.84
243.629	20868.04
244.091	24052.95
244.553	26382.62
245.015	28359.13
245.477	36698.21
245.939	53820.93
246.4	57118.86
246.862	55584.37
247.324	52400.05
247.786	58698.99
248.247	77053.21
248.709	79660.96
249.17	59621.58
249.632	56195.73
250.093	65230.01
250.555	56360.76
251.016	34385.15
251.477	32681.59
251.939	35322.91
252.4	37127.61
252.861	44208.83
253.322	41118.49
253.783	48977.13
254.244	63580.01
254.705	50152.07
255.166	44594.47
255.627	43977.56
256.088	62117.11
256.549	65982.82
257.009	56769.7
257.47	68886.72
257.931	56142.26
258.391	42076.81
258.852	43404.12
259.312	45531.69
259.773	56321.7
260.233	47618.87
260.694	40155.3
261.154	45606.33
261.614	36609.09
262.074	32805.65
262.534	34111.44
262.994	32174.67
263.455	42972.7
263.915	36265.84
264.374	34207.88
264.834	37395.62
265.294	41559.53
265.754	43130.7
266.214	40851.1
266.673	38341.05
267.133	48454.94
267.593	48178.06
268.052	59023.38
268.512	51359
268.971	61944.29
269.431	68009.74
269.89	60954.44
270.349	91444.43
270.809	101995.81
271.268	91800.95
271.727	206249.37
272.186	133715.82
272.645	100363.16
273.104	72509.48
273.563	105091.91
274.022	82780.18
274.481	70480.92
274.94	54322.7
275.399	40398.51
275.857	47116.74
276.316	63779.44
276.775	56760.39
277.233	55915.76
277.692	52334.97
278.15	59234.17
278.609	60955.63
279.067	56447.67
279.525	52429.8
279.984	67820.64
280.442	81545.27
280.9	80430.51
281.358	52915.78
281.816	49319.43
282.274	48307.47
282.732	49959.37
283.19	50177.66
283.648	43321.18
284.106	46210.55
284.564	47017.42
285.021	43571.81
285.479	32476.63
285.937	29539.51
286.394	25939.32
286.852	26721.82
287.309	28096.57
287.767	27111.28
288.224	25799.22
288.682	28330.66
289.139	31069.54
289.596	28447.9
290.053	29607.12
290.511	37390.92
290.968	45346.22
291.425	61599.25
291.882	51256.42
292.339	44673.81
292.796	44392.99
293.252	41887.04
293.709	33281.16
294.166	29814.87
294.623	32967.91
295.079	31638.57
295.536	31772.47
295.992	28852.78
296.449	28534.82
296.905	29645.95
297.362	28423.83
297.818	29934.06
298.274	31077.88
298.731	31676.58
299.187	31367.5
299.643	33708.67
300.099	40780.19
300.555	44769.97
301.011	37409.59
301.467	36022.18
301.923	42237.55
302.379	41242.7
302.835	40498.02
303.291	40527.38
303.746	46155.86
304.202	58349.24
304.658	58605.29
305.113	39433.29
305.569	38668.58
306.024	41301.32
306.479	39389.51
306.935	33210
307.39	36312.86
307.845	33505.5
308.301	33708.66
308.756	32841.53
309.211	31652.13
309.666	32422.78
310.121	40227.76
310.576	40836.61
311.031	40499.07
311.486	46386.49
311.94	46419.75
312.395	62082.16
312.85	116810.86
313.305	574479.77
313.759	2974625.76
314.214	215689.15
314.668	170947.11
315.123	143971.06
315.577	51580.81
316.032	45861.52
316.486	57503.45
316.94	45328.14
317.394	31554.84
317.849	24548.52
318.303	23243.25
318.757	21944.12
319.211	24268.66
319.665	21253.16
320.119	21499.82
320.572	30880.77
321.026	28881.71
321.48	24061.8
321.934	26249.25
322.387	26291.59
322.841	28425.42
323.295	25545.46
323.748	29434.56
324.202	29836.48
324.655	35827.56
325.108	50025.99
325.562	35329.28
326.015	41990.52
326.468	31699.59
326.921	35453.33
327.374	33079.08
327.827	34404.5
328.28	38952.84
328.733	26098.56
329.186	22964.3
329.639	21881.21
330.092	18435.95
330.545	17559.23
330.997	17698.84
331.45	19346.69
331.903	22665.56
332.355	39042.31
332.808	37962.27
333.26	31338.28
333.713	34025.37
334.165	34277.98
334.617	45814.18
335.069	37097.4
335.522	67029.09
335.974	74245.02
336.426	67850.96
336.878	47045
337.33	23823.17
337.782	23253.38
338.234	29097.19
338.686	34791.46
339.137	41206.35
339.589	38766.43
340.041	30366.58
340.493	26131.2
340.944	26752.72
341.396	28797.47
341.847	24193.19
342.299	28555.22
342.75	34854.97
343.201	30481.25
343.653	35087.52
344.104	43178.96
344.555	34048.13
345.006	53033.37
345.457	40549.64
345.908	32263.19
346.359	30390.5
346.81	24758.07
347.261	26111.62
347.712	25693
348.163	27538.1
348.613	27868.54
349.064	26019.36
349.515	22751.07
349.965	23338.59
350.416	28141.87
350.866	30871.26
351.317	34914.4
351.767	57799.64
352.217	73035.26
352.668	60711.19
353.118	55649.9
353.568	53703.98
354.018	42478.17
354.468	44854.24
354.918	32170.23
355.368	28206.89
355.818	39893.49
356.268	114771.84
356.718	480636.99
357.168	119584.79
357.617	59949.16
358.067	66800.05
358.517	62535.76
358.966	73216.71
359.416	81980.8
359.865	88590.83
360.315	105379.54
360.764	49135.65
361.213	27504.83
361.663	26089.42
362.112	32217.93
362.561	52030.11
363.01	39175.56
363.459	32995.82
363.908	35763.48
364.357	30345.75
364.806	51272.2
365.255	35223.67
365.703	32214.5
366.152	32291.42
366.601	26162.41
367.05	21201.39
367.498	19261.71
367.947	20136.98
368.395	20933.26
368.844	18520.08
369.292	22367.09
369.74	15432.03
370.189	23644.86
370.637	27726.47
371.085	23886.7
371.533	29064.23
371.981	28022.94
372.429	26697.65
372.877	27785.09
373.325	23221.31
373.773	23654.84
374.221	21025.07
374.669	26086.67
375.116	22488.94
375.564	22644.66
376.012	25298.32
376.459	20801.29
376.907	24800.67
377.354	29988.58
377.801	27928.98
378.249	32053.08
378.696	40909.42
379.143	49439.88
379.591	52701.41
380.038	89103.39
380.485	64336.87
380.932	69436.25
381.379	63500.5
381.826	46693.36
382.273	33133.5
382.72	28939.38
383.166	28207.89
383.613	18270.52
384.06	16480.97
384.506	19034.23
384.953	13970.39
385.4	14062.93
385.846	12309.84
386.292	12008.09
386.739	11771.2
387.185	11645.47
387.631	11639.12
388.078	11270.95
388.524	12057.7
388.97	11132.85
389.416	9276.84
389.862	9855.23
390.308	9332.82
390.754	9473.91
391.2	10284.9
391.645	10518.4
392.091	10046.51
392.537	9698.59
392.983	9734.66
393.428	9566.75
393.874	10270.43
394.319	10294.27
394.765	9766.79
395.21	10059.69
395.655	9432.88
396.101	8828.34
396.546	7970.05
396.991	8044.8
397.436	7488.14
397.881	7229.23
398.326	6858.08
398.771	6474.83
399.216	5663.85
399.661	5100.86
400.106	5072.85
400.551	5199.39
400.995	4666.16
401.44	4616.13
401.885	4339.36
402.329	4374.91
402.774	4195.49
403.218	4052.89
403.663	3900.54
404.107	4010.79
404.551	4036.74
404.995	3697.83
405.44	3554.47
405.884	3598.58
406.328	3475.24
406.772	3463.74
407.216	3153.45
407.66	3043.58
408.104	2888.28
408.547	2705.07
408.991	2614.61
409.435	2514.44
409.879	2477.17
410.322	2443.26
410.766	2358.27
411.209	2240.06
411.653	2144.8
412.096	2097.42
412.54	2094.36
412.983	2080.54
413.426	2081.62
413.869	2074.85
414.312	2030.77
414.756	1953.69
415.199	1860.91
415.642	1804.44
416.085	1804.34
416.527	1792.49
416.97	1818.05
417.413	1725.18
417.856	1704.19
418.298	1683.72
418.741	1672.78
419.184	1669.51
419.626	1738.47
420.069	1737.18
420.511	1747.12
420.953	1707.49
421.396	1688.08
421.838	1646.69
422.28	1681.63
422.722	1687.53
423.164	1712.33
423.606	1682.24
424.048	1678.61
424.49	1593.14
424.932	1583.43
425.374	1558.78
425.816	1587.96
426.258	1616.16
426.699	1630.01
427.141	1605.78
427.582	1627.75
428.024	1616.98
428.465	1606.05
428.907	1563.87
429.348	1544.44
429.789	1541.58
430.231	1507.19
430.672	1523.48
431.113	1486.92
431.554	1465.53
431.995	1424.96
432.436	1373.63
432.877	1343.33
433.318	1320.94
433.759	1315.61
434.2	1314.97
434.64	1300.49
435.081	1303
435.522	1236.44
435.962	1190.17
436.403	1162.29
436.843	1180.21
437.284	1154.81
437.724	1121.77
438.164	1121.87
438.604	1096.32
439.045	1054.77
439.485	1014.29
439.925	994.13
440.365	967.24
440.805	954.87
441.245	943.9
441.685	909.87
442.125	905.75
442.564	911.79
443.004	892.7
443.444	891.88
443.883	895.5
444.323	889.73
444.762	893.17
445.202	909.8
445.641	929.55
446.081	926.51
446.52	934.76
446.959	925.37
447.398	905.91
447.837	897.03
448.276	884.23
448.716	894.72
449.154	904.5
449.593	886.31
450.032	883.3
450.471	868.89
450.91	872.47
451.349	874.96
451.787	875.47
452.226	893.16
452.664	895.14
453.103	898.33
453.541	897.75
453.98	897.61
454.418	905.02
454.856	893.67
455.295	893.11
455.733	900.75
456.171	904.85
456.609	902.97
457.047	901.56
457.485	915.97
457.923	918.03
458.361	907.29
458.798	910.75
459.236	907.63
459.674	914.19
460.111	917.79
460.549	908.46
460.987	906.45
461.424	905.36
461.862	901.4
462.299	886.86
462.736	885.44
463.173	887.94
463.611	877.42
464.048	875.2
464.485	881.57
464.922	873.2
465.359	869.11
465.796	856.37
466.233	849.49
466.67	841.67
467.106	840.05
467.543	830.6
467.98	818.57
468.416	797.5
468.853	790.94
469.29	766.41
469.726	758.86
470.162	740.25
470.599	732.11
471.035	726.11
471.471	710.61
471.907	708.07
472.344	705.82
472.78	709.78
473.216	720.63
473.652	714.18
474.088	713.8
474.523	713.41
474.959	721.15
475.395	715.52
475.831	715.11
476.266	719.88
476.702	718.61
477.138	712.09
477.573	711.54
478.008	710.41
478.444	715.62
478.879	723.74
479.314	728.47
479.75	729.65
480.185	734.81
480.62	741.61
481.055	746.18
481.49	753.79
481.925	766.4
482.36	781.88
482.795	805.65
483.229	827.82
483.664	847.18
484.099	850.86
484.534	865.76
484.968	875.78
485.403	880.48
485.837	881.98
486.271	881.54
486.706	884.78
487.14	876.16
487.574	864.26
488.009	858.83
488.443	852.5
488.877	862.98
489.311	866.28
489.745	878.82
490.179	888.19
490.613	906.08
491.046	915.35
491.48	923.4
491.914	926.7
492.348	935.71
492.781	943.95
493.215	949.3
493.648	954.44
494.082	965.5
494.515	968.12
494.948	981.94
495.382	991.21
495.815	1000.81
496.248	1010.96
496.681	1031.37
497.114	1049.87
497.547	1067.03
497.98	1088.71
498.413	1101.8
498.846	1119.4
499.279	1136.67
499.711	1147.42
500.144	1154.44
500.577	1174.27
501.009	1195.62
501.442	1214.03
501.874	1220.03
502.306	1227.38
502.739	1241.8
503.171	1266.92
503.603	1274.67
504.036	1291.4
504.468	1302.53
504.9	1322.92
505.332	1335.17
505.764	1343.32
506.196	1356.31
506.627	1379.38
507.059	1400.85
507.491	1416.16
507.923	1413.96
508.354	1437.63
508.786	1452.82
509.217	1480.16
509.649	1503.06
510.08	1531.19
510.512	1555.48
510.943	1577.49
511.374	1593.82
511.805	1622.54
512.237	1650.18
512.668	1696.46
513.099	1735.22
513.53	1774.52
513.961	1801.83
514.391	1845.51
514.822	1890.76
515.253	1938.63
515.684	1970.68
516.114	2009.53
516.545	2036.76
516.975	2071.01
517.406	2092.12
517.836	2090.86
518.267	2095.65
518.697	2116.6
519.127	2117.44
519.558	2122.48
519.988	2123.26
520.418	2133.17
520.848	2153.53
521.278	2160.14
521.708	2174.59
522.138	2188.03
522.567	2227.68
522.997	2259.2
523.427	2276.98
523.857	2296.29
524.286	2305.8
524.716	2324.47
525.145	2347.85
525.575	2359.37
526.004	2374.93
526.433	2365
526.863	2361.73
527.292	2342.61
527.721	2345.59
528.15	2349.72
528.579	2346.38
529.008	2360.09
529.437	2388.54
529.866	2403.44
530.295	2424.32
530.724	2439.12
531.152	2473.9
531.581	2491.33
532.01	2514.37
532.438	2524.6
532.867	2542.12
533.295	2565.94
533.723	2570.85
534.152	2564.23
534.58	2562.89
535.008	2537.34
535.436	2538.07
535.865	2547.11
536.293	2564.25
536.721	2584.86
537.149	2617.91
537.576	2620.36
538.004	2635.32
538.432	2644.33
538.86	2640.25
539.287	2648.69
539.715	2667.48
540.143	2668.48
540.57	2661.75
540.998	2654.65
541.425	2619.7
541.852	2588.32
542.28	2584.27
542.707	2561.75
543.134	2542.02
543.561	2535.18
543.988	2523.6
544.415	2522.43
544.842	2516.19
545.269	2505.85
545.696	2507.89
546.123	2525.61
546.549	2510.76
546.976	2492.4
547.403	2492.01
547.829	2494.16
548.256	2498.24
548.682	2493.68
549.108	2483.45
549.535	2483.33
549.961	2485.88
550.387	2469.8
550.813	2463.21
551.24	2474.43
551.666	2476.99
552.092	2465.4
552.518	2458.76
552.943	2451.77
553.369	2463.77
553.795	2474.53
554.221	2477.43
554.646	2475.84
555.072	2492.29
555.498	2501.67
555.923	2515.88
556.349	2540.63
556.774	2555.22
557.199	2559.11
557.625	2570.21
558.05	2564.45
558.475	2580.47
558.9	2581.91
559.325	2573.45
559.75	2567.44
560.175	2561.87
560.6	2556.8
561.025	2557.25
561.449	2561.89
561.874	2573.83
562.299	2583.92
562.723	2597.61
563.148	2587.53
563.572	2598.03
563.997	2615.33
564.421	2627.55
564.846	2631.89
565.27	2640.94
565.694	2640.56
566.118	2661.58
566.542	2675.66
566.966	2669.67
567.39	2667.73
567.814	2656.49
568.238	2659.62
568.662	2672.31
569.086	2680.57
569.509	2695.74
569.933	2677.87
570.357	2672.19
570.78	2645.85
571.204	2629.85
571.627	2619.52
572.05	2620.97
572.474	2625.33
572.897	2611.8
573.32	2604.95
573.743	2594.51
574.166	2570.95
574.589	2574.81
575.012	2566.92
575.435	2568.96
575.858	2561.18
576.281	2548.48
576.704	2529.1
577.126	2515.61
577.549	2503.25
577.972	2491.44
578.394	2480.7
578.817	2474.47
579.239	2451.78
579.661	2436.13
580.084	2416.37
580.506	2400.13
580.928	2398.56
581.35	2385.83
581.772	2380.92
582.194	2365
582.616	2350.59
583.038	2331.26
583.46	2318.19
583.882	2314.57
584.303	2323.39
584.725	2321.14
585.147	2327.49
585.568	2346.42
585.99	2368.48
586.411	2382.63
586.833	2406.52
587.254	2409.6
587.675	2435.4
588.096	2457.24
588.518	2452.5
588.939	2430.76
589.36	2427.42
589.781	2413.14
590.202	2370.51
590.623	2357.38
591.043	2353.78
591.464	2334.84
591.885	2329.95
592.305	2320.96
592.726	2301.45
593.147	2304.09
593.567	2294.42
593.987	2284.17
594.408	2275.45
594.828	2272.38
595.248	2263.75
595.669	2236.07
596.089	2225.12
596.509	2217.05
596.929	2195.97
597.349	2197.28
597.769	2181.39
598.189	2173.39
598.608	2176.94
599.028	2182.9
599.448	2184.62
599.867	2166.27
600.287	2160.03
600.706	2155.06
601.126	2140.95
601.545	2141.79
601.965	2141.72
602.384	2135.51
602.803	2140.6
603.222	2135.76
603.641	2127.67
604.061	2122.43
604.48	2117.78
604.898	2133.07
605.317	2143.11
605.736	2148.89
606.155	2147.04
606.574	2133.92
606.992	2145.66
607.411	2141.13
607.829	2129
608.248	2124.71
608.666	2124.31
609.085	2126.75
609.503	2116.69
609.921	2109.44
610.339	2115.88
610.758	2117.02
611.176	2112.87
611.594	2099.87
612.012	2097.91
612.43	2106.08
612.847	2119.36
613.265	2123.45
613.683	2131.94
614.101	2136.48
614.518	2132.44
614.936	2118.66
615.353	2097.03
615.771	2095.37
616.188	2098.4
616.606	2094.38
617.023	2084.69
617.44	2063.1
617.857	2054.56
618.274	2043.35
618.691	2034.54
619.108	2021.67
619.525	2012.86
619.942	2025.57
620.359	2029.74
620.776	2024.06
621.192	2019.19
621.609	2016.07
622.026	2028.96
622.442	2039.75
622.859	2045.16
623.275	2034.55
623.691	2045.31
624.108	2064.08
624.524	2086.67
624.94	2086.97
625.356	2103.01
625.772	2125.49
626.188	2146.14
626.604	2148.14
627.02	2140.76
627.436	2138.97
627.852	2150.76
628.268	2169.83
628.683	2155.71
629.099	2142.31
629.514	2134.76
629.93	2140.61
630.345	2146.02
630.761	2139.12
631.176	2144.47
631.591	2133.2
632.007	2122.27
632.422	2118.35
632.837	2099.67
633.252	2094.2
633.667	2077.25
634.082	2062.29
634.497	2040.79
634.911	2009.54
635.326	2004.09
635.741	1975.98
636.155	1960
636.57	1960.61
636.984	1959.28
637.399	1960.44
637.813	1958.87
638.228	1956.88
638.642	1963.07
639.056	1945.49
639.47	1943.27
639.884	1926.59
640.298	1915.43
640.712	1912.31
641.126	1890.2
641.54	1874.6
641.954	1866.25
642.368	1845.71
642.781	1829.51
643.195	1801.25
643.609	1799.83
644.022	1788.23
644.436	1780.1
644.849	1758.39
645.262	1738.22
645.676	1741.33
646.089	1731.25
646.502	1704.48
646.915	1695.08
647.328	1667.83
647.741	1661.59
648.154	1639.66
648.567	1633.44
648.98	1611.51
649.393	1611.59
649.805	1604.22
650.218	1590.54
650.631	1564.88
651.043	1554.16
651.456	1544.82
651.868	1544.63
652.28	1572.26
652.693	1593.6
653.105	1605.74
653.517	1620.45
653.929	1620.13
654.341	1630.66
654.753	1612.33
655.165	1623.64
655.577	1619.56
655.989	1611.07
656.401	1598.44
656.813	1540.18
657.224	1507.58
657.636	1461.22
658.047	1432.74
658.459	1401.7
658.87	1384.73
659.282	1362.82
659.693	1327.24
660.104	1302.23
660.515	1279.07
660.926	1273.27
661.338	1264.56
661.749	1252.27
662.159	1234.65
662.57	1224.35
662.981	1213.56
663.392	1197.97
663.803	1200.22
664.213	1192.97
664.624	1181.46
665.035	1180.66
665.445	1156.38
665.855	1141.17
666.266	1123.73
666.676	1115.66
667.086	1097.31
667.497	1090.39
667.907	1077.86
668.317	1060.71
668.727	1050.79
669.137	1048.02
669.547	1040.16
669.956	1040.25
670.366	1040.5
670.776	1039.62
671.186	1041.02
671.595	1042.71
672.005	1045.08
672.414	1041.53
672.824	1035.92
673.233	1039.51
673.642	1040.58
674.052	1043.2
674.461	1043.45
674.87	1046.79
675.279	1041.4
675.688	1042.53
676.097	1043.48
676.506	1038.34
676.915	1055.87
677.323	1059.84
677.732	1058.36
678.141	1058.02
678.549	1044.59
678.958	1046.17
679.366	1047.93
679.775	1057.75
680.183	1074.96
680.592	1086.87
681	1100.74
681.408	1099.06
681.816	1116.55
682.224	1136.47
682.632	1158.26
683.04	1210.43
683.448	1253.82
683.856	1308.95
684.264	1372.93
684.671	1434.46
685.079	1507.7
685.487	1586.68
685.894	1692.2
686.302	1783.85
686.709	1861.6
687.116	1951.9
687.524	2025.02
687.931	2089.54
688.338	2143.03
688.745	2188.12
689.152	2239.01
689.559	2306.09
689.966	2368.33
690.373	2394.48
690.78	2447
691.187	2532.99
691.593	2592.1
692	2641.43
692.407	2719.28
692.813	2816.92
693.22	2887.89
693.626	2958.42
694.032	3007.18
694.439	3095.73
694.845	3157.42
695.251	3244.16
695.657	3315.22
696.063	3436.1
696.469	3515.91
696.875	3586.24
697.281	3612.58
697.687	3652.72
698.093	3680.91
698.498	3757.77
698.904	3814.21
699.31	3911.83
699.715	3970.66
700.12	4070.87
700.526	4067.21
700.931	4133.67
701.337	4178.72
701.742	4197.07
702.147	4282.9
702.552	4298.55
702.957	4355.36
703.362	4355.92
703.767	4369.18
704.172	4398.97
704.577	4313.6
704.981	4350.8
705.386	4351.54
705.791	4319.36
706.195	4394.28
706.6	4384.88
707.004	4466.75
707.408	4408.19
707.813	4424.26
708.217	4390.9
708.621	4374.62
709.025	4478.28
709.43	4463.93
709.834	4520.59
710.237	4590.16
710.641	4556.76
711.045	4569.15
711.449	4546.17
711.853	4565.47
712.256	4600.03
712.66	4629.44
713.064	4704.19
713.467	4739.13
713.87	4857.82
714.274	4898.46
714.677	5012.13
715.08	5186.47
715.484	5367.96
715.887	5588.2
716.29	5805.58
716.693	6029.87
717.096	6292.95
717.499	6431.08
717.901	6445.3
718.304	6461.61
718.707	6474.07
719.109	6344.08
719.512	6293.45
719.915	6126.34
720.317	6050.57
720.719	6088.72
721.122	6045.74
721.524	5976.88
721.926	5917.98
722.328	6018.29
722.731	5995.72
723.133	6016.81
723.535	6222.68
723.937	6234.63
724.338	6281.64
724.74	6319.12
725.142	6247.99
725.544	6236.49
725.945	6259.73
726.347	6244.07
726.748	6229.16
727.15	6234.62
727.551	6188.08
727.952	6149.29
728.354	6110.08
728.755	6105.13
729.156	6051.38
729.557	6021.33
729.958	5878.5
730.359	5808.78
730.76	5784.68
731.161	5714.89
731.562	5683.42
731.962	5681.76
732.363	5608.34
732.763	5536.15
733.164	5572.99
733.564	5496.55
733.965	5388
734.365	5347.12
734.766	5375.74
735.166	5329.65
735.566	5265.5
735.966	5234.11
736.366	5222.02
736.766	5151.75
737.166	5183.7
737.566	5134.18
737.966	5100.71
738.365	5144.04
738.765	5138.48
739.165	5055.17
739.564	5024.44
739.964	5071.09
740.363	5020.18
740.763	5016.92
741.162	5002.62
741.561	4964.23
741.96	4912.37
742.36	4933.9
742.759	4934.26
743.158	4972.38
743.557	4985.91
743.955	5026.51
744.354	4976.57
744.753	5036.23
745.152	4990.43
745.55	5047.68
745.949	5039.2
746.348	5039.45
746.746	5052.94
747.144	5011.23
747.543	4984.51
747.941	5036.09
748.339	4959.29
748.737	4949.91
749.136	4939.94
749.534	5006.62
749.932	4976.38
750.33	5000.69
750.727	5057.52
751.125	5034.2
751.523	5016.13
751.921	5065.77
752.318	5028.17
752.716	5092.01
753.113	5104.14
753.511	5131.09
753.908	5131.56
754.305	5111.34
754.703	5178.02
755.1	5241.85
755.497	5302.71
755.894	5501.84
756.291	5686.02
756.688	6036.97
757.085	6499.72
757.482	7153.41
757.878	7861.38
758.275	8505.33
758.672	9393.77
759.068	10114.47
759.465	11147.41
759.861	12478.05
760.258	14022.02
760.654	14822.81
761.05	14695.24
761.447	14029.73
761.843	13061.37
762.239	12065.02
762.635	11611.54
763.031	11177.35
763.427	10553.46
763.822	9896
764.218	9247.68
764.614	8403.05
765.01	7837.47
765.405	7473.94
765.801	7197.43
766.196	6845.1
766.592	6648.17
766.987	6315.63
767.382	6091.15
767.778	5994.75
768.173	5855.63
768.568	5780
768.963	5649.44
769.358	5673.75
769.753	5627.01
770.148	5536.74
770.542	5534.28
770.937	5501.84
771.332	5599.52
771.726	5619.91
772.121	5555.04
772.515	5611.93
772.91	5595.36
773.304	5670.8
773.699	5597.08
774.093	5652.31
774.487	5710.73
774.881	5758.19
775.275	5753.1
775.669	5706.24
776.063	5750.28
776.457	5787.04
776.851	5708.91
777.245	5699.97
777.638	5736.5
778.032	5853.87
778.425	5812.45
778.819	5856.88
779.212	5811.89
779.606	5766.08
779.999	5790.27
780.392	5775.43
780.786	5860.25
781.179	5882.38
781.572	5927.89
781.965	5937.77
782.358	5880.78
782.751	5941.41
783.143	5887.78
783.536	5962.54
783.929	6007.56
784.322	6125.19
784.714	6156.17
785.107	6151.76
785.499	6228.13
785.891	6204.91
786.284	6186.44
786.676	6334.18
787.068	6310.13
787.46	6367.28
787.852	6390.89
788.245	6486.11
788.636	6515.96
789.028	6587.71
789.42	6631.18
789.812	6642.02
790.204	6741.76
790.595	6850.33
790.987	6646.26
791.378	6677.66
791.77	6812.82
792.161	6955.96
792.553	7014.3
792.944	6900.64
793.335	6829.15
793.726	6911.95
794.117	7008.89
794.508	7160.09
794.899	7124.73
795.29	7276.35
795.681	7331.92
796.072	7183.37
796.463	6996.59
796.853	7007.82
797.244	7174.2
797.634	7210.76
798.025	7206.42
798.415	7221.56
798.806	7312.66
799.196	7404.59
799.586	7460.81
799.976	7429.45
800.366	7679.47
800.756	7926.36
801.146	7884.54
801.536	7921.52
801.926	8004.3
802.316	8034.85
802.706	8112.58
803.095	7987.28
803.485	8100.76
803.874	8143.58
804.264	8419.99
804.653	8393.69
805.043	8550.41
805.432	8667.95
805.821	8667.28
806.21	8689.7
806.599	8816.68
806.988	8861.97
807.377	8975.82
807.766	9112.95
808.155	9416.44
808.544	9136.52
808.933	9148.48
809.321	9130.89
809.71	9449.98
810.098	9622.39
810.487	10115.51
810.875	10626.96
811.264	10659.49
811.652	10976.52
812.04	11132.99
812.428	11307.87
812.816	12125.8
813.204	12586.64
813.592	13178.04
813.98	13544.1
814.368	13450.65
814.756	13965.91
815.144	13881.58
815.531	14381.05
815.919	14302.46
816.306	14629.11
816.694	14299.05
817.081	14357.07
817.469	14722.1
817.856	14714.93
818.243	14996.9
818.63	15413.28
819.017	14964.65
819.404	15034.44
819.791	15436.88
820.178	16088.26
820.565	16367.27
820.952	17367
821.339	16842.55
821.725	17038.16
822.112	16250.17
822.498	16208.12
822.885	16345.02
823.271	16250.02
823.657	16696.83
824.044	16711.98
824.43	16791.39
824.816	16749.45
825.202	16278.4
825.588	17362.39
825.974	17376.17
826.36	17929.71
826.746	17966.79
827.132	18341.35
827.517	18310.11
827.903	17463.23
828.289	17494.34
828.674	16663.23
829.06	16548.1
829.445	16968.05
829.83	17346.45
830.216	17851.38
830.601	18237.16
830.986	17803.19
831.371	17668.9
831.756	18257.66
832.141	17808.92
832.526	17802.3
832.911	18087.96
833.295	17964.67
833.68	18459.73
834.065	17799.54
834.449	16832.59
834.834	16748.46
835.218	16735.77
835.603	17089.72
835.987	16853.93
836.371	17734.87
836.755	17621.48
837.139	18052.78
837.524	18304.15
837.908	18112.47
838.291	18165.96
838.675	18232.17
839.059	18450.6
839.443	18435.59
839.827	18180.79
840.21	18690.8
840.594	18522.85
840.977	18739.02
841.361	18718.54
841.744	19119.14
842.127	18959.46
842.511	19216.77
842.894	19842.01
843.277	20234.22
843.66	20802.7
844.043	20893.23
844.426	20034.01
844.809	19696.6
845.191	19723.9
845.574	19227.26
845.957	18833.9
846.339	18712.28
846.722	18161.83
847.104	18226.94
847.487	18050.38
847.869	18060.05
848.252	18350.44
848.634	18698.98
849.016	18982.26
849.398	19105.19
849.78	20003.7
850.162	20009.5
850.544	20444.93
850.926	21096.89
851.307	21007.85
851.689	21299.39
852.071	21779.19
852.452	22112.94
852.834	22089.39
853.215	22508.43
853.597	22674.35
853.978	22986.49
854.359	23460
854.741	22402.98
855.122	22298.15
855.503	21988.84
855.884	22119.15
856.265	22050.03
856.646	22175.82
857.026	21764.03
857.407	21696.97
857.788	21863.45
858.169	22157.96
858.549	21263.45
858.93	21917.48
859.31	21975.21
859.69	22194.54
860.071	21775.17
860.451	21548.72
860.831	20764.77
861.211	21988.9
861.591	22560.41
861.971	22538.51
862.351	22749.9
862.731	23164.52
863.111	23456.07
863.491	23801.95
863.87	24720.69
864.25	25089.61
864.629	24672.21
865.009	25218.19
865.388	26117.53
865.768	27994.2
866.147	27880.74
866.526	26326.96
866.905	26630.88
867.284	28113.33
867.663	26695.71
868.042	25578.06
868.421	25493.56
868.8	25919.7
869.179	26171.65
869.558	24641.3
869.936	22713.88
870.315	23121.88
870.693	23689.34
871.072	25551.42
871.45	24353.06
871.828	24666.93
872.207	25949.7
872.585	25557.08
872.963	26253.23
873.341	25358.39
873.719	25052.87
874.097	24755.87
874.475	25243.85
874.853	25823.93
875.23	24761.5
875.608	25794.49
875.986	27894.38
876.363	26673.01
876.741	27482.68
877.118	26792.6
877.495	28122.38
877.873	28595.16
878.25	30077.44
878.627	28827.87
879.004	29228.83
879.381	29077.21
879.758	28308.5
880.135	26347.82
880.512	27857.7
880.889	27112.77
881.265	26828.02
881.642	26584.48
882.019	27030.27
882.395	26486.3
882.772	27523.86
883.148	26325.35
883.524	26209.52
883.901	26055.76
884.277	26447.15
884.653	26275.36
885.029	27034.51
885.405	29937.94
885.781	29698.69
886.157	28465.82
886.532	28809.65
886.908	28793.54
887.284	32023.99
887.659	33067.24
888.035	34085.77
888.411	34949.14
888.786	35398.66
889.161	36612.84
889.537	35915.94
889.912	37063.83
890.287	37030.19
890.662	37959.78
891.037	37265.91
891.412	34733.89
891.787	34361.53
892.162	33156.09
892.536	33926.81
892.911	32652.28
893.286	31958.52
893.66	30664.15
894.035	31440.62
894.409	34221.96
894.784	32844.36
895.158	33386.17
895.532	35360
895.906	36340.33
896.281	37190.01
896.655	36606.81
897.029	41842.08
897.402	43581.89
897.776	48517.44
898.15	48335.8
898.524	47812.38
898.898	48440.27
899.271	54237.77
899.645	46987.84
900.018	45120.46
900.392	46798.13
900.765	47163.95
901.138	43631.69
901.511	42960.16
901.884	39449.7
902.258	36400.76
902.631	37626.15
903.003	43313.44
903.376	39074.63
903.749	43792.59
904.122	46874.89
904.495	51599.88
904.867	52234.07
905.24	45335.37
905.612	42200.79
905.985	43150.34
906.357	45106.71
906.729	43062.99
907.102	36784.11
907.474	35373.97
907.846	35614.53
908.218	35162.75
908.59	31085.48
908.962	30074.59
909.334	32394.37
909.705	34042.38
910.077	33049.17
910.449	34389.18
910.82	35349.76
911.192	38891.23
911.563	40400.62
911.935	43222.06
912.306	43267.09
912.677	44660.01
913.048	44224.01
913.419	47969.99
913.79	48231.45
914.161	51726.18
914.532	49443.23
914.903	45434.79
915.274	43171.15
915.645	42555.7
916.015	37463.02
916.386	35726.32
916.756	38026.75
917.127	39246.56
917.497	35062.38
917.868	38166.7
918.238	36275.13
918.608	37325.71
918.978	38095.97
919.348	40346.22
919.718	41697.59
920.088	40149.41
920.458	41728.54
920.828	43941.11
921.198	41659.04
921.567	44524.5
921.937	34501.16
922.306	34837.29
922.676	37579.08
923.045	31341.62
923.415	29770.5
923.784	27101.1
924.153	27883.88
924.522	27851.73
924.891	26175.42
925.26	28030.99
925.629	27374.39
925.998	31462.84
926.367	30715.68
926.736	29254.8
927.104	34866.71
927.473	37480.8
927.842	45291.86
928.21	44849.76
928.578	47166.1
928.947	44595.4
929.315	44883.09
929.683	52653.12
930.051	53070.06
930.42	61587.37
930.788	52665.79
931.156	52268.94
931.523	49026.9
931.891	45284.76
932.259	43500.06
932.627	50390.76
932.994	71340.66
933.362	58952.74
933.729	51173.49
934.097	48970.72
934.464	41458.24
934.831	47808.41
935.199	47138.43
935.566	45706.21
935.933	46306.06
936.3	56086.13
936.667	43674.95
937.034	39406.31
937.401	38943.05
937.767	33613.73
938.134	29923.64
938.501	42222.49
938.867	45029.52
939.234	76070.94
939.6	64928.32
939.967	71640.3
940.333	47956.12
940.699	40859.01
941.065	32783.83
941.431	43041.97
941.798	41542.03
942.163	54579.51
942.529	34094.19
942.895	31380.87
943.261	20324.91
943.627	26647.79
943.992	23329.93
944.358	23375.46
944.723	23434.25
945.089	22826.55
945.454	21095.96
945.82	22506.1
946.185	21629.62
946.55	25055.32
946.915	22458.18
947.28	26353.42
947.645	23212.15
948.01	21418.71
948.375	22323.14
948.74	26758.02
949.104	31206.39
949.469	45014.49
949.834	79592.26
950.198	75481.84
950.562	45207.66
950.927	37663.62
951.291	45306.61
951.655	38533.51
952.02	36176.58
952.384	27347.3
952.748	23810.3
953.112	23218.97
953.476	20196.78
953.839	18666.94
954.203	18473.4
954.567	23112.6
954.931	36398.31
955.294	31123.93
955.658	31319.11
956.021	53297.77
956.385	90342.25
956.748	133248.45
957.111	206515
957.474	231857.45
957.837	261238.98
958.2	197503.21
958.563	71047.12
958.926	48065.16
959.289	72934.35
959.652	81522.15
960.015	61135.99
960.377	87791.49
960.74	100248.86
961.102	173157.13
961.465	186032.92
961.827	99645.08
962.189	191413.69
962.552	132846.82
962.914	106430.77
963.276	69065.44
963.638	57036.39
964	56485.02
964.362	38174.3
964.724	36847.7
965.085	26288.46
965.447	21540.06
965.809	24528.91
966.17	24547.53
966.532	26503.58
966.893	24325.39
967.255	22122.08
967.616	26101.1
967.977	20898.82
968.338	22820.56
968.699	18787.68
969.061	18784.34
969.421	18913.96
969.782	21227.99
970.143	17921.05
970.504	18581.39
970.865	21101.79
971.225	21585.58
971.586	21123.28
971.946	30123.36
972.307	26131.87
972.667	34132.01
973.027	35161.54
973.388	42584.3
973.748	28948.14
974.108	31532.61
974.468	42680.77
974.828	32938.08
975.188	25343.4
975.548	23300.99
975.907	19542.34
976.267	21927.72
976.627	18436.68
976.986	19098.89
977.346	18192.1
977.705	17494.41
978.064	15950.2
978.424	13259.79
978.783	13715.2
979.142	15653.28
979.501	14977.6
979.86	15839.45
980.219	15255.72
980.578	19663.89
980.937	22021.67
981.296	19660.56
981.654	20236.57
982.013	31454.94
982.371	40842.47
982.73	38113.54
983.088	43160.21
983.447	46110.17
983.805	65983.38
984.163	138079.58
984.521	153301.29
984.879	224697.98
985.237	-365043.15
985.595	351898.54
985.953	87344.66
986.311	50439.61
986.669	29336.96
987.026	25321.17
987.384	34021.7
987.741	35142.26
988.099	25143.82
988.456	20015.98
988.814	18748.95
989.171	16313.16
989.528	16098.38
989.885	17020.14
990.242	13472.22
990.599	16766.63
990.956	13719.45
991.313	9597.67
991.67	7880.45
992.027	8354.42
992.383	7426.91
992.74	6517.25
993.096	6830.32
993.453	7089.36
993.809	7348.62
994.165	9809.07
994.522	9009.02
994.878	9930.97
995.234	12477.61
995.59	12294.53
995.946	11627.01
996.302	13275.76
996.658	15345.45
997.013	16945.54
997.369	20071.56
997.725	25706.74
998.08	16626.49
998.436	25541.2
998.791	35217.12
999.147	35147.77
999.502	38419.61
999.857	27871.48
1000.212	45465.15
1000.567	64737.21
1000.922	37365.26
1001.277	23751.07
1001.632	17584.97
1001.987	22648.56
1002.342	16272.39
1002.696	13043.33
1003.051	10398.67
1003.406	12592.03
1003.76	12557.01
1004.114	12373.71
1004.469	10394.34
1004.823	8603.07
1005.177	9276.02
1005.531	7376.96
1005.885	6552.43
1006.239	7381.83
1006.593	9245.09
1006.947	12399.07
1007.301	9304.08
1007.655	10133.19
1008.008	7440.09
1008.362	8371.45
1008.715	11957.45
1009.069	10864.94
1009.422	16338.05
1009.776	32771.01
1010.129	21787.96
1010.482	18182.59
1010.835	15363.45
1011.188	31927.79
1011.541	29996.81
1011.894	-183338.71
1012.247	539305.93
1012.6	36724.3
1012.952	23233.87
1013.305	11988.7
1013.657	8661.38
1014.01	8185.72
1014.362	6752.86
1014.715	6000.72
1015.067	5251.11
1015.419	5145.84
1015.771	4565.5
1016.123	4068.99
1016.475	4173.97
1016.827	4436.83
1017.179	4772.67
1017.531	4798.35
1017.883	4915.03
1018.234	4772.77
1018.586	6015.33
1018.938	6364.03
1019.289	8789.36
1019.64	10063.99
1019.992	9358
1020.343	8573.94
1020.694	6816.73
1021.045	6018.71
1021.396	6868.35
1021.747	7390.03
1022.098	8830.35
1022.449	6430.45
1022.8	5969.71
1023.151	4165.9
1023.501	3694.25
1023.852	4013.82
1024.202	4150.48
1024.553	4541
1024.903	4450.37
1025.253	3813.02
1025.604	3426.31
1025.954	4244.33
1026.304	5177.1
1026.654	6028.5
1027.004	8844.92
1027.354	14268.44
1027.703	13461.43
1028.053	17681.81
1028.403	25964.33
1028.753	37567.61
1029.102	51162.88
1029.452	262735.41
1029.801	11369.38
1030.15	7321.51
1030.499	6191.09
897.758	3275.62
901.051	3260.46
904.343	3297.58
907.636	3285.35
910.928	3354.96
914.22	3255.2
917.511	3268.81
920.803	3356.43
924.094	3404.09
927.384	3350.82
930.675	3315.82
933.965	3256.87
937.255	3248.21
940.544	3213.32
943.834	3070.93
947.123	3028.61
950.411	3137.56
953.7	3099.48
956.988	3045.7
960.276	2991.7
963.563	3113.57
966.851	3092.77
970.138	3173.72
973.424	3148.4
976.711	3098.32
979.997	3354.11
983.283	3369.6
986.568	3236.39
989.853	3285.35
993.138	3315.51
996.423	3395.14
999.708	3308.83
1002.992	3426.14
1006.275	3151.64
1009.559	3261.21
1012.842	3400.17
1016.125	3301.3
1019.408	3279.43
1022.69	3408.5
1025.972	3413.11
1029.254	3377.9
1032.536	3272.8
1035.817	3319.18
1039.098	3218.79
1042.379	3488.3
1045.659	3437.86
1048.939	3347.66
1052.219	3390.47
1055.498	3421.09
1058.778	3388.87
1062.057	3380.3
1065.335	3399.8
1068.614	3433.46
1071.892	3392.91
1075.17	3499.24
1078.447	3474.57
1081.724	3458.96
1085.001	3511.99
1088.278	3477.46
1091.554	3500.11
1094.83	3497.77
1098.106	3520.27
1101.382	3586.05
1104.657	3586.42
1107.932	3582.55
1111.206	3526.76
1114.481	3485.57
1117.755	3498.04
1121.029	3459.4
1124.302	3506.02
1127.575	3435.66
1130.848	3412.9
1134.121	3361.89
1137.393	3290.5
1140.665	3372.64
1143.937	3353.74
1147.208	3259.63
1150.48	3283.7
1153.75	3261.38
1157.021	3333.1
1160.291	3288.63
1163.561	3328.15
1166.831	3351.39
1170.101	3387.21
1173.37	3378.47
1176.639	3297.57
1179.907	3372.9
1183.176	3424.28
1186.444	3430.29
1189.711	3465.05
1192.979	3462.44
1196.246	3426.06
1199.513	3447.07
1202.78	3438.51
1206.046	3445.16
1209.312	3480.24
1212.578	3517.87
1215.843	3444.38
1219.108	3427.72
1222.373	3449.76
1225.638	3395.94
1228.902	3370.58
1232.166	3337.98
1235.43	3314.74
1238.693	3332.78
1241.956	3338.12
1245.219	3365.42
1248.482	3369.29
1251.744	3359.31
1255.006	3547.1
1258.268	3514.56
1261.529	3442.88
1264.79	3460.15
1268.051	3586.73
1271.312	3606.58
1274.572	3558.82
1277.832	3550.02
1281.092	3550.01
1284.351	3496.19
1287.61	3466.75
1290.869	3351.91
1294.128	3297.18
1297.386	3443.63
1300.644	3425.58
1303.902	3434.93
1307.159	3281.44
1310.416	3340.3
1313.673	3359.44
1316.93	3329.12
1320.186	3399.13
1323.442	3456.76
1326.697	3429.75
1329.953	3443.77
1333.208	3451.33
1336.463	3438.47
1339.717	3360.94
1342.972	3452.05
1346.226	3459.26
1349.479	3366.88
1352.733	3321.79
1355.986	3369.31
1359.238	3338.55
1362.491	3337.32
1365.743	3345.49
1368.995	3344.63
1372.247	3360.04
1375.498	3376.56
1378.749	3439.77
1382	3381.2
1385.251	3456.5
1388.501	3431.35
1391.751	3393.3
1395	3373.1
1398.25	3414.53
1401.499	3406.34
1404.748	3315.71
1407.996	3229.51
1411.244	3224.64
1414.492	3194.7
1417.74	3165.31
1420.987	3191.67
1424.234	3238.57
1427.481	3244.45
1430.728	3299.27
1433.974	3273.67
1437.22	3306.4
1440.465	3309.89
1443.711	3312.37
1446.956	3345.2
1450.201	3359.37
1453.445	3406.48
1456.689	3366.17
1459.933	3386.13
1463.177	3411.9
1466.42	3381.99
1469.663	3360.92
1472.906	3326.24
1476.148	3474.49
1479.391	3353.78
1482.633	3343.39
1485.874	3339.68
1489.115	3300.97
1492.356	3331.11
1495.597	3298.31
1498.838	3314.25
1502.078	3261.07
1505.318	3178.21
1508.557	3235.1
1511.797	3144.41
1515.036	3322.54
1518.274	3305.49
1521.513	3290.76
1524.751	3325.94
1527.989	3329.35
1531.227	3335.36
1534.464	3297.57
1537.701	3354.57
1540.938	3384.9
1544.174	3343.92
1547.41	3356.81
1550.646	3396.49
1553.882	3414.99
1557.117	3468.36
1560.352	3495.95
1563.587	3442.38
1566.821	3390.88
1570.055	3457.01
1573.289	3411.57
1576.523	3511.17
1579.756	3507.66
1582.989	3525.02
1586.222	3478.36
1589.454	3532.04
1592.686	3494.55
1595.918	3513.16
1599.15	3490.64
1602.381	3606.36
1605.612	3524.33
1608.843	3627.22
1612.073	3525.81
1615.303	3504.59
1618.533	3482.34
1621.762	3499.43
1624.992	3500.39
1628.221	3461.93
1631.449	3450.45
1634.678	3547.02
1637.906	3486.01
1641.134	3541.25
1644.361	3486.85
1647.588	3472.3
1650.815	3479.75
1654.042	3476.93
1657.269	3514.96
1660.495	3464.2
1663.72	3405.84
1666.946	3391.97
1670.171	3290.59
1673.396	3270.62
1676.621	3269.9
1679.845	3321.05
1683.069	3362.51
1686.293	3426.47
1689.517	3375.7
1692.74	3264.44
1695.963	3282.43
1699.185	3384.04
1702.408	3329.42
1705.63	3388.42
1708.852	3389.67
1712.073	3361.48
1715.294	3321.98
1718.515	3348.34
1721.736	3291.11
1724.956	3253.26
1728.176	3290.9
1731.396	3310.68
1734.616	3308.49
1737.835	3312.97
1741.054	3310.67
1744.272	3308.69
1747.491	3319.5
1750.709	3410.03
1753.927	3306.16
1757.144	3367.69
1760.361	3439.78
1763.578	3451.41
1766.795	3376.2
1770.011	3403.1
1773.227	3467.13
1776.443	3492.38
1779.658	3539.13
1782.874	3486.76
1786.089	3449.16
1789.303	3453.74
1792.518	3466.83
1795.732	3454.89
1798.945	3454.78
1802.159	3519.84
1805.372	3368.75
1808.585	3341.29
1811.797	3345.54
1815.01	3427.95
1818.222	3430.9
1821.434	3299.79
1824.645	3413.32
1827.856	3367.87
1831.067	3417.99
1834.278	3342.05
1837.488	3331.7
1840.698	3517.67
1843.908	3414.4
1847.117	3372.05
1850.326	3191.28
1853.535	3335.96
1856.744	3468.08
1859.952	3340.63
1863.16	3334.75
1866.368	3362.32
1869.575	3518.63
1872.782	3395.99
1875.989	3344.89
1879.196	3478.43
1882.402	3472.75
1885.608	3525.06
1888.814	3381.58
1892.019	3254.04
1895.224	3306.8
1898.429	3307.98
1901.634	3272.71
1904.838	3256.41
1908.042	3297.77
1911.246	3294
1914.449	3180.88
1917.652	3198.59
1920.855	3186.46
1924.058	3261.2
1927.26	3286.46
1930.462	3325.6
1933.664	3336.58
1936.865	3270.04
1940.066	3261.65
1943.267	3212.93
1946.467	3240.84
1949.668	3278.19
1952.868	3341.92
1956.067	3298.89
1959.267	3220.7
1962.466	3255.19
1965.665	3243.75
1968.863	3243.33
1972.061	3274.69
1975.259	3284.82
1978.457	3372.05
1981.654	3321.21
1984.852	3319.9
1988.048	3226.1
1991.245	3246.54
1994.441	3331.8
1997.637	3350.87
2000.833	3329.81
2004.028	3375.05
2007.223	3419.59
2010.418	3378.14
2013.613	3350.95
2016.807	3288.49
2020.001	3315.72
2023.194	3391.67
2026.388	3356.06
2029.581	3305.72
2032.774	3335.43
2035.966	3332.07
2039.158	3239.53
2042.35	3276.84
2045.542	3206.78
2048.733	3335.81
2051.924	3398.37
2055.115	3443.31
2058.306	3352.08
2061.496	3422.64
2064.686	3502.6
2067.875	3426
2071.065	3458.26
2074.254	3498.09
2077.442	3448.22
2080.631	3549.79
2083.819	3382.12
2087.007	3346.41
2090.195	3298.26
2093.382	3359.99
2096.569	3333.01
2099.756	3273.72
2102.942	3270.66
2106.128	3261.28
2109.314	3259.12
2112.5	3190.08
2115.685	3175.84
2118.87	3189.67
2122.055	3266.79
2125.239	3210.96
2128.424	3162.81
2131.608	3329.32
2134.791	3309.16
2137.974	3397.38
2141.157	3374.4
2144.34	3297.95
2147.523	3318.93
2150.705	3312.1
2153.887	3313.38
2157.068	3230.62
2160.25	3262.72
2163.431	3326.53
2166.611	3233.4
2169.792	3246.47
2172.972	3114.04
2176.152	3236.12
2179.331	3282.49
2182.511	3262.26
2185.69	3299.43
2188.868	3277.15
2192.047	3365.63
2195.225	3321.85
2198.403	3269.3
2201.58	3272.88
2204.758	3276.42
2207.935	3372.97
2211.111	3220.86
2214.288	3199.39
2217.464	3250.22
2220.64	3240.21
2223.815	3310.12
2226.991	3212.21
2230.166	3236.5
2233.34	3248.03
2236.515	3289.12
2239.689	3379.84
2242.863	3311.19
2246.036	3375.59
2249.209	3400.38
2252.382	3452.58
2255.555	3419.37
2258.727	3331.62
2261.9	3385.16
2265.071	3376.02
2268.243	3391.05
2271.414	3297.83
2274.585	3223.6
2277.756	3304.84
2280.926	3260.49
2284.096	3315.34
2287.266	3191.23
2290.436	3258.47
2293.605	3301.4
2296.774	3320.83
2299.942	3367.12
2303.111	3381.04
2306.279	3424.34
2309.447	3415.84
2312.614	3394.6
2315.781	3405.49
2318.948	3363.23
2322.115	3406.11
2325.281	3304.23
2328.447	3343.84
2331.613	3321.92
2334.779	3268.17
2337.944	3283.45
2341.109	3275.08
2344.274	3250.36
2347.438	3210.92
2350.602	3246.94
2353.766	3267.88
2356.929	3247.51
2360.092	3298.05
2363.255	3220.53
2366.418	3109.95
2369.58	3288.48
2372.742	2955.25
2375.904	2995.33
2379.066	2955.55
2382.227	3008.3
2385.388	2966.87
2388.548	2866.55
2391.709	2940.57
2394.869	2904.96
2398.029	3066.72
2401.188	3107.23
2404.347	2999.72
2407.506	3223.59
2410.665	3244.33
2413.823	3277.31
2416.981	3202.78
2420.139	3256.56
2423.296	3314.31
2426.453	3292.26
2429.61	3320.11
2432.767	3204.35
2435.923	3254.94
2439.079	3130.23
2442.235	3224.69
2445.391	3129.33
2448.546	3134.75
2451.701	3209.76
2454.855	3144.15
2458.009	3231.36
2461.163	3250.79
2464.317	3191.39
2467.471	3234.42
2470.624	3273.67
2473.777	3330.46
2476.929	3315.7
2480.082	3346.24
2483.234	3313.05
2486.385	3179.76
2489.537	3181.68
2492.688	3107.23
2495.839	3124.85
2498.989	3126.34
2502.14	3106.47
2505.29	3070.61
2508.439	3100.99
2511.589	3001.09
2514.738	3032.78
2517.887	3062.33
2521.035	3220.17
2524.183	3220.04
2527.331	3184.22
2530.479	3131.09
2533.627	3155.12
