Data from N_3_DIV_WI_4N_Splice17_12-57-36-581.txt Node
Date: Sat Mar 14 12:57:36 EDT 2020
User: sa697716
Spectrometer: FLMS03696
Trigger mode: 0
Integration Time (sec): 3.180400E-1
Scans to average: 20
Electric dark correction enabled: true
Nonlinearity correction enabled: true
Boxcar width: 5
XAxis mode: Wavelengths
Number of Pixels in Spectrum: 2048
>>>>>Begin Spectral Data<<<<<
187.83	-305955.68
188.298	2135.41
188.766	1193.04
189.233	1068.99
189.701	1515.37
190.169	2066.34
190.636	772.24
191.104	612.96
191.571	81.85
192.039	-88.05
192.506	-90.71
192.974	383.49
193.441	-883.14
193.908	-238.7
194.375	-38.1
194.842	24.17
195.31	84.37
195.777	180.75
196.244	368.01
196.711	276.18
197.177	291.76
197.644	347.56
198.111	573.1
198.578	765.82
199.045	587.16
199.511	912.27
199.978	987.2
200.445	851.47
200.911	888.02
201.378	893.23
201.844	845.43
202.31	1419.83
202.777	1476.82
203.243	818.63
203.709	804.22
204.176	953.75
204.642	783.51
205.108	776.51
205.574	623.3
206.04	537.86
206.506	511.52
206.972	460.58
207.438	450.82
207.903	518.41
208.369	483.61
208.835	479.23
209.301	525.76
209.766	528.83
210.232	520.06
210.697	632.69
211.163	785.76
211.628	1168.35
212.094	1047.04
212.559	1349.98
213.024	861.16
213.49	1061.49
213.955	1051.4
214.42	990.5
214.885	944.7
215.35	924.8
215.815	983.92
216.28	1080.54
216.745	916.8
217.21	1033.8
217.675	961.97
218.14	1121.19
218.604	1302.87
219.069	1561.6
219.534	1746.09
219.998	2114.06
220.463	2641.4
220.927	3298.41
221.392	3195.4
221.856	3316.75
222.32	4224.36
222.785	5321.42
223.249	6823.2
223.713	7700.31
224.177	7820.58
224.642	10132.8
225.106	12560.5
225.57	13845.4
226.034	10456.08
226.497	16003.93
226.961	14554.5
227.425	17144.04
227.889	19155.59
228.353	19286.88
228.816	40084.88
229.28	38502.39
229.744	32569.62
230.207	19970.4
230.671	19771.31
231.134	32747.6
231.597	38053.02
232.061	38208.92
232.524	37418.79
232.987	25903.01
233.45	23476.55
233.914	21142.43
234.377	21784.6
234.84	20074.46
235.303	23734.39
235.766	26608.6
236.229	27634.71
236.691	17489.76
237.154	19746.3
237.617	14916.58
238.08	15337.92
238.542	18011.06
239.005	12943.77
239.468	12912.43
239.93	12217.93
240.393	11156.93
240.855	9842.38
241.317	10114.46
241.78	12348.62
242.242	12844.24
242.704	13957.55
243.166	12222.61
243.629	11164.86
244.091	12944.82
244.553	14239.87
245.015	15358.97
245.477	19976.34
245.939	29453.55
246.4	31415.1
246.862	30696.43
247.324	29050.77
247.786	32664.52
248.247	43025.06
248.709	44531.52
249.17	33451.52
249.632	31699.97
250.093	36974.32
250.555	32066.22
251.016	19646.14
251.477	18745.57
251.939	20340.38
252.4	21445.51
252.861	25578.37
253.322	23886.55
253.783	28545.99
254.244	37146.15
254.705	29402.05
255.166	26241.09
255.627	25959.46
256.088	36691.1
256.549	39071.13
257.009	33698.17
257.47	40934.19
257.931	33424.1
258.391	25107.22
258.852	25964.01
259.312	27282.74
259.773	33797
260.233	28627.44
260.694	24196.58
261.154	27533.88
261.614	22162.45
262.074	19899.59
262.534	20758.39
262.994	19630.37
263.455	26249.55
263.915	22206.07
264.374	20992.51
264.834	22985.44
265.294	25538.3
265.754	26516.08
266.214	25176.3
266.673	23638.09
267.133	29873.43
267.593	29701.75
268.052	36441.03
268.512	31745.53
268.971	38343.25
269.431	42089.03
269.89	37708.58
270.349	56580.12
270.809	63158.42
271.268	56813.31
271.727	127571.02
272.186	82662.62
272.645	62028.22
273.104	44750.17
273.563	64806.6
274.022	50948.3
274.481	43425.72
274.94	33489.89
275.399	24933.66
275.857	29063.06
276.316	39326.91
276.775	35031.87
277.233	34578.58
277.692	32403.76
278.15	36664.69
278.609	37766.62
279.067	35000.94
279.525	32504.78
279.984	42032.98
280.442	50521.09
280.9	49786.64
281.358	32778.15
281.816	30562.5
282.274	29886.72
282.732	30892.2
283.19	31062.2
283.648	26799.95
284.106	28548.59
284.564	29039.76
285.021	26912.07
285.479	20068.41
285.937	18257.56
286.394	16044.67
286.852	16520.74
287.309	17381.77
287.767	16820.29
288.224	16016.92
288.682	17596.05
289.139	19344.47
289.596	17757.47
290.053	18531.13
290.511	23460.91
290.968	28610.53
291.425	38950.96
291.882	32580.87
292.339	28502.65
292.796	28377.71
293.252	26873.45
293.709	21444.65
294.166	19290.57
294.623	21363
295.079	20520.31
295.536	20651
295.992	18746.97
296.449	18569.23
296.905	19324.73
297.362	18545.5
297.818	19524.97
298.274	20286.42
298.731	20676.98
299.187	20461.38
299.643	21990.61
300.099	26637.68
300.555	29259.11
301.011	24517
301.467	23667.24
301.923	27716.75
302.379	27094.06
302.835	26664.79
303.291	26677.9
303.746	30363.64
304.202	38402.78
304.658	38598.13
305.113	25979.78
305.569	25461.86
306.024	27110.13
306.479	25793.89
306.935	21753.58
307.39	23715.75
307.845	21892.6
308.301	22034.72
308.756	21488.76
309.211	20689.85
309.666	21191.6
310.121	26269.25
310.576	26651.43
311.031	26454.65
311.486	30282.42
311.94	30227.74
312.395	40469.38
312.85	75998.46
313.305	373653.57
313.759	1935118.19
314.214	140454.2
314.668	111193.87
315.123	93746.09
315.577	33654.59
316.032	29965.98
316.486	37579.81
316.94	29719.16
317.394	20728.87
317.849	16129.71
318.303	15277.76
318.757	14447.28
319.211	15996.45
319.665	14070.43
320.119	14247.46
320.572	20449.33
321.026	19125.72
321.48	15950.24
321.934	17410.55
322.387	17470.77
322.841	18907.33
323.295	17012.01
323.748	19611.7
324.202	19879.72
324.655	23841.88
325.108	33339.47
325.562	23615.2
326.015	28098.48
326.468	21248.25
326.921	23763.18
327.374	22173.18
327.827	23062.82
328.28	26151.1
328.733	17522.42
329.186	15453.19
329.639	14730.03
330.092	12418.64
330.545	11809.02
330.997	11911.16
331.45	13015.74
331.903	15248.65
332.355	26254.32
332.808	25520.85
333.26	21016.68
333.713	22795.81
334.165	22914.75
334.617	30598.38
335.069	24719.02
335.522	44688.44
335.974	49476.21
336.426	45204.8
336.878	31297.33
337.33	15842.25
337.782	15481.29
338.234	19413.16
338.686	23256.65
339.137	27553.63
339.589	25957.69
340.041	20389.99
340.493	17563.36
340.944	18011.75
341.396	19437.49
341.847	16377.99
342.299	19386.52
342.75	23728.18
343.201	20791.43
343.653	23955.27
344.104	29547.15
344.555	23316.31
345.006	36349.14
345.457	27891.77
345.908	22205.76
346.359	20922.9
346.81	17060.58
347.261	17980.81
347.712	17698.8
348.163	18982.76
348.613	19242.36
349.064	18019.13
349.515	15776.5
349.965	16202.44
350.416	19503.58
350.866	21411.27
351.317	24253.31
351.767	40261.24
352.217	50960.27
352.668	42379.78
353.118	38883.25
353.568	37509.64
354.018	29644.54
354.468	31308.21
354.918	22465.85
355.368	19658.86
355.818	27781.43
356.268	79696.09
356.718	333079.53
357.168	82868.74
357.617	41584.79
358.067	46254.9
358.517	43326.15
358.966	50777.98
359.416	56944.3
359.865	61511.41
360.315	73272.54
360.764	34200.55
361.213	19186.95
361.663	18208.56
362.112	22485.13
362.561	36292.04
363.01	27406.05
363.459	23089.48
363.908	24960.54
364.357	21188.96
364.806	35784.32
365.255	24628.17
365.703	22601.74
366.152	22669.87
366.601	18370.12
367.05	14919.58
367.498	13564.53
367.947	14142.18
368.395	14712.34
368.844	13028.89
369.292	15721.99
369.74	10871.49
370.189	16636.12
370.637	19457.79
371.085	16767.38
371.533	20404.86
371.981	19642.34
372.429	18725.53
372.877	19505.68
373.325	16302.28
373.773	16641.82
374.221	14799.56
374.669	18324.84
375.116	15858.42
375.564	15985.12
376.012	17861.65
376.459	14723.38
376.907	17594.78
377.354	21260.01
377.801	19815.25
378.249	22751.9
378.696	29010.46
379.143	35112.32
379.591	37425.99
380.038	63157.22
380.485	45578.6
380.932	49179.4
381.379	44956.66
381.826	33109.98
382.273	23489.83
382.72	20520.31
383.166	19994.39
383.613	12951.77
384.06	11660.48
384.506	13477
384.953	9896.61
385.4	9968.98
385.846	8724.3
386.292	8486.55
386.739	8275.54
387.185	8158.8
387.631	8136.15
388.078	7871.46
388.524	8408.32
388.97	7740.95
389.416	6443.18
389.862	6847.01
390.308	6471.05
390.754	6564.92
391.2	7098.19
391.645	7252.02
392.091	6940.07
392.537	6693.78
392.983	6694.14
393.428	6567.89
393.874	7028.62
394.319	7034.23
394.765	6639.47
395.21	6810.26
395.655	6371.05
396.101	5957.9
396.546	5355.49
396.991	5392.08
397.436	5003.5
397.881	4829.09
398.326	4563.77
398.771	4310.79
399.216	3757.98
399.661	3377.46
400.106	3355.77
400.551	3430.88
400.995	3078.14
401.44	3054.98
401.885	2869.69
402.329	2902.17
402.774	2780.79
403.218	2690.39
403.663	2594.29
404.107	2667.88
404.551	2687.54
404.995	2464.71
405.44	2368.62
405.884	2405
406.328	2321.47
406.772	2307.13
407.216	2093.2
407.66	2017.44
408.104	1913.03
408.547	1789.23
408.991	1731.65
409.435	1665.36
409.879	1642.28
410.322	1620.45
410.766	1560.85
411.209	1481.79
411.653	1422.96
412.096	1394.73
412.54	1395.79
412.983	1384.03
413.426	1381.95
413.869	1376.29
414.312	1346.15
414.756	1293.68
415.199	1231.66
415.642	1196.54
416.085	1197.02
416.527	1182.86
416.97	1202.09
417.413	1139.37
417.856	1129.65
418.298	1120.45
418.741	1114.1
419.184	1113.91
419.626	1161.34
420.069	1163.42
420.511	1170.54
420.953	1146.22
421.396	1139.31
421.838	1107.41
422.28	1132.99
422.722	1138.99
423.164	1155.19
423.606	1136.15
424.048	1132.81
424.49	1073.92
424.932	1067.39
425.374	1049.43
425.816	1066.17
426.258	1086.53
426.699	1100.27
427.141	1085.34
427.582	1098.77
428.024	1089.43
428.465	1078.87
428.907	1047.43
429.348	1033.63
429.789	1029.98
430.231	1007.17
430.672	1016.47
431.113	988.27
431.554	967.5
431.995	936.54
432.436	899.39
432.877	877.62
433.318	860.8
433.759	855.2
434.2	852.45
434.64	839.93
435.081	837.98
435.522	790.73
435.962	758.74
436.403	739.99
436.843	748.11
437.284	729.28
437.724	706.06
438.164	705.51
438.604	687.98
439.045	660.56
439.485	634.96
439.925	622.02
440.365	606.47
440.805	596.51
441.245	588.52
441.685	565.96
442.125	561.19
442.564	563.04
443.004	548.85
443.444	546.81
443.883	544.6
444.323	536.45
444.762	532.7
445.202	537.74
445.641	548.89
446.081	544.56
446.52	547.78
446.959	540.26
447.398	528.05
447.837	520.71
448.276	509.8
448.716	514.07
449.154	516.59
449.593	503.39
450.032	500.22
450.471	487.88
450.91	486.46
451.349	484.12
451.787	482.35
452.226	488.38
452.664	487.61
453.103	487.23
453.541	485.7
453.98	487.76
454.418	491.4
454.856	485.05
455.295	485.54
455.733	489.38
456.171	491.92
456.609	491.74
457.047	490.9
457.485	499.32
457.923	501.73
458.361	495.31
458.798	495.16
459.236	494.59
459.674	496.96
460.111	498.01
460.549	492.91
460.987	490.26
461.424	488.61
461.862	486
462.299	476.66
462.736	476.3
463.173	477.57
463.611	473.1
464.048	471.94
464.485	475.47
464.922	471.31
465.359	468.65
465.796	467.74
466.233	463.62
466.67	459.78
467.106	459.79
467.543	454.05
467.98	447.8
468.416	435.06
468.853	429.67
469.29	416.66
469.726	412
470.162	401.49
470.599	391.73
471.035	388.11
471.471	379.31
471.907	375.96
472.344	373.93
472.78	375.8
473.216	380.43
473.652	377.58
474.088	377.1
474.523	377.2
474.959	380.9
475.395	378.2
475.831	377.76
476.266	379.01
476.702	378.79
477.138	375.52
477.573	374.49
478.008	373.15
478.444	375.28
478.879	380.05
479.314	381.73
479.75	381.23
480.185	382.56
480.62	384.89
481.055	387.7
481.49	390.83
481.925	396.56
482.36	404.27
482.795	415.47
483.229	425.89
483.664	433.94
484.099	435.69
484.534	443.17
484.968	448.63
485.403	449.51
485.837	448.45
486.271	448.2
486.706	448.85
487.14	442.47
487.574	435.32
488.009	432.04
488.443	428.44
488.877	432.98
489.311	433.66
489.745	438.16
490.179	442.82
490.613	451.94
491.046	454.63
491.48	457.06
491.914	457.8
492.348	460.86
492.781	462.73
493.215	463.08
493.648	462.22
494.082	465.4
494.515	465.23
494.948	469.86
495.382	471.11
495.815	473.34
496.248	476.11
496.681	483.67
497.114	490.07
497.547	495.94
497.98	504.14
498.413	507.7
498.846	513.29
499.279	517.25
499.711	518.38
500.144	518.27
500.577	524.54
501.009	530.22
501.442	534.92
501.874	534.62
502.306	533.58
502.739	538.34
503.171	546.28
503.603	546.3
504.036	550.08
504.468	551.33
504.9	557.11
505.332	558.54
505.764	559.43
506.196	561.28
506.627	568.01
507.059	574.07
507.491	573.82
507.923	570
508.354	576.38
508.786	580.72
509.217	589.36
509.649	594.62
510.08	601.34
510.512	607.24
510.943	612.46
511.374	615.39
511.805	623.65
512.237	631.27
512.668	644.7
513.099	654.82
513.53	665.44
513.961	672.34
514.391	685.79
514.822	701.91
515.253	716.26
515.684	725.53
516.114	736.86
516.545	743.56
516.975	753.22
517.406	757.91
517.836	755.1
518.267	754.65
518.697	760.14
519.127	757.96
519.558	755.38
519.988	753.73
520.418	754.93
520.848	759.22
521.278	759.3
521.708	786.37
522.138	790.09
522.567	801.48
522.997	809.61
523.427	812.28
523.857	817.48
524.286	819.63
524.716	823.69
525.145	830.05
525.575	833.13
526.004	836.16
526.433	807.01
526.863	803.4
527.292	797.14
527.721	798.58
528.15	800.11
528.579	798.18
529.008	801.59
529.437	809.88
529.866	813.71
530.295	819.66
530.724	824.89
531.152	836.58
531.581	842.45
532.01	848.87
532.438	850.03
532.867	854.22
533.295	861.94
533.723	863.17
534.152	861.53
534.58	861.4
535.008	852.31
535.436	853.3
535.865	855.6
536.293	860.64
536.721	866.62
537.149	878.04
537.576	879.07
538.004	883.52
538.432	885.75
538.86	884.33
539.287	886.23
539.715	893.58
540.143	893.48
540.57	890.55
540.998	888.88
541.425	879.05
541.852	869.16
542.28	868.4
542.707	860.72
543.134	854.73
543.561	852.63
543.988	849.34
544.415	847.12
544.842	842.85
545.269	839.91
545.696	840.55
546.123	845.89
546.549	841.17
546.976	835.1
547.403	834.81
547.829	835.06
548.256	835.26
548.682	832.77
549.108	830.48
549.535	830.96
549.961	832.13
550.387	825.61
550.813	824.39
551.24	826.59
551.666	826.63
552.092	822.73
552.518	819.84
552.943	818.27
553.369	822.33
553.795	825.09
554.221	826.5
554.646	826.18
555.072	832.29
555.498	833.41
555.923	838.41
556.349	846
556.774	850.01
557.199	851.88
557.625	855.4
558.05	854.2
558.475	859.4
558.9	859.7
559.325	856.66
559.75	855.4
560.175	853.46
560.6	851.5
561.025	851.77
561.449	854.08
561.874	857.01
562.299	860.78
562.723	864.47
563.148	861.17
563.572	864.29
563.997	869.57
564.421	873.26
564.846	875.49
565.27	879.16
565.694	879.37
566.118	885.86
566.542	892.62
566.966	890.82
567.39	891.17
567.814	888.13
568.238	890.45
568.662	894.64
569.086	896.82
569.509	902.24
569.933	897.68
570.357	896.51
570.78	888.91
571.204	885.17
571.627	881.9
572.05	882.92
572.474	885.84
572.897	880.8
573.32	879.96
573.743	877.75
574.166	871.25
574.589	872.63
575.012	871.11
575.435	872.14
575.858	869.23
576.281	865.62
576.704	859.3
577.126	853.73
577.549	850.5
577.972	847.73
578.394	843.97
578.817	843
579.239	835.08
579.661	830.96
580.084	825.61
580.506	819.84
580.928	819.43
581.35	815.36
581.772	815.38
582.194	810
582.616	803.46
583.038	797.14
583.46	791.59
583.882	791.52
584.303	793.94
584.725	792.26
585.147	797.55
585.568	804.85
585.99	813.39
586.411	817.55
586.833	827.06
587.254	828.93
587.675	837.15
588.096	844.88
588.518	842.39
588.939	834.02
589.36	833.8
589.781	825.84
590.202	813.17
590.623	808.5
591.043	807.59
591.464	801.2
591.885	800.42
592.305	798.57
592.726	792.12
593.147	794.07
593.567	792.43
593.987	788.47
594.408	786.45
594.828	783.42
595.248	781.54
595.669	773.36
596.089	769.43
596.509	765.18
596.929	758.81
597.349	760.24
597.769	754.31
598.189	752.41
598.608	753.9
599.028	755.67
599.448	757
599.867	749.87
600.287	747.54
600.706	746.9
601.126	744.23
601.545	744.56
601.965	743.59
602.384	742
602.803	742.51
603.222	740.72
603.641	737.38
604.061	736.48
604.48	735.39
604.898	740.29
605.317	743.42
605.736	744.6
606.155	743.82
606.574	740.86
606.992	745.08
607.411	744.13
607.829	744.09
608.248	744
608.666	742.63
609.085	743.04
609.503	740.22
609.921	738.59
610.339	741.11
610.758	742.01
611.176	740.53
611.594	736.87
612.012	736.21
612.43	736.36
612.847	740.55
613.265	743.45
613.683	747.98
614.101	749.3
614.518	747.88
614.936	744.4
615.353	736.97
615.771	736.45
616.188	737.79
616.606	737.01
617.023	734.14
617.44	727.58
617.857	724.8
618.274	721.59
618.691	720.56
619.108	716.2
619.525	712.64
619.942	718.04
620.359	720.28
620.776	717.86
621.192	716.74
621.609	716.05
622.026	721.22
622.442	725.12
622.859	726.58
623.275	721.24
623.691	725.22
624.108	731.96
624.524	740.18
624.94	740.31
625.356	746.22
625.772	753.64
626.188	760.1
626.604	760.72
627.02	757.59
627.436	757.3
627.852	763.05
628.268	769.62
628.683	763.79
629.099	759.28
629.514	755.93
629.93	757.59
630.345	759.42
630.761	756.37
631.176	758.37
631.591	756.36
632.007	752.58
632.422	751.18
632.837	744.87
633.252	745.44
633.667	739.74
634.082	735.35
634.497	729.92
634.911	721.26
635.326	721.76
635.741	712.55
636.155	706.87
636.57	709.75
636.984	710.61
637.399	713.66
637.813	713.63
638.228	714.29
638.642	717.84
639.056	712.51
639.47	712.97
639.884	707.86
640.298	705.92
640.712	707.1
641.126	699.72
641.54	695.68
641.954	692.29
642.368	687.25
642.781	686.54
643.195	677.82
643.609	680.04
644.022	678.4
644.436	678.03
644.849	672.04
645.262	665.98
645.676	668.12
646.089	666.85
646.502	660.72
646.915	658.91
647.328	648.47
647.741	649.17
648.154	642.13
648.567	643.42
648.98	636.92
649.393	638.28
649.805	638.24
650.218	635.3
650.631	627.14
651.043	624.53
651.456	621.71
651.868	622.47
652.28	634.3
652.693	642.96
653.105	645.45
653.517	651.8
653.929	652.88
654.341	657.04
654.753	650.51
655.165	653.8
655.577	653.11
655.989	651.06
656.401	646.85
656.813	624.76
657.224	614.46
657.636	597.85
658.047	587.7
658.459	576.43
658.87	570.47
659.282	564.01
659.693	553.06
660.104	544.92
660.515	538.36
660.926	539.38
661.338	538.41
661.749	533.76
662.159	529.82
662.57	527.59
662.981	526.17
663.392	522.27
663.803	524.95
664.213	522.96
664.624	519.68
665.035	520.57
665.445	510.58
665.855	506.07
666.266	502.97
666.676	501.55
667.086	495.73
667.497	494.51
667.907	490.85
668.317	484.89
668.727	484.65
669.137	484.59
669.547	483.34
669.956	484.35
670.366	485.53
670.776	485.85
671.186	486.89
671.595	488.86
672.005	490.56
672.414	490.07
672.824	488.92
673.233	489.68
673.642	490.68
674.052	491.82
674.461	492.24
674.87	492.96
675.279	490.64
675.688	489.72
676.097	489.78
676.506	486.23
676.915	493.91
677.323	495.26
677.732	492.38
678.141	491.4
678.549	483.43
678.958	481.4
679.366	481.61
679.775	483.57
680.183	491.49
680.592	494.62
681	498.65
681.408	494.14
681.816	497.58
682.224	503.61
682.632	510.73
683.04	528.72
683.448	544.03
683.856	561.4
684.264	581.05
684.671	597.79
685.079	620.41
685.487	645.44
685.894	680.51
686.302	707.21
686.709	729.76
687.116	753.44
687.524	773.04
687.931	788.71
688.338	800.45
688.745	808.28
689.152	818.65
689.559	835
689.966	849.18
690.373	850.16
690.78	863.94
691.187	886.62
691.593	901.51
692	910.64
692.407	931.4
692.813	960.85
693.22	979.67
693.626	997.14
694.032	1009.76
694.439	1034.86
694.845	1051.3
695.251	1072.74
695.657	1090.7
696.063	1123.75
696.469	1147.58
696.875	1165.75
697.281	1169.49
697.687	1180.49
698.093	1188.11
698.498	1209.94
698.904	1224.2
699.31	1252.04
699.715	1270.81
700.12	1300.37
700.526	1298.13
700.931	1316.45
701.337	1329.52
701.742	1333.22
702.147	1357.53
702.552	1360.25
702.957	1373.77
703.362	1372.89
703.767	1376.69
704.172	1383.65
704.577	1355.12
704.981	1366.22
705.386	1364.55
705.791	1353.6
706.195	1374.34
706.6	1371.8
707.004	1395.86
707.408	1378.77
707.813	1383.46
708.217	1371.89
708.621	1365.88
709.025	1399
709.43	1393.98
709.834	1412.91
710.237	1434.63
710.641	1424.41
711.045	1426.71
711.449	1419.59
711.853	1428.38
712.256	1437.3
712.66	1446.43
713.064	1470.09
713.467	1480.73
713.87	1516.62
714.274	1528.8
714.677	1563.99
715.08	1618.38
715.484	1674.74
715.887	1745.1
716.29	1805.37
716.693	1876.51
717.096	1956.95
717.499	1997.64
717.901	1999.44
718.304	2003.17
718.707	2005.56
719.109	1963.22
719.512	1945.21
719.915	1896.18
720.317	1870.85
720.719	1884.47
721.122	1870.34
721.524	1849.46
721.926	1835.44
722.328	1867.86
722.731	1862.27
723.133	1868.52
723.535	1933.9
723.937	1939.97
724.338	1954.86
724.74	1967.71
725.142	1991.38
725.544	1990.08
725.945	2008.97
726.347	2002.3
726.748	1998.24
727.15	2001.89
727.551	1989.88
727.952	1976.1
728.354	1962.92
728.755	1958.29
729.156	1940.09
729.557	1886.98
729.958	1840.03
730.359	1808.04
730.76	1799.81
731.161	1777.81
731.562	1765.53
731.962	1763.1
732.363	1740.13
732.763	1717.7
733.164	1729.53
733.564	1705.68
733.965	1673.65
734.365	1662.41
734.766	1670.35
735.166	1655.9
735.566	1635.94
735.966	1628.3
736.366	1625.43
736.766	1604.83
737.166	1615.12
737.566	1600.7
737.966	1591.8
738.365	1604.72
738.765	1602.47
739.165	1576.79
739.564	1567.75
739.964	1581.2
740.363	1562.73
740.763	1559.91
741.162	1555.44
741.561	1543.49
741.96	1526.93
742.36	1531.49
742.759	1530.71
743.158	1541.06
743.557	1546.12
743.955	1557.9
744.354	1543.14
744.753	1562.05
745.152	1549.12
745.55	1566.88
745.949	1563.64
746.348	1564.8
746.746	1568.69
747.144	1557.48
747.543	1549.96
747.941	1563.83
748.339	1540.68
748.737	1538.44
749.136	1535.93
749.534	1555.05
749.932	1546.96
750.33	1555.26
750.727	1572.04
751.125	1566.37
751.523	1560.63
751.921	1577.76
752.318	1568.38
752.716	1589.87
753.113	1592.52
753.511	1599.07
753.908	1600.83
754.305	1598.81
754.703	1618.95
755.1	1638.23
755.497	1656.01
755.894	1716.12
756.291	1770.3
756.688	1878.72
757.085	2018.64
757.482	2218.27
757.878	2441.01
758.275	2636.61
758.672	2896.53
759.068	3113.27
759.465	3427.98
759.861	3834.75
760.258	4301.24
760.654	4544.39
761.05	4502.44
761.447	4294.05
761.843	4004.49
762.239	3697.21
762.635	3560.71
763.031	3426.94
763.427	3241.62
763.822	3041.89
764.218	2845.02
764.614	2587.96
765.01	2417.81
765.405	2307.61
765.801	2225.2
766.196	2116.27
766.592	2055.3
766.987	1953.54
767.382	1887.35
767.778	1858.83
768.173	1817.17
768.568	1792.81
768.963	1754.36
769.358	1759.32
769.753	1743.62
770.148	1714.92
770.542	1714.78
770.937	1704.4
771.332	1736.43
771.726	1741.71
772.121	1723.05
772.515	1740.4
772.91	1735.37
773.304	1759.22
773.699	1737.56
774.093	1755.46
774.487	1775.83
774.881	1790.52
775.275	1791.14
775.669	1775.13
776.063	1790.27
776.457	1801.31
776.851	1776.59
777.245	1775.95
777.638	1786.77
778.032	1824.98
778.425	1813.37
778.819	1830.12
779.212	1817.76
779.606	1806.1
779.999	1812.82
780.392	1808.22
780.786	1830.47
781.179	1837.53
781.572	1852.48
781.965	1854.96
782.358	1837.46
782.751	1854.68
783.143	1835.05
783.536	1857.87
783.929	1868.85
784.322	1906.12
784.714	1913.86
785.107	1913.83
785.499	1938.07
785.891	1931.31
786.284	1924.6
786.676	1970.34
787.068	1968.31
787.46	1984.42
787.852	1990.06
788.245	2017.23
788.636	2025.25
789.028	2051.33
789.42	2066.73
789.812	2068.38
790.204	2094.78
790.595	2129.85
790.987	2064.86
791.378	2068.62
791.77	2110.39
792.161	2153.16
792.553	2172.19
792.944	2135.43
793.335	2109.63
793.726	2132.02
794.117	2164.31
794.508	2209.8
794.899	2197.89
795.29	2241.98
795.681	2260.18
796.072	2215.11
796.463	2173.62
796.853	2180.52
797.244	2235.13
797.634	2248.01
798.025	2246.32
798.415	2246.16
798.806	2279
799.196	2307.88
799.586	2329.56
799.976	2318.92
800.366	2393.5
800.756	2451.71
801.146	2439.04
801.536	2447.04
801.926	2469.1
802.316	2478.85
802.706	2501.64
803.095	2459.23
803.485	2491.71
803.874	2499.77
804.264	2579.67
804.653	2571.88
805.043	2622.47
805.432	2658.04
805.821	2659.97
806.21	2667.75
806.599	2704.87
806.988	2722.75
807.377	2755.19
807.766	2794.82
808.155	2886.45
808.544	2801.8
808.933	2805.76
809.321	2798.64
809.71	2886.63
810.098	2934.68
810.487	3081.4
810.875	3232.95
811.264	3236.14
811.652	3339.91
812.04	3388.29
812.428	3443.49
812.816	3688.08
813.204	3822.62
813.592	3993.81
813.98	4102.19
814.368	4082.11
814.756	4236.48
815.144	4212.45
815.531	4366.77
815.919	4327.92
816.306	4427.08
816.694	4322.48
817.081	4340.37
817.469	4456.49
817.856	4456.34
818.243	4541.68
818.63	4653.36
819.017	4518.6
819.404	4543.55
819.791	4657.52
820.178	4855.1
820.565	4937.48
820.952	5250.92
821.339	5092.66
821.725	5148.2
822.112	4911.65
822.498	4900.9
822.885	4941.73
823.271	4910.89
823.657	5036.84
824.044	5044.16
824.43	5065.85
824.816	5059.45
825.202	4910.12
825.588	5231.27
825.974	5237.44
826.36	5402.1
826.746	5411.76
827.132	5527.51
827.517	5522.23
827.903	5274.76
828.289	5292.04
828.674	5046
829.06	5008.35
829.445	5135.38
829.83	5251.86
830.216	5397.25
830.601	5517.38
830.986	5389.64
831.371	5344.52
831.756	5521.54
832.141	5388.07
832.526	5380.14
832.911	5469.51
833.295	5431.53
833.68	5576.11
834.065	5379.66
834.449	5088.1
834.834	5061.31
835.218	5055.87
835.603	5164.93
835.987	5092.04
836.371	5350.81
836.755	5316.35
837.139	5435.03
837.524	5508.77
837.908	5448.18
838.291	5469.38
838.675	5491.14
839.059	5553.8
839.443	5547.9
839.827	5474.1
840.21	5625.64
840.594	5582.26
840.977	5649.69
841.361	5645.73
841.744	5761.5
842.127	5717.45
842.511	5790.78
842.894	5974.42
843.277	6097.85
843.66	6270.16
844.043	6297.97
844.426	6046.42
844.809	5938.07
845.191	5946.81
845.574	5804.5
845.957	5692.19
846.339	5659.86
846.722	5493.01
847.104	5510.78
847.487	5447.6
847.869	5453.33
848.252	5539.82
848.634	5642.63
849.016	5727.23
849.398	5761.81
849.78	6027.15
850.162	6027.54
850.544	6153.57
850.926	6346.39
851.307	6321.14
851.689	6413.17
852.071	6548.54
852.452	6648.53
852.834	6643.03
853.215	6770
853.597	6818.17
853.978	6916.37
854.359	7064.34
854.741	6752.07
855.122	6723.02
855.503	6636.4
855.884	6686.15
856.265	6673.53
856.646	6703.09
857.026	6583.93
857.407	6565.43
857.788	6619.01
858.169	6704.76
858.549	6434.14
858.93	6628.21
859.31	6644.57
859.69	6713.47
860.071	6576.36
860.451	6504.2
860.831	6274.31
861.211	6624.27
861.591	6793.14
861.971	6784.13
862.351	6844.25
862.731	6957.22
863.111	7041.74
863.491	7147.26
863.87	7422.78
864.25	7532.12
864.629	7405.55
865.009	7563.67
865.388	7845.89
865.768	8404.49
866.147	8371.16
866.526	7909.83
866.905	8009.66
867.284	8450.91
867.663	8017.03
868.042	7687.62
868.421	7666.41
868.8	7790.68
869.179	7874.1
869.558	7413.15
869.936	6837.56
870.315	6949.03
870.693	7122.58
871.072	7670.55
871.45	7312.48
871.828	7413.57
872.207	7786.88
872.585	7671.17
872.963	7882.93
873.341	7618.92
873.719	7540.26
874.097	7451.06
874.475	7597.75
874.853	7766.65
875.23	7458.74
875.608	7770.27
875.986	8399.96
876.363	8030.58
876.741	8281.91
877.118	8073.86
877.495	8471.7
877.873	8599.15
878.25	9049.31
878.627	8688.75
879.004	8807.49
879.381	8748.35
879.758	8527.57
880.135	7934.19
880.512	8391.12
880.889	8152.29
881.265	8069.86
881.642	7985.78
882.019	8116.22
882.395	7960.97
882.772	8280
883.148	7928.39
883.524	7901.2
883.901	7855.43
884.277	7973.8
884.653	7922.41
885.029	8163.31
885.405	9054.97
885.781	8987.89
886.157	8621.65
886.532	8711.39
886.908	8700.44
887.284	9661.06
887.659	9977.44
888.035	10277.62
888.411	10548.05
888.786	10688.95
889.161	11044.63
889.537	10825.7
889.912	11176.77
890.287	11164.07
890.662	11453.67
891.037	11236.39
891.412	10477.5
891.787	10370.18
892.162	10016.28
892.536	10251.36
892.911	9865.23
893.286	9654.99
893.66	9264.39
894.035	9496.52
894.409	10329.91
894.784	9918.15
895.158	10084.7
895.532	10687.37
895.906	10979.79
896.281	11233.5
896.655	11058.06
897.029	12635.04
897.402	13162.09
897.776	14643.55
898.15	14590.5
898.524	14438.64
898.898	14618.86
899.271	16363.67
899.645	14181.43
900.018	13617.05
900.392	14117.27
900.765	14224.44
901.138	13172.22
901.511	12964.4
901.884	11916.85
902.258	11004.93
902.631	11375.44
903.003	13085.1
903.376	11814.25
903.749	13243.66
904.122	14159.94
904.495	15583.03
904.867	15755.91
905.24	13666.52
905.612	12724.86
905.985	12984.67
906.357	13576.97
906.729	12958.92
907.102	11086.81
907.474	10670.68
907.846	10745.26
908.218	10617.76
908.59	9398.3
908.962	9095.19
909.334	9802.87
909.705	10309.84
910.077	10021.11
910.449	10419.01
910.82	10722.85
911.192	11798.24
911.563	12258.65
911.935	13081.12
912.306	13105.49
912.677	13512.3
913.048	13396.14
913.419	14527.64
913.79	14608.8
914.161	15659.57
914.532	14988.35
914.903	13753.55
915.274	13063.55
915.645	12872.55
916.015	11343.91
916.386	10815.33
916.756	11519.55
917.127	11868.99
917.497	10622.41
917.868	11561.27
918.238	10985.67
918.608	11292.42
918.978	11542.94
919.348	12206.55
919.718	12604.94
920.088	12146.84
920.458	12626.36
920.828	13267.17
921.198	12570.57
921.567	13396.36
921.937	10375.33
922.306	10475.43
922.676	11291.2
923.045	9428.81
923.415	8967.29
923.784	8162.64
924.153	8401.64
924.522	8397.56
924.891	7899.69
925.26	8464.63
925.629	8263.66
925.998	9486.44
926.367	9263.02
926.736	8843.3
927.104	10515.61
927.473	11295.11
927.842	13648.8
928.21	13498.61
928.578	14148.6
928.947	13387.25
929.315	13502.01
929.683	15861.96
930.051	16017.85
930.42	18585.8
930.788	15876.53
931.156	15763.4
931.523	14803.32
931.891	13683.76
932.259	13141.06
932.627	15246.9
932.994	21554.77
933.362	17806.8
933.729	15424.2
934.097	14751.1
934.464	12510.96
934.831	14400.24
935.199	14167.64
935.566	13742.49
935.933	13986.8
936.3	16963.08
936.667	13206.89
937.034	11979.27
937.401	11822.75
937.767	10221.71
938.134	9102.03
938.501	12804.12
938.867	13662.31
939.234	23084.01
939.6	19632.81
939.967	21500.91
940.333	14368.56
940.699	12213.04
941.065	9719.23
941.431	12762
941.798	12347.95
942.163	16197.22
942.529	10111.48
942.895	9310.82
943.261	6041.74
943.627	7962.22
943.992	6963.32
944.358	6971
944.723	7033.21
945.089	6853.54
945.454	6332.01
945.82	6721.15
946.185	6451.12
946.55	7501.19
946.915	6733.41
947.28	7918.12
947.645	6943.57
948.01	6431.4
948.375	6718.02
948.74	8023.94
949.104	9367.29
949.469	13462.97
949.834	23914.9
950.198	22833.48
950.562	13676.15
950.927	11387.68
951.291	13675.08
951.655	11650.55
952.02	10885.93
952.384	8245.04
952.748	7180.85
953.112	7051.84
953.476	6147.5
953.839	5667.3
954.203	5604.21
954.567	7000.57
954.931	10967.16
955.294	9394.76
955.658	9449.34
956.021	16065.5
956.385	27145.65
956.748	40150.91
957.111	61960.26
957.474	69638.68
957.837	78373.25
958.2	59085.36
958.563	21255.88
958.926	14457.96
959.289	21934.62
959.652	24560.11
960.015	18511.83
960.377	26564.96
960.74	30273.26
961.102	52018.22
961.465	56036.07
961.827	30438.19
962.189	58503.18
962.552	40644.14
962.914	32483.23
963.276	21076.88
963.638	17390.48
964	17145.93
964.362	11646.18
964.724	11236.55
965.085	8050.68
965.447	6589.69
965.809	7416.49
966.17	7394.16
966.532	7968.48
966.893	7326.83
967.255	6662.49
967.616	7843.83
967.977	6319.31
968.338	6885.42
968.699	5687.89
969.061	5678.33
969.421	5726.11
969.782	6413.9
970.143	5451.48
970.504	5695.92
970.865	6487.91
971.225	6661.14
971.586	6537.65
971.946	9253.57
972.307	8029.09
972.667	10450.63
973.027	10761.43
973.388	13043.16
973.748	8902.92
974.108	9670.75
974.468	12979.23
974.828	10037.07
975.188	7686.45
975.548	7048.97
975.907	5945.4
976.267	6661.38
976.627	5627.98
976.986	5829.59
977.346	5540.39
977.705	5334.76
978.064	4858.17
978.424	4061.96
978.783	4165.37
979.142	4764.18
979.501	4588.06
979.86	4862.6
980.219	4690.81
980.578	6020.4
980.937	6721.08
981.296	5995.24
981.654	6154.93
982.013	9545.01
982.371	12370.87
982.73	11591.17
983.088	13107.11
983.447	13950
983.805	19910.51
984.163	41438.6
984.521	45996.23
984.879	67379.67
985.237	-109840.4
985.595	105895.04
985.953	26294.73
986.311	15136.09
986.669	8770.47
987.026	7565.71
987.384	10108.8
987.741	10410.51
988.099	7537.71
988.456	6014.38
988.814	5684.32
989.171	4929.81
989.528	4847.91
989.885	5144
990.242	4080.55
990.599	5059.62
990.956	4120.06
991.313	2887.09
991.67	2373.85
992.027	2548.13
992.383	2274.4
992.74	1998.34
993.096	2107.96
993.453	2187.24
993.809	2257.08
994.165	3016.22
994.522	2823.66
994.878	3130.25
995.234	3927.86
995.59	3852.21
995.946	3564.47
996.302	4052.25
996.658	4642.75
997.013	5107.58
997.369	6076.37
997.725	7826.62
998.08	5037.95
998.436	7659.08
998.791	10555.32
999.147	10591.28
999.502	11621.78
999.857	8373.08
1000.212	13646.47
1000.567	19540.38
1000.922	11237.37
1001.277	7162.43
1001.632	5292.82
1001.987	6838.55
1002.342	4896.53
1002.696	3905.57
1003.051	3114.24
1003.406	3768.33
1003.76	3792.87
1004.114	3724.71
1004.469	3137.5
1004.823	2598.88
1005.177	2779.47
1005.531	2200.93
1005.885	1973.41
1006.239	2225.46
1006.593	2801.77
1006.947	3771.5
1007.301	2824.18
1007.655	3077.89
1008.008	2284.98
1008.362	2572.08
1008.715	3655.89
1009.069	3325.12
1009.422	5060.27
1009.776	10006.71
1010.129	6632.59
1010.482	5500.79
1010.835	4592.74
1011.188	9540.54
1011.541	8969.41
1011.894	-53846.16
1012.247	157417.47
1012.6	10747.58
1012.952	6798.55
1013.305	3442.46
1013.657	2498.02
1014.01	2357.51
1014.362	1940.92
1014.715	1784.27
1015.067	1579.23
1015.419	1549.83
1015.771	1391.14
1016.123	1252.13
1016.475	1283.22
1016.827	1357.94
1017.179	1481.89
1017.531	1485.29
1017.883	1503.37
1018.234	1505.26
1018.586	1863.24
1018.938	2001.18
1019.289	2753.87
1019.64	3112.83
1019.992	2865.97
1020.343	2600.37
1020.694	2095.12
1021.045	1839.95
1021.396	2095.22
1021.747	2272.5
1022.098	2643.68
1022.449	1922.2
1022.8	1763.47
1023.151	1250.97
1023.501	1139.64
1023.852	1220.02
1024.202	1297.61
1024.553	1407.54
1024.903	1405.67
1025.253	1233.03
1025.604	1130.35
1025.954	1398.49
1026.304	1664.6
1026.654	1899.84
1027.004	2707.48
1027.354	4228.12
1027.703	4090.04
1028.053	5239.1
1028.403	7733.94
1028.753	10629.39
1029.102	13940.29
1029.452	69155.49
1029.801	2971.67
1030.15	1937.82
1030.499	1624.95
897.758	2646.43
901.051	2603.44
904.343	2637.93
907.636	2638.47
910.928	2702.76
914.22	2611.4
917.511	2619
920.803	2678.51
924.094	2698.25
927.384	2679.7
930.675	2642.02
933.965	2595.56
937.255	2605.02
940.544	2570.91
943.834	2515.85
947.123	2458.18
950.411	2555.46
953.7	2526.59
956.988	2497.81
960.276	2436.23
963.563	2512.89
966.851	2507.89
970.138	2564.01
973.424	2558.12
976.711	2508.48
979.997	2631.14
983.283	2667.96
986.568	2572.9
989.853	2587.11
993.138	2614.27
996.423	2695.19
999.708	2634.51
1002.992	2697.31
1006.275	2540.65
1009.559	2577.99
1012.842	2691.85
1016.125	2624.44
1019.408	2602.49
1022.69	2685.82
1025.972	2703.28
1029.254	2677.69
1032.536	2611.48
1035.817	2635.69
1039.098	2581.07
1042.379	2714.74
1045.659	2715.3
1048.939	2650.54
1052.219	2668.21
1055.498	2678.2
1058.778	2664.51
1062.057	2646.28
1065.335	2665.41
1068.614	2684.46
1071.892	2664.35
1075.17	2738.78
1078.447	2728.07
1081.724	2720.09
1085.001	2751.89
1088.278	2726.7
1091.554	2736.23
1094.83	2730.77
1098.106	2759.86
1101.382	2804.12
1104.657	2801.08
1107.932	2797.82
1111.206	2760.26
1114.481	2719.16
1117.755	2719.84
1121.029	2699.58
1124.302	2753.92
1127.575	2708
1130.848	2695.07
1134.121	2657.5
1137.393	2604.56
1140.665	2671.29
1143.937	2647.48
1147.208	2607.63
1150.48	2643.23
1153.75	2632.92
1157.021	2662.32
1160.291	2629.57
1163.561	2673.02
1166.831	2663.91
1170.101	2692.19
1173.37	2668.61
1176.639	2613.13
1179.907	2670.01
1183.176	2678.03
1186.444	2685.33
1189.711	2711.71
1192.979	2724.23
1196.246	2684.51
1199.513	2698.31
1202.78	2699.54
1206.046	2709.04
1209.312	2731.14
1212.578	2756.01
1215.843	2711.14
1219.108	2685.62
1222.373	2710.26
1225.638	2676.13
1228.902	2660.61
1232.166	2624.37
1235.43	2612.44
1238.693	2632.57
1241.956	2631.52
1245.219	2675.22
1248.482	2666.07
1251.744	2661.68
1255.006	2807.26
1258.268	2761.35
1261.529	2705.06
1264.79	2710.26
1268.051	2811.6
1271.312	2825.89
1274.572	2788.05
1277.832	2774.38
1281.092	2764.64
1284.351	2738.66
1287.61	2716.81
1290.869	2633.11
1294.128	2609.61
1297.386	2698.25
1300.644	2685.45
1303.902	2700.86
1307.159	2560.64
1310.416	2616.24
1313.673	2643.54
1316.93	2628.13
1320.186	2673.87
1323.442	2714.65
1326.697	2703.68
1329.953	2698.45
1333.208	2719.43
1336.463	2704.26
1339.717	2644.08
1342.972	2779.23
1346.226	2757.16
1349.479	2691.68
1352.733	2664.24
1355.986	2688.79
1359.238	2666.05
1362.491	2672.64
1365.743	2674.69
1368.995	2669.66
1372.247	2685.35
1375.498	2710.11
1378.749	2726.41
1382	2685.57
1385.251	2737.66
1388.501	2699.77
1391.751	2683.97
1395	2662.13
1398.25	2693.69
1401.499	2702.92
1404.748	2635.63
1407.996	2625.12
1411.244	2613.5
1414.492	2597.22
1417.74	2572.55
1420.987	2584.3
1424.234	2645.11
1427.481	2623.24
1430.728	2679.47
1433.974	2655.81
1437.22	2669.79
1440.465	2670.02
1443.711	2636.67
1446.956	2669.71
1450.201	2653.49
1453.445	2702.61
1456.689	2680.93
1459.933	2691.92
1463.177	2724.82
1466.42	2694.77
1469.663	2675.94
1472.906	2670.69
1476.148	2740.39
1479.391	2708.58
1482.633	2675.17
1485.874	2686.36
1489.115	2670.26
1492.356	2673.57
1495.597	2644.84
1498.838	2645.31
1502.078	2616.26
1505.318	2564.59
1508.557	2604.19
1511.797	2582.96
1515.036	2642.32
1518.274	2632.34
1521.513	2605.05
1524.751	2623.35
1527.989	2633.33
1531.227	2647.86
1534.464	2641.69
1537.701	2657.97
1540.938	2674.99
1544.174	2629.86
1547.41	2624.06
1550.646	2660.27
1553.882	2695.51
1557.117	2744.23
1560.352	2759.61
1563.587	2717.59
1566.821	2678.52
1570.055	2710.09
1573.289	2679.83
1576.523	2754.75
1579.756	2758.07
1582.989	2775.1
1586.222	2735.7
1589.454	2773.5
1592.686	2744.64
1595.918	2768.48
1599.15	2755.54
1602.381	2828.79
1605.612	2784.05
1608.843	2878.8
1612.073	2792.41
1615.303	2776.74
1618.533	2772.07
1621.762	2774.31
1624.992	2758.48
1628.221	2745.12
1631.449	2730.85
1634.678	2787.85
1637.906	2738.84
1641.134	2778.69
1644.361	2734.39
1647.588	2725.3
1650.815	2743.29
1654.042	2718.87
1657.269	2749.02
1660.495	2703.57
1663.72	2727.56
1666.946	2692.85
1670.171	2636.75
1673.396	2617.52
1676.621	2602.27
1679.845	2623.55
1683.069	2638.07
1686.293	2681.84
1689.517	2655
1692.74	2586.51
1695.963	2616.03
1699.185	2629.36
1702.408	2607.02
1705.63	2647.17
1708.852	2655.25
1712.073	2631.36
1715.294	2616.91
1718.515	2679.99
1721.736	2626.63
1724.956	2623.02
1728.176	2649.96
1731.396	2672.14
1734.616	2660.09
1737.835	2686.17
1741.054	2668.36
1744.272	2662.88
1747.491	2695.16
1750.709	2749.05
1753.927	2657.82
1757.144	2701.75
1760.361	2744.97
1763.578	2734.54
1766.795	2678.16
1770.011	2687.98
1773.227	2727.23
1776.443	2762.15
1779.658	2807.4
1782.874	2751.45
1786.089	2729.91
1789.303	2732.28
1792.518	2738.18
1795.732	2724.27
1798.945	2737.11
1802.159	2784.72
1805.372	2691.14
1808.585	2679.83
1811.797	2678.46
1815.01	2728.96
1818.222	2732.09
1821.434	2716.16
1824.645	2771.96
1827.856	2759.97
1831.067	2796.14
1834.278	2751.26
1837.488	2738.54
1840.698	2885.08
1843.908	2809
1847.117	2777.88
1850.326	2665.2
1853.535	2767.35
1856.744	2784.91
1859.952	2703.64
1863.16	2706.9
1866.368	2731.76
1869.575	2836.48
1872.782	2724.78
1875.989	2664.83
1879.196	2753.68
1882.402	2746.68
1885.608	2791.48
1888.814	2697.47
1892.019	2595.05
1895.224	2650.43
1898.429	2629.01
1901.634	2609.05
1904.838	2590.83
1908.042	2643.91
1911.246	2651.92
1914.449	2581.49
1917.652	2578.6
1920.855	2558.97
1924.058	2607.4
1927.26	2644.59
1930.462	2671.82
1933.664	2700.98
1936.865	2640.53
1940.066	2649.85
1943.267	2592.2
1946.467	2608.05
1949.668	2636.4
1952.868	2705.36
1956.067	2682.91
1959.267	2614.71
1962.466	2642.92
1965.665	2627.78
1968.863	2622.8
1972.061	2633.43
1975.259	2630.8
1978.457	2711.03
1981.654	2670.97
1984.852	2668.65
1988.048	2602.3
1991.245	2604.94
1994.441	2693.76
1997.637	2673.79
2000.833	2655.47
2004.028	2694.05
2007.223	2751.06
2010.418	2729.66
2013.613	2688.87
2016.807	2658.86
2020.001	2669.46
2023.194	2710.89
2026.388	2684.45
2029.581	2628.61
2032.774	2682.29
2035.966	2684.87
2039.158	2618.87
2042.35	2645.53
2045.542	2567.81
2048.733	2668.32
2051.924	2690.32
2055.115	2715.18
2058.306	2658.72
2061.496	2720.78
2064.686	2782.51
2067.875	2695.56
2071.065	2709.89
2074.254	2735.44
2077.442	2685.44
2080.631	2780.13
2083.819	2674.5
2087.007	2655.54
2090.195	2625.67
2093.382	2659.52
2096.569	2638.97
2099.756	2593.87
2102.942	2619.98
2106.128	2630.42
2109.314	2621.21
2112.5	2586.78
2115.685	2558.18
2118.87	2568.17
2122.055	2635.06
2125.239	2603.2
2128.424	2577.54
2131.608	2678.5
2134.791	2658.19
2137.974	2714.21
2141.157	2695.75
2144.34	2648.85
2147.523	2663.97
2150.705	2679.35
2153.887	2659.58
2157.068	2609.68
2160.25	2608.05
2163.431	2646.16
2166.611	2591.24
2169.792	2609.64
2172.972	2503.71
2176.152	2583.74
2179.331	2618.82
2182.511	2601.16
2185.69	2630.88
2188.868	2625.26
2192.047	2677.54
2195.225	2672.39
2198.403	2622.63
2201.58	2616.13
2204.758	2610.13
2207.935	2694.36
2211.111	2585.36
2214.288	2568.71
2217.464	2608.93
2220.64	2576.9
2223.815	2633.58
2226.991	2557.1
2230.166	2577.72
2233.34	2609.23
2236.515	2634.29
2239.689	2707.59
2242.863	2649.28
2246.036	2704.51
2249.209	2705.24
2252.382	2737.56
2255.555	2727.07
2258.727	2663.7
2261.9	2704.28
2265.071	2693.81
2268.243	2694.23
2271.414	2627.18
2274.585	2591.98
2277.756	2661.13
2280.926	2617.95
2284.096	2655.26
2287.266	2565.73
2290.436	2621.59
2293.605	2648.58
2296.774	2680.95
2299.942	2704.03
2303.111	2718.98
2306.279	2770.15
2309.447	2752.03
2312.614	2728.45
2315.781	2745.72
2318.948	2719.16
2322.115	2755.24
2325.281	2657.64
2328.447	2679.62
2331.613	2651.2
2334.779	2623.14
2337.944	2628.99
2341.109	2627.08
2344.274	2612.7
2347.438	2574.03
2350.602	2600.03
2353.766	2615.15
2356.929	2602.43
2360.092	2643.17
2363.255	2595.52
2366.418	2531.57
2369.58	2643.47
2372.742	2432.38
2375.904	2444.52
2379.066	2421.18
2382.227	2459.21
2385.388	2421.16
2388.548	2347.36
2391.709	2402.54
2394.869	2385.9
2398.029	2482.28
2401.188	2490.52
2404.347	2425.3
2407.506	2567.87
2410.665	2597.29
2413.823	2601.76
2416.981	2560.62
2420.139	2591.55
2423.296	2642.67
2426.453	2615.42
2429.61	2634.33
2432.767	2571.04
2435.923	2615.7
2439.079	2575.83
2442.235	2622.1
2445.391	2549.95
2448.546	2579.86
2451.701	2625.98
2454.855	2601.07
2458.009	2652.05
2461.163	2650.38
2464.317	2615.13
2467.471	2645.21
2470.624	2682.32
2473.777	2654.76
2476.929	2669.36
2480.082	2693.9
2483.234	2659.18
2486.385	2615.12
2489.537	2605.81
2492.688	2570.06
2495.839	2589.93
2498.989	2600.22
2502.14	2586.57
2505.29	2569.99
2508.439	2596.43
2511.589	2518.87
2514.738	2529.69
2517.887	2559.02
2521.035	2627.04
2524.183	2607.8
2527.331	2587.25
2530.479	2562.24
2533.627	2571.96
